
Integration time [ms]:   0.300
Averaging Nr. [scans]: 1
Smoothing Nr. [pixels]: 0
Data measured with spectrometer [name]: UV2
Wave   ;Sample   ;Dark     ;Reference
[nm]   ;[counts] ;[counts] ;[counts] 

353.533;  206.825;  235.675;    0.000
353.597;  245.825;  239.675;    0.000
353.660;  219.825;  203.675;    0.000
353.723;  232.825;  225.675;    0.000
353.786;  219.825;  178.675;    0.000
353.850;  191.825;  199.675;    0.000
353.913;  183.825;  179.675;    0.000
353.976;  224.825;  209.675;    0.000
354.039;  168.825;  188.675;    0.000
354.102;  212.825;  219.675;    0.000
354.166;  228.825;  237.675;    0.000
354.229;  238.825;  179.675;    0.000
354.292;  200.825;  210.675;    0.000
354.355;  206.825;  214.675;    0.000
354.418;  182.825;  173.675;    0.000
354.481;  206.825;  170.675;    0.000
354.545;  771.825;  229.675;    0.000
354.608;  820.825;  233.675;    0.000
354.671;  795.825;  183.675;    0.000
354.734;  857.825;  208.675;    0.000
354.797;  903.825;  263.675;    0.000
354.860;  900.825;  208.675;    0.000
354.923;  832.825;  202.675;    0.000
354.986;  906.825;  207.675;    0.000
355.050;  917.825;  180.675;    0.000
355.113;  926.825;  189.675;    0.000
355.176;  958.825;  214.675;    0.000
355.239; 1000.825;  199.675;    0.000
355.302;  967.825;  229.675;    0.000
355.365;  999.825;  220.675;    0.000
355.428;  943.825;  196.675;    0.000
355.491; 1095.825;  243.675;    0.000
355.554; 1016.825;  191.675;    0.000
355.617; 1074.825;  200.675;    0.000
355.680; 1064.825;  190.675;    0.000
355.743; 1054.825;  236.675;    0.000
355.806; 1064.825;  193.675;    0.000
355.869; 1114.825;  223.675;    0.000
355.932; 1085.825;  208.675;    0.000
355.995; 1086.825;  231.675;    0.000
356.058; 1117.825;  202.675;    0.000
356.121; 1050.825;  198.675;    0.000
356.184; 1187.825;  209.675;    0.000
356.247; 1155.825;  224.675;    0.000
356.310; 1117.825;  149.675;    0.000
356.373; 1213.825;  211.675;    0.000
356.436; 1145.825;  195.675;    0.000
356.498; 1190.825;  176.675;    0.000
356.561; 1128.825;  186.675;    0.000
356.624; 1153.825;  184.675;    0.000
356.687; 1157.825;  179.675;    0.000
356.750; 1161.825;  213.675;    0.000
356.813; 1187.825;  172.675;    0.000
356.876; 1212.825;  189.675;    0.000
356.939; 1235.825;  204.675;    0.000
357.001; 1241.825;  195.675;    0.000
357.064; 1231.825;  202.675;    0.000
357.127; 1194.825;  176.675;    0.000
357.190; 1170.825;  186.675;    0.000
357.253; 1238.825;  178.675;    0.000
357.316; 1315.825;  187.675;    0.000
357.378; 1218.825;  181.675;    0.000
357.441; 1223.825;  142.675;    0.000
357.504; 1251.825;  161.675;    0.000
357.567; 1205.825;  113.675;    0.000
357.629; 1218.825;  193.675;    0.000
357.692; 1167.825;  144.675;    0.000
357.755; 1258.825;  177.675;    0.000
357.818; 1230.825;  144.675;    0.000
357.880; 1351.825;  182.675;    0.000
357.943; 1225.825;  166.675;    0.000
358.006; 1268.825;  184.675;    0.000
358.069; 1283.825;  200.675;    0.000
358.131; 1321.825;  148.675;    0.000
358.194; 1246.825;  155.675;    0.000
358.257; 1241.825;  173.675;    0.000
358.319; 1310.825;  178.675;    0.000
358.382; 1362.825;  184.675;    0.000
358.445; 1251.825;  156.675;    0.000
358.507; 1309.825;  199.675;    0.000
358.570; 1263.825;  182.675;    0.000
358.633; 1329.825;  167.675;    0.000
358.695; 1309.825;  124.675;    0.000
358.758; 1260.825;  164.675;    0.000
358.821; 1273.825;  147.675;    0.000
358.883; 1260.825;  153.675;    0.000
358.946; 1287.825;  171.675;    0.000
359.008; 1357.825;  196.675;    0.000
359.071; 1260.825;  178.675;    0.000
359.134; 1291.825;  123.675;    0.000
359.196; 1292.825;  166.675;    0.000
359.259; 1328.825;  173.675;    0.000
359.321; 1347.825;  164.675;    0.000
359.384; 1398.825;  155.675;    0.000
359.446; 1408.825;  157.675;    0.000
359.509; 1352.825;  153.675;    0.000
359.571; 1394.825;  184.675;    0.000
359.634; 1326.825;  138.675;    0.000
359.696; 1339.825;  169.675;    0.000
359.759; 1332.825;  152.675;    0.000
359.821; 1366.825;  150.675;    0.000
359.884; 1363.825;  166.675;    0.000
359.946; 1413.825;  165.675;    0.000
360.009; 1306.825;  176.675;    0.000
360.071; 1352.825;  148.675;    0.000
360.134; 1375.825;  193.675;    0.000
360.196; 1344.825;  151.675;    0.000
360.259; 1321.825;  182.675;    0.000
360.321; 1331.825;  168.675;    0.000
360.384; 1368.825;  176.675;    0.000
360.446; 1424.825;  156.675;    0.000
360.508; 1428.825;  183.675;    0.000
360.571; 1501.825;  193.675;    0.000
360.633; 1408.825;  184.675;    0.000
360.696; 1388.825;  136.675;    0.000
360.758; 1438.825;  186.675;    0.000
360.820; 1420.825;  127.675;    0.000
360.883; 1423.825;  146.675;    0.000
360.945; 1444.825;  144.675;    0.000
361.007; 1390.825;  160.675;    0.000
361.070; 1367.825;  175.675;    0.000
361.132; 1458.825;  195.675;    0.000
361.194; 1420.825;  167.675;    0.000
361.257; 1452.825;  140.675;    0.000
361.319; 1437.825;  154.675;    0.000
361.381; 1456.825;  181.675;    0.000
361.443; 1439.825;  137.675;    0.000
361.506; 1446.825;  159.675;    0.000
361.568; 1458.825;  144.675;    0.000
361.630; 1461.825;  189.675;    0.000
361.693; 1408.825;  162.675;    0.000
361.755; 1436.825;  156.675;    0.000
361.817; 1553.825;  225.675;    0.000
361.879; 1503.825;  172.675;    0.000
361.941; 1497.825;  138.675;    0.000
362.004; 1532.825;  163.675;    0.000
362.066; 1448.825;  164.675;    0.000
362.128; 1511.825;  160.675;    0.000
362.190; 1492.825;  168.675;    0.000
362.252; 1499.825;  177.675;    0.000
362.315; 1430.825;  169.675;    0.000
362.377; 1426.825;  188.675;    0.000
362.439; 1476.825;  158.675;    0.000
362.501; 1510.825;  168.675;    0.000
362.563; 1486.825;  168.675;    0.000
362.625; 1499.825;  188.675;    0.000
362.688; 1503.825;  162.675;    0.000
362.750; 1540.825;  209.675;    0.000
362.812; 1495.825;  154.675;    0.000
362.874; 1471.825;  190.675;    0.000
362.936; 1510.825;  190.675;    0.000
362.998; 1518.825;  143.675;    0.000
363.060; 1578.825;  186.675;    0.000
363.122; 1590.825;  167.675;    0.000
363.184; 1564.825;  163.675;    0.000
363.246; 1599.825;  169.675;    0.000
363.308; 1565.825;  165.675;    0.000
363.370; 1501.825;  177.675;    0.000
363.432; 1495.825;  139.675;    0.000
363.494; 1534.825;  177.675;    0.000
363.556; 1540.825;  164.675;    0.000
363.618; 1515.825;  170.675;    0.000
363.680; 1477.825;  146.675;    0.000
363.742; 1478.825;  179.675;    0.000
363.804; 1555.825;  188.675;    0.000
363.866; 1512.825;  186.675;    0.000
363.928; 1540.825;  147.675;    0.000
363.990; 1547.825;  185.675;    0.000
364.052; 1597.825;  197.675;    0.000
364.114; 1602.825;  150.675;    0.000
364.176; 1488.825;  217.675;    0.000
364.238; 1568.825;  159.675;    0.000
364.300; 1558.825;  192.675;    0.000
364.362; 1477.825;  130.675;    0.000
364.424; 1549.825;  131.675;    0.000
364.486; 1580.825;  178.675;    0.000
364.548; 1502.825;  203.675;    0.000
364.609; 1577.825;  192.675;    0.000
364.671; 1599.825;  169.675;    0.000
364.733; 1569.825;  169.675;    0.000
364.795; 1592.825;  157.675;    0.000
364.857; 1567.825;  171.675;    0.000
364.919; 1569.825;  134.675;    0.000
364.981; 1580.825;  162.675;    0.000
365.042; 1607.825;  136.675;    0.000
365.104; 1594.825;  152.675;    0.000
365.166; 1592.825;  149.675;    0.000
365.228; 1545.825;  195.675;    0.000
365.290; 1518.825;  147.675;    0.000
365.351; 1536.825;  138.675;    0.000
365.413; 1569.825;  168.675;    0.000
365.475; 1558.825;  150.675;    0.000
365.537; 1619.825;  179.675;    0.000
365.598; 1589.825;  177.675;    0.000
365.660; 1556.825;  149.675;    0.000
365.722; 1529.825;  160.675;    0.000
365.784; 1641.825;  175.675;    0.000
365.845; 1602.825;  149.675;    0.000
365.907; 1587.825;  154.675;    0.000
365.969; 1592.825;  128.675;    0.000
366.030; 1683.825;  176.675;    0.000
366.092; 1691.825;  181.675;    0.000
366.154; 1617.825;  194.675;    0.000
366.215; 1604.825;  149.675;    0.000
366.277; 1604.825;  144.675;    0.000
366.339; 1704.825;  160.675;    0.000
366.400; 1572.825;  144.675;    0.000
366.462; 1587.825;  145.675;    0.000
366.524; 1608.825;  148.675;    0.000
366.585; 1590.825;  128.675;    0.000
366.647; 1588.825;  156.675;    0.000
366.708; 1580.825;  128.675;    0.000
366.770; 1576.825;  188.675;    0.000
366.832; 1588.825;  170.675;    0.000
366.893; 1659.825;  158.675;    0.000
366.955; 1600.825;  150.675;    0.000
367.016; 1618.825;  160.675;    0.000
367.078; 1562.825;  144.675;    0.000
367.139; 1624.825;  109.675;    0.000
367.201; 1558.825;  155.675;    0.000
367.262; 1726.825;  165.675;    0.000
367.324; 1629.825;  180.675;    0.000
367.385; 1605.825;  150.675;    0.000
367.447; 1644.825;  164.675;    0.000
367.508; 1645.825;  137.675;    0.000
367.570; 1687.825;  174.675;    0.000
367.631; 1603.825;  126.675;    0.000
367.693; 1621.825;  153.675;    0.000
367.754; 1656.825;  194.675;    0.000
367.816; 1671.825;  154.675;    0.000
367.877; 1688.825;  183.675;    0.000
367.939; 1754.825;  179.675;    0.000
368.000; 1619.825;  142.675;    0.000
368.062; 1676.825;  147.675;    0.000
368.123; 1646.825;  155.675;    0.000
368.184; 1648.825;  169.675;    0.000
368.246; 1719.825;  145.675;    0.000
368.307; 1672.825;  165.675;    0.000
368.369; 1570.825;  177.675;    0.000
368.430; 1665.825;  161.675;    0.000
368.491; 1720.825;  156.675;    0.000
368.553; 1728.825;  156.675;    0.000
368.614; 1728.825;  186.675;    0.000
368.675; 1689.825;  154.675;    0.000
368.737; 1699.825;  162.675;    0.000
368.798; 1710.825;  202.675;    0.000
368.859; 1792.825;  162.675;    0.000
368.921; 1758.825;  171.675;    0.000
368.982; 1631.825;  193.675;    0.000
369.043; 1620.825;  207.675;    0.000
369.104; 1599.825;  143.675;    0.000
369.166; 1676.825;  203.675;    0.000
369.227; 1701.825;  125.675;    0.000
369.288; 1670.825;  154.675;    0.000
369.349; 1688.825;  187.675;    0.000
369.411; 1732.825;  191.675;    0.000
369.472; 1712.825;  175.675;    0.000
369.533; 1703.825;  180.675;    0.000
369.594; 1715.825;  161.675;    0.000
369.656; 1666.825;  169.675;    0.000
369.717; 1594.825;  103.675;    0.000
369.778; 1762.825;  159.675;    0.000
369.839; 1680.825;  146.675;    0.000
369.900; 1774.825;  218.675;    0.000
369.961; 1665.825;  200.675;    0.000
370.023; 1777.825;  177.675;    0.000
370.084; 1663.825;  149.675;    0.000
370.145; 1678.825;  179.675;    0.000
370.206; 1705.825;  179.675;    0.000
370.267; 1749.825;  166.675;    0.000
370.328; 1689.825;  164.675;    0.000
370.389; 1744.825;  162.675;    0.000
370.451; 1769.825;  179.675;    0.000
370.512; 1715.825;  181.675;    0.000
370.573; 1793.825;  173.675;    0.000
370.634; 1809.825;  162.675;    0.000
370.695; 1764.825;  167.675;    0.000
370.756; 1789.825;  177.675;    0.000
370.817; 1810.825;  178.675;    0.000
370.878; 1799.825;  152.675;    0.000
370.939; 1779.825;  185.675;    0.000
371.000; 1794.825;  173.675;    0.000
371.061; 1721.825;  176.675;    0.000
371.122; 1781.825;  169.675;    0.000
371.183; 1754.825;  116.675;    0.000
371.244; 1824.825;  174.675;    0.000
371.305; 1751.825;  152.675;    0.000
371.366; 1805.825;  168.675;    0.000
371.427; 1745.825;  188.675;    0.000
371.488; 1739.825;  180.675;    0.000
371.549; 1820.825;  145.675;    0.000
371.610; 1770.825;  160.675;    0.000
371.671; 1771.825;  164.675;    0.000
371.732; 1857.825;  158.675;    0.000
371.793; 1824.825;  162.675;    0.000
371.853; 1810.825;  130.675;    0.000
371.914; 1809.825;  172.675;    0.000
371.975; 1864.825;   98.675;    0.000
372.036; 1895.825;  161.675;    0.000
372.097; 1844.825;  143.675;    0.000
372.158; 1787.825;  175.675;    0.000
372.219; 1767.825;  196.675;    0.000
372.280; 1818.825;  175.675;    0.000
372.340; 1852.825;  160.675;    0.000
372.401; 1798.825;  163.675;    0.000
372.462; 1862.825;  147.675;    0.000
372.523; 1796.825;  146.675;    0.000
372.584; 1785.825;  173.675;    0.000
372.645; 1850.825;  126.675;    0.000
372.705; 1883.825;  179.675;    0.000
372.766; 1869.825;  173.675;    0.000
372.827; 1808.825;  171.675;    0.000
372.888; 1829.825;  134.675;    0.000
372.948; 1787.825;  167.675;    0.000
373.009; 1840.825;  167.675;    0.000
373.070; 1773.825;  152.675;    0.000
373.131; 1822.825;  177.675;    0.000
373.191; 1877.825;  225.675;    0.000
373.252; 1832.825;  165.675;    0.000
373.313; 1812.825;  171.675;    0.000
373.373; 1805.825;  160.675;    0.000
373.434; 1885.825;  172.675;    0.000
373.495; 2019.825;  150.675;    0.000
373.555; 1940.825;  130.675;    0.000
373.616; 1818.825;  155.675;    0.000
373.677; 1835.825;  212.675;    0.000
373.737; 1949.825;  188.675;    0.000
373.798; 1816.825;  203.675;    0.000
373.859; 1852.825;  169.675;    0.000
373.919; 1855.825;  197.675;    0.000
373.980; 1804.825;  134.675;    0.000
374.041; 1839.825;  186.675;    0.000
374.101; 1840.825;  207.675;    0.000
374.162; 1890.825;  190.675;    0.000
374.222; 1878.825;  182.675;    0.000
374.283; 1870.825;  213.675;    0.000
374.343; 1912.825;  191.675;    0.000
374.404; 1880.825;  181.675;    0.000
374.465; 1865.825;  193.675;    0.000
374.525; 1981.825;  153.675;    0.000
374.586; 1993.825;  190.675;    0.000
374.646; 1934.825;  173.675;    0.000
374.707; 1912.825;  210.675;    0.000
374.767; 1861.825;  218.675;    0.000
374.828; 1819.825;  174.675;    0.000
374.888; 1989.825;  197.675;    0.000
374.949; 1983.825;  196.675;    0.000
375.009; 2052.825;  169.675;    0.000
375.070; 1893.825;  157.675;    0.000
375.130; 1922.825;  203.675;    0.000
375.190; 1859.825;  174.675;    0.000
375.251; 1950.825;  230.675;    0.000
375.311; 1928.825;  198.675;    0.000
375.372; 1947.825;  160.675;    0.000
375.432; 2047.825;  169.675;    0.000
375.493; 1894.825;  159.675;    0.000
375.553; 1921.825;  179.675;    0.000
375.613; 1898.825;  157.675;    0.000
375.674; 1942.825;  174.675;    0.000
375.734; 2022.825;  180.675;    0.000
375.794; 1991.825;  175.675;    0.000
375.855; 1921.825;  193.675;    0.000
375.915; 1993.825;  148.675;    0.000
375.975; 1891.825;  183.675;    0.000
376.036; 1917.825;  144.675;    0.000
376.096; 1920.825;  195.675;    0.000
376.156; 1917.825;  200.675;    0.000
376.217; 1857.825;  160.675;    0.000
376.277; 1966.825;  193.675;    0.000
376.337; 1895.825;  168.675;    0.000
376.398; 1964.825;  183.675;    0.000
376.458; 1941.825;  168.675;    0.000
376.518; 1915.825;  184.675;    0.000
376.578; 1867.825;  176.675;    0.000
376.639; 1902.825;  158.675;    0.000
376.699; 1892.825;  157.675;    0.000
376.759; 1873.825;  184.675;    0.000
376.819; 1906.825;  166.675;    0.000
376.880; 1970.825;  220.675;    0.000
376.940; 1861.825;  195.675;    0.000
377.000; 1900.825;  178.675;    0.000
377.060; 1915.825;  212.675;    0.000
377.120; 1929.825;  161.675;    0.000
377.180; 1939.825;  168.675;    0.000
377.241; 1915.825;  167.675;    0.000
377.301; 1984.825;  171.675;    0.000
377.361; 1932.825;  174.675;    0.000
377.421; 1917.825;  216.675;    0.000
377.481; 1870.825;  164.675;    0.000
377.541; 1948.825;  163.675;    0.000
377.601; 1986.825;  197.675;    0.000
377.661; 2050.825;  175.675;    0.000
377.722; 1969.825;  196.675;    0.000
377.782; 1959.825;  162.675;    0.000
377.842; 1976.825;  179.675;    0.000
377.902; 2011.825;  140.675;    0.000
377.962; 1935.825;  121.675;    0.000
378.022; 1987.825;  174.675;    0.000
378.082; 1998.825;  167.675;    0.000
378.142; 2020.825;  151.675;    0.000
378.202; 2030.825;  174.675;    0.000
378.262; 1992.825;  168.675;    0.000
378.322; 1958.825;  183.675;    0.000
378.382; 1973.825;  159.675;    0.000
378.442; 1996.825;  177.675;    0.000
378.502; 2035.825;  137.675;    0.000
378.562; 2056.825;  140.675;    0.000
378.622; 2033.825;  197.675;    0.000
378.682; 2111.825;  205.675;    0.000
378.742; 1998.825;  160.675;    0.000
378.802; 1994.825;  132.675;    0.000
378.862; 2152.825;  222.675;    0.000
378.921; 2095.825;  178.675;    0.000
378.981; 2024.825;  160.675;    0.000
379.041; 2097.825;  136.675;    0.000
379.101; 2097.825;  184.675;    0.000
379.161; 2090.825;  147.675;    0.000
379.221; 2054.825;  139.675;    0.000
379.281; 2068.825;  204.675;    0.000
379.341; 2139.825;  142.675;    0.000
379.401; 2137.825;  136.675;    0.000
379.460; 2119.825;  161.675;    0.000
379.520; 2105.825;  171.675;    0.000
379.580; 2102.825;  168.675;    0.000
379.640; 2098.825;  183.675;    0.000
379.700; 2091.825;  182.675;    0.000
379.759; 2172.825;  190.675;    0.000
379.819; 2109.825;  149.675;    0.000
379.879; 2105.825;  140.675;    0.000
379.939; 2193.825;  155.675;    0.000
379.999; 2204.825;  199.675;    0.000
380.058; 2218.825;  163.675;    0.000
380.118; 2199.825;  190.675;    0.000
380.178; 2207.825;  220.675;    0.000
380.237; 2273.825;  181.675;    0.000
380.297; 2122.825;  187.675;    0.000
380.357; 2193.825;  193.675;    0.000
380.417; 2206.825;  157.675;    0.000
380.476; 2190.825;  176.675;    0.000
380.536; 2263.825;  180.675;    0.000
380.596; 2241.825;  191.675;    0.000
380.655; 2301.825;  190.675;    0.000
380.715; 2291.825;  180.675;    0.000
380.775; 2247.825;  202.675;    0.000
380.834; 2250.825;  190.675;    0.000
380.894; 2251.825;  163.675;    0.000
380.954; 2233.825;  181.675;    0.000
381.013; 2222.825;  218.675;    0.000
381.073; 2214.825;  181.675;    0.000
381.132; 2247.825;  193.675;    0.000
381.192; 2254.825;  209.675;    0.000
381.252; 2273.825;  206.675;    0.000
381.311; 2201.825;  173.675;    0.000
381.371; 2331.825;  188.675;    0.000
381.430; 2350.825;  162.675;    0.000
381.490; 2379.825;  168.675;    0.000
381.549; 2339.825;  213.675;    0.000
381.609; 2373.825;  194.675;    0.000
381.668; 2346.825;  190.675;    0.000
381.728; 2383.825;  183.675;    0.000
381.787; 2376.825;  172.675;    0.000
381.847; 2438.825;  198.675;    0.000
381.906; 2343.825;  197.675;    0.000
381.966; 2403.825;  201.675;    0.000
382.025; 2492.825;  219.675;    0.000
382.085; 2510.825;  194.675;    0.000
382.144; 2571.825;  187.675;    0.000
382.204; 2564.825;  196.675;    0.000
382.263; 2618.825;  168.675;    0.000
382.323; 2496.825;  135.675;    0.000
382.382; 2597.825;  173.675;    0.000
382.441; 2618.825;  155.675;    0.000
382.501; 2708.825;  168.675;    0.000
382.560; 2819.825;  200.675;    0.000
382.619; 2830.825;  155.675;    0.000
382.679; 2873.825;  198.675;    0.000
382.738; 3015.825;  211.675;    0.000
382.798; 3086.825;  214.675;    0.000
382.857; 3296.825;  146.675;    0.000
382.916; 3659.825;  183.675;    0.000
382.976; 3729.825;  173.675;    0.000
383.035; 3444.825;  165.675;    0.000
383.094; 3745.825;  173.675;    0.000
383.154; 4144.825;  143.675;    0.000
383.213; 4728.825;  173.675;    0.000
383.272; 4591.825;  166.675;    0.000
383.331; 3758.825;  154.675;    0.000
383.391; 3553.825;  232.675;    0.000
383.450; 3468.825;  185.675;    0.000
383.509; 3368.825;  204.675;    0.000
383.568; 3576.825;  197.675;    0.000
383.628; 3771.825;  171.675;    0.000
383.687; 4057.825;  202.675;    0.000
383.746; 4640.825;  116.675;    0.000
383.805; 5540.825;  156.675;    0.000
383.864; 5494.825;  150.675;    0.000
383.924; 4092.825;  195.675;    0.000
383.983; 3517.825;  157.675;    0.000
384.042; 3224.825;  184.675;    0.000
384.101; 3104.825;  210.675;    0.000
384.160; 3001.825;  123.675;    0.000
384.219; 2784.825;  191.675;    0.000
384.279; 2711.825;  184.675;    0.000
384.338; 2764.825;  172.675;    0.000
384.397; 2638.825;  153.675;    0.000
384.456; 2753.825;  181.675;    0.000
384.515; 2672.825;  171.675;    0.000
384.574; 2666.825;  172.675;    0.000
384.633; 2518.825;  174.675;    0.000
384.692; 2641.825;  178.675;    0.000
384.751; 2611.825;  180.675;    0.000
384.810; 2602.825;  161.675;    0.000
384.869; 2517.825;  162.675;    0.000
384.929; 2575.825;  157.675;    0.000
384.988; 2529.825;  153.675;    0.000
385.047; 2532.825;  178.675;    0.000
385.106; 2575.825;  164.675;    0.000
385.165; 2619.825;  127.675;    0.000
385.224; 2596.825;  156.675;    0.000
385.283; 2557.825;  178.675;    0.000
385.342; 2542.825;  177.675;    0.000
385.401; 2632.825;  178.675;    0.000
385.459; 2556.825;  177.675;    0.000
385.518; 2584.825;  152.675;    0.000
385.577; 2563.825;  133.675;    0.000
385.636; 2649.825;  204.675;    0.000
385.695; 2518.825;  161.675;    0.000
385.754; 2550.825;  190.675;    0.000
385.813; 2568.825;  160.675;    0.000
385.872; 2560.825;  138.675;    0.000
385.931; 2599.825;  192.675;    0.000
385.990; 2585.825;  158.675;    0.000
386.049; 2669.825;  187.675;    0.000
386.107; 2528.825;  140.675;    0.000
386.166; 2548.825;  139.675;    0.000
386.225; 2528.825;  182.675;    0.000
386.284; 2431.825;  123.675;    0.000
386.343; 2589.825;  207.675;    0.000
386.402; 2628.825;  150.675;    0.000
386.460; 2534.825;  185.675;    0.000
386.519; 2464.825;  145.675;    0.000
386.578; 2558.825;  153.675;    0.000
386.637; 2581.825;  153.675;    0.000
386.696; 2592.825;  189.675;    0.000
386.754; 2529.825;  128.675;    0.000
386.813; 2618.825;  202.675;    0.000
386.872; 2575.825;  152.675;    0.000
386.931; 2629.825;  166.675;    0.000
386.989; 2658.825;  194.675;    0.000
387.048; 2569.825;  176.675;    0.000
387.107; 2573.825;  203.675;    0.000
387.165; 2606.825;  136.675;    0.000
387.224; 2553.825;  193.675;    0.000
387.283; 2593.825;  157.675;    0.000
387.342; 2541.825;  194.675;    0.000
387.400; 2575.825;  191.675;    0.000
387.459; 2537.825;  142.675;    0.000
387.517; 2625.825;  202.675;    0.000
387.576; 2483.825;  164.675;    0.000
387.635; 2653.825;  147.675;    0.000
387.693; 2632.825;  199.675;    0.000
387.752; 2517.825;  181.675;    0.000
387.811; 2605.825;  161.675;    0.000
387.869; 2618.825;  184.675;    0.000
387.928; 2511.825;  175.675;    0.000
387.986; 2556.825;  143.675;    0.000
388.045; 2563.825;  146.675;    0.000
388.103; 2619.825;  164.675;    0.000
388.162; 2567.825;  170.675;    0.000
388.221; 2600.825;  169.675;    0.000
388.279; 2520.825;  151.675;    0.000
388.338; 2566.825;  175.675;    0.000
388.396; 2564.825;  170.675;    0.000
388.455; 2536.825;  193.675;    0.000
388.513; 2536.825;  134.675;    0.000
388.572; 2604.825;  201.675;    0.000
388.630; 2587.825;  181.675;    0.000
388.689; 2602.825;  165.675;    0.000
388.747; 2512.825;  164.675;    0.000
388.806; 2604.825;  155.675;    0.000
388.864; 2520.825;  172.675;    0.000
388.922; 2600.825;  190.675;    0.000
388.981; 2569.825;  170.675;    0.000
389.039; 2514.825;  142.675;    0.000
389.098; 2572.825;  177.675;    0.000
389.156; 2550.825;  184.675;    0.000
389.214; 2642.825;  197.675;    0.000
389.273; 2585.825;  141.675;    0.000
389.331; 2565.825;  145.675;    0.000
389.390; 2544.825;  160.675;    0.000
389.448; 2539.825;  142.675;    0.000
389.506; 2571.825;  192.675;    0.000
389.565; 2631.825;  176.675;    0.000
389.623; 2489.825;  174.675;    0.000
389.681; 2608.825;  184.675;    0.000
389.740; 2564.825;  193.675;    0.000
389.798; 2558.825;  130.675;    0.000
389.856; 2668.825;  224.675;    0.000
389.914; 2487.825;  223.675;    0.000
389.973; 2530.825;  164.675;    0.000
390.031; 2572.825;  198.675;    0.000
390.089; 2679.825;  177.675;    0.000
390.147; 2426.825;  158.675;    0.000
390.206; 2620.825;  213.675;    0.000
390.264; 2617.825;  178.675;    0.000
390.322; 2602.825;  181.675;    0.000
390.380; 2628.825;  148.675;    0.000
390.439; 2563.825;  185.675;    0.000
390.497; 2596.825;  208.675;    0.000
390.555; 2541.825;  175.675;    0.000
390.613; 2691.825;  178.675;    0.000
390.671; 2594.825;  190.675;    0.000
390.729; 2626.825;  172.675;    0.000
390.788; 2602.825;  194.675;    0.000
390.846; 2587.825;  187.675;    0.000
390.904; 2586.825;  207.675;    0.000
390.962; 2683.825;  211.675;    0.000
391.020; 2703.825;  218.675;    0.000
391.078; 2643.825;  179.675;    0.000
391.136; 2728.825;  223.675;    0.000
391.194; 2611.825;  209.675;    0.000
391.253; 2684.825;  217.675;    0.000
391.311; 2696.825;  217.675;    0.000
391.369; 2672.825;  217.675;    0.000
391.427; 2728.825;  253.675;    0.000
391.485; 2708.825;  176.675;    0.000
391.543; 2754.825;  252.675;    0.000
391.601; 2732.825;  168.675;    0.000
391.659; 2732.825;  206.675;    0.000
391.717; 2742.825;  172.675;    0.000
391.775; 2762.825;  170.675;    0.000
391.833; 2685.825;  196.675;    0.000
391.891; 2824.825;  180.675;    0.000
391.949; 2730.825;  201.675;    0.000
392.007; 2799.825;  196.675;    0.000
392.065; 2773.825;  191.675;    0.000
392.123; 2781.825;  158.675;    0.000
392.180; 2824.825;  192.675;    0.000
392.238; 2737.825;  186.675;    0.000
392.296; 2784.825;  150.675;    0.000
392.354; 2829.825;  175.675;    0.000
392.412; 2843.825;  219.675;    0.000
392.470; 2852.825;  200.675;    0.000
392.528; 2783.825;  177.675;    0.000
392.586; 2828.825;  169.675;    0.000
392.644; 2815.825;  155.675;    0.000
392.701; 2812.825;  215.675;    0.000
392.759; 2856.825;  218.675;    0.000
392.817; 2810.825;  178.675;    0.000
392.875; 2896.825;  190.675;    0.000
392.933; 2832.825;  197.675;    0.000
392.991; 2964.825;  179.675;    0.000
393.048; 2930.825;  205.675;    0.000
393.106; 3005.825;  229.675;    0.000
393.164; 3042.825;  167.675;    0.000
393.222; 3320.825;  156.675;    0.000
393.279; 3934.825;  203.675;    0.000
393.337; 4953.825;  216.675;    0.000
393.395; 5263.825;  180.675;    0.000
393.453; 3847.825;  163.675;    0.000
393.510; 3184.825;  194.675;    0.000
393.568; 3041.825;  207.675;    0.000
393.626; 2933.825;  200.675;    0.000
393.684; 3090.825;  234.675;    0.000
393.741; 2964.825;  197.675;    0.000
393.799; 2918.825;  201.675;    0.000
393.857; 2839.825;  185.675;    0.000
393.914; 2911.825;  200.675;    0.000
393.972; 2839.825;  181.675;    0.000
394.030; 2888.825;  188.675;    0.000
394.087; 2861.825;  202.675;    0.000
394.145; 2828.825;  214.675;    0.000
394.202; 2860.825;  204.675;    0.000
394.260; 2966.825;  178.675;    0.000
394.318; 2942.825;  208.675;    0.000
394.375; 3005.825;  183.675;    0.000
394.433; 3098.825;  175.675;    0.000
394.490; 2994.825;  170.675;    0.000
394.548; 2995.825;  161.675;    0.000
394.605; 2999.825;  196.675;    0.000
394.663; 2959.825;  191.675;    0.000
394.720; 2969.825;  179.675;    0.000
394.778; 2937.825;  193.675;    0.000
394.836; 2874.825;  160.675;    0.000
394.893; 2866.825;  152.675;    0.000
394.951; 3026.825;  179.675;    0.000
395.008; 2989.825;  185.675;    0.000
395.065; 2959.825;  154.675;    0.000
395.123; 2997.825;  176.675;    0.000
395.180; 2983.825;  202.675;    0.000
395.238; 3013.825;  135.675;    0.000
395.295; 2959.825;  178.675;    0.000
395.353; 2966.825;  181.675;    0.000
395.410; 3023.825;  160.675;    0.000
395.468; 3072.825;  179.675;    0.000
395.525; 3035.825;  187.675;    0.000
395.582; 3018.825;  221.675;    0.000
395.640; 3033.825;  220.675;    0.000
395.697; 3148.825;  174.675;    0.000
395.754; 3068.825;  177.675;    0.000
395.812; 3058.825;  193.675;    0.000
395.869; 3181.825;  220.675;    0.000
395.927; 3101.825;  206.675;    0.000
395.984; 3098.825;  213.675;    0.000
396.041; 3066.825;  194.675;    0.000
396.098; 3073.825;  144.675;    0.000
396.156; 3299.825;  168.675;    0.000
396.213; 3295.825;  181.675;    0.000
396.270; 3255.825;  186.675;    0.000
396.328; 3113.825;  165.675;    0.000
396.385; 3203.825;  192.675;    0.000
396.442; 3106.825;  196.675;    0.000
396.499; 3138.825;  162.675;    0.000
396.557; 3098.825;  177.675;    0.000
396.614; 3249.825;  184.675;    0.000
396.671; 3230.825;  180.675;    0.000
396.728; 3539.825;  194.675;    0.000
396.785; 4009.825;  173.675;    0.000
396.843; 4709.825;  154.675;    0.000
396.900; 4225.825;  200.675;    0.000
396.957; 3603.825;  158.675;    0.000
397.014; 3246.825;  203.675;    0.000
397.071; 3335.825;  178.675;    0.000
397.128; 3269.825;  201.675;    0.000
397.186; 3317.825;  200.675;    0.000
397.243; 3276.825;  187.675;    0.000
397.300; 3271.825;  173.675;    0.000
397.357; 3252.825;  189.675;    0.000
397.414; 3273.825;  202.675;    0.000
397.471; 3249.825;  156.675;    0.000
397.528; 3182.825;  197.675;    0.000
397.585; 3342.825;  174.675;    0.000
397.642; 3212.825;  202.675;    0.000
397.699; 3297.825;  197.675;    0.000
397.756; 3263.825;  188.675;    0.000
397.814; 3305.825;  210.675;    0.000
397.871; 3295.825;  203.675;    0.000
397.928; 3264.825;  189.675;    0.000
397.985; 3265.825;  192.675;    0.000
398.042; 3264.825;  198.675;    0.000
398.099; 3243.825;  181.675;    0.000
398.156; 3250.825;  201.675;    0.000
398.212; 3282.825;  216.675;    0.000
398.269; 3291.825;  206.675;    0.000
398.326; 3394.825;  213.675;    0.000
398.383; 3306.825;  168.675;    0.000
398.440; 3263.825;  184.675;    0.000
398.497; 3391.825;  194.675;    0.000
398.554; 3358.825;  219.675;    0.000
398.611; 3469.825;  190.675;    0.000
398.668; 3309.825;  138.675;    0.000
398.725; 3366.825;  170.675;    0.000
398.782; 3410.825;  223.675;    0.000
398.839; 3467.825;  211.675;    0.000
398.895; 3425.825;  173.675;    0.000
398.952; 3479.825;  207.675;    0.000
399.009; 3509.825;  173.675;    0.000
399.066; 3605.825;  171.675;    0.000
399.123; 3646.825;  189.675;    0.000
399.180; 3635.825;  170.675;    0.000
399.236; 3724.825;  193.675;    0.000
399.293; 3803.825;  222.675;    0.000
399.350; 3815.825;  195.675;    0.000
399.407; 3943.825;  214.675;    0.000
399.463; 3946.825;  181.675;    0.000
399.520; 3916.825;  168.675;    0.000
399.577; 4020.825;  231.675;    0.000
399.634; 3964.825;  215.675;    0.000
399.690; 4036.825;  177.675;    0.000
399.747; 4117.825;  212.675;    0.000
399.804; 3968.825;  208.675;    0.000
399.861; 4026.825;  225.675;    0.000
399.917; 3922.825;  191.675;    0.000
399.974; 3808.825;  182.675;    0.000
400.031; 3895.825;  218.675;    0.000
400.087; 3858.825;  202.675;    0.000
400.144; 3727.825;  192.675;    0.000
400.201; 3809.825;  187.675;    0.000
400.257; 3706.825;  193.675;    0.000
400.314; 3776.825;  185.675;    0.000
400.370; 3725.825;  201.675;    0.000
400.427; 3742.825;  208.675;    0.000
400.484; 3693.825;  201.675;    0.000
400.540; 3681.825;  204.675;    0.000
400.597; 3588.825;  210.675;    0.000
400.653; 3495.825;  224.675;    0.000
400.710; 3741.825;  196.675;    0.000
400.766; 3583.825;  224.675;    0.000
400.823; 3755.825;  210.675;    0.000
400.879; 3662.825;  213.675;    0.000
400.936; 3640.825;  182.675;    0.000
400.993; 3629.825;  184.675;    0.000
401.049; 3572.825;  216.675;    0.000
401.105; 3562.825;  235.675;    0.000
401.162; 3651.825;  196.675;    0.000
401.218; 3552.825;  221.675;    0.000
401.275; 3537.825;  216.675;    0.000
401.331; 3600.825;  198.675;    0.000
401.388; 3623.825;  205.675;    0.000
401.444; 3574.825;  154.675;    0.000
401.501; 3540.825;  208.675;    0.000
401.557; 3535.825;  162.675;    0.000
401.614; 3612.825;  157.675;    0.000
401.670; 3624.825;  198.675;    0.000
401.726; 3653.825;  195.675;    0.000
401.783; 3636.825;  186.675;    0.000
401.839; 3582.825;  205.675;    0.000
401.895; 3614.825;  202.675;    0.000
401.952; 3604.825;  143.675;    0.000
402.008; 3607.825;  177.675;    0.000
402.064; 3488.825;  177.675;    0.000
402.121; 3687.825;  194.675;    0.000
402.177; 3527.825;  181.675;    0.000
402.233; 3630.825;  205.675;    0.000
402.290; 3598.825;  190.675;    0.000
402.346; 3638.825;  190.675;    0.000
402.402; 3674.825;  151.675;    0.000
402.458; 3640.825;  194.675;    0.000
402.515; 3695.825;  212.675;    0.000
402.571; 3547.825;  209.675;    0.000
402.627; 3579.825;  199.675;    0.000
402.683; 3683.825;  213.675;    0.000
402.740; 3664.825;  165.675;    0.000
402.796; 3616.825;  168.675;    0.000
402.852; 3630.825;  200.675;    0.000
402.908; 3696.825;  193.675;    0.000
402.964; 3762.825;  166.675;    0.000
403.021; 3628.825;  196.675;    0.000
403.077; 3758.825;  212.675;    0.000
403.133; 3711.825;  186.675;    0.000
403.189; 3752.825;  206.675;    0.000
403.245; 3793.825;  207.675;    0.000
403.301; 3710.825;  204.675;    0.000
403.357; 3767.825;  246.675;    0.000
403.414; 3768.825;  227.675;    0.000
403.470; 3770.825;  207.675;    0.000
403.526; 3737.825;  171.675;    0.000
403.582; 3705.825;  200.675;    0.000
403.638; 3768.825;  213.675;    0.000
403.694; 3846.825;  239.675;    0.000
403.750; 3749.825;  221.675;    0.000
403.806; 3773.825;  197.675;    0.000
403.862; 3727.825;  222.675;    0.000
403.918; 3796.825;  174.675;    0.000
403.974; 3675.825;  183.675;    0.000
404.030; 3763.825;  184.675;    0.000
404.086; 3801.825;  170.675;    0.000
404.142; 3864.825;  215.675;    0.000
404.198; 3830.825;  189.675;    0.000
404.254; 3682.825;  195.675;    0.000
404.310; 3778.825;  206.675;    0.000
404.366; 3833.825;  179.675;    0.000
404.422; 3884.825;  197.675;    0.000
404.478; 3755.825;  176.675;    0.000
404.534; 3841.825;  165.675;    0.000
404.590; 4091.825;  203.675;    0.000
404.646; 3893.825;  195.675;    0.000
404.701; 3848.825;  180.675;    0.000
404.757; 3974.825;  218.675;    0.000
404.813; 3685.825;  160.675;    0.000
404.869; 3874.825;  213.675;    0.000
404.925; 3779.825;  171.675;    0.000
404.981; 3836.825;  194.675;    0.000
405.037; 3785.825;  211.675;    0.000
405.092; 3829.825;  158.675;    0.000
405.148; 3857.825;  140.675;    0.000
405.204; 3830.825;  161.675;    0.000
405.260; 3824.825;  161.675;    0.000
405.316; 3849.825;  155.675;    0.000
405.371; 3819.825;  151.675;    0.000
405.427; 3881.825;  186.675;    0.000
405.483; 3891.825;  206.675;    0.000
405.539; 3874.825;  162.675;    0.000
405.594; 3863.825;  205.675;    0.000
405.650; 3834.825;  153.675;    0.000
405.706; 3881.825;  185.675;    0.000
405.761; 3984.825;  205.675;    0.000
405.817; 3935.825;  185.675;    0.000
405.873; 3882.825;  160.675;    0.000
405.928; 3861.825;  182.675;    0.000
405.984; 3945.825;  206.675;    0.000
406.040; 3864.825;  200.675;    0.000
406.095; 3962.825;  138.675;    0.000
406.151; 3929.825;  178.675;    0.000
406.207; 4057.825;  225.675;    0.000
406.262; 3943.825;  161.675;    0.000
406.318; 3990.825;  186.675;    0.000
406.374; 4045.825;  173.675;    0.000
406.429; 4063.825;  197.675;    0.000
406.485; 4017.825;  260.675;    0.000
406.540; 4048.825;  184.675;    0.000
406.596; 4005.825;  193.675;    0.000
406.651; 4153.825;  176.675;    0.000
406.707; 4126.825;  158.675;    0.000
406.763; 4117.825;  174.675;    0.000
406.818; 4098.825;  188.675;    0.000
406.874; 4077.825;  176.675;    0.000
406.929; 4235.825;  220.675;    0.000
406.985; 4227.825;  167.675;    0.000
407.040; 4285.825;  191.675;    0.000
407.095; 4247.825;  190.675;    0.000
407.151; 4465.825;  196.675;    0.000
407.206; 4366.825;  184.675;    0.000
407.262; 4422.825;  167.675;    0.000
407.317; 4399.825;  199.675;    0.000
407.373; 4436.825;  211.675;    0.000
407.428; 4485.825;  202.675;    0.000
407.484; 4457.825;  172.675;    0.000
407.539; 4399.825;  171.675;    0.000
407.594; 4488.825;  219.675;    0.000
407.650; 4360.825;  179.675;    0.000
407.705; 4463.825;  141.675;    0.000
407.760; 4437.825;  182.675;    0.000
407.816; 4418.825;  203.675;    0.000
407.871; 4536.825;  219.675;    0.000
407.926; 4426.825;  197.675;    0.000
407.982; 4400.825;  176.675;    0.000
408.037; 4331.825;  187.675;    0.000
408.092; 4311.825;  161.675;    0.000
408.148; 4314.825;  185.675;    0.000
408.203; 4397.825;  196.675;    0.000
408.258; 4356.825;  188.675;    0.000
408.314; 4296.825;  225.675;    0.000
408.369; 4318.825;  172.675;    0.000
408.424; 4287.825;  204.675;    0.000
408.479; 4285.825;  182.675;    0.000
408.534; 4362.825;  220.675;    0.000
408.590; 4194.825;  196.675;    0.000
408.645; 4255.825;  170.675;    0.000
408.700; 4338.825;  204.675;    0.000
408.755; 4231.825;  219.675;    0.000
408.810; 4029.825;  174.675;    0.000
408.866; 4229.825;  212.675;    0.000
408.921; 4216.825;  233.675;    0.000
408.976; 4185.825;  198.675;    0.000
409.031; 4218.825;  179.675;    0.000
409.086; 4251.825;  181.675;    0.000
409.141; 4247.825;  192.675;    0.000
409.196; 4186.825;  172.675;    0.000
409.252; 4235.825;  199.675;    0.000
409.307; 4149.825;  159.675;    0.000
409.362; 4174.825;  158.675;    0.000
409.417; 4174.825;  164.675;    0.000
409.472; 4095.825;  186.675;    0.000
409.527; 4254.825;  215.675;    0.000
409.582; 4175.825;  227.675;    0.000
409.637; 4243.825;  211.675;    0.000
409.692; 4037.825;  224.675;    0.000
409.747; 4232.825;  147.675;    0.000
409.802; 4181.825;  203.675;    0.000
409.857; 4302.825;  203.675;    0.000
409.912; 4232.825;  219.675;    0.000
409.967; 4129.825;  200.675;    0.000
410.022; 4174.825;  199.675;    0.000
410.077; 4251.825;  171.675;    0.000
410.132; 4187.825;  193.675;    0.000
410.187; 4168.825;  167.675;    0.000
410.242; 4259.825;  188.675;    0.000
410.297; 4191.825;  195.675;    0.000
410.351; 4150.825;  225.675;    0.000
410.406; 4132.825;  188.675;    0.000
410.461; 4252.825;  197.675;    0.000
410.516; 4158.825;  212.675;    0.000
410.571; 4244.825;  173.675;    0.000
410.626; 4205.825;  180.675;    0.000
410.681; 4186.825;  198.675;    0.000
410.736; 4148.825;  190.675;    0.000
410.790; 4181.825;  204.675;    0.000
410.845; 4160.825;  214.675;    0.000
410.900; 4303.825;  184.675;    0.000
410.955; 4183.825;  231.675;    0.000
411.010; 4126.825;  211.675;    0.000
411.064; 4247.825;  204.675;    0.000
411.119; 4128.825;  219.675;    0.000
411.174; 4200.825;  208.675;    0.000
411.229; 4220.825;  207.675;    0.000
411.283; 4239.825;  199.675;    0.000
411.338; 4166.825;  198.675;    0.000
411.393; 4202.825;  155.675;    0.000
411.447; 4164.825;  200.675;    0.000
411.502; 4216.825;  229.675;    0.000
411.557; 4158.825;  197.675;    0.000
411.612; 4167.825;  171.675;    0.000
411.666; 4211.825;  201.675;    0.000
411.721; 4120.825;  174.675;    0.000
411.776; 4244.825;  222.675;    0.000
411.830; 4217.825;  150.675;    0.000
411.885; 4304.825;  169.675;    0.000
411.939; 4224.825;  216.675;    0.000
411.994; 4228.825;  215.675;    0.000
412.049; 4118.825;  219.675;    0.000
412.103; 4127.825;  225.675;    0.000
412.158; 4234.825;  216.675;    0.000
412.212; 4226.825;  218.675;    0.000
412.267; 4204.825;  219.675;    0.000
412.322; 4291.825;  235.675;    0.000
412.376; 4246.825;  208.675;    0.000
412.431; 4323.825;  232.675;    0.000
412.485; 4159.825;  223.675;    0.000
412.540; 4250.825;  217.675;    0.000
412.594; 4234.825;  195.675;    0.000
412.649; 4235.825;  236.675;    0.000
412.703; 4202.825;  216.675;    0.000
412.758; 4216.825;  201.675;    0.000
412.812; 4175.825;  176.675;    0.000
412.866; 4083.825;  179.675;    0.000
412.921; 4178.825;  196.675;    0.000
412.975; 4147.825;  238.675;    0.000
413.030; 4294.825;  272.675;    0.000
413.084; 4120.825;  208.675;    0.000
413.139; 4096.825;  201.675;    0.000
413.193; 4165.825;  198.675;    0.000
413.247; 4254.825;  213.675;    0.000
413.302; 4171.825;  202.675;    0.000
413.356; 4134.825;  184.675;    0.000
413.410; 4120.825;  202.675;    0.000
413.465; 4135.825;  145.675;    0.000
413.519; 4221.825;  200.675;    0.000
413.573; 4204.825;  197.675;    0.000
413.628; 4239.825;  224.675;    0.000
413.682; 4112.825;  211.675;    0.000
413.736; 4216.825;  202.675;    0.000
413.791; 4137.825;  228.675;    0.000
413.845; 4204.825;  184.675;    0.000
413.899; 4160.825;  226.675;    0.000
413.953; 4090.825;  213.675;    0.000
414.008; 4100.825;  175.675;    0.000
414.062; 4097.825;  216.675;    0.000
414.116; 4114.825;  206.675;    0.000
414.170; 4124.825;  229.675;    0.000
414.225; 4101.825;  196.675;    0.000
414.279; 4222.825;  199.675;    0.000
414.333; 4255.825;  220.675;    0.000
414.387; 4279.825;  217.675;    0.000
414.441; 4282.825;  206.675;    0.000
414.496; 4151.825;  264.675;    0.000
414.550; 4199.825;  217.675;    0.000
414.604; 4174.825;  224.675;    0.000
414.658; 4136.825;  156.675;    0.000
414.712; 4103.825;  203.675;    0.000
414.766; 4260.825;  216.675;    0.000
414.820; 4144.825;  218.675;    0.000
414.874; 4277.825;  240.675;    0.000
414.928; 4232.825;  204.675;    0.000
414.982; 4218.825;  195.675;    0.000
415.037; 4148.825;  212.675;    0.000
415.091; 4184.825;  211.675;    0.000
415.145; 4223.825;  230.675;    0.000
415.199; 4244.825;  208.675;    0.000
415.253; 4249.825;  213.675;    0.000
415.307; 4216.825;  208.675;    0.000
415.361; 4200.825;  193.675;    0.000
415.415; 4080.825;  207.675;    0.000
415.469; 4248.825;  214.675;    0.000
415.523; 4247.825;  226.675;    0.000
415.577; 4150.825;  194.675;    0.000
415.631; 4204.825;  258.675;    0.000
415.684; 4316.825;  239.675;    0.000
415.738; 4308.825;  191.675;    0.000
415.792; 4168.825;  185.675;    0.000
415.846; 4171.825;  239.675;    0.000
415.900; 4088.825;  209.675;    0.000
415.954; 4110.825;  215.675;    0.000
416.008; 4276.825;  229.675;    0.000
416.062; 4138.825;  200.675;    0.000
416.116; 4200.825;  195.675;    0.000
416.169; 4178.825;  238.675;    0.000
416.223; 4193.825;  271.675;    0.000
416.277; 4168.825;  232.675;    0.000
416.331; 4189.825;  226.675;    0.000
416.385; 4136.825;  207.675;    0.000
416.439; 4121.825;  221.675;    0.000
416.492; 4175.825;  269.675;    0.000
416.546; 4212.825;  254.675;    0.000
416.600; 4141.825;  225.675;    0.000
416.654; 4108.825;  269.675;    0.000
416.707; 4107.825;  232.675;    0.000
416.761; 4110.825;  226.675;    0.000
416.815; 4132.825;  219.675;    0.000
416.869; 4139.825;  234.675;    0.000
416.922; 4194.825;  230.675;    0.000
416.976; 4152.825;  216.675;    0.000
417.030; 4203.825;  271.675;    0.000
417.083; 4096.825;  229.675;    0.000
417.137; 4146.825;  249.675;    0.000
417.191; 4119.825;  241.675;    0.000
417.244; 4126.825;  230.675;    0.000
417.298; 4158.825;  215.675;    0.000
417.352; 4158.825;  188.675;    0.000
417.405; 4207.825;  248.675;    0.000
417.459; 4116.825;  256.675;    0.000
417.512; 4247.825;  263.675;    0.000
417.566; 4173.825;  227.675;    0.000
417.620; 4173.825;  270.675;    0.000
417.673; 4078.825;  216.675;    0.000
417.727; 4080.825;  234.675;    0.000
417.780; 4124.825;  215.675;    0.000
417.834; 4203.825;  203.675;    0.000
417.887; 3999.825;  257.675;    0.000
417.941; 4191.825;  216.675;    0.000
417.994; 4116.825;  245.675;    0.000
418.048; 4112.825;  209.675;    0.000
418.101; 4144.825;  207.675;    0.000
418.155; 4208.825;  204.675;    0.000
418.208; 4168.825;  270.675;    0.000
418.262; 4274.825;  228.675;    0.000
418.315; 4150.825;  254.675;    0.000
418.369; 4144.825;  245.675;    0.000
418.422; 4174.825;  224.675;    0.000
418.476; 4176.825;  221.675;    0.000
418.529; 4149.825;  234.675;    0.000
418.582; 4217.825;  249.675;    0.000
418.636; 4078.825;  224.675;    0.000
418.689; 4177.825;  228.675;    0.000
418.743; 4270.825;  240.675;    0.000
418.796; 4125.825;  197.675;    0.000
418.849; 4197.825;  220.675;    0.000
418.903; 4197.825;  246.675;    0.000
418.956; 4161.825;  250.675;    0.000
419.009; 4197.825;  276.675;    0.000
419.063; 4115.825;  232.675;    0.000
419.116; 4175.825;  228.675;    0.000
419.169; 4163.825;  249.675;    0.000
419.222; 4187.825;  215.675;    0.000
419.276; 4195.825;  228.675;    0.000
419.329; 4176.825;  246.675;    0.000
419.382; 4168.825;  188.675;    0.000
419.435; 4062.825;  240.675;    0.000
419.489; 4090.825;  261.675;    0.000
419.542; 4104.825;  224.675;    0.000
419.595; 4048.825;  251.675;    0.000
419.648; 4102.825;  236.675;    0.000
419.701; 4065.825;  244.675;    0.000
419.755; 4119.825;  242.675;    0.000
419.808; 3998.825;  242.675;    0.000
419.861; 4048.825;  189.675;    0.000
419.914; 4059.825;  258.675;    0.000
419.967; 4011.825;  230.675;    0.000
420.020; 3984.825;  223.675;    0.000
420.073; 3835.825;  221.675;    0.000
420.127; 4088.825;  252.675;    0.000
420.180; 4032.825;  219.675;    0.000
420.233; 3990.825;  201.675;    0.000
420.286; 4046.825;  221.675;    0.000
420.339; 3898.825;  250.675;    0.000
420.392; 3980.825;  268.675;    0.000
420.445; 4016.825;  223.675;    0.000
420.498; 3951.825;  240.675;    0.000
420.551; 3975.825;  220.675;    0.000
420.604; 3997.825;  231.675;    0.000
420.657; 3946.825;  228.675;    0.000
420.710; 3924.825;  219.675;    0.000
420.763; 3954.825;  280.675;    0.000
420.816; 3976.825;  202.675;    0.000
420.869; 3917.825;  219.675;    0.000
420.922; 3879.825;  218.675;    0.000
420.975; 3924.825;  237.675;    0.000
421.028; 3881.825;  242.675;    0.000
421.081; 3944.825;  247.675;    0.000
421.134; 3913.825;  239.675;    0.000
421.187; 3844.825;  229.675;    0.000
421.239; 3816.825;  200.675;    0.000
421.292; 3851.825;  205.675;    0.000
421.345; 3860.825;  219.675;    0.000
421.398; 3857.825;  187.675;    0.000
421.451; 3942.825;  226.675;    0.000
421.504; 3802.825;  206.675;    0.000
421.557; 3850.825;  226.675;    0.000
421.609; 3862.825;  209.675;    0.000
421.662; 3941.825;  229.675;    0.000
421.715; 3867.825;  231.675;    0.000
421.768; 3849.825;  215.675;    0.000
421.821; 3821.825;  211.675;    0.000
421.873; 3859.825;  220.675;    0.000
421.926; 3799.825;  212.675;    0.000
421.979; 3842.825;  209.675;    0.000
422.032; 3813.825;  203.675;    0.000
422.084; 3853.825;  213.675;    0.000
422.137; 3824.825;  196.675;    0.000
422.190; 3856.825;  246.675;    0.000
422.243; 3871.825;  194.675;    0.000
422.295; 3857.825;  225.675;    0.000
422.348; 3833.825;  248.675;    0.000
422.401; 3876.825;  252.675;    0.000
422.453; 3862.825;  249.675;    0.000
422.506; 3916.825;  233.675;    0.000
422.559; 3849.825;  228.675;    0.000
422.611; 4057.825;  224.675;    0.000
422.664; 4362.825;  226.675;    0.000
422.716; 4487.825;  226.675;    0.000
422.769; 3992.825;  216.675;    0.000
422.822; 3811.825;  256.675;    0.000
422.874; 3773.825;  206.675;    0.000
422.927; 3787.825;  257.675;    0.000
422.979; 3840.825;  209.675;    0.000
423.032; 3768.825;  244.675;    0.000
423.084; 3826.825;  244.675;    0.000
423.137; 3815.825;  213.675;    0.000
423.189; 3886.825;  208.675;    0.000
423.242; 3678.825;  226.675;    0.000
423.294; 3842.825;  250.675;    0.000
423.347; 3797.825;  206.675;    0.000
423.399; 3750.825;  268.675;    0.000
423.452; 3753.825;  262.675;    0.000
423.504; 3797.825;  237.675;    0.000
423.557; 3747.825;  245.675;    0.000
423.609; 3771.825;  211.675;    0.000
423.662; 3857.825;  222.675;    0.000
423.714; 3709.825;  219.675;    0.000
423.766; 3811.825;  250.675;    0.000
423.819; 3726.825;  220.675;    0.000
423.871; 3678.825;  229.675;    0.000
423.923; 3657.825;  219.675;    0.000
423.976; 3837.825;  221.675;    0.000
424.028; 3698.825;  211.675;    0.000
424.081; 3731.825;  254.675;    0.000
424.133; 3791.825;  230.675;    0.000
424.185; 3805.825;  241.675;    0.000
424.238; 3809.825;  182.675;    0.000
424.290; 3703.825;  215.675;    0.000
424.342; 3650.825;  235.675;    0.000
424.394; 3788.825;  225.675;    0.000
424.447; 3785.825;  264.675;    0.000
424.499; 3871.825;  225.675;    0.000
424.551; 3820.825;  237.675;    0.000
424.603; 3719.825;  219.675;    0.000
424.656; 3744.825;  240.675;    0.000
424.708; 3789.825;  266.675;    0.000
424.760; 3662.825;  230.675;    0.000
424.812; 3720.825;  284.675;    0.000
424.864; 3678.825;  189.675;    0.000
424.917; 3688.825;  226.675;    0.000
424.969; 3751.825;  253.675;    0.000
425.021; 3679.825;  233.675;    0.000
425.073; 3630.825;  246.675;    0.000
425.125; 3679.825;  238.675;    0.000
425.177; 3592.825;  253.675;    0.000
425.229; 3750.825;  254.675;    0.000
425.282; 3714.825;  252.675;    0.000
425.334; 3639.825;  261.675;    0.000
425.386; 3798.825;  227.675;    0.000
425.438; 3976.825;  246.675;    0.000
425.490; 3887.825;  249.675;    0.000
425.542; 3709.825;  236.675;    0.000
425.594; 3574.825;  236.675;    0.000
425.646; 3597.825;  237.675;    0.000
425.698; 3668.825;  271.675;    0.000
425.750; 3570.825;  240.675;    0.000
425.802; 3567.825;  238.675;    0.000
425.854; 3689.825;  256.675;    0.000
425.906; 3569.825;  230.675;    0.000
425.958; 3588.825;  231.675;    0.000
426.010; 3531.825;  268.675;    0.000
426.062; 3534.825;  227.675;    0.000
426.114; 3683.825;  234.675;    0.000
426.166; 3605.825;  239.675;    0.000
426.218; 3594.825;  255.675;    0.000
426.270; 3540.825;  196.675;    0.000
426.321; 3551.825;  231.675;    0.000
426.373; 3536.825;  199.675;    0.000
426.425; 3625.825;  245.675;    0.000
426.477; 3475.825;  259.675;    0.000
426.529; 3568.825;  274.675;    0.000
426.581; 3478.825;  221.675;    0.000
426.633; 3524.825;  231.675;    0.000
426.684; 3491.825;  248.675;    0.000
426.736; 3490.825;  237.675;    0.000
426.788; 3574.825;  191.675;    0.000
426.840; 3497.825;  180.675;    0.000
426.892; 3448.825;  259.675;    0.000
426.943; 3470.825;  256.675;    0.000
426.995; 3533.825;  212.675;    0.000
427.047; 3487.825;  233.675;    0.000
427.099; 3519.825;  222.675;    0.000
427.150; 3462.825;  203.675;    0.000
427.202; 3575.825;  218.675;    0.000
427.254; 3499.825;  198.675;    0.000
427.306; 3534.825;  248.675;    0.000
427.357; 3472.825;  239.675;    0.000
427.409; 3503.825;  193.675;    0.000
427.461; 3606.825;  215.675;    0.000
427.512; 3718.825;  251.675;    0.000
427.564; 3585.825;  210.675;    0.000
427.616; 3372.825;  251.675;    0.000
427.667; 3464.825;  246.675;    0.000
427.719; 3415.825;  227.675;    0.000
427.770; 3475.825;  247.675;    0.000
427.822; 3515.825;  261.675;    0.000
427.874; 3360.825;  231.675;    0.000
427.925; 3390.825;  231.675;    0.000
427.977; 3322.825;  243.675;    0.000
428.028; 3410.825;  249.675;    0.000
428.080; 3456.825;  224.675;    0.000
428.131; 3372.825;  247.675;    0.000
428.183; 3395.825;  213.675;    0.000
428.234; 3393.825;  213.675;    0.000
428.286; 3411.825;  224.675;    0.000
428.337; 3352.825;  212.675;    0.000
428.389; 3496.825;  231.675;    0.000
428.440; 3472.825;  248.675;    0.000
428.492; 3415.825;  242.675;    0.000
428.543; 3308.825;  220.675;    0.000
428.595; 3336.825;  212.675;    0.000
428.646; 3322.825;  231.675;    0.000
428.697; 3354.825;  232.675;    0.000
428.749; 3338.825;  231.675;    0.000
428.800; 3350.825;  270.675;    0.000
428.852; 3366.825;  266.675;    0.000
428.903; 3403.825;  215.675;    0.000
428.954; 3535.825;  200.675;    0.000
429.006; 3591.825;  247.675;    0.000
429.057; 3437.825;  247.675;    0.000
429.108; 3325.825;  193.675;    0.000
429.160; 3326.825;  249.675;    0.000
429.211; 3218.825;  228.675;    0.000
429.262; 3310.825;  243.675;    0.000
429.314; 3265.825;  227.675;    0.000
429.365; 3337.825;  242.675;    0.000
429.416; 3415.825;  240.675;    0.000
429.467; 3259.825;  222.675;    0.000
429.519; 3309.825;  233.675;    0.000
429.570; 3331.825;  223.675;    0.000
429.621; 3243.825;  257.675;    0.000
429.672; 3236.825;  220.675;    0.000
429.724; 3272.825;  203.675;    0.000
429.775; 3269.825;  242.675;    0.000
429.826; 3322.825;  195.675;    0.000
429.877; 3302.825;  248.675;    0.000
429.928; 3268.825;  226.675;    0.000
429.980; 3312.825;  189.675;    0.000
430.031; 3297.825;  223.675;    0.000
430.082; 3193.825;  217.675;    0.000
430.133; 3177.825;  210.675;    0.000
430.184; 3318.825;  271.675;    0.000
430.235; 3322.825;  190.675;    0.000
430.286; 3305.825;  233.675;    0.000
430.337; 3215.825;  232.675;    0.000
430.388; 3235.825;  221.675;    0.000
430.439; 3267.825;  221.675;    0.000
430.490; 3131.825;  229.675;    0.000
430.542; 3201.825;  196.675;    0.000
430.593; 3178.825;  214.675;    0.000
430.644; 3220.825;  224.675;    0.000
430.695; 3272.825;  216.675;    0.000
430.746; 3216.825;  228.675;    0.000
430.797; 3297.825;  190.675;    0.000
430.848; 3355.825;  231.675;    0.000
430.898; 3218.825;  232.675;    0.000
430.949; 3254.825;  224.675;    0.000
431.000; 3306.825;  236.675;    0.000
431.051; 3297.825;  251.675;    0.000
431.102; 3210.825;  205.675;    0.000
431.153; 3211.825;  212.675;    0.000
431.204; 3269.825;  200.675;    0.000
431.255; 3149.825;  220.675;    0.000
431.306; 3215.825;  223.675;    0.000
431.357; 3203.825;  240.675;    0.000
431.408; 3176.825;  232.675;    0.000
431.458; 3169.825;  204.675;    0.000
431.509; 3253.825;  196.675;    0.000
431.560; 3258.825;  243.675;    0.000
431.611; 3212.825;  222.675;    0.000
431.662; 3286.825;  246.675;    0.000
431.713; 3185.825;  188.675;    0.000
431.763; 3183.825;  226.675;    0.000
431.814; 3329.825;  239.675;    0.000
431.865; 3390.825;  245.675;    0.000
431.916; 3285.825;  173.675;    0.000
431.966; 3323.825;  220.675;    0.000
432.017; 3198.825;  247.675;    0.000
432.068; 3255.825;  241.675;    0.000
432.118; 3201.825;  220.675;    0.000
432.169; 3219.825;  244.675;    0.000
432.220; 3156.825;  246.675;    0.000
432.271; 3173.825;  203.675;    0.000
432.321; 3036.825;  244.675;    0.000
432.372; 3211.825;  254.675;    0.000
432.423; 3168.825;  224.675;    0.000
432.473; 3202.825;  211.675;    0.000
432.524; 3169.825;  227.675;    0.000
432.574; 3294.825;  228.675;    0.000
432.625; 3198.825;  223.675;    0.000
432.676; 3230.825;  220.675;    0.000
432.726; 3205.825;  257.675;    0.000
432.777; 3143.825;  257.675;    0.000
432.827; 3195.825;  240.675;    0.000
432.878; 3087.825;  219.675;    0.000
432.928; 3119.825;  234.675;    0.000
432.979; 3107.825;  226.675;    0.000
433.029; 2978.825;  216.675;    0.000
433.080; 3158.825;  232.675;    0.000
433.130; 3088.825;  257.675;    0.000
433.181; 3154.825;  243.675;    0.000
433.231; 3174.825;  239.675;    0.000
433.282; 3125.825;  232.675;    0.000
433.332; 3263.825;  256.675;    0.000
433.383; 3124.825;  268.675;    0.000
433.433; 3195.825;  291.675;    0.000
433.484; 3283.825;  263.675;    0.000
433.534; 3185.825;  248.675;    0.000
433.585; 3194.825;  244.675;    0.000
433.635; 3194.825;  242.675;    0.000
433.685; 3186.825;  243.675;    0.000
433.736; 3120.825;  283.675;    0.000
433.786; 3187.825;  264.675;    0.000
433.836; 3199.825;  282.675;    0.000
433.887; 3221.825;  265.675;    0.000
433.937; 3241.825;  255.675;    0.000
433.987; 3106.825;  245.675;    0.000
434.038; 3172.825;  276.675;    0.000
434.088; 3116.825;  249.675;    0.000
434.138; 3189.825;  260.675;    0.000
434.189; 3273.825;  241.675;    0.000
434.239; 3147.825;  232.675;    0.000
434.289; 3236.825;  272.675;    0.000
434.339; 3280.825;  288.675;    0.000
434.389; 3213.825;  258.675;    0.000
434.440; 3321.825;  244.675;    0.000
434.490; 3246.825;  288.675;    0.000
434.540; 3206.825;  252.675;    0.000
434.590; 3180.825;  256.675;    0.000
434.640; 3185.825;  259.675;    0.000
434.691; 3273.825;  220.675;    0.000
434.741; 3245.825;  238.675;    0.000
434.791; 3263.825;  276.675;    0.000
434.841; 3290.825;  256.675;    0.000
434.891; 3365.825;  297.675;    0.000
434.941; 3389.825;  290.675;    0.000
434.991; 3293.825;  261.675;    0.000
435.042; 3318.825;  300.675;    0.000
435.092; 3333.825;  248.675;    0.000
435.142; 3201.825;  246.675;    0.000
435.192; 3229.825;  201.675;    0.000
435.242; 3195.825;  234.675;    0.000
435.292; 3213.825;  266.675;    0.000
435.342; 3119.825;  250.675;    0.000
435.392; 3165.825;  279.675;    0.000
435.442; 3181.825;  242.675;    0.000
435.492; 3154.825;  265.675;    0.000
435.542; 3105.825;  243.675;    0.000
435.592; 3106.825;  243.675;    0.000
435.642; 3195.825;  241.675;    0.000
435.692; 3133.825;  263.675;    0.000
435.742; 3211.825;  264.675;    0.000
435.792; 3123.825;  291.675;    0.000
435.842; 3009.825;  257.675;    0.000
435.891; 3094.825;  224.675;    0.000
435.941; 3051.825;  243.675;    0.000
435.991; 3016.825;  300.675;    0.000
436.041; 3086.825;  197.675;    0.000
436.091; 3039.825;  238.675;    0.000
436.141; 2931.825;  222.675;    0.000
436.191; 3052.825;  249.675;    0.000
436.241; 3116.825;  208.675;    0.000
436.290; 2971.825;  282.675;    0.000
436.340; 3042.825;  233.675;    0.000
436.390; 2952.825;  223.675;    0.000
436.440; 3014.825;  252.675;    0.000
436.490; 2942.825;  254.675;    0.000
436.539; 2968.825;  271.675;    0.000
436.589; 2993.825;  248.675;    0.000
436.639; 3048.825;  235.675;    0.000
436.689; 3051.825;  238.675;    0.000
436.738; 2993.825;  267.675;    0.000
436.788; 2964.825;  239.675;    0.000
436.838; 3093.825;  244.675;    0.000
436.887; 2968.825;  265.675;    0.000
436.937; 2948.825;  261.675;    0.000
436.987; 2957.825;  235.675;    0.000
437.036; 3060.825;  267.675;    0.000
437.086; 2989.825;  258.675;    0.000
437.136; 2988.825;  250.675;    0.000
437.185; 2980.825;  214.675;    0.000
437.235; 2907.825;  257.675;    0.000
437.285; 2874.825;  259.675;    0.000
437.334; 2911.825;  241.675;    0.000
437.384; 2832.825;  231.675;    0.000
437.433; 2882.825;  239.675;    0.000
437.483; 2940.825;  260.675;    0.000
437.532; 2893.825;  277.675;    0.000
437.582; 3000.825;  268.675;    0.000
437.631; 2884.825;  239.675;    0.000
437.681; 2911.825;  251.675;    0.000
437.730; 2942.825;  246.675;    0.000
437.780; 2911.825;  226.675;    0.000
437.829; 2788.825;  256.675;    0.000
437.879; 2792.825;  239.675;    0.000
437.928; 2902.825;  253.675;    0.000
437.978; 2829.825;  245.675;    0.000
438.027; 2848.825;  277.675;    0.000
438.077; 2772.825;  248.675;    0.000
438.126; 2856.825;  201.675;    0.000
438.176; 2841.825;  220.675;    0.000
438.225; 2869.825;  250.675;    0.000
438.274; 2864.825;  234.675;    0.000
438.324; 3014.825;  276.675;    0.000
438.373; 3034.825;  226.675;    0.000
438.422; 2979.825;  228.675;    0.000
438.472; 2871.825;  225.675;    0.000
438.521; 2796.825;  227.675;    0.000
438.570; 2907.825;  242.675;    0.000
438.620; 2829.825;  277.675;    0.000
438.669; 2882.825;  256.675;    0.000
438.718; 2736.825;  248.675;    0.000
438.768; 2854.825;  225.675;    0.000
438.817; 2870.825;  229.675;    0.000
438.866; 2807.825;  218.675;    0.000
438.915; 2803.825;  256.675;    0.000
438.965; 2778.825;  242.675;    0.000
439.014; 2901.825;  260.675;    0.000
439.063; 2841.825;  238.675;    0.000
439.112; 2900.825;  209.675;    0.000
439.162; 2810.825;  258.675;    0.000
439.211; 2777.825;  275.675;    0.000
439.260; 2889.825;  238.675;    0.000
439.309; 2885.825;  237.675;    0.000
439.358; 2800.825;  252.675;    0.000
439.407; 2799.825;  239.675;    0.000
439.456; 2811.825;  211.675;    0.000
439.506; 2843.825;  261.675;    0.000
439.555; 2889.825;  274.675;    0.000
439.604; 2766.825;  262.675;    0.000
439.653; 2812.825;  245.675;    0.000
439.702; 2906.825;  247.675;    0.000
439.751; 2818.825;  228.675;    0.000
439.800; 2915.825;  253.675;    0.000
439.849; 2867.825;  219.675;    0.000
439.898; 2840.825;  246.675;    0.000
439.947; 2843.825;  229.675;    0.000
439.996; 2909.825;  274.675;    0.000
440.045; 2804.825;  224.675;    0.000
440.094; 2926.825;  225.675;    0.000
440.143; 2890.825;  277.675;    0.000
440.192; 2898.825;  252.675;    0.000
440.241; 2887.825;  253.675;    0.000
440.290; 2904.825;  242.675;    0.000
440.339; 2885.825;  220.675;    0.000
440.388; 2899.825;  244.675;    0.000
440.437; 2857.825;  268.675;    0.000
440.486; 2914.825;  242.675;    0.000
440.535; 2922.825;  269.675;    0.000
440.583; 2875.825;  258.675;    0.000
440.632; 2942.825;  286.675;    0.000
440.681; 2829.825;  238.675;    0.000
440.730; 2875.825;  271.675;    0.000
440.779; 2859.825;  226.675;    0.000
440.828; 2888.825;  213.675;    0.000
440.876; 2771.825;  207.675;    0.000
440.925; 2789.825;  247.675;    0.000
440.974; 2862.825;  229.675;    0.000
441.023; 3016.825;  227.675;    0.000
441.072; 2974.825;  222.675;    0.000
441.120; 2936.825;  273.675;    0.000
441.169; 2933.825;  263.675;    0.000
441.218; 2903.825;  264.675;    0.000
441.267; 2994.825;  287.675;    0.000
441.315; 2953.825;  251.675;    0.000
441.364; 2978.825;  252.675;    0.000
441.413; 2923.825;  227.675;    0.000
441.461; 2888.825;  198.675;    0.000
441.510; 2981.825;  273.675;    0.000
441.559; 3067.825;  245.675;    0.000
441.607; 2997.825;  218.675;    0.000
441.656; 2974.825;  261.675;    0.000
441.705; 3008.825;  259.675;    0.000
441.753; 3079.825;  272.675;    0.000
441.802; 2996.825;  246.675;    0.000
441.850; 3009.825;  255.675;    0.000
441.899; 2989.825;  236.675;    0.000
441.948; 3052.825;  267.675;    0.000
441.996; 2962.825;  246.675;    0.000
442.045; 2966.825;  279.675;    0.000
442.093; 2995.825;  251.675;    0.000
442.142; 2979.825;  274.675;    0.000
442.190; 2982.825;  279.675;    0.000
442.239; 2997.825;  295.675;    0.000
442.287; 2941.825;  229.675;    0.000
442.336; 2878.825;  265.675;    0.000
442.384; 2960.825;  219.675;    0.000
442.433; 2945.825;  287.675;    0.000
442.481; 3021.825;  271.675;    0.000
442.529; 2937.825;  262.675;    0.000
442.578; 2967.825;  282.675;    0.000
442.626; 2936.825;  245.675;    0.000
442.675; 2977.825;  283.675;    0.000
442.723; 2915.825;  247.675;    0.000
442.771; 2947.825;  221.675;    0.000
442.820; 2938.825;  253.675;    0.000
442.868; 2918.825;  204.675;    0.000
442.917; 2957.825;  263.675;    0.000
442.965; 2918.825;  255.675;    0.000
443.013; 2916.825;  282.675;    0.000
443.062; 2959.825;  258.675;    0.000
443.110; 2979.825;  268.675;    0.000
443.158; 2919.825;  247.675;    0.000
443.206; 2873.825;  243.675;    0.000
443.255; 2892.825;  271.675;    0.000
443.303; 2926.825;  279.675;    0.000
443.351; 2942.825;  264.675;    0.000
443.399; 2888.825;  245.675;    0.000
443.448; 3033.825;  259.675;    0.000
443.496; 2964.825;  281.675;    0.000
443.544; 3007.825;  213.675;    0.000
443.592; 2973.825;  290.675;    0.000
443.640; 3086.825;  270.675;    0.000
443.689; 2993.825;  229.675;    0.000
443.737; 2976.825;  254.675;    0.000
443.785; 3000.825;  234.675;    0.000
443.833; 2999.825;  287.675;    0.000
443.881; 3131.825;  229.675;    0.000
443.929; 2973.825;  260.675;    0.000
443.977; 2950.825;  265.675;    0.000
444.025; 3072.825;  257.675;    0.000
444.074; 3118.825;  245.675;    0.000
444.122; 3046.825;  282.675;    0.000
444.170; 3033.825;  240.675;    0.000
444.218; 3051.825;  270.675;    0.000
444.266; 3022.825;  254.675;    0.000
444.314; 3171.825;  264.675;    0.000
444.362; 3113.825;  287.675;    0.000
444.410; 3055.825;  236.675;    0.000
444.458; 3228.825;  273.675;    0.000
444.506; 3079.825;  235.675;    0.000
444.554; 3142.825;  242.675;    0.000
444.602; 3135.825;  283.675;    0.000
444.650; 3156.825;  266.675;    0.000
444.698; 3126.825;  248.675;    0.000
444.746; 3162.825;  247.675;    0.000
444.793; 3141.825;  211.675;    0.000
444.841; 3246.825;  259.675;    0.000
444.889; 3274.825;  253.675;    0.000
444.937; 3179.825;  248.675;    0.000
444.985; 3165.825;  233.675;    0.000
445.033; 3161.825;  245.675;    0.000
445.081; 3095.825;  243.675;    0.000
445.129; 3155.825;  238.675;    0.000
445.176; 3104.825;  204.675;    0.000
445.224; 3141.825;  262.675;    0.000
445.272; 3049.825;  256.675;    0.000
445.320; 3128.825;  235.675;    0.000
445.368; 3086.825;  251.675;    0.000
445.415; 3078.825;  250.675;    0.000
445.463; 3113.825;  225.675;    0.000
445.511; 2995.825;  226.675;    0.000
445.559; 3134.825;  251.675;    0.000
445.606; 2993.825;  213.675;    0.000
445.654; 3071.825;  261.675;    0.000
445.702; 3019.825;  222.675;    0.000
445.749; 3052.825;  257.675;    0.000
445.797; 3029.825;  263.675;    0.000
445.845; 3037.825;  218.675;    0.000
445.892; 3044.825;  228.675;    0.000
445.940; 3104.825;  249.675;    0.000
445.988; 3014.825;  276.675;    0.000
446.035; 3043.825;  229.675;    0.000
446.083; 3111.825;  255.675;    0.000
446.130; 3040.825;  200.675;    0.000
446.178; 3070.825;  256.675;    0.000
446.226; 3061.825;  238.675;    0.000
446.273; 3018.825;  250.675;    0.000
446.321; 3046.825;  233.675;    0.000
446.368; 3044.825;  244.675;    0.000
446.416; 2967.825;  214.675;    0.000
446.463; 3111.825;  225.675;    0.000
446.511; 3017.825;  253.675;    0.000
446.558; 3093.825;  246.675;    0.000
446.606; 3100.825;  238.675;    0.000
446.653; 3088.825;  215.675;    0.000
446.701; 3108.825;  248.675;    0.000
446.748; 3069.825;  258.675;    0.000
446.796; 3017.825;  259.675;    0.000
446.843; 3190.825;  269.675;    0.000
446.891; 3062.825;  259.675;    0.000
446.938; 3168.825;  226.675;    0.000
446.985; 3193.825;  225.675;    0.000
447.033; 3167.825;  269.675;    0.000
447.080; 3207.825;  258.675;    0.000
447.128; 3267.825;  225.675;    0.000
447.175; 3170.825;  259.675;    0.000
447.222; 3177.825;  238.675;    0.000
447.270; 3298.825;  250.675;    0.000
447.317; 3206.825;  217.675;    0.000
447.364; 3220.825;  262.675;    0.000
447.411; 3317.825;  269.675;    0.000
447.459; 3241.825;  251.675;    0.000
447.506; 3257.825;  227.675;    0.000
447.553; 3245.825;  250.675;    0.000
447.601; 3458.825;  251.675;    0.000
447.648; 3403.825;  276.675;    0.000
447.695; 3341.825;  229.675;    0.000
447.742; 3481.825;  245.675;    0.000
447.789; 3561.825;  243.675;    0.000
447.837; 3533.825;  267.675;    0.000
447.884; 3514.825;  246.675;    0.000
447.931; 3623.825;  266.675;    0.000
447.978; 3641.825;  242.675;    0.000
448.025; 3671.825;  267.675;    0.000
448.072; 3777.825;  257.675;    0.000
448.120; 3879.825;  279.675;    0.000
448.167; 3730.825;  275.675;    0.000
448.214; 3701.825;  241.675;    0.000
448.261; 3722.825;  271.675;    0.000
448.308; 3537.825;  256.675;    0.000
448.355; 3464.825;  253.675;    0.000
448.402; 3453.825;  267.675;    0.000
448.449; 3415.825;  252.675;    0.000
448.496; 3443.825;  241.675;    0.000
448.543; 3393.825;  250.675;    0.000
448.590; 3408.825;  288.675;    0.000
448.637; 3291.825;  255.675;    0.000
448.684; 3198.825;  284.675;    0.000
448.731; 3156.825;  244.675;    0.000
448.778; 3251.825;  257.675;    0.000
448.825; 3086.825;  252.675;    0.000
448.872; 3100.825;  205.675;    0.000
448.919; 3067.825;  244.675;    0.000
448.966; 3106.825;  278.675;    0.000
449.013; 3172.825;  262.675;    0.000
449.060; 3061.825;  278.675;    0.000
449.107; 3010.825;  248.675;    0.000
449.154; 3038.825;  230.675;    0.000
449.200; 2933.825;  211.675;    0.000
449.247; 3052.825;  283.675;    0.000
449.294; 2977.825;  251.675;    0.000
449.341; 2967.825;  280.675;    0.000
449.388; 2929.825;  247.675;    0.000
449.435; 2935.825;  267.675;    0.000
449.481; 2926.825;  303.675;    0.000
449.528; 2983.825;  279.675;    0.000
449.575; 2892.825;  226.675;    0.000
449.622; 2819.825;  263.675;    0.000
449.668; 2892.825;  249.675;    0.000
449.715; 2875.825;  257.675;    0.000
449.762; 2928.825;  251.675;    0.000
449.809; 2928.825;  289.675;    0.000
449.855; 2876.825;  239.675;    0.000
449.902; 2896.825;  262.675;    0.000
449.949; 2996.825;  262.675;    0.000
449.995; 2908.825;  265.675;    0.000
450.042; 2924.825;  280.675;    0.000
450.089; 2902.825;  277.675;    0.000
450.135; 2864.825;  285.675;    0.000
450.182; 2810.825;  275.675;    0.000
450.229; 2800.825;  278.675;    0.000
450.275; 2818.825;  288.675;    0.000
450.322; 2759.825;  238.675;    0.000
450.368; 2802.825;  276.675;    0.000
450.415; 2829.825;  295.675;    0.000
450.462; 2782.825;  283.675;    0.000
450.508; 2785.825;  264.675;    0.000
450.555; 2770.825;  275.675;    0.000
450.601; 2755.825;  278.675;    0.000
450.648; 2793.825;  251.675;    0.000
450.694; 2807.825;  237.675;    0.000
450.741; 2819.825;  280.675;    0.000
450.787; 2703.825;  279.675;    0.000
450.834; 2820.825;  287.675;    0.000
450.880; 2771.825;  265.675;    0.000
450.927; 2756.825;  270.675;    0.000
450.973; 2732.825;  308.675;    0.000
451.019; 2744.825;  253.675;    0.000
451.066; 2780.825;  261.675;    0.000
451.112; 2738.825;  276.675;    0.000
451.159; 2712.825;  235.675;    0.000
451.205; 2754.825;  284.675;    0.000
451.251; 2762.825;  264.675;    0.000
451.298; 2742.825;  262.675;    0.000
451.344; 2749.825;  278.675;    0.000
451.390; 2806.825;  273.675;    0.000
451.437; 2819.825;  272.675;    0.000
451.483; 2765.825;  302.675;    0.000
451.529; 2695.825;  255.675;    0.000
451.576; 2679.825;  287.675;    0.000
451.622; 2717.825;  254.675;    0.000
451.668; 2624.825;  260.675;    0.000
451.714; 2701.825;  289.675;    0.000
451.761; 2632.825;  273.675;    0.000
451.807; 2706.825;  307.675;    0.000
451.853; 2747.825;  281.675;    0.000
451.899; 2728.825;  246.675;    0.000
451.945; 2687.825;  258.675;    0.000
451.992; 2728.825;  276.675;    0.000
452.038; 2639.825;  287.675;    0.000
452.084; 2672.825;  288.675;    0.000
452.130; 2742.825;  259.675;    0.000
452.176; 2708.825;  265.675;    0.000
452.222; 2714.825;  222.675;    0.000
452.268; 2728.825;  271.675;    0.000
452.315; 2614.825;  258.675;    0.000
452.361; 2703.825;  233.675;    0.000
452.407; 2612.825;  270.675;    0.000
452.453; 2641.825;  261.675;    0.000
452.499; 2720.825;  279.675;    0.000
452.545; 2645.825;  269.675;    0.000
452.591; 2708.825;  288.675;    0.000
452.637; 2644.825;  279.675;    0.000
452.683; 2675.825;  232.675;    0.000
452.729; 2638.825;  285.675;    0.000
452.775; 2761.825;  280.675;    0.000
452.821; 2658.825;  260.675;    0.000
452.867; 2582.825;  239.675;    0.000
452.913; 2652.825;  240.675;    0.000
452.959; 2593.825;  214.675;    0.000
453.005; 2651.825;  266.675;    0.000
453.051; 2675.825;  258.675;    0.000
453.097; 2615.825;  253.675;    0.000
453.142; 2582.825;  244.675;    0.000
453.188; 2563.825;  241.675;    0.000
453.234; 2662.825;  257.675;    0.000
453.280; 2630.825;  231.675;    0.000
453.326; 2670.825;  240.675;    0.000
453.372; 2637.825;  208.675;    0.000
453.418; 2652.825;  266.675;    0.000
453.463; 2659.825;  232.675;    0.000
453.509; 2595.825;  221.675;    0.000
453.555; 2657.825;  268.675;    0.000
453.601; 2621.825;  242.675;    0.000
453.647; 2708.825;  283.675;    0.000
453.692; 2562.825;  242.675;    0.000
453.738; 2554.825;  294.675;    0.000
453.784; 2589.825;  256.675;    0.000
453.829; 2573.825;  267.675;    0.000
453.875; 2588.825;  233.675;    0.000
453.921; 2549.825;  247.675;    0.000
453.967; 2603.825;  249.675;    0.000
454.012; 2589.825;  274.675;    0.000
454.058; 2563.825;  249.675;    0.000
454.104; 2626.825;  272.675;    0.000
454.149; 2581.825;  277.675;    0.000
454.195; 2584.825;  256.675;    0.000
454.240; 2581.825;  263.675;    0.000
454.286; 2600.825;  276.675;    0.000
454.332; 2565.825;  290.675;    0.000
454.377; 2579.825;  274.675;    0.000
454.423; 2666.825;  282.675;    0.000
454.468; 2609.825;  275.675;    0.000
454.514; 2630.825;  270.675;    0.000
454.559; 2601.825;  249.675;    0.000
454.605; 2602.825;  241.675;    0.000
454.650; 2619.825;  269.675;    0.000
454.696; 2611.825;  253.675;    0.000
454.741; 2679.825;  279.675;    0.000
454.787; 2609.825;  252.675;    0.000
454.832; 2603.825;  246.675;    0.000
454.878; 2534.825;  264.675;    0.000
454.923; 2608.825;  268.675;    0.000
454.969; 2598.825;  253.675;    0.000
455.014; 2569.825;  264.675;    0.000
455.060; 2570.825;  265.675;    0.000
455.105; 2569.825;  270.675;    0.000
455.150; 2604.825;  284.675;    0.000
455.196; 2711.825;  278.675;    0.000
455.241; 2647.825;  248.675;    0.000
455.286; 2737.825;  274.675;    0.000
455.332; 2645.825;  269.675;    0.000
455.377; 2718.825;  218.675;    0.000
455.422; 2738.825;  261.675;    0.000
455.468; 2652.825;  278.675;    0.000
455.513; 2641.825;  235.675;    0.000
455.558; 2575.825;  232.675;    0.000
455.604; 2559.825;  285.675;    0.000
455.649; 2597.825;  264.675;    0.000
455.694; 2578.825;  235.675;    0.000
455.739; 2573.825;  265.675;    0.000
455.785; 2674.825;  266.675;    0.000
455.830; 2644.825;  272.675;    0.000
455.875; 2601.825;  256.675;    0.000
455.920; 2641.825;  191.675;    0.000
455.965; 2645.825;  280.675;    0.000
456.010; 2647.825;  267.675;    0.000
456.056; 2650.825;  270.675;    0.000
456.101; 2563.825;  248.675;    0.000
456.146; 2633.825;  287.675;    0.000
456.191; 2669.825;  280.675;    0.000
456.236; 2626.825;  229.675;    0.000
456.281; 2545.825;  241.675;    0.000
456.326; 2594.825;  248.675;    0.000
456.371; 2561.825;  233.675;    0.000
456.416; 2667.825;  284.675;    0.000
456.461; 2601.825;  256.675;    0.000
456.507; 2607.825;  250.675;    0.000
456.552; 2649.825;  290.675;    0.000
456.597; 2603.825;  260.675;    0.000
456.642; 2656.825;  252.675;    0.000
456.687; 2621.825;  272.675;    0.000
456.732; 2602.825;  303.675;    0.000
456.776; 2635.825;  269.675;    0.000
456.821; 2630.825;  256.675;    0.000
456.866; 2580.825;  278.675;    0.000
456.911; 2515.825;  230.675;    0.000
456.956; 2617.825;  275.675;    0.000
457.001; 2566.825;  248.675;    0.000
457.046; 2547.825;  222.675;    0.000
457.091; 2554.825;  251.675;    0.000
457.136; 2722.825;  231.675;    0.000
457.181; 2591.825;  245.675;    0.000
457.225; 2625.825;  262.675;    0.000
457.270; 2564.825;  277.675;    0.000
457.315; 2727.825;  235.675;    0.000
457.360; 2623.825;  231.675;    0.000
457.405; 2610.825;  214.675;    0.000
457.450; 2583.825;  255.675;    0.000
457.494; 2718.825;  220.675;    0.000
457.539; 2642.825;  257.675;    0.000
457.584; 2666.825;  279.675;    0.000
457.629; 2475.825;  249.675;    0.000
457.673; 2640.825;  237.675;    0.000
457.718; 2605.825;  232.675;    0.000
457.763; 2659.825;  278.675;    0.000
457.807; 2695.825;  279.675;    0.000
457.852; 2646.825;  246.675;    0.000
457.897; 2636.825;  284.675;    0.000
457.941; 2603.825;  272.675;    0.000
457.986; 2694.825;  285.675;    0.000
458.031; 2672.825;  235.675;    0.000
458.075; 2751.825;  299.675;    0.000
458.120; 2652.825;  284.675;    0.000
458.165; 2644.825;  212.675;    0.000
458.209; 2647.825;  254.675;    0.000
458.254; 2718.825;  257.675;    0.000
458.298; 2604.825;  265.675;    0.000
458.343; 2706.825;  278.675;    0.000
458.387; 2730.825;  316.675;    0.000
458.432; 2756.825;  279.675;    0.000
458.476; 2737.825;  272.675;    0.000
458.521; 2764.825;  240.675;    0.000
458.565; 2713.825;  307.675;    0.000
458.610; 2721.825;  246.675;    0.000
458.654; 2790.825;  275.675;    0.000
458.699; 2839.825;  288.675;    0.000
458.743; 2728.825;  244.675;    0.000
458.788; 2771.825;  245.675;    0.000
458.832; 2895.825;  277.675;    0.000
458.877; 2875.825;  285.675;    0.000
458.921; 2868.825;  216.675;    0.000
458.965; 2808.825;  260.675;    0.000
459.010; 2836.825;  284.675;    0.000
459.054; 2900.825;  272.675;    0.000
459.099; 2902.825;  262.675;    0.000
459.143; 2956.825;  276.675;    0.000
459.187; 2940.825;  258.675;    0.000
459.231; 2798.825;  278.675;    0.000
459.276; 2952.825;  262.675;    0.000
459.320; 2865.825;  291.675;    0.000
459.364; 2976.825;  294.675;    0.000
459.409; 2972.825;  269.675;    0.000
459.453; 2939.825;  257.675;    0.000
459.497; 2902.825;  283.675;    0.000
459.541; 2957.825;  275.675;    0.000
459.586; 2912.825;  261.675;    0.000
459.630; 2966.825;  284.675;    0.000
459.674; 2870.825;  244.675;    0.000
459.718; 3001.825;  309.675;    0.000
459.762; 3001.825;  281.675;    0.000
459.807; 2968.825;  250.675;    0.000
459.851; 3071.825;  286.675;    0.000
459.895; 2923.825;  230.675;    0.000
459.939; 2983.825;  262.675;    0.000
459.983; 2999.825;  250.675;    0.000
460.027; 2844.825;  275.675;    0.000
460.071; 2986.825;  301.675;    0.000
460.115; 2996.825;  279.675;    0.000
460.159; 3024.825;  301.675;    0.000
460.204; 3084.825;  287.675;    0.000
460.248; 3108.825;  293.675;    0.000
460.292; 3113.825;  310.675;    0.000
460.336; 3118.825;  263.675;    0.000
460.380; 3060.825;  268.675;    0.000
460.424; 3026.825;  281.675;    0.000
460.468; 3046.825;  310.675;    0.000
460.512; 3045.825;  273.675;    0.000
460.556; 3095.825;  291.675;    0.000
460.599; 3036.825;  240.675;    0.000
460.643; 2967.825;  260.675;    0.000
460.687; 3161.825;  283.675;    0.000
460.731; 3039.825;  254.675;    0.000
460.775; 3102.825;  265.675;    0.000
460.819; 3010.825;  280.675;    0.000
460.863; 3190.825;  316.675;    0.000
460.907; 3155.825;  231.675;    0.000
460.951; 3040.825;  275.675;    0.000
460.995; 3131.825;  290.675;    0.000
461.038; 3033.825;  284.675;    0.000
461.082; 3087.825;  278.675;    0.000
461.126; 3156.825;  321.675;    0.000
461.170; 3086.825;  273.675;    0.000
461.214; 3064.825;  289.675;    0.000
461.257; 3225.825;  296.675;    0.000
461.301; 3122.825;  287.675;    0.000
461.345; 3068.825;  290.675;    0.000
461.389; 3167.825;  260.675;    0.000
461.432; 3232.825;  262.675;    0.000
461.476; 3105.825;  254.675;    0.000
461.520; 3121.825;  305.675;    0.000
461.563; 3042.825;  289.675;    0.000
461.607; 3158.825;  286.675;    0.000
461.651; 3114.825;  271.675;    0.000
461.694; 3055.825;  245.675;    0.000
461.738; 3145.825;  278.675;    0.000
461.782; 3087.825;  284.675;    0.000
461.825; 3165.825;  305.675;    0.000
461.869; 3253.825;  293.675;    0.000
461.913; 3146.825;  280.675;    0.000
461.956; 3221.825;  237.675;    0.000
462.000; 3210.825;  288.675;    0.000
462.043; 3187.825;  282.675;    0.000
462.087; 3219.825;  268.675;    0.000
462.130; 3203.825;  286.675;    0.000
462.174; 3211.825;  312.675;    0.000
462.217; 3277.825;  270.675;    0.000
462.261; 3180.825;  281.675;    0.000
462.304; 3228.825;  248.675;    0.000
462.348; 3254.825;  267.675;    0.000
462.391; 3218.825;  270.675;    0.000
462.435; 3313.825;  287.675;    0.000
462.478; 3254.825;  290.675;    0.000
462.522; 3250.825;  296.675;    0.000
462.565; 3275.825;  275.675;    0.000
462.608; 3431.825;  325.675;    0.000
462.652; 3345.825;  303.675;    0.000
462.695; 3467.825;  355.675;    0.000
462.739; 3437.825;  272.675;    0.000
462.782; 3454.825;  295.675;    0.000
462.825; 3520.825;  300.675;    0.000
462.869; 3573.825;  319.675;    0.000
462.912; 3544.825;  363.675;    0.000
462.955; 3487.825;  298.675;    0.000
462.998; 3497.825;  321.675;    0.000
463.042; 3642.825;  310.675;    0.000
463.085; 3661.825;  305.675;    0.000
463.128; 3652.825;  345.675;    0.000
463.172; 3466.825;  341.675;    0.000
463.215;  399.825;  300.675;    0.000
463.258;  331.825;  287.675;    0.000
463.301;  315.825;  290.675;    0.000
463.344;  306.825;  320.675;    0.000
463.388;  325.825;  340.675;    0.000
463.431;  276.825;  278.675;    0.000
463.474;  340.825;  353.675;    0.000
463.517;  302.825;  295.675;    0.000
463.560;  357.825;  328.675;    0.000
463.603;  327.825;  316.675;    0.000
463.646;  344.825;  295.675;    0.000
463.690;  314.825;  334.675;    0.000
463.733;  307.825;  343.675;    0.000
463.776;  295.825;  300.675;    0.000
463.819;  356.825;  368.675;    0.000
463.862;  266.825;  327.675;    0.000

