
Integration time [ms]:   0.300
Averaging Nr. [scans]: 1
Smoothing Nr. [pixels]: 0
Data measured with spectrometer [name]: VIS
Wave   ;Sample   ;Dark     ;Reference
[nm]   ;[counts] ;[counts] ;[counts] 

450.961;  205.050;  204.350;    0.000
451.100;  226.050;  243.350;    0.000
451.239;  214.050;  228.350;    0.000
451.377;  253.050;  250.350;    0.000
451.516;  204.050;  189.350;    0.000
451.655;  232.050;  235.350;    0.000
451.794;  207.050;  223.350;    0.000
451.932;  227.050;  269.350;    0.000
452.071;  212.050;  250.350;    0.000
452.210;  222.050;  262.350;    0.000
452.348;  234.050;  259.350;    0.000
452.487;  213.050;  231.350;    0.000
452.626;  227.050;  220.350;    0.000
452.764;  214.050;  252.350;    0.000
452.903;  215.050;  236.350;    0.000
453.042;  323.050;  217.350;    0.000
453.180; 3898.050;  273.350;    0.000
453.319; 4057.050;  261.350;    0.000
453.458; 4087.050;  219.350;    0.000
453.596; 4123.050;  307.350;    0.000
453.735; 4155.050;  246.350;    0.000
453.873; 4215.050;  270.350;    0.000
454.012; 4214.050;  232.350;    0.000
454.150; 4275.050;  211.350;    0.000
454.289; 4305.050;  245.350;    0.000
454.427; 4415.050;  224.350;    0.000
454.566; 4373.050;  252.350;    0.000
454.704; 4513.050;  225.350;    0.000
454.843; 4513.050;  195.350;    0.000
454.981; 4584.050;  258.350;    0.000
455.120; 4515.050;  191.350;    0.000
455.258; 4786.050;  243.350;    0.000
455.397; 4778.050;  188.350;    0.000
455.535; 4722.050;  219.350;    0.000
455.674; 4774.050;  184.350;    0.000
455.812; 4739.050;  225.350;    0.000
455.951; 4877.050;  201.350;    0.000
456.089; 4803.050;  187.350;    0.000
456.227; 4931.050;  199.350;    0.000
456.366; 5045.050;  235.350;    0.000
456.504; 5015.050;  216.350;    0.000
456.642; 5038.050;  256.350;    0.000
456.781; 5033.050;  201.350;    0.000
456.919; 5203.050;  231.350;    0.000
457.057; 5178.050;  181.350;    0.000
457.196; 5347.050;  231.350;    0.000
457.334; 5349.050;  229.350;    0.000
457.472; 5390.050;  242.350;    0.000
457.610; 5517.050;  221.350;    0.000
457.749; 5591.050;  218.350;    0.000
457.887; 5625.050;  213.350;    0.000
458.025; 5790.050;  228.350;    0.000
458.163; 5961.050;  204.350;    0.000
458.301; 5936.050;  230.350;    0.000
458.440; 5949.050;  200.350;    0.000
458.578; 6070.050;  222.350;    0.000
458.716; 6163.050;  137.350;    0.000
458.854; 6466.050;  259.350;    0.000
458.992; 6336.050;  172.350;    0.000
459.130; 6434.050;  253.350;    0.000
459.269; 6487.050;  212.350;    0.000
459.407; 6679.050;  212.350;    0.000
459.545; 6751.050;  225.350;    0.000
459.683; 6922.050;  225.350;    0.000
459.821; 6743.050;  192.350;    0.000
459.959; 7083.050;  205.350;    0.000
460.097; 7135.050;  199.350;    0.000
460.235; 7133.050;  232.350;    0.000
460.373; 7193.050;  248.350;    0.000
460.511; 7239.050;  225.350;    0.000
460.649; 7305.050;  204.350;    0.000
460.787; 7365.050;  221.350;    0.000
460.925; 7380.050;  181.350;    0.000
461.063; 7440.050;  243.350;    0.000
461.201; 7365.050;  212.350;    0.000
461.339; 7462.050;  229.350;    0.000
461.477; 7476.050;  162.350;    0.000
461.615; 7692.050;  232.350;    0.000
461.753; 7816.050;  193.350;    0.000
461.891; 7796.050;  217.350;    0.000
462.029; 7957.050;  224.350;    0.000
462.166; 8038.050;  222.350;    0.000
462.304; 8154.050;  185.350;    0.000
462.442; 8340.050;  246.350;    0.000
462.580; 8438.050;  246.350;    0.000
462.718; 8510.050;  235.350;    0.000
462.856; 8563.050;  230.350;    0.000
462.993; 8699.050;  266.350;    0.000
463.131; 8506.050;  208.350;    0.000
463.269; 8449.050;  218.350;    0.000
463.407; 8281.050;  215.350;    0.000
463.545; 8155.050;  200.350;    0.000
463.682; 8247.050;  206.350;    0.000
463.820; 8631.050;  211.350;    0.000
463.958; 8888.050;  206.350;    0.000
464.095; 8990.050;  193.350;    0.000
464.233; 9099.050;  203.350;    0.000
464.371; 8977.050;  258.350;    0.000
464.509; 8875.050;  219.350;    0.000
464.646; 8886.050;  210.350;    0.000
464.784; 8957.050;  206.350;    0.000
464.921; 8731.050;  233.350;    0.000
465.059; 8618.050;  186.350;    0.000
465.197; 8345.050;  213.350;    0.000
465.334; 8053.050;  202.350;    0.000
465.472; 8150.050;  236.350;    0.000
465.609; 7947.050;  206.350;    0.000
465.747; 7907.050;  208.350;    0.000
465.885; 7904.050;  198.350;    0.000
466.022; 7750.050;  210.350;    0.000
466.160; 7723.050;  245.350;    0.000
466.297; 7673.050;  226.350;    0.000
466.435; 7609.050;  235.350;    0.000
466.572; 7718.050;  226.350;    0.000
466.710; 7729.050;  266.350;    0.000
466.847; 7553.050;  258.350;    0.000
466.985; 7668.050;  228.350;    0.000
467.122; 7658.050;  201.350;    0.000
467.260; 7519.050;  170.350;    0.000
467.397; 7562.050;  174.350;    0.000
467.534; 7566.050;  244.350;    0.000
467.672; 7438.050;  247.350;    0.000
467.809; 7563.050;  182.350;    0.000
467.947; 7607.050;  208.350;    0.000
468.084; 7395.050;  206.350;    0.000
468.221; 7635.050;  249.350;    0.000
468.359; 7513.050;  253.350;    0.000
468.496; 7415.050;  208.350;    0.000
468.633; 7441.050;  189.350;    0.000
468.771; 7593.050;  216.350;    0.000
468.908; 7629.050;  240.350;    0.000
469.045; 7666.050;  234.350;    0.000
469.183; 7619.050;  203.350;    0.000
469.320; 7626.050;  230.350;    0.000
469.457; 7776.050;  219.350;    0.000
469.594; 7894.050;  233.350;    0.000
469.732; 7863.050;  230.350;    0.000
469.869; 8023.050;  239.350;    0.000
470.006; 8157.050;  224.350;    0.000
470.143; 8200.050;  241.350;    0.000
470.280; 8181.050;  234.350;    0.000
470.417; 8341.050;  236.350;    0.000
470.555; 8207.050;  207.350;    0.000
470.692; 8226.050;  251.350;    0.000
470.829; 8174.050;  238.350;    0.000
470.966; 8042.050;  242.350;    0.000
471.103; 7914.050;  215.350;    0.000
471.240; 8127.050;  237.350;    0.000
471.377; 7965.050;  235.350;    0.000
471.514; 7999.050;  256.350;    0.000
471.651; 7917.050;  198.350;    0.000
471.789; 7839.050;  215.350;    0.000
471.926; 7753.050;  210.350;    0.000
472.063; 7896.050;  237.350;    0.000
472.200; 7669.050;  265.350;    0.000
472.337; 7736.050;  240.350;    0.000
472.474; 7729.050;  195.350;    0.000
472.611; 7662.050;  228.350;    0.000
472.748; 7706.050;  234.350;    0.000
472.884; 7712.050;  230.350;    0.000
473.021; 7620.050;  219.350;    0.000
473.158; 7648.050;  253.350;    0.000
473.295; 7677.050;  207.350;    0.000
473.432; 7475.050;  238.350;    0.000
473.569; 7700.050;  236.350;    0.000
473.706; 7520.050;  203.350;    0.000
473.843; 7600.050;  232.350;    0.000
473.980; 7486.050;  207.350;    0.000
474.117; 7591.050;  182.350;    0.000
474.253; 7634.050;  261.350;    0.000
474.390; 7648.050;  211.350;    0.000
474.527; 7838.050;  229.350;    0.000
474.664; 7645.050;  181.350;    0.000
474.801; 7793.050;  250.350;    0.000
474.937; 7713.050;  196.350;    0.000
475.074; 7706.050;  213.350;    0.000
475.211; 7809.050;  232.350;    0.000
475.348; 7878.050;  228.350;    0.000
475.484; 7894.050;  240.350;    0.000
475.621; 7772.050;  235.350;    0.000
475.758; 7797.050;  232.350;    0.000
475.894; 7890.050;  227.350;    0.000
476.031; 7813.050;  233.350;    0.000
476.168; 7877.050;  205.350;    0.000
476.304; 7990.050;  263.350;    0.000
476.441; 7796.050;  255.350;    0.000
476.578; 7943.050;  191.350;    0.000
476.714; 7974.050;  218.350;    0.000
476.851; 8024.050;  224.350;    0.000
476.987; 8165.050;  225.350;    0.000
477.124; 8080.050;  231.350;    0.000
477.261; 8153.050;  291.350;    0.000
477.397; 8185.050;  218.350;    0.000
477.534; 8386.050;  209.350;    0.000
477.670; 8480.050;  210.350;    0.000
477.807; 8398.050;  199.350;    0.000
477.943; 8504.050;  219.350;    0.000
478.080; 8568.050;  234.350;    0.000
478.216; 8627.050;  196.350;    0.000
478.353; 8672.050;  234.350;    0.000
478.489; 8743.050;  219.350;    0.000
478.626; 8750.050;  209.350;    0.000
478.762; 8856.050;  206.350;    0.000
478.898; 8807.050;  209.350;    0.000
479.035; 9026.050;  232.350;    0.000
479.171; 8947.050;  219.350;    0.000
479.308; 8815.050;  226.350;    0.000
479.444; 8930.050;  184.350;    0.000
479.580; 8877.050;  192.350;    0.000
479.717; 8983.050;  247.350;    0.000
479.853; 8995.050;  181.350;    0.000
479.989; 9165.050;  212.350;    0.000
480.126; 9121.050;  187.350;    0.000
480.262; 9294.050;  217.350;    0.000
480.398; 9291.050;  249.350;    0.000
480.535; 9105.050;  196.350;    0.000
480.671; 9254.050;  199.350;    0.000
480.807; 9108.050;  231.350;    0.000
480.943; 9125.050;  192.350;    0.000
481.080; 8979.050;  206.350;    0.000
481.216; 8926.050;  189.350;    0.000
481.352; 8967.050;  215.350;    0.000
481.488; 8952.050;  223.350;    0.000
481.624; 8922.050;  235.350;    0.000
481.760; 8815.050;  218.350;    0.000
481.897; 8883.050;  204.350;    0.000
482.033; 8795.050;  243.350;    0.000
482.169; 8852.050;  239.350;    0.000
482.305; 8867.050;  221.350;    0.000
482.441; 8783.050;  162.350;    0.000
482.577; 8889.050;  241.350;    0.000
482.713; 8951.050;  223.350;    0.000
482.849; 8742.050;  195.350;    0.000
482.985; 8951.050;  230.350;    0.000
483.121; 8853.050;  230.350;    0.000
483.258; 8790.050;  254.350;    0.000
483.394; 8841.050;  199.350;    0.000
483.530; 8891.050;  209.350;    0.000
483.665; 8935.050;  196.350;    0.000
483.801; 9012.050;  208.350;    0.000
483.937; 8907.050;  202.350;    0.000
484.073; 9022.050;  247.350;    0.000
484.209; 8973.050;  188.350;    0.000
484.345; 9093.050;  241.350;    0.000
484.481; 9076.050;  247.350;    0.000
484.617; 9011.050;  248.350;    0.000
484.753; 9059.050;  255.350;    0.000
484.889; 9260.050;  253.350;    0.000
485.025; 9150.050;  226.350;    0.000
485.161; 8964.050;  207.350;    0.000
485.296; 9103.050;  247.350;    0.000
485.432; 9379.050;  255.350;    0.000
485.568; 9234.050;  216.350;    0.000
485.704; 9135.050;  232.350;    0.000
485.840; 9226.050;  231.350;    0.000
485.975; 9257.050;  233.350;    0.000
486.111; 9257.050;  207.350;    0.000
486.247; 9263.050;  211.350;    0.000
486.383; 9265.050;  219.350;    0.000
486.518; 9181.050;  213.350;    0.000
486.654; 9422.050;  216.350;    0.000
486.790; 9338.050;  253.350;    0.000
486.926; 9027.050;  229.350;    0.000
487.061; 9258.050;  241.350;    0.000
487.197; 9246.050;  218.350;    0.000
487.333; 9257.050;  221.350;    0.000
487.468; 9013.050;  206.350;    0.000
487.604; 9305.050;  254.350;    0.000
487.740; 9129.050;  240.350;    0.000
487.875; 9079.050;  260.350;    0.000
488.011; 9126.050;  232.350;    0.000
488.146; 9160.050;  206.350;    0.000
488.282; 9096.050;  236.350;    0.000
488.417; 8966.050;  255.350;    0.000
488.553; 9193.050;  221.350;    0.000
488.688; 9007.050;  233.350;    0.000
488.824; 9178.050;  246.350;    0.000
488.960; 9180.050;  267.350;    0.000
489.095; 9089.050;  217.350;    0.000
489.230; 9358.050;  226.350;    0.000
489.366; 9231.050;  232.350;    0.000
489.501; 9287.050;  220.350;    0.000
489.637; 9198.050;  245.350;    0.000
489.772; 9180.050;  228.350;    0.000
489.908; 9277.050;  250.350;    0.000
490.043; 9203.050;  239.350;    0.000
490.178; 9167.050;  213.350;    0.000
490.314; 9285.050;  270.350;    0.000
490.449; 9088.050;  245.350;    0.000
490.585; 9160.050;  218.350;    0.000
490.720; 9231.050;  243.350;    0.000
490.855; 9233.050;  196.350;    0.000
490.991; 9224.050;  208.350;    0.000
491.126; 9158.050;  268.350;    0.000
491.261; 9092.050;  226.350;    0.000
491.396; 9175.050;  201.350;    0.000
491.532; 9246.050;  213.350;    0.000
491.667; 9252.050;  183.350;    0.000
491.802; 9295.050;  239.350;    0.000
491.937; 9378.050;  228.350;    0.000
492.073; 9453.050;  258.350;    0.000
492.208; 9379.050;  218.350;    0.000
492.343; 9336.050;  205.350;    0.000
492.478; 9417.050;  247.350;    0.000
492.613; 9427.050;  217.350;    0.000
492.749; 9436.050;  258.350;    0.000
492.884; 9269.050;  208.350;    0.000
493.019; 9278.050;  248.350;    0.000
493.154; 9448.050;  231.350;    0.000
493.289; 9283.050;  226.350;    0.000
493.424; 9356.050;  216.350;    0.000
493.559; 9400.050;  205.350;    0.000
493.694; 9365.050;  203.350;    0.000
493.829; 9210.050;  231.350;    0.000
493.964; 9443.050;  200.350;    0.000
494.099; 9314.050;  253.350;    0.000
494.234; 9286.050;  244.350;    0.000
494.369; 9404.050;  239.350;    0.000
494.504; 9247.050;  223.350;    0.000
494.639; 9407.050;  263.350;    0.000
494.774; 9351.050;  240.350;    0.000
494.909; 9355.050;  231.350;    0.000
495.044; 9414.050;  195.350;    0.000
495.179; 9295.050;  231.350;    0.000
495.314; 9293.050;  231.350;    0.000
495.449; 9447.050;  239.350;    0.000
495.584; 9375.050;  201.350;    0.000
495.719; 9279.050;  201.350;    0.000
495.854; 9507.050;  201.350;    0.000
495.988; 9534.050;  239.350;    0.000
496.123; 9323.050;  199.350;    0.000
496.258; 9325.050;  256.350;    0.000
496.393; 9525.050;  214.350;    0.000
496.528; 9487.050;  220.350;    0.000
496.663; 9685.050;  207.350;    0.000
496.797; 9821.050;  241.350;    0.000
496.932; 9812.050;  215.350;    0.000
497.067; 9864.050;  240.350;    0.000
497.202;10059.050;  177.350;    0.000
497.336;10144.050;  221.350;    0.000
497.471;10198.050;  228.350;    0.000
497.606;10258.050;  213.350;    0.000
497.740;10600.050;  217.350;    0.000
497.875;10863.050;  182.350;    0.000
498.010;11134.050;  230.350;    0.000
498.144;11283.050;  217.350;    0.000
498.279;11597.050;  194.350;    0.000
498.414;11882.050;  270.350;    0.000
498.548;11835.050;  184.350;    0.000
498.683;11893.050;  188.350;    0.000
498.817;12267.050;  216.350;    0.000
498.952;12458.050;  208.350;    0.000
499.087;13191.050;  236.350;    0.000
499.221;13533.050;  219.350;    0.000
499.356;13900.050;  263.350;    0.000
499.490;14103.050;  221.350;    0.000
499.625;14503.050;  233.350;    0.000
499.759;15203.050;  245.350;    0.000
499.894;15680.050;  241.350;    0.000
500.028;16466.051;  237.350;    0.000
500.162;17249.051;  282.350;    0.000
500.297;17315.051;  232.350;    0.000
500.431;17337.051;  266.350;    0.000
500.566;17214.051;  254.350;    0.000
500.700;17055.051;  238.350;    0.000
500.835;16522.051;  264.350;    0.000
500.969;16239.050;  165.350;    0.000
501.103;15700.050;  190.350;    0.000
501.238;14965.050;  274.350;    0.000
501.372;14251.050;  270.350;    0.000
501.506;13779.050;  231.350;    0.000
501.641;13387.050;  224.350;    0.000
501.775;12726.050;  224.350;    0.000
501.909;12622.050;  218.350;    0.000
502.043;12181.050;  238.350;    0.000
502.178;11889.050;  289.350;    0.000
502.312;11469.050;  225.350;    0.000
502.446;11391.050;  295.350;    0.000
502.580;11081.050;  200.350;    0.000
502.715;10888.050;  256.350;    0.000
502.849;10820.050;  226.350;    0.000
502.983;10674.050;  250.350;    0.000
503.117;10501.050;  229.350;    0.000
503.251;10420.050;  267.350;    0.000
503.385;10160.050;  237.350;    0.000
503.520; 9980.050;  210.350;    0.000
503.654; 9711.050;  204.350;    0.000
503.788; 9880.050;  236.350;    0.000
503.922; 9642.050;  225.350;    0.000
504.056; 9536.050;  222.350;    0.000
504.190; 9712.050;  220.350;    0.000
504.324; 9547.050;  257.350;    0.000
504.458; 9480.050;  223.350;    0.000
504.592; 9473.050;  252.350;    0.000
504.726; 9114.050;  216.350;    0.000
504.860; 9098.050;  231.350;    0.000
504.994; 8793.050;  228.350;    0.000
505.128; 8740.050;  239.350;    0.000
505.262; 8516.050;  245.350;    0.000
505.396; 8529.050;  231.350;    0.000
505.530; 8335.050;  211.350;    0.000
505.664; 8346.050;  223.350;    0.000
505.798; 8236.050;  239.350;    0.000
505.932; 8096.050;  232.350;    0.000
506.066; 7994.050;  263.350;    0.000
506.199; 8027.050;  231.350;    0.000
506.333; 7913.050;  213.350;    0.000
506.467; 7814.050;  241.350;    0.000
506.601; 7608.050;  233.350;    0.000
506.735; 7599.050;  235.350;    0.000
506.869; 7677.050;  269.350;    0.000
507.002; 7604.050;  244.350;    0.000
507.136; 7615.050;  258.350;    0.000
507.270; 7434.050;  218.350;    0.000
507.404; 7287.050;  191.350;    0.000
507.537; 7302.050;  226.350;    0.000
507.671; 7290.050;  243.350;    0.000
507.805; 7325.050;  234.350;    0.000
507.939; 7375.050;  234.350;    0.000
508.072; 7317.050;  261.350;    0.000
508.206; 7185.050;  220.350;    0.000
508.340; 7223.050;  241.350;    0.000
508.473; 7184.050;  214.350;    0.000
508.607; 7165.050;  232.350;    0.000
508.740; 7002.050;  222.350;    0.000
508.874; 7080.050;  225.350;    0.000
509.008; 6939.050;  258.350;    0.000
509.141; 7140.050;  210.350;    0.000
509.275; 6990.050;  199.350;    0.000
509.408; 7019.050;  260.350;    0.000
509.542; 6908.050;  252.350;    0.000
509.675; 7033.050;  276.350;    0.000
509.809; 6864.050;  266.350;    0.000
509.942; 6943.050;  227.350;    0.000
510.076; 6887.050;  243.350;    0.000
510.209; 6888.050;  221.350;    0.000
510.343; 6772.050;  229.350;    0.000
510.476; 6894.050;  246.350;    0.000
510.610; 6723.050;  211.350;    0.000
510.743; 6881.050;  279.350;    0.000
510.877; 6694.050;  274.350;    0.000
511.010; 6556.050;  252.350;    0.000
511.143; 6727.050;  228.350;    0.000
511.277; 6719.050;  261.350;    0.000
511.410; 6614.050;  217.350;    0.000
511.543; 6655.050;  230.350;    0.000
511.677; 6674.050;  245.350;    0.000
511.810; 6575.050;  237.350;    0.000
511.943; 6733.050;  224.350;    0.000
512.077; 6693.050;  194.350;    0.000
512.210; 6617.050;  212.350;    0.000
512.343; 6635.050;  236.350;    0.000
512.476; 6643.050;  248.350;    0.000
512.610; 6572.050;  249.350;    0.000
512.743; 6704.050;  224.350;    0.000
512.876; 6652.050;  277.350;    0.000
513.009; 6577.050;  261.350;    0.000
513.142; 6635.050;  213.350;    0.000
513.276; 6580.050;  192.350;    0.000
513.409; 6638.050;  267.350;    0.000
513.542; 6576.050;  224.350;    0.000
513.675; 6570.050;  244.350;    0.000
513.808; 6563.050;  218.350;    0.000
513.941; 6584.050;  237.350;    0.000
514.074; 6773.050;  257.350;    0.000
514.207; 6790.050;  245.350;    0.000
514.340; 6593.050;  195.350;    0.000
514.474; 6687.050;  244.350;    0.000
514.607; 6670.050;  230.350;    0.000
514.740; 6610.050;  246.350;    0.000
514.873; 6801.050;  268.350;    0.000
515.006; 6952.050;  253.350;    0.000
515.139; 6853.050;  235.350;    0.000
515.272; 6949.050;  214.350;    0.000
515.404; 6993.050;  228.350;    0.000
515.537; 7006.050;  263.350;    0.000
515.670; 6940.050;  270.350;    0.000
515.803; 7064.050;  243.350;    0.000
515.936; 7110.050;  226.350;    0.000
516.069; 7072.050;  227.350;    0.000
516.202; 7335.050;  259.350;    0.000
516.335; 7172.050;  260.350;    0.000
516.468; 7528.050;  243.350;    0.000
516.600; 8413.050;  258.350;    0.000
516.733; 9830.050;  235.350;    0.000
516.866; 9923.050;  267.350;    0.000
516.999; 9232.050;  251.350;    0.000
517.132;10646.050;  261.350;    0.000
517.264;13986.050;  260.350;    0.000
517.397;13797.050;  231.350;    0.000
517.530;10919.050;  257.350;    0.000
517.663; 9724.050;  263.350;    0.000
517.795; 9129.050;  250.350;    0.000
517.928; 9017.050;  257.350;    0.000
518.061; 8844.050;  227.350;    0.000
518.193;10879.050;  252.350;    0.000
518.326;16002.050;  227.350;    0.000
518.459;17056.051;  210.350;    0.000
518.591;12994.050;  214.350;    0.000
518.724;10118.050;  269.350;    0.000
518.857; 8871.050;  215.350;    0.000
518.989; 8479.050;  259.350;    0.000
519.122; 8172.050;  238.350;    0.000
519.254; 7625.050;  248.350;    0.000
519.387; 7539.050;  246.350;    0.000
519.519; 7385.050;  239.350;    0.000
519.652; 7217.050;  249.350;    0.000
519.784; 7080.050;  238.350;    0.000
519.917; 7014.050;  231.350;    0.000
520.049; 6855.050;  244.350;    0.000
520.182; 6766.050;  205.350;    0.000
520.314; 6830.050;  262.350;    0.000
520.447; 6990.050;  234.350;    0.000
520.579; 6997.050;  273.350;    0.000
520.712; 7175.050;  215.350;    0.000
520.844; 7089.050;  258.350;    0.000
520.976; 6875.050;  242.350;    0.000
521.109; 6441.050;  232.350;    0.000
521.241; 6416.050;  236.350;    0.000
521.373; 6367.050;  227.350;    0.000
521.506; 6310.050;  212.350;    0.000
521.638; 6115.050;  292.350;    0.000
521.770; 6184.050;  259.350;    0.000
521.903; 6114.050;  263.350;    0.000
522.035; 6077.050;  269.350;    0.000
522.167; 6089.050;  289.350;    0.000
522.300; 5943.050;  255.350;    0.000
522.432; 5974.050;  247.350;    0.000
522.564; 5887.050;  239.350;    0.000
522.696; 5944.050;  246.350;    0.000
522.828; 5948.050;  230.350;    0.000
522.961; 5925.050;  239.350;    0.000
523.093; 5769.050;  269.350;    0.000
523.225; 5915.050;  251.350;    0.000
523.357; 5874.050;  244.350;    0.000
523.489; 5824.050;  266.350;    0.000
523.621; 5666.050;  267.350;    0.000
523.753; 5764.050;  234.350;    0.000
523.885; 5593.050;  229.350;    0.000
524.018; 5685.050;  221.350;    0.000
524.150; 5618.050;  264.350;    0.000
524.282; 5559.050;  283.350;    0.000
524.414; 5528.050;  258.350;    0.000
524.546; 5552.050;  286.350;    0.000
524.678; 5424.050;  274.350;    0.000
524.810; 5471.050;  253.350;    0.000
524.942; 5509.050;  183.350;    0.000
525.074; 5426.050;  232.350;    0.000
525.206; 5426.050;  250.350;    0.000
525.338; 5408.050;  228.350;    0.000
525.469; 5417.050;  224.350;    0.000
525.601; 5516.050;  247.350;    0.000
525.733; 5369.050;  199.350;    0.000
525.865; 5409.050;  230.350;    0.000
525.997; 5482.050;  209.350;    0.000
526.129; 5328.050;  211.350;    0.000
526.261; 5376.050;  233.350;    0.000
526.393; 5370.050;  261.350;    0.000
526.524; 5478.050;  206.350;    0.000
526.656; 5433.050;  260.350;    0.000
526.788; 5334.050;  293.350;    0.000
526.920; 5316.050;  208.350;    0.000
527.052; 5349.050;  204.350;    0.000
527.183; 5217.050;  244.350;    0.000
527.315; 5322.050;  237.350;    0.000
527.447; 5241.050;  236.350;    0.000
527.578; 5304.050;  235.350;    0.000
527.710; 5388.050;  253.350;    0.000
527.842; 5318.050;  231.350;    0.000
527.973; 5405.050;  224.350;    0.000
528.105; 5290.050;  237.350;    0.000
528.237; 5330.050;  213.350;    0.000
528.368; 5224.050;  194.350;    0.000
528.500; 5313.050;  195.350;    0.000
528.632; 5234.050;  201.350;    0.000
528.763; 5191.050;  196.350;    0.000
528.895; 5193.050;  204.350;    0.000
529.026; 5270.050;  214.350;    0.000
529.158; 5298.050;  197.350;    0.000
529.289; 5291.050;  230.350;    0.000
529.421; 5229.050;  247.350;    0.000
529.552; 5174.050;  255.350;    0.000
529.684; 5239.050;  270.350;    0.000
529.815; 5289.050;  248.350;    0.000
529.947; 5267.050;  234.350;    0.000
530.078; 5276.050;  223.350;    0.000
530.210; 5277.050;  243.350;    0.000
530.341; 5223.050;  222.350;    0.000
530.472; 5214.050;  217.350;    0.000
530.604; 5273.050;  242.350;    0.000
530.735; 5336.050;  249.350;    0.000
530.867; 5234.050;  257.350;    0.000
530.998; 5401.050;  250.350;    0.000
531.129; 5223.050;  244.350;    0.000
531.260; 5242.050;  276.350;    0.000
531.392; 5312.050;  220.350;    0.000
531.523; 5327.050;  262.350;    0.000
531.654; 5420.050;  264.350;    0.000
531.786; 5511.050;  225.350;    0.000
531.917; 5487.050;  285.350;    0.000
532.048; 5482.050;  239.350;    0.000
532.179; 5401.050;  248.350;    0.000
532.311; 5412.050;  219.350;    0.000
532.442; 5343.050;  264.350;    0.000
532.573; 5279.050;  230.350;    0.000
532.704; 5383.050;  253.350;    0.000
532.835; 5290.050;  239.350;    0.000
532.966; 5172.050;  247.350;    0.000
533.097; 5163.050;  225.350;    0.000
533.229; 5159.050;  282.350;    0.000
533.360; 5209.050;  236.350;    0.000
533.491; 5219.050;  247.350;    0.000
533.622; 5280.050;  265.350;    0.000
533.753; 5343.050;  226.350;    0.000
533.884; 5339.050;  294.350;    0.000
534.015; 5268.050;  215.350;    0.000
534.146; 5343.050;  223.350;    0.000
534.277; 5346.050;  264.350;    0.000
534.408; 5267.050;  232.350;    0.000
534.539; 5397.050;  274.350;    0.000
534.670; 5356.050;  275.350;    0.000
534.801; 5311.050;  261.350;    0.000
534.932; 5297.050;  225.350;    0.000
535.063; 5125.050;  235.350;    0.000
535.194; 5184.050;  300.350;    0.000
535.324; 5178.050;  249.350;    0.000
535.455; 5137.050;  260.350;    0.000
535.586; 5164.050;  288.350;    0.000
535.717; 5194.050;  237.350;    0.000
535.848; 5200.050;  271.350;    0.000
535.979; 5127.050;  234.350;    0.000
536.109; 5130.050;  255.350;    0.000
536.240; 5046.050;  269.350;    0.000
536.371; 4999.050;  232.350;    0.000
536.502; 5140.050;  253.350;    0.000
536.632; 5081.050;  240.350;    0.000
536.763; 5091.050;  251.350;    0.000
536.894; 5123.050;  256.350;    0.000
537.025; 4987.050;  247.350;    0.000
537.155; 5166.050;  272.350;    0.000
537.286; 5016.050;  241.350;    0.000
537.417; 5149.050;  279.350;    0.000
537.547; 5077.050;  229.350;    0.000
537.678; 5051.050;  227.350;    0.000
537.808; 4939.050;  225.350;    0.000
537.939; 5062.050;  250.350;    0.000
538.070; 5084.050;  263.350;    0.000
538.200; 5024.050;  270.350;    0.000
538.331; 4915.050;  249.350;    0.000
538.461; 5039.050;  230.350;    0.000
538.592; 5107.050;  282.350;    0.000
538.722; 5046.050;  253.350;    0.000
538.853; 5024.050;  240.350;    0.000
538.983; 5043.050;  232.350;    0.000
539.114; 5093.050;  248.350;    0.000
539.244; 4999.050;  256.350;    0.000
539.375; 4869.050;  248.350;    0.000
539.505; 5040.050;  235.350;    0.000
539.636; 4899.050;  237.350;    0.000
539.766; 5084.050;  263.350;    0.000
539.896; 4997.050;  217.350;    0.000
540.027; 5042.050;  217.350;    0.000
540.157; 4940.050;  231.350;    0.000
540.287; 5061.050;  210.350;    0.000
540.418; 5076.050;  239.350;    0.000
540.548; 5004.050;  260.350;    0.000
540.678; 4949.050;  228.350;    0.000
540.809; 5088.050;  241.350;    0.000
540.939; 5108.050;  238.350;    0.000
541.069; 5120.050;  245.350;    0.000
541.200; 5026.050;  225.350;    0.000
541.330; 5168.050;  219.350;    0.000
541.460; 5040.050;  254.350;    0.000
541.590; 5058.050;  234.350;    0.000
541.720; 5072.050;  196.350;    0.000
541.851; 4971.050;  200.350;    0.000
541.981; 5064.050;  235.350;    0.000
542.111; 5208.050;  246.350;    0.000
542.241; 5169.050;  214.350;    0.000
542.371; 5126.050;  221.350;    0.000
542.501; 5267.050;  259.350;    0.000
542.631; 5370.050;  213.350;    0.000
542.761; 5542.050;  240.350;    0.000
542.891; 5490.050;  242.350;    0.000
543.021; 5531.050;  230.350;    0.000
543.151; 5467.050;  261.350;    0.000
543.281; 5437.050;  212.350;    0.000
543.411; 5455.050;  229.350;    0.000
543.542; 5371.050;  204.350;    0.000
543.671; 5303.050;  260.350;    0.000
543.801; 5347.050;  236.350;    0.000
543.931; 5302.050;  243.350;    0.000
544.061; 5297.050;  262.350;    0.000
544.191; 5215.050;  223.350;    0.000
544.321; 5211.050;  217.350;    0.000
544.451; 5435.050;  209.350;    0.000
544.581; 5283.050;  213.350;    0.000
544.711; 5620.050;  256.350;    0.000
544.841; 5457.050;  235.350;    0.000
544.970; 5523.050;  260.350;    0.000
545.100; 5629.050;  236.350;    0.000
545.230; 5513.050;  220.350;    0.000
545.360; 5688.050;  219.350;    0.000
545.490; 5696.050;  217.350;    0.000
545.619; 5667.050;  199.350;    0.000
545.749; 5530.050;  183.350;    0.000
545.879; 5442.050;  169.350;    0.000
546.009; 5442.050;  215.350;    0.000
546.138; 5324.050;  228.350;    0.000
546.268; 5295.050;  209.350;    0.000
546.398; 5403.050;  167.350;    0.000
546.527; 5265.050;  178.350;    0.000
546.657; 5447.050;  175.350;    0.000
546.786; 5402.050;  225.350;    0.000
546.916; 5249.050;  196.350;    0.000
547.046; 5375.050;  185.350;    0.000
547.175; 5406.050;  184.350;    0.000
547.305; 5301.050;  197.350;    0.000
547.434; 5331.050;  168.350;    0.000
547.564; 5364.050;  183.350;    0.000
547.693; 5241.050;  204.350;    0.000
547.823; 5279.050;  211.350;    0.000
547.953; 5466.050;  174.350;    0.000
548.082; 5575.050;  217.350;    0.000
548.211; 5260.050;  201.350;    0.000
548.341; 5338.050;  195.350;    0.000
548.470; 5365.050;  225.350;    0.000
548.600; 5361.050;  194.350;    0.000
548.729; 5277.050;  218.350;    0.000
548.859; 5394.050;  202.350;    0.000
548.988; 5269.050;  193.350;    0.000
549.117; 5382.050;  182.350;    0.000
549.247; 5374.050;  198.350;    0.000
549.376; 5242.050;  200.350;    0.000
549.505; 5347.050;  200.350;    0.000
549.635; 5502.050;  224.350;    0.000
549.764; 5343.050;  200.350;    0.000
549.893; 5447.050;  224.350;    0.000
550.023; 5555.050;  207.350;    0.000
550.152; 5431.050;  167.350;    0.000
550.281; 5467.050;  219.350;    0.000
550.410; 5365.050;  217.350;    0.000
550.539; 5515.050;  211.350;    0.000
550.669; 5503.050;  173.350;    0.000
550.798; 5477.050;  211.350;    0.000
550.927; 5485.050;  195.350;    0.000
551.056; 5460.050;  176.350;    0.000
551.185; 5487.050;  203.350;    0.000
551.314; 5345.050;  178.350;    0.000
551.443; 5494.050;  185.350;    0.000
551.573; 5424.050;  167.350;    0.000
551.702; 5464.050;  193.350;    0.000
551.831; 5611.050;  245.350;    0.000
551.960; 5488.050;  190.350;    0.000
552.089; 5527.050;  202.350;    0.000
552.218; 5600.050;  211.350;    0.000
552.347; 5698.050;  184.350;    0.000
552.476; 5807.050;  200.350;    0.000
552.605; 5694.050;  174.350;    0.000
552.734; 5815.050;  206.350;    0.000
552.863; 6038.050;  189.350;    0.000
552.992; 6031.050;  209.350;    0.000
553.121; 5883.050;  201.350;    0.000
553.249; 5929.050;  208.350;    0.000
553.378; 6051.050;  142.350;    0.000
553.507; 5767.050;  208.350;    0.000
553.636; 5843.050;  192.350;    0.000
553.765; 5773.050;  182.350;    0.000
553.894; 5768.050;  183.350;    0.000
554.023; 5677.050;  182.350;    0.000
554.151; 5663.050;  211.350;    0.000
554.280; 5753.050;  179.350;    0.000
554.409; 5656.050;  182.350;    0.000
554.538; 5534.050;  209.350;    0.000
554.666; 5594.050;  182.350;    0.000
554.795; 5539.050;  179.350;    0.000
554.924; 5628.050;  217.350;    0.000
555.052; 5384.050;  220.350;    0.000
555.181; 5493.050;  228.350;    0.000
555.310; 5539.050;  212.350;    0.000
555.439; 5473.050;  199.350;    0.000
555.567; 5526.050;  220.350;    0.000
555.696; 5418.050;  187.350;    0.000
555.824; 5322.050;  189.350;    0.000
555.953; 5375.050;  217.350;    0.000
556.082; 5352.050;  187.350;    0.000
556.210; 5267.050;  245.350;    0.000
556.339; 5391.050;  195.350;    0.000
556.467; 5333.050;  218.350;    0.000
556.596; 5325.050;  198.350;    0.000
556.724; 5296.050;  201.350;    0.000
556.853; 5177.050;  196.350;    0.000
556.981; 5361.050;  175.350;    0.000
557.110; 5362.050;  210.350;    0.000
557.238; 5326.050;  190.350;    0.000
557.367; 5226.050;  192.350;    0.000
557.495; 5204.050;  219.350;    0.000
557.623; 5244.050;  203.350;    0.000
557.752; 5309.050;  166.350;    0.000
557.880; 5217.050;  172.350;    0.000
558.008; 5169.050;  221.350;    0.000
558.137; 5308.050;  211.350;    0.000
558.265; 5166.050;  157.350;    0.000
558.393; 5312.050;  198.350;    0.000
558.522; 5230.050;  209.350;    0.000
558.650; 5248.050;  260.350;    0.000
558.778; 5338.050;  203.350;    0.000
558.906; 5305.050;  210.350;    0.000
559.035; 5334.050;  194.350;    0.000
559.163; 5415.050;  192.350;    0.000
559.291; 5310.050;  215.350;    0.000
559.419; 5357.050;  197.350;    0.000
559.548; 5304.050;  160.350;    0.000
559.676; 5311.050;  200.350;    0.000
559.804; 5311.050;  223.350;    0.000
559.932; 5373.050;  213.350;    0.000
560.060; 5324.050;  224.350;    0.000
560.188; 5388.050;  221.350;    0.000
560.316; 5465.050;  223.350;    0.000
560.444; 5517.050;  159.350;    0.000
560.572; 5448.050;  204.350;    0.000
560.700; 5530.050;  213.350;    0.000
560.828; 5530.050;  216.350;    0.000
560.956; 5506.050;  207.350;    0.000
561.085; 5688.050;  231.350;    0.000
561.212; 5646.050;  197.350;    0.000
561.340; 5601.050;  192.350;    0.000
561.468; 5721.050;  215.350;    0.000
561.596; 5577.050;  215.350;    0.000
561.724; 5524.050;  181.350;    0.000
561.852; 5509.050;  184.350;    0.000
561.980; 5574.050;  217.350;    0.000
562.108; 5668.050;  199.350;    0.000
562.236; 5628.050;  181.350;    0.000
562.364; 5708.050;  234.350;    0.000
562.492; 5770.050;  225.350;    0.000
562.619; 5705.050;  204.350;    0.000
562.747; 5722.050;  223.350;    0.000
562.875; 5752.050;  210.350;    0.000
563.003; 5804.050;  232.350;    0.000
563.130; 5879.050;  224.350;    0.000
563.258; 5946.050;  213.350;    0.000
563.386; 5939.050;  191.350;    0.000
563.514; 6072.050;  252.350;    0.000
563.641; 6152.050;  201.350;    0.000
563.769; 6377.050;  201.350;    0.000
563.897; 6341.050;  176.350;    0.000
564.024; 6395.050;  167.350;    0.000
564.152; 6548.050;  205.350;    0.000
564.280; 6494.050;  222.350;    0.000
564.407; 6452.050;  192.350;    0.000
564.535; 6398.050;  231.350;    0.000
564.662; 6575.050;  197.350;    0.000
564.790; 6548.050;  200.350;    0.000
564.917; 6739.050;  172.350;    0.000
565.045; 6618.050;  187.350;    0.000
565.173; 6665.050;  173.350;    0.000
565.300; 6725.050;  196.350;    0.000
565.428; 6882.050;  195.350;    0.000
565.555; 6973.050;  191.350;    0.000
565.682; 6997.050;  169.350;    0.000
565.810; 7170.050;  198.350;    0.000
565.937; 7258.050;  213.350;    0.000
566.065; 7601.050;  221.350;    0.000
566.192; 7512.050;  173.350;    0.000
566.320; 7956.050;  214.350;    0.000
566.447; 8157.050;  214.350;    0.000
566.574; 8121.050;  188.350;    0.000
566.702; 8322.050;  198.350;    0.000
566.829; 8292.050;  200.350;    0.000
566.956; 8566.050;  194.350;    0.000
567.083; 8636.050;  176.350;    0.000
567.211; 8536.050;  189.350;    0.000
567.338; 8577.050;  184.350;    0.000
567.465; 8814.050;  181.350;    0.000
567.593; 9015.050;  194.350;    0.000
567.720; 9118.050;  193.350;    0.000
567.847; 9018.050;  196.350;    0.000
567.974; 9122.050;  199.350;    0.000
568.101; 8961.050;  150.350;    0.000
568.228; 9951.050;  174.350;    0.000
568.356;10151.050;  164.350;    0.000
568.483; 9675.050;  163.350;    0.000
568.610; 9255.050;  187.350;    0.000
568.737;10376.050;  192.350;    0.000
568.864;11307.050;  218.350;    0.000
568.991;10569.050;  169.350;    0.000
569.118; 9305.050;  161.350;    0.000
569.245; 8503.050;  161.350;    0.000
569.372; 8218.050;  187.350;    0.000
569.499; 7889.050;  146.350;    0.000
569.626; 7558.050;  172.350;    0.000
569.753; 7468.050;  188.350;    0.000
569.880; 7145.050;  180.350;    0.000
570.007; 7091.050;  187.350;    0.000
570.134; 7028.050;  196.350;    0.000
570.261; 6861.050;  127.350;    0.000
570.388; 6920.050;  189.350;    0.000
570.515; 6800.050;  219.350;    0.000
570.642; 6839.050;  187.350;    0.000
570.768; 6842.050;  175.350;    0.000
570.895; 6812.050;  165.350;    0.000
571.022; 6690.050;  180.350;    0.000
571.149; 6582.050;  209.350;    0.000
571.276; 6409.050;  187.350;    0.000
571.402; 6487.050;  227.350;    0.000
571.529; 6332.050;  166.350;    0.000
571.656; 6303.050;  203.350;    0.000
571.783; 6165.050;  156.350;    0.000
571.909; 6158.050;  195.350;    0.000
572.036; 6163.050;  165.350;    0.000
572.163; 6128.050;  156.350;    0.000
572.289; 6003.050;  193.350;    0.000
572.416; 5938.050;  199.350;    0.000
572.543; 5861.050;  185.350;    0.000
572.669; 5899.050;  180.350;    0.000
572.796; 5958.050;  173.350;    0.000
572.922; 5759.050;  186.350;    0.000
573.049; 5879.050;  185.350;    0.000
573.176; 5764.050;  196.350;    0.000
573.302; 5843.050;  189.350;    0.000
573.429; 5737.050;  186.350;    0.000
573.555; 5697.050;  220.350;    0.000
573.682; 5763.050;  196.350;    0.000
573.808; 5618.050;  201.350;    0.000
573.935; 5583.050;  188.350;    0.000
574.061; 5606.050;  216.350;    0.000
574.188; 5646.050;  161.350;    0.000
574.314; 5605.050;  189.350;    0.000
574.440; 5593.050;  190.350;    0.000
574.567; 5729.050;  201.350;    0.000
574.693; 5753.050;  175.350;    0.000
574.820; 5691.050;  188.350;    0.000
574.946; 5650.050;  182.350;    0.000
575.072; 5550.050;  188.350;    0.000
575.198; 5686.050;  232.350;    0.000
575.325; 5578.050;  159.350;    0.000
575.451; 5655.050;  231.350;    0.000
575.577; 5507.050;  196.350;    0.000
575.704; 5581.050;  177.350;    0.000
575.830; 5479.050;  171.350;    0.000
575.956; 5533.050;  163.350;    0.000
576.082; 5503.050;  197.350;    0.000
576.208; 5593.050;  181.350;    0.000
576.335; 5498.050;  218.350;    0.000
576.461; 5443.050;  207.350;    0.000
576.587; 5580.050;  173.350;    0.000
576.713; 5409.050;  170.350;    0.000
576.839; 5482.050;  186.350;    0.000
576.965; 5623.050;  194.350;    0.000
577.091; 5469.050;  167.350;    0.000
577.217; 5448.050;  212.350;    0.000
577.343; 5400.050;  214.350;    0.000
577.469; 5487.050;  208.350;    0.000
577.596; 5405.050;  188.350;    0.000
577.722; 5540.050;  221.350;    0.000
577.848; 5392.050;  197.350;    0.000
577.974; 5330.050;  222.350;    0.000
578.099; 5503.050;  187.350;    0.000
578.225; 5482.050;  213.350;    0.000
578.351; 5462.050;  190.350;    0.000
578.477; 5396.050;  212.350;    0.000
578.603; 5483.050;  178.350;    0.000
578.729; 5481.050;  193.350;    0.000
578.855; 5465.050;  194.350;    0.000
578.981; 5461.050;  152.350;    0.000
579.107; 5496.050;  175.350;    0.000
579.232; 5575.050;  192.350;    0.000
579.358; 5406.050;  186.350;    0.000
579.484; 5484.050;  186.350;    0.000
579.610; 5442.050;  199.350;    0.000
579.735; 5440.050;  197.350;    0.000
579.861; 5487.050;  203.350;    0.000
579.987; 5517.050;  220.350;    0.000
580.113; 5536.050;  210.350;    0.000
580.238; 5449.050;  189.350;    0.000
580.364; 5574.050;  214.350;    0.000
580.490; 5591.050;  205.350;    0.000
580.615; 5580.050;  231.350;    0.000
580.741; 5564.050;  212.350;    0.000
580.867; 5564.050;  196.350;    0.000
580.992; 5577.050;  214.350;    0.000
581.118; 5555.050;  178.350;    0.000
581.243; 5580.050;  209.350;    0.000
581.369; 5674.050;  173.350;    0.000
581.494; 5592.050;  209.350;    0.000
581.620; 5642.050;  204.350;    0.000
581.745; 5689.050;  168.350;    0.000
581.871; 5782.050;  236.350;    0.000
581.996; 5781.050;  212.350;    0.000
582.122; 5724.050;  192.350;    0.000
582.247; 5651.050;  179.350;    0.000
582.373; 5690.050;  189.350;    0.000
582.498; 5901.050;  217.350;    0.000
582.624; 5884.050;  231.350;    0.000
582.749; 5900.050;  237.350;    0.000
582.874; 5803.050;  205.350;    0.000
583.000; 6009.050;  204.350;    0.000
583.125; 5936.050;  192.350;    0.000
583.250; 5968.050;  229.350;    0.000
583.376; 6062.050;  256.350;    0.000
583.501; 6157.050;  200.350;    0.000
583.626; 6076.050;  207.350;    0.000
583.751; 6214.050;  215.350;    0.000
583.877; 6156.050;  212.350;    0.000
584.002; 6371.050;  227.350;    0.000
584.127; 6108.050;  153.350;    0.000
584.252; 6392.050;  197.350;    0.000
584.377; 6437.050;  183.350;    0.000
584.503; 6460.050;  211.350;    0.000
584.628; 6477.050;  215.350;    0.000
584.753; 6592.050;  194.350;    0.000
584.878; 6502.050;  154.350;    0.000
585.003; 6746.050;  213.350;    0.000
585.128; 6880.050;  199.350;    0.000
585.253; 6878.050;  219.350;    0.000
585.378; 7064.050;  174.350;    0.000
585.503; 7085.050;  202.350;    0.000
585.628; 7181.050;  186.350;    0.000
585.753; 7414.050;  209.350;    0.000
585.878; 7339.050;  167.350;    0.000
586.003; 7704.050;  226.350;    0.000
586.128; 7800.050;  206.350;    0.000
586.253; 7694.050;  198.350;    0.000
586.378; 8087.050;  180.350;    0.000
586.503; 8399.050;  201.350;    0.000
586.628; 8490.050;  206.350;    0.000
586.753; 8716.050;  178.350;    0.000
586.878; 9025.050;  228.350;    0.000
587.003; 9407.050;  199.350;    0.000
587.127; 9865.050;  194.350;    0.000
587.252;10139.050;  212.350;    0.000
587.377;10762.050;  172.350;    0.000
587.502;11062.050;  219.350;    0.000
587.627;11905.050;  247.350;    0.000
587.751;12708.050;  184.350;    0.000
587.876;13759.050;  215.350;    0.000
588.001;14819.050;  163.350;    0.000
588.125;16557.051;  185.350;    0.000
588.250;18586.051;  171.350;    0.000
588.375;21504.051;  255.350;    0.000
588.499;25873.051;  185.350;    0.000
588.624;32209.051;  167.350;    0.000
588.749;43770.051;  170.350;    0.000
588.873;62253.051;  173.350;    0.000
588.998;65263.051;  203.350;    0.000
589.122;65263.051;  184.350;    0.000
589.247;62428.051;  217.350;    0.000
589.372;54387.051;  250.350;    0.000
589.496;62156.051;  200.350;    0.000
589.621;65263.051;  199.350;    0.000
589.745;62782.051;  235.350;    0.000
589.870;46194.051;  206.350;    0.000
589.994;34769.051;  194.350;    0.000
590.118;27906.051;  177.350;    0.000
590.243;23272.051;  231.350;    0.000
590.367;20493.051;  173.350;    0.000
590.492;18385.051;  170.350;    0.000
590.616;16606.051;  182.350;    0.000
590.740;15237.050;  178.350;    0.000
590.865;14286.050;  219.350;    0.000
590.989;13322.050;  210.350;    0.000
591.114;12640.050;  194.350;    0.000
591.238;12171.050;  154.350;    0.000
591.362;11440.050;  210.350;    0.000
591.486;11073.050;  215.350;    0.000
591.611;10707.050;  194.350;    0.000
591.735;10468.050;  206.350;    0.000
591.859; 9905.050;  188.350;    0.000
591.983; 9978.050;  202.350;    0.000
592.107; 9458.050;  175.350;    0.000
592.232; 9335.050;  214.350;    0.000
592.356; 9174.050;  232.350;    0.000
592.480; 9058.050;  203.350;    0.000
592.604; 8901.050;  204.350;    0.000
592.728; 8711.050;  187.350;    0.000
592.852; 8619.050;  204.350;    0.000
592.976; 8517.050;  163.350;    0.000
593.100; 8547.050;  177.350;    0.000
593.224; 8236.050;  209.350;    0.000
593.349; 8297.050;  255.350;    0.000
593.473; 8091.050;  225.350;    0.000
593.597; 7924.050;  211.350;    0.000
593.721; 7919.050;  222.350;    0.000
593.844; 7846.050;  202.350;    0.000
593.968; 7942.050;  223.350;    0.000
594.092; 7709.050;  162.350;    0.000
594.216; 7598.050;  211.350;    0.000
594.340; 7471.050;  198.350;    0.000
594.464; 7371.050;  242.350;    0.000
594.588; 7307.050;  213.350;    0.000
594.712; 7234.050;  198.350;    0.000
594.836; 7021.050;  207.350;    0.000
594.959; 7041.050;  192.350;    0.000
595.083; 6735.050;  180.350;    0.000
595.207; 6875.050;  242.350;    0.000
595.331; 6765.050;  172.350;    0.000
595.455; 6666.050;  185.350;    0.000
595.578; 6438.050;  221.350;    0.000
595.702; 6531.050;  233.350;    0.000
595.826; 6347.050;  164.350;    0.000
595.949; 6256.050;  215.350;    0.000
596.073; 6223.050;  198.350;    0.000
596.197; 6235.050;  266.350;    0.000
596.320; 6115.050;  236.350;    0.000
596.444; 6129.050;  215.350;    0.000
596.568; 5986.050;  213.350;    0.000
596.691; 5941.050;  198.350;    0.000
596.815; 5849.050;  210.350;    0.000
596.938; 5899.050;  207.350;    0.000
597.062; 5894.050;  187.350;    0.000
597.186; 5753.050;  234.350;    0.000
597.309; 5878.050;  176.350;    0.000
597.433; 5762.050;  222.350;    0.000
597.556; 5661.050;  219.350;    0.000
597.680; 5593.050;  227.350;    0.000
597.803; 5686.050;  240.350;    0.000
597.926; 5665.050;  227.350;    0.000
598.050; 5567.050;  198.350;    0.000
598.173; 5586.050;  235.350;    0.000
598.297; 5526.050;  233.350;    0.000
598.420; 5461.050;  211.350;    0.000
598.543; 5402.050;  207.350;    0.000
598.667; 5505.050;  232.350;    0.000
598.790; 5443.050;  205.350;    0.000
598.913; 5403.050;  200.350;    0.000
599.037; 5340.050;  193.350;    0.000
599.160; 5289.050;  199.350;    0.000
599.283; 5366.050;  237.350;    0.000
599.406; 5201.050;  168.350;    0.000
599.530; 5343.050;  231.350;    0.000
599.653; 5354.050;  220.350;    0.000
599.776; 5240.050;  203.350;    0.000
599.899; 5243.050;  202.350;    0.000
600.022; 5102.050;  189.350;    0.000
600.145; 5231.050;  175.350;    0.000
600.269; 5207.050;  235.350;    0.000
600.392; 5168.050;  213.350;    0.000
600.515; 5147.050;  236.350;    0.000
600.638; 5111.050;  198.350;    0.000
600.761; 5097.050;  195.350;    0.000
600.884; 5079.050;  221.350;    0.000
601.007; 5132.050;  236.350;    0.000
601.130; 5089.050;  223.350;    0.000
601.253; 5107.050;  250.350;    0.000
601.376; 5060.050;  195.350;    0.000
601.499; 5033.050;  168.350;    0.000
601.622; 5042.050;  221.350;    0.000
601.745; 5006.050;  223.350;    0.000
601.868; 4985.050;  204.350;    0.000
601.991; 4990.050;  207.350;    0.000
602.113; 4882.050;  223.350;    0.000
602.236; 4861.050;  182.350;    0.000
602.359; 4979.050;  235.350;    0.000
602.482; 4938.050;  173.350;    0.000
602.605; 4887.050;  227.350;    0.000
602.728; 4907.050;  227.350;    0.000
602.850; 4884.050;  250.350;    0.000
602.973; 4943.050;  195.350;    0.000
603.096; 4833.050;  270.350;    0.000
603.219; 4915.050;  197.350;    0.000
603.341; 4923.050;  195.350;    0.000
603.464; 4846.050;  204.350;    0.000
603.587; 4939.050;  243.350;    0.000
603.709; 4808.050;  188.350;    0.000
603.832; 4895.050;  214.350;    0.000
603.955; 4831.050;  213.350;    0.000
604.077; 4815.050;  201.350;    0.000
604.200; 4803.050;  209.350;    0.000
604.323; 4866.050;  201.350;    0.000
604.445; 4817.050;  202.350;    0.000
604.568; 4755.050;  230.350;    0.000
604.690; 4759.050;  212.350;    0.000
604.813; 4775.050;  226.350;    0.000
604.935; 4843.050;  216.350;    0.000
605.058; 4666.050;  182.350;    0.000
605.180; 4827.050;  204.350;    0.000
605.303; 4709.050;  199.350;    0.000
605.425; 4751.050;  178.350;    0.000
605.547; 4825.050;  209.350;    0.000
605.670; 4723.050;  206.350;    0.000
605.792; 4801.050;  199.350;    0.000
605.915; 4708.050;  221.350;    0.000
606.037; 4671.050;  222.350;    0.000
606.159; 4848.050;  160.350;    0.000
606.282; 4783.050;  188.350;    0.000
606.404; 4788.050;  205.350;    0.000
606.526; 4718.050;  228.350;    0.000
606.648; 4627.050;  184.350;    0.000
606.771; 4580.050;  195.350;    0.000
606.893; 4691.050;  193.350;    0.000
607.015; 4730.050;  202.350;    0.000
607.137; 4633.050;  189.350;    0.000
607.260; 4707.050;  201.350;    0.000
607.382; 4674.050;  211.350;    0.000
607.504; 4621.050;  206.350;    0.000
607.626; 4707.050;  236.350;    0.000
607.748; 4678.050;  228.350;    0.000
607.870; 4747.050;  212.350;    0.000
607.992; 4573.050;  201.350;    0.000
608.114; 4590.050;  214.350;    0.000
608.237; 4601.050;  235.350;    0.000
608.359; 4585.050;  215.350;    0.000
608.481; 4513.050;  183.350;    0.000
608.603; 4510.050;  206.350;    0.000
608.725; 4727.050;  238.350;    0.000
608.847; 4638.050;  237.350;    0.000
608.969; 4724.050;  227.350;    0.000
609.090; 4616.050;  205.350;    0.000
609.212; 4613.050;  182.350;    0.000
609.334; 4555.050;  210.350;    0.000
609.456; 4571.050;  208.350;    0.000
609.578; 4710.050;  195.350;    0.000
609.700; 4562.050;  196.350;    0.000
609.822; 4514.050;  184.350;    0.000
609.944; 4679.050;  258.350;    0.000
610.065; 4547.050;  219.350;    0.000
610.187; 4663.050;  217.350;    0.000
610.309; 4639.050;  179.350;    0.000
610.431; 4679.050;  189.350;    0.000
610.552; 4629.050;  212.350;    0.000
610.674; 4465.050;  211.350;    0.000
610.796; 4583.050;  168.350;    0.000
610.918; 4557.050;  201.350;    0.000
611.039; 4503.050;  212.350;    0.000
611.161; 4512.050;  207.350;    0.000
611.282; 4516.050;  219.350;    0.000
611.404; 4553.050;  243.350;    0.000
611.526; 4496.050;  180.350;    0.000
611.647; 4485.050;  235.350;    0.000
611.769; 4492.050;  189.350;    0.000
611.890; 4472.050;  201.350;    0.000
612.012; 4496.050;  191.350;    0.000
612.133; 4520.050;  227.350;    0.000
612.255; 4632.050;  191.350;    0.000
612.377; 4562.050;  192.350;    0.000
612.498; 4490.050;  202.350;    0.000
612.619; 4402.050;  207.350;    0.000
612.741; 4518.050;  241.350;    0.000
612.862; 4618.050;  219.350;    0.000
612.984; 4531.050;  203.350;    0.000
613.105; 4467.050;  228.350;    0.000
613.226; 4477.050;  199.350;    0.000
613.348; 4585.050;  238.350;    0.000
613.469; 4487.050;  239.350;    0.000
613.590; 4379.050;  183.350;    0.000
613.712; 4421.050;  245.350;    0.000
613.833; 4464.050;  241.350;    0.000
613.954; 4474.050;  208.350;    0.000
614.076; 4377.050;  181.350;    0.000
614.197; 4515.050;  217.350;    0.000
614.318; 4498.050;  182.350;    0.000
614.439; 4538.050;  204.350;    0.000
614.560; 4515.050;  219.350;    0.000
614.682; 4486.050;  238.350;    0.000
614.803; 4447.050;  240.350;    0.000
614.924; 4483.050;  212.350;    0.000
615.045; 4565.050;  225.350;    0.000
615.166; 4493.050;  227.350;    0.000
615.287; 4697.050;  230.350;    0.000
615.408; 5091.050;  187.350;    0.000
615.529; 5123.050;  211.350;    0.000
615.650; 4914.050;  202.350;    0.000
615.771; 4646.050;  203.350;    0.000
615.892; 4976.050;  222.350;    0.000
616.013; 5441.050;  215.350;    0.000
616.134; 5855.050;  193.350;    0.000
616.255; 5621.050;  242.350;    0.000
616.376; 5059.050;  205.350;    0.000
616.497; 4928.050;  200.350;    0.000
616.618; 4794.050;  177.350;    0.000
616.739; 4815.050;  218.350;    0.000
616.860; 4740.050;  214.350;    0.000
616.981; 4723.050;  208.350;    0.000
617.102; 4528.050;  203.350;    0.000
617.222; 4691.050;  212.350;    0.000
617.343; 4543.050;  162.350;    0.000
617.464; 4582.050;  230.350;    0.000
617.585; 4535.050;  197.350;    0.000
617.705; 4548.050;  209.350;    0.000
617.826; 4525.050;  229.350;    0.000
617.947; 4465.050;  216.350;    0.000
618.068; 4517.050;  192.350;    0.000
618.188; 4453.050;  230.350;    0.000
618.309; 4612.050;  238.350;    0.000
618.430; 4482.050;  242.350;    0.000
618.550; 4488.050;  235.350;    0.000
618.671; 4568.050;  207.350;    0.000
618.791; 4438.050;  228.350;    0.000
618.912; 4514.050;  266.350;    0.000
619.033; 4545.050;  232.350;    0.000
619.153; 4512.050;  207.350;    0.000
619.274; 4504.050;  193.350;    0.000
619.394; 4455.050;  237.350;    0.000
619.515; 4423.050;  216.350;    0.000
619.635; 4342.050;  203.350;    0.000
619.756; 4452.050;  227.350;    0.000
619.876; 4388.050;  244.350;    0.000
619.996; 4371.050;  220.350;    0.000
620.117; 4257.050;  231.350;    0.000
620.237; 4355.050;  235.350;    0.000
620.358; 4340.050;  241.350;    0.000
620.478; 4384.050;  237.350;    0.000
620.598; 4357.050;  255.350;    0.000
620.719; 4346.050;  243.350;    0.000
620.839; 4359.050;  237.350;    0.000
620.959; 4206.050;  216.350;    0.000
621.079; 4420.050;  240.350;    0.000
621.200; 4410.050;  195.350;    0.000
621.320; 4463.050;  287.350;    0.000
621.440; 4275.050;  236.350;    0.000
621.560; 4369.050;  231.350;    0.000
621.681; 4250.050;  177.350;    0.000
621.801; 4193.050;  257.350;    0.000
621.921; 4429.050;  241.350;    0.000
622.041; 4217.050;  239.350;    0.000
622.161; 4376.050;  233.350;    0.000
622.281; 4237.050;  204.350;    0.000
622.401; 4288.050;  204.350;    0.000
622.521; 4168.050;  242.350;    0.000
622.641; 4138.050;  205.350;    0.000
622.761; 4114.050;  254.350;    0.000
622.882; 4292.050;  225.350;    0.000
623.002; 4292.050;  255.350;    0.000
623.121; 4290.050;  244.350;    0.000
623.241; 4209.050;  238.350;    0.000
623.361; 4077.050;  208.350;    0.000
623.481; 4180.050;  194.350;    0.000
623.601; 4252.050;  249.350;    0.000
623.721; 4221.050;  229.350;    0.000
623.841; 4138.050;  244.350;    0.000
623.961; 4226.050;  253.350;    0.000
624.081; 4152.050;  218.350;    0.000
624.201; 4144.050;  218.350;    0.000
624.320; 4098.050;  212.350;    0.000
624.440; 4129.050;  251.350;    0.000
624.560; 4079.050;  244.350;    0.000
624.680; 4088.050;  224.350;    0.000
624.799; 4138.050;  198.350;    0.000
624.919; 4227.050;  215.350;    0.000
625.039; 4142.050;  225.350;    0.000
625.159; 4083.050;  209.350;    0.000
625.278; 4152.050;  211.350;    0.000
625.398; 4061.050;  260.350;    0.000
625.518; 4167.050;  205.350;    0.000
625.637; 4097.050;  240.350;    0.000
625.757; 4055.050;  208.350;    0.000
625.876; 4042.050;  221.350;    0.000
625.996; 4174.050;  245.350;    0.000
626.115; 4105.050;  196.350;    0.000
626.235; 4042.050;  241.350;    0.000
626.354; 4131.050;  231.350;    0.000
626.474; 4137.050;  220.350;    0.000
626.594; 4125.050;  210.350;    0.000
626.713; 4174.050;  229.350;    0.000
626.832; 4065.050;  236.350;    0.000
626.952; 4067.050;  223.350;    0.000
627.071; 4098.050;  211.350;    0.000
627.191; 4092.050;  220.350;    0.000
627.310; 4081.050;  206.350;    0.000
627.429; 4000.050;  223.350;    0.000
627.549; 4095.050;  205.350;    0.000
627.668; 3937.050;  227.350;    0.000
627.787; 4090.050;  221.350;    0.000
627.907; 4048.050;  194.350;    0.000
628.026; 4068.050;  231.350;    0.000
628.145; 4083.050;  210.350;    0.000
628.264; 3982.050;  245.350;    0.000
628.384; 4021.050;  234.350;    0.000
628.503; 3962.050;  210.350;    0.000
628.622; 4020.050;  223.350;    0.000
628.741; 4077.050;  210.350;    0.000
628.860; 4003.050;  222.350;    0.000
628.980; 4074.050;  184.350;    0.000
629.099; 4067.050;  234.350;    0.000
629.218; 4008.050;  157.350;    0.000
629.337; 4002.050;  220.350;    0.000
629.456; 4119.050;  210.350;    0.000
629.575; 4041.050;  239.350;    0.000
629.694; 4059.050;  216.350;    0.000
629.813; 3998.050;  218.350;    0.000
629.932; 4057.050;  175.350;    0.000
630.051; 3973.050;  218.350;    0.000
630.170; 4012.050;  215.350;    0.000
630.289; 4055.050;  203.350;    0.000
630.408; 3965.050;  180.350;    0.000
630.527; 4024.050;  249.350;    0.000
630.646; 3990.050;  186.350;    0.000
630.764; 3982.050;  189.350;    0.000
630.883; 4045.050;  221.350;    0.000
631.002; 4014.050;  191.350;    0.000
631.121; 3994.050;  210.350;    0.000
631.240; 4149.050;  256.350;    0.000
631.359; 4103.050;  246.350;    0.000
631.477; 3982.050;  230.350;    0.000
631.596; 3961.050;  229.350;    0.000
631.715; 4017.050;  242.350;    0.000
631.834; 4068.050;  261.350;    0.000
631.952; 4067.050;  250.350;    0.000
632.071; 4023.050;  218.350;    0.000
632.190; 4018.050;  200.350;    0.000
632.308; 4062.050;  226.350;    0.000
632.427; 3930.050;  234.350;    0.000
632.546; 3975.050;  250.350;    0.000
632.664; 3933.050;  224.350;    0.000
632.783; 3941.050;  211.350;    0.000
632.901; 3929.050;  254.350;    0.000
633.020; 3839.050;  204.350;    0.000
633.138; 3939.050;  228.350;    0.000
633.257; 3946.050;  219.350;    0.000
633.375; 3916.050;  243.350;    0.000
633.494; 3854.050;  242.350;    0.000
633.612; 3895.050;  227.350;    0.000
633.731; 3879.050;  221.350;    0.000
633.849; 3915.050;  239.350;    0.000
633.968; 3954.050;  219.350;    0.000
634.086; 3871.050;  218.350;    0.000
634.204; 3879.050;  203.350;    0.000
634.323; 3893.050;  222.350;    0.000
634.441; 3985.050;  257.350;    0.000
634.559; 3913.050;  201.350;    0.000
634.678; 3921.050;  214.350;    0.000
634.796; 3933.050;  207.350;    0.000
634.914; 3926.050;  226.350;    0.000
635.032; 3962.050;  250.350;    0.000
635.151; 3798.050;  228.350;    0.000
635.269; 3784.050;  188.350;    0.000
635.387; 3944.050;  247.350;    0.000
635.505; 3901.050;  250.350;    0.000
635.623; 3925.050;  230.350;    0.000
635.742; 3801.050;  209.350;    0.000
635.860; 3940.050;  239.350;    0.000
635.978; 3876.050;  213.350;    0.000
636.096; 3910.050;  176.350;    0.000
636.214; 3894.050;  246.350;    0.000
636.332; 3900.050;  224.350;    0.000
636.450; 3914.050;  215.350;    0.000
636.568; 3866.050;  246.350;    0.000
636.686; 3871.050;  225.350;    0.000
636.804; 3971.050;  218.350;    0.000
636.922; 3820.050;  195.350;    0.000
637.040; 3965.050;  213.350;    0.000
637.158; 3937.050;  228.350;    0.000
637.276; 3935.050;  206.350;    0.000
637.394; 3843.050;  224.350;    0.000
637.512; 3956.050;  245.350;    0.000
637.629; 3900.050;  234.350;    0.000
637.747; 3880.050;  233.350;    0.000
637.865; 3917.050;  236.350;    0.000
637.983; 3889.050;  235.350;    0.000
638.101; 3792.050;  232.350;    0.000
638.218; 3978.050;  256.350;    0.000
638.336; 3830.050;  216.350;    0.000
638.454; 3894.050;  255.350;    0.000
638.572; 3778.050;  237.350;    0.000
638.689; 3756.050;  271.350;    0.000
638.807; 3953.050;  243.350;    0.000
638.925; 3799.050;  259.350;    0.000
639.042; 3811.050;  185.350;    0.000
639.160; 3915.050;  250.350;    0.000
639.278; 3772.050;  207.350;    0.000
639.395; 3898.050;  243.350;    0.000
639.513; 3817.050;  235.350;    0.000
639.630; 3861.050;  230.350;    0.000
639.748; 3825.050;  192.350;    0.000
639.865; 3848.050;  219.350;    0.000
639.983; 3849.050;  183.350;    0.000
640.100; 3814.050;  251.350;    0.000
640.218; 3780.050;  246.350;    0.000
640.335; 3836.050;  227.350;    0.000
640.453; 3886.050;  259.350;    0.000
640.570; 3766.050;  251.350;    0.000
640.688; 3771.050;  223.350;    0.000
640.805; 3760.050;  246.350;    0.000
640.922; 3772.050;  249.350;    0.000
641.040; 3757.050;  257.350;    0.000
641.157; 3803.050;  207.350;    0.000
641.274; 3845.050;  241.350;    0.000
641.391; 4004.050;  246.350;    0.000
641.509; 3790.050;  216.350;    0.000
641.626; 3860.050;  252.350;    0.000
641.743; 3817.050;  215.350;    0.000
641.860; 3820.050;  234.350;    0.000
641.978; 3802.050;  216.350;    0.000
642.095; 3737.050;  247.350;    0.000
642.212; 3830.050;  199.350;    0.000
642.329; 3772.050;  237.350;    0.000
642.446; 3838.050;  222.350;    0.000
642.563; 3803.050;  287.350;    0.000
642.681; 3720.050;  261.350;    0.000
642.798; 3855.050;  251.350;    0.000
642.915; 3882.050;  238.350;    0.000
643.032; 3851.050;  246.350;    0.000
643.149; 3853.050;  239.350;    0.000
643.266; 3832.050;  238.350;    0.000
643.383; 3753.050;  231.350;    0.000
643.500; 3865.050;  212.350;    0.000
643.617; 3929.050;  236.350;    0.000
643.734; 3864.050;  239.350;    0.000
643.850; 3858.050;  234.350;    0.000
643.967; 3994.050;  253.350;    0.000
644.084; 3958.050;  253.350;    0.000
644.201; 3978.050;  227.350;    0.000
644.318; 3914.050;  247.350;    0.000
644.435; 3901.050;  264.350;    0.000
644.552; 3925.050;  230.350;    0.000
644.668; 3899.050;  250.350;    0.000
644.785; 3977.050;  235.350;    0.000
644.902; 3861.050;  227.350;    0.000
645.019; 3968.050;  203.350;    0.000
645.135; 3906.050;  210.350;    0.000
645.252; 4027.050;  206.350;    0.000
645.369; 3966.050;  235.350;    0.000
645.485; 3970.050;  223.350;    0.000
645.602; 4056.050;  205.350;    0.000
645.719; 4001.050;  222.350;    0.000
645.835; 4109.050;  246.350;    0.000
645.952; 3985.050;  239.350;    0.000
646.068; 3999.050;  225.350;    0.000
646.185; 4142.050;  248.350;    0.000
646.302; 4178.050;  226.350;    0.000
646.418; 4164.050;  228.350;    0.000
646.535; 4128.050;  219.350;    0.000
646.651; 4145.050;  204.350;    0.000
646.768; 4175.050;  247.350;    0.000
646.884; 4135.050;  228.350;    0.000
647.000; 4192.050;  223.350;    0.000
647.117; 4192.050;  251.350;    0.000
647.233; 4114.050;  223.350;    0.000
647.350; 4247.050;  237.350;    0.000
647.466; 4247.050;  223.350;    0.000
647.582; 4268.050;  243.350;    0.000
647.699; 4272.050;  223.350;    0.000
647.815; 4401.050;  215.350;    0.000
647.931; 4353.050;  214.350;    0.000
648.047; 4387.050;  199.350;    0.000
648.164; 4492.050;  233.350;    0.000
648.280; 4480.050;  231.350;    0.000
648.396; 4440.050;  215.350;    0.000
648.512; 4406.050;  252.350;    0.000
648.629; 4521.050;  237.350;    0.000
648.745; 4388.050;  216.350;    0.000
648.861; 4448.050;  207.350;    0.000
648.977; 4380.050;  247.350;    0.000
649.093; 4433.050;  221.350;    0.000
649.209; 4452.050;  232.350;    0.000
649.325; 4548.050;  245.350;    0.000
649.441; 4532.050;  253.350;    0.000
649.557; 4418.050;  221.350;    0.000
649.673; 4500.050;  182.350;    0.000
649.789; 4562.050;  245.350;    0.000
649.905; 4492.050;  204.350;    0.000
650.021; 4564.050;  270.350;    0.000
650.137; 4609.050;  218.350;    0.000
650.253; 4620.050;  268.350;    0.000
650.369; 4621.050;  222.350;    0.000
650.485; 4542.050;  215.350;    0.000
650.601; 4708.050;  218.350;    0.000
650.717; 4638.050;  208.350;    0.000
650.833; 4746.050;  263.350;    0.000
650.948; 4740.050;  266.350;    0.000
651.064; 4757.050;  271.350;    0.000
651.180; 4754.050;  232.350;    0.000
651.296; 4723.050;  237.350;    0.000
651.411; 4817.050;  233.350;    0.000
651.527; 4862.050;  232.350;    0.000
651.643; 4902.050;  259.350;    0.000
651.759; 4963.050;  257.350;    0.000
651.874; 4979.050;  216.350;    0.000
651.990; 5134.050;  234.350;    0.000
652.105; 4961.050;  195.350;    0.000
652.221; 5227.050;  245.350;    0.000
652.337; 5153.050;  210.350;    0.000
652.452; 5221.050;  259.350;    0.000
652.568; 5335.050;  202.350;    0.000
652.683; 5264.050;  233.350;    0.000
652.799; 5467.050;  230.350;    0.000
652.914; 5378.050;  198.350;    0.000
653.030; 5468.050;  203.350;    0.000
653.145; 5551.050;  228.350;    0.000
653.261; 5608.050;  244.350;    0.000
653.376; 5763.050;  214.350;    0.000
653.492; 5831.050;  246.350;    0.000
653.607; 5972.050;  241.350;    0.000
653.722; 5875.050;  257.350;    0.000
653.838; 6040.050;  265.350;    0.000
653.953; 6291.050;  252.350;    0.000
654.068; 6447.050;  270.350;    0.000
654.184; 6478.050;  248.350;    0.000
654.299; 6513.050;  226.350;    0.000
654.414; 6726.050;  190.350;    0.000
654.530; 6819.050;  263.350;    0.000
654.645; 7061.050;  240.350;    0.000
654.760; 7187.050;  243.350;    0.000
654.875; 7452.050;  210.350;    0.000
654.990; 7735.050;  250.350;    0.000
655.106; 7999.050;  277.350;    0.000
655.221; 8302.050;  249.350;    0.000
655.336; 8469.050;  239.350;    0.000
655.451; 8962.050;  226.350;    0.000
655.566; 9195.050;  236.350;    0.000
655.681; 9667.050;  272.350;    0.000
655.796; 9965.050;  224.350;    0.000
655.911;10688.050;  247.350;    0.000
656.026;11191.050;  240.350;    0.000
656.141;11867.050;  239.350;    0.000
656.256;12531.050;  241.350;    0.000
656.371;12716.050;  213.350;    0.000
656.486;12440.050;  275.350;    0.000
656.601;11963.050;  225.350;    0.000
656.716;11713.050;  239.350;    0.000
656.831;11205.050;  260.350;    0.000
656.946;10942.050;  250.350;    0.000
657.060;10562.050;  257.350;    0.000
657.175;10011.050;  256.350;    0.000
657.290; 9786.050;  255.350;    0.000
657.405; 9532.050;  303.350;    0.000
657.520; 9081.050;  272.350;    0.000
657.634; 8895.050;  268.350;    0.000
657.749; 8633.050;  261.350;    0.000
657.864; 8357.050;  235.350;    0.000
657.979; 8106.050;  257.350;    0.000
658.093; 7882.050;  243.350;    0.000
658.208; 7705.050;  281.350;    0.000
658.323; 7376.050;  240.350;    0.000
658.437; 7408.050;  285.350;    0.000
658.552; 7235.050;  262.350;    0.000
658.666; 7033.050;  269.350;    0.000
658.781; 7008.050;  244.350;    0.000
658.895; 6864.050;  259.350;    0.000
659.010; 6676.050;  254.350;    0.000
659.125; 6499.050;  210.350;    0.000
659.239; 6550.050;  212.350;    0.000
659.353; 6442.050;  269.350;    0.000
659.468; 6354.050;  269.350;    0.000
659.582; 6140.050;  244.350;    0.000
659.697; 6109.050;  262.350;    0.000
659.811; 5979.050;  271.350;    0.000
659.926; 5829.050;  232.350;    0.000
660.040; 5849.050;  250.350;    0.000
660.154; 5706.050;  209.350;    0.000
660.269; 5682.050;  212.350;    0.000
660.383; 5547.050;  237.350;    0.000
660.497; 5514.050;  231.350;    0.000
660.612; 5472.050;  232.350;    0.000
660.726; 5447.050;  276.350;    0.000
660.840; 5361.050;  235.350;    0.000
660.954; 5233.050;  224.350;    0.000
661.068; 5341.050;  241.350;    0.000
661.183; 5210.050;  223.350;    0.000
661.297; 5043.050;  255.350;    0.000
661.411; 5040.050;  223.350;    0.000
661.525; 5026.050;  249.350;    0.000
661.639; 4860.050;  264.350;    0.000
661.753; 4909.050;  225.350;    0.000
661.867; 4781.050;  245.350;    0.000
661.981; 4698.050;  225.350;    0.000
662.095; 4821.050;  262.350;    0.000
662.209; 4692.050;  225.350;    0.000
662.323; 4534.050;  228.350;    0.000
662.437; 4654.050;  230.350;    0.000
662.551; 4519.050;  234.350;    0.000
662.665; 4510.050;  212.350;    0.000
662.779; 4424.050;  254.350;    0.000
662.893; 4497.050;  269.350;    0.000
663.007; 4379.050;  196.350;    0.000
663.121; 4341.050;  262.350;    0.000
663.235; 4387.050;  263.350;    0.000
663.349; 4156.050;  242.350;    0.000
663.462; 4290.050;  234.350;    0.000
663.576; 4145.050;  219.350;    0.000
663.690; 4192.050;  234.350;    0.000
663.804; 4145.050;  205.350;    0.000
663.917; 3994.050;  224.350;    0.000
664.031; 4099.050;  208.350;    0.000
664.145; 4076.050;  241.350;    0.000
664.258; 3942.050;  188.350;    0.000
664.372; 3944.050;  214.350;    0.000
664.486; 3873.050;  203.350;    0.000
664.599; 3907.050;  217.350;    0.000
664.713; 3894.050;  286.350;    0.000
664.827; 3899.050;  199.350;    0.000
664.940; 3796.050;  250.350;    0.000
665.054; 3736.050;  261.350;    0.000
665.167; 3787.050;  258.350;    0.000
665.281; 3921.050;  234.350;    0.000
665.394; 3841.050;  213.350;    0.000
665.508; 3726.050;  222.350;    0.000
665.621; 3790.050;  254.350;    0.000
665.735; 3897.050;  252.350;    0.000
665.848; 3660.050;  248.350;    0.000
665.961; 3668.050;  234.350;    0.000
666.075; 3745.050;  262.350;    0.000
666.188; 3651.050;  270.350;    0.000
666.301; 3664.050;  237.350;    0.000
666.415; 3696.050;  245.350;    0.000
666.528; 3676.050;  248.350;    0.000
666.641; 3590.050;  210.350;    0.000
666.755; 3667.050;  218.350;    0.000
666.868; 3576.050;  224.350;    0.000
666.981; 3622.050;  244.350;    0.000
667.094; 3518.050;  279.350;    0.000
667.207; 3477.050;  190.350;    0.000
667.321; 3501.050;  210.350;    0.000
667.434; 3436.050;  205.350;    0.000
667.547; 3437.050;  253.350;    0.000
667.660; 3503.050;  243.350;    0.000
667.773; 3438.050;  242.350;    0.000
667.886; 3454.050;  218.350;    0.000
667.999; 3454.050;  226.350;    0.000
668.112; 3312.050;  258.350;    0.000
668.225; 3307.050;  243.350;    0.000
668.338; 3405.050;  224.350;    0.000
668.451; 3361.050;  250.350;    0.000
668.564; 3415.050;  260.350;    0.000
668.677; 3384.050;  204.350;    0.000
668.790; 3283.050;  229.350;    0.000
668.903; 3334.050;  269.350;    0.000
669.016; 3248.050;  228.350;    0.000
669.129; 3249.050;  253.350;    0.000
669.242; 3272.050;  245.350;    0.000
669.354; 3243.050;  234.350;    0.000
669.467; 3291.050;  256.350;    0.000
669.580; 3302.050;  223.350;    0.000
669.693; 3294.050;  252.350;    0.000
669.806; 3184.050;  212.350;    0.000
669.918; 3181.050;  228.350;    0.000
670.031; 3215.050;  265.350;    0.000
670.144; 3181.050;  255.350;    0.000
670.256; 3225.050;  229.350;    0.000
670.369; 3220.050;  301.350;    0.000
670.482; 3122.050;  263.350;    0.000
670.594; 3153.050;  246.350;    0.000
670.707; 3162.050;  255.350;    0.000
670.820; 3180.050;  256.350;    0.000
670.932; 3130.050;  210.350;    0.000
671.045; 3203.050;  249.350;    0.000
671.157; 3134.050;  254.350;    0.000
671.270; 3177.050;  265.350;    0.000
671.382; 3138.050;  219.350;    0.000
671.495; 3067.050;  242.350;    0.000
671.607; 3113.050;  266.350;    0.000
671.720; 3041.050;  238.350;    0.000
671.832; 2992.050;  220.350;    0.000
671.944; 3089.050;  251.350;    0.000
672.057; 3109.050;  232.350;    0.000
672.169; 3026.050;  240.350;    0.000
672.281; 3132.050;  270.350;    0.000
672.394; 3056.050;  257.350;    0.000
672.506; 3026.050;  247.350;    0.000
672.618; 3010.050;  229.350;    0.000
672.731; 3023.050;  227.350;    0.000
672.843; 3100.050;  282.350;    0.000
672.955; 2972.050;  262.350;    0.000
673.067; 3051.050;  277.350;    0.000
673.180; 3141.050;  280.350;    0.000
673.292; 2961.050;  241.350;    0.000
673.404; 3084.050;  234.350;    0.000
673.516; 3022.050;  224.350;    0.000
673.628; 2941.050;  272.350;    0.000
673.740; 3052.050;  249.350;    0.000
673.852; 3034.050;  288.350;    0.000
673.964; 2966.050;  278.350;    0.000
674.076; 2975.050;  273.350;    0.000
674.188; 2960.050;  251.350;    0.000
674.300; 2956.050;  244.350;    0.000
674.412; 2927.050;  267.350;    0.000
674.524; 3035.050;  276.350;    0.000
674.636; 2969.050;  234.350;    0.000
674.748; 2914.050;  267.350;    0.000
674.860; 2906.050;  255.350;    0.000
674.972; 2899.050;  253.350;    0.000
675.084; 2901.050;  253.350;    0.000
675.196; 2964.050;  300.350;    0.000
675.307; 2865.050;  307.350;    0.000
675.419; 2797.050;  245.350;    0.000
675.531; 2923.050;  292.350;    0.000
675.643; 2838.050;  244.350;    0.000
675.755; 2798.050;  265.350;    0.000
675.866; 2864.050;  281.350;    0.000
675.978; 2832.050;  266.350;    0.000
676.090; 2867.050;  267.350;    0.000
676.201; 2907.050;  265.350;    0.000
676.313; 2795.050;  222.350;    0.000
676.425; 2876.050;  248.350;    0.000
676.536; 2852.050;  234.350;    0.000
676.648; 2833.050;  261.350;    0.000
676.759; 2833.050;  280.350;    0.000
676.871; 2835.050;  260.350;    0.000
676.983; 2832.050;  277.350;    0.000
677.094; 2794.050;  252.350;    0.000
677.206; 2842.050;  238.350;    0.000
677.317; 2882.050;  269.350;    0.000
677.429; 2829.050;  245.350;    0.000
677.540; 2748.050;  244.350;    0.000
677.651; 2733.050;  225.350;    0.000
677.763; 2745.050;  216.350;    0.000
677.874; 2731.050;  226.350;    0.000
677.986; 2728.050;  234.350;    0.000
678.097; 2792.050;  237.350;    0.000
678.208; 2860.050;  278.350;    0.000
678.320; 2756.050;  243.350;    0.000
678.431; 2685.050;  248.350;    0.000
678.542; 2738.050;  240.350;    0.000
678.653; 2728.050;  250.350;    0.000
678.765; 2716.050;  258.350;    0.000
678.876; 2652.050;  221.350;    0.000
678.987; 2704.050;  229.350;    0.000
679.098; 2701.050;  233.350;    0.000
679.209; 2762.050;  274.350;    0.000
679.320; 2740.050;  216.350;    0.000
679.432; 2690.050;  246.350;    0.000
679.543; 2520.050;  226.350;    0.000
679.654; 2630.050;  232.350;    0.000
679.765; 2649.050;  246.350;    0.000
679.876; 2680.050;  263.350;    0.000
679.987; 2609.050;  216.350;    0.000
680.098; 2676.050;  262.350;    0.000
680.209; 2707.050;  219.350;    0.000
680.320; 2660.050;  232.350;    0.000
680.431; 2646.050;  261.350;    0.000
680.542; 2626.050;  219.350;    0.000
680.653; 2708.050;  238.350;    0.000
680.763; 2567.050;  191.350;    0.000
680.874; 2650.050;  267.350;    0.000
680.985; 2629.050;  240.350;    0.000
681.096; 2699.050;  251.350;    0.000
681.207; 2662.050;  232.350;    0.000
681.318; 2593.050;  211.350;    0.000
681.428; 2611.050;  233.350;    0.000
681.539; 2678.050;  197.350;    0.000
681.650; 2661.050;  197.350;    0.000
681.760; 2639.050;  243.350;    0.000
681.871; 2560.050;  245.350;    0.000
681.982; 2617.050;  218.350;    0.000
682.093; 2689.050;  262.350;    0.000
682.203; 2620.050;  250.350;    0.000
682.314; 2631.050;  239.350;    0.000
682.424; 2628.050;  250.350;    0.000
682.535; 2594.050;  206.350;    0.000
682.646; 2664.050;  302.350;    0.000
682.756; 2570.050;  258.350;    0.000
682.867; 2645.050;  265.350;    0.000
682.977; 2566.050;  218.350;    0.000
683.088; 2611.050;  264.350;    0.000
683.198; 2586.050;  236.350;    0.000
683.308; 2519.050;  246.350;    0.000
683.419; 2602.050;  296.350;    0.000
683.529; 2523.050;  242.350;    0.000
683.640; 2631.050;  245.350;    0.000
683.750; 2547.050;  213.350;    0.000
683.860; 2647.050;  256.350;    0.000
683.971; 2663.050;  251.350;    0.000
684.081; 2635.050;  232.350;    0.000
684.191; 2611.050;  252.350;    0.000
684.301; 2513.050;  214.350;    0.000
684.412; 2547.050;  261.350;    0.000
684.522; 2485.050;  243.350;    0.000
684.632; 2563.050;  257.350;    0.000
684.742; 2609.050;  271.350;    0.000
684.852; 2486.050;  258.350;    0.000
684.963; 2629.050;  262.350;    0.000
685.073; 2536.050;  219.350;    0.000
685.183; 2573.050;  270.350;    0.000
685.293; 2528.050;  233.350;    0.000
685.403; 2541.050;  274.350;    0.000
685.513; 2550.050;  280.350;    0.000
685.623; 2572.050;  267.350;    0.000
685.733; 2602.050;  274.350;    0.000
685.843; 2522.050;  274.350;    0.000
685.953; 2538.050;  244.350;    0.000
686.063; 2583.050;  261.350;    0.000
686.173; 2498.050;  283.350;    0.000
686.283; 2523.050;  260.350;    0.000
686.393; 2575.050;  256.350;    0.000
686.503; 2635.050;  295.350;    0.000
686.612; 2495.050;  294.350;    0.000
686.722; 2581.050;  263.350;    0.000
686.832; 2531.050;  291.350;    0.000
686.942; 2561.050;  229.350;    0.000
687.052; 2481.050;  241.350;    0.000
687.161; 2529.050;  304.350;    0.000
687.271; 2528.050;  223.350;    0.000
687.381; 2549.050;  273.350;    0.000
687.491; 2574.050;  246.350;    0.000
687.600; 2496.050;  242.350;    0.000
687.710; 2566.050;  225.350;    0.000
687.820; 2586.050;  259.350;    0.000
687.929; 2476.050;  232.350;    0.000
688.039; 2503.050;  248.350;    0.000
688.148; 2500.050;  250.350;    0.000
688.258; 2503.050;  240.350;    0.000
688.367; 2589.050;  253.350;    0.000
688.477; 2518.050;  229.350;    0.000
688.586; 2531.050;  259.350;    0.000
688.696; 2526.050;  250.350;    0.000
688.805; 2519.050;  279.350;    0.000
688.915; 2522.050;  250.350;    0.000
689.024; 2459.050;  240.350;    0.000
689.134; 2481.050;  269.350;    0.000
689.243; 2411.050;  214.350;    0.000
689.352; 2509.050;  257.350;    0.000
689.462; 2439.050;  248.350;    0.000
689.571; 2509.050;  233.350;    0.000
689.680; 2482.050;  236.350;    0.000
689.790; 2471.050;  238.350;    0.000
689.899; 2460.050;  232.350;    0.000
690.008; 2427.050;  259.350;    0.000
690.117; 2448.050;  254.350;    0.000
690.227; 2447.050;  251.350;    0.000
690.336; 2447.050;  240.350;    0.000
690.445; 2482.050;  235.350;    0.000
690.554; 2405.050;  243.350;    0.000
690.663; 2480.050;  214.350;    0.000
690.772; 2409.050;  247.350;    0.000
690.881; 2417.050;  249.350;    0.000
690.990; 2467.050;  265.350;    0.000
691.099; 2452.050;  217.350;    0.000
691.209; 2414.050;  272.350;    0.000
691.318; 2442.050;  223.350;    0.000
691.427; 2462.050;  212.350;    0.000
691.536; 2469.050;  260.350;    0.000
691.644; 2422.050;  246.350;    0.000
691.753; 2401.050;  251.350;    0.000
691.862; 2417.050;  239.350;    0.000
691.971; 2437.050;  253.350;    0.000
692.080; 2400.050;  255.350;    0.000
692.189; 2427.050;  228.350;    0.000
692.298; 2434.050;  243.350;    0.000
692.406; 2422.050;  269.350;    0.000
692.515; 2396.050;  254.350;    0.000
692.624; 2364.050;  225.350;    0.000
692.733; 2435.050;  245.350;    0.000
692.842; 2425.050;  259.350;    0.000
692.950; 2413.050;  226.350;    0.000
693.059; 2452.050;  216.350;    0.000
693.168; 2512.050;  266.350;    0.000
693.276; 2395.050;  236.350;    0.000
693.385; 2452.050;  257.350;    0.000
693.494; 2450.050;  268.350;    0.000
693.602; 2372.050;  239.350;    0.000
693.711; 2474.050;  224.350;    0.000
693.819; 2513.050;  263.350;    0.000
693.928; 2392.050;  270.350;    0.000
694.036; 2419.050;  247.350;    0.000
694.145; 2536.050;  261.350;    0.000
694.253; 2435.050;  261.350;    0.000
694.362; 2388.050;  253.350;    0.000
694.470; 2418.050;  270.350;    0.000
694.579; 2433.050;  233.350;    0.000
694.687; 2392.050;  260.350;    0.000
694.795; 2369.050;  228.350;    0.000
694.904; 2464.050;  228.350;    0.000
695.012; 2441.050;  288.350;    0.000
695.120; 2374.050;  230.350;    0.000
695.229; 2406.050;  287.350;    0.000
695.337; 2398.050;  249.350;    0.000
695.445; 2500.050;  283.350;    0.000
695.553; 2394.050;  251.350;    0.000
695.662; 2433.050;  236.350;    0.000
695.770; 2423.050;  267.350;    0.000
695.878; 2425.050;  268.350;    0.000
695.986; 2484.050;  297.350;    0.000
696.094; 2485.050;  275.350;    0.000
696.202; 2416.050;  201.350;    0.000
696.310; 2467.050;  283.350;    0.000
696.419; 2390.050;  261.350;    0.000
696.527; 2430.050;  252.350;    0.000
696.635; 2456.050;  249.350;    0.000
696.743; 2408.050;  236.350;    0.000
696.851; 2457.050;  241.350;    0.000
696.959; 2493.050;  278.350;    0.000
697.067; 2483.050;  239.350;    0.000
697.174; 2328.050;  260.350;    0.000
697.282; 2426.050;  259.350;    0.000
697.390; 2402.050;  302.350;    0.000
697.498; 2372.050;  216.350;    0.000
697.606; 2369.050;  245.350;    0.000
697.714; 2396.050;  279.350;    0.000
697.822; 2373.050;  267.350;    0.000
697.929; 2359.050;  234.350;    0.000
698.037; 2420.050;  255.350;    0.000
698.145; 2348.050;  226.350;    0.000
698.253; 2404.050;  261.350;    0.000
698.360; 2438.050;  299.350;    0.000
698.468; 2457.050;  254.350;    0.000
698.576; 2418.050;  307.350;    0.000
698.683; 2480.050;  280.350;    0.000
698.791; 2324.050;  284.350;    0.000
698.899; 2413.050;  279.350;    0.000
699.006; 2372.050;  264.350;    0.000
699.114; 2301.050;  263.350;    0.000
699.221; 2336.050;  291.350;    0.000
699.329; 2366.050;  309.350;    0.000
699.436; 2440.050;  261.350;    0.000
699.544; 2398.050;  259.350;    0.000
699.651; 2364.050;  251.350;    0.000
699.759; 2330.050;  251.350;    0.000
699.866; 2439.050;  266.350;    0.000
699.974; 2336.050;  264.350;    0.000
700.081; 2321.050;  295.350;    0.000
700.188; 2410.050;  293.350;    0.000
700.296; 2369.050;  233.350;    0.000
700.403; 2367.050;  290.350;    0.000
700.510; 2314.050;  275.350;    0.000
700.618; 2344.050;  273.350;    0.000
700.725; 2345.050;  262.350;    0.000
700.832; 2286.050;  250.350;    0.000
700.940; 2373.050;  300.350;    0.000
701.047; 2321.050;  245.350;    0.000
701.154; 2298.050;  280.350;    0.000
701.261; 2296.050;  270.350;    0.000
701.368; 2359.050;  286.350;    0.000
701.475; 2302.050;  301.350;    0.000
701.582; 2418.050;  286.350;    0.000
701.690; 2365.050;  279.350;    0.000
701.797; 2410.050;  292.350;    0.000
701.904; 2393.050;  314.350;    0.000
702.011; 2345.050;  340.350;    0.000
702.118; 2353.050;  276.350;    0.000
702.225; 2398.050;  351.350;    0.000
702.332; 2319.050;  301.350;    0.000
702.439; 2428.050;  334.350;    0.000
702.546; 2402.050;  325.350;    0.000
702.652; 2394.050;  343.350;    0.000
702.759; 2381.050;  339.350;    0.000
702.866; 2427.050;  344.350;    0.000
702.973; 2434.050;  330.350;    0.000
703.080; 2365.050;  322.350;    0.000
703.187; 2371.050;  327.350;    0.000
703.294; 2342.050;  339.350;    0.000
703.400; 2091.050;  325.350;    0.000
703.507;  527.050;  372.350;    0.000
703.614;  322.050;  348.350;    0.000
703.720;  313.050;  333.350;    0.000
703.827;  323.050;  331.350;    0.000
703.934;  345.050;  330.350;    0.000
704.040;  281.050;  327.350;    0.000
704.147;  347.050;  327.350;    0.000
704.254;  344.050;  354.350;    0.000
704.360;  303.050;  337.350;    0.000
704.467;  312.050;  370.350;    0.000
704.573;  324.050;  367.350;    0.000
704.680;  337.050;  339.350;    0.000
704.786;  306.050;  356.350;    0.000
704.893;  311.050;  352.350;    0.000
704.999;  314.050;  332.350;    0.000
705.106;  338.050;  359.350;    0.000

