
Integration time [ms]:   0.300
Averaging Nr. [scans]: 1
Smoothing Nr. [pixels]: 0
Data measured with spectrometer [name]: UV2
Wave   ;Sample   ;Dark     ;Reference
[nm]   ;[counts] ;[counts] ;[counts] 

353.533;  205.500;  178.050;    0.000
353.597;  239.500;  251.050;    0.000
353.660;  181.500;  213.050;    0.000
353.723;  194.500;  185.050;    0.000
353.786;  207.500;  191.050;    0.000
353.850;  218.500;  238.050;    0.000
353.913;  183.500;  181.050;    0.000
353.976;  198.500;  190.050;    0.000
354.039;  195.500;  184.050;    0.000
354.102;  249.500;  231.050;    0.000
354.166;  213.500;  188.050;    0.000
354.229;  161.500;  224.050;    0.000
354.292;  147.500;  186.050;    0.000
354.355;  205.500;  175.050;    0.000
354.418;  154.500;  191.050;    0.000
354.481;  216.500;  181.050;    0.000
354.545;  850.500;  193.050;    0.000
354.608;  869.500;  210.050;    0.000
354.671;  830.500;  183.050;    0.000
354.734;  885.500;  189.050;    0.000
354.797;  976.500;  168.050;    0.000
354.860;  963.500;  178.050;    0.000
354.923; 1004.500;  236.050;    0.000
354.986;  957.500;  181.050;    0.000
355.050;  952.500;  168.050;    0.000
355.113;  964.500;  201.050;    0.000
355.176;  951.500;  206.050;    0.000
355.239; 1004.500;  213.050;    0.000
355.302;  982.500;  198.050;    0.000
355.365; 1022.500;  199.050;    0.000
355.428; 1070.500;  200.050;    0.000
355.491; 1057.500;  232.050;    0.000
355.554; 1060.500;  184.050;    0.000
355.617; 1137.500;  214.050;    0.000
355.680; 1161.500;  191.050;    0.000
355.743; 1163.500;  161.050;    0.000
355.806; 1100.500;  153.050;    0.000
355.869; 1168.500;  221.050;    0.000
355.932; 1108.500;  152.050;    0.000
355.995; 1172.500;  195.050;    0.000
356.058; 1153.500;  172.050;    0.000
356.121; 1216.500;  186.050;    0.000
356.184; 1222.500;  196.050;    0.000
356.247; 1250.500;  183.050;    0.000
356.310; 1234.500;  159.050;    0.000
356.373; 1262.500;  183.050;    0.000
356.436; 1228.500;  176.050;    0.000
356.498; 1331.500;  191.050;    0.000
356.561; 1245.500;  145.050;    0.000
356.624; 1247.500;  187.050;    0.000
356.687; 1221.500;  181.050;    0.000
356.750; 1182.500;  227.050;    0.000
356.813; 1237.500;  147.050;    0.000
356.876; 1260.500;  184.050;    0.000
356.939; 1249.500;  141.050;    0.000
357.001; 1308.500;  188.050;    0.000
357.064; 1267.500;  173.050;    0.000
357.127; 1308.500;  159.050;    0.000
357.190; 1262.500;  185.050;    0.000
357.253; 1386.500;  180.050;    0.000
357.316; 1256.500;  199.050;    0.000
357.378; 1295.500;  196.050;    0.000
357.441; 1342.500;  175.050;    0.000
357.504; 1307.500;  164.050;    0.000
357.567; 1289.500;  145.050;    0.000
357.629; 1256.500;  205.050;    0.000
357.692; 1289.500;  175.050;    0.000
357.755; 1307.500;  205.050;    0.000
357.818; 1349.500;  141.050;    0.000
357.880; 1382.500;  170.050;    0.000
357.943; 1320.500;  152.050;    0.000
358.006; 1316.500;  145.050;    0.000
358.069; 1381.500;  164.050;    0.000
358.131; 1392.500;  148.050;    0.000
358.194; 1353.500;  122.050;    0.000
358.257; 1334.500;  147.050;    0.000
358.319; 1348.500;  156.050;    0.000
358.382; 1346.500;  193.050;    0.000
358.445; 1320.500;  155.050;    0.000
358.507; 1442.500;  160.050;    0.000
358.570; 1429.500;  159.050;    0.000
358.633; 1278.500;  163.050;    0.000
358.695; 1391.500;  174.050;    0.000
358.758; 1422.500;  127.050;    0.000
358.821; 1391.500;  165.050;    0.000
358.883; 1380.500;  145.050;    0.000
358.946; 1369.500;  127.050;    0.000
359.008; 1365.500;  180.050;    0.000
359.071; 1333.500;  173.050;    0.000
359.134; 1345.500;  150.050;    0.000
359.196; 1346.500;  158.050;    0.000
359.259; 1432.500;  159.050;    0.000
359.321; 1464.500;  159.050;    0.000
359.384; 1454.500;  182.050;    0.000
359.446; 1376.500;  140.050;    0.000
359.509; 1367.500;  146.050;    0.000
359.571; 1454.500;  133.050;    0.000
359.634; 1428.500;   93.050;    0.000
359.696; 1379.500;  142.050;    0.000
359.759; 1464.500;  161.050;    0.000
359.821; 1497.500;  110.050;    0.000
359.884; 1429.500;  114.050;    0.000
359.946; 1388.500;  180.050;    0.000
360.009; 1409.500;  158.050;    0.000
360.071; 1394.500;  116.050;    0.000
360.134; 1368.500;  170.050;    0.000
360.196; 1442.500;  128.050;    0.000
360.259; 1404.500;  157.050;    0.000
360.321; 1448.500;  122.050;    0.000
360.384; 1465.500;  119.050;    0.000
360.446; 1454.500;  122.050;    0.000
360.508; 1451.500;  195.050;    0.000
360.571; 1584.500;  128.050;    0.000
360.633; 1482.500;  172.050;    0.000
360.696; 1422.500;  115.050;    0.000
360.758; 1583.500;  162.050;    0.000
360.820; 1475.500;  149.050;    0.000
360.883; 1440.500;  151.050;    0.000
360.945; 1451.500;  149.050;    0.000
361.007; 1471.500;  135.050;    0.000
361.070; 1459.500;  162.050;    0.000
361.132; 1573.500;  198.050;    0.000
361.194; 1498.500;  141.050;    0.000
361.257; 1525.500;  154.050;    0.000
361.319; 1491.500;  147.050;    0.000
361.381; 1471.500;  154.050;    0.000
361.443; 1500.500;  144.050;    0.000
361.506; 1463.500;  164.050;    0.000
361.568; 1584.500;  148.050;    0.000
361.630; 1497.500;  127.050;    0.000
361.693; 1483.500;  158.050;    0.000
361.755; 1592.500;  161.050;    0.000
361.817; 1549.500;  173.050;    0.000
361.879; 1516.500;  159.050;    0.000
361.941; 1562.500;  153.050;    0.000
362.004; 1591.500;  148.050;    0.000
362.066; 1514.500;  150.050;    0.000
362.128; 1528.500;  132.050;    0.000
362.190; 1562.500;  207.050;    0.000
362.252; 1573.500;  142.050;    0.000
362.315; 1499.500;  153.050;    0.000
362.377; 1539.500;  164.050;    0.000
362.439; 1560.500;  155.050;    0.000
362.501; 1557.500;  157.050;    0.000
362.563; 1566.500;  188.050;    0.000
362.625; 1601.500;  194.050;    0.000
362.688; 1569.500;  159.050;    0.000
362.750; 1578.500;  205.050;    0.000
362.812; 1594.500;  148.050;    0.000
362.874; 1567.500;  173.050;    0.000
362.936; 1564.500;  152.050;    0.000
362.998; 1562.500;  145.050;    0.000
363.060; 1615.500;  184.050;    0.000
363.122; 1531.500;  147.050;    0.000
363.184; 1583.500;  136.050;    0.000
363.246; 1612.500;  171.050;    0.000
363.308; 1549.500;  154.050;    0.000
363.370; 1569.500;  175.050;    0.000
363.432; 1553.500;  139.050;    0.000
363.494; 1529.500;  163.050;    0.000
363.556; 1542.500;  117.050;    0.000
363.618; 1648.500;  126.050;    0.000
363.680; 1620.500;  147.050;    0.000
363.742; 1594.500;  161.050;    0.000
363.804; 1606.500;  159.050;    0.000
363.866; 1601.500;  170.050;    0.000
363.928; 1598.500;  122.050;    0.000
363.990; 1610.500;  167.050;    0.000
364.052; 1583.500;  180.050;    0.000
364.114; 1619.500;  119.050;    0.000
364.176; 1608.500;  184.050;    0.000
364.238; 1621.500;  180.050;    0.000
364.300; 1601.500;  159.050;    0.000
364.362; 1615.500;  163.050;    0.000
364.424; 1603.500;  139.050;    0.000
364.486; 1588.500;  189.050;    0.000
364.548; 1570.500;  167.050;    0.000
364.609; 1652.500;  165.050;    0.000
364.671; 1625.500;  171.050;    0.000
364.733; 1649.500;  165.050;    0.000
364.795; 1590.500;  122.050;    0.000
364.857; 1611.500;  147.050;    0.000
364.919; 1644.500;  104.050;    0.000
364.981; 1622.500;  143.050;    0.000
365.042; 1554.500;  166.050;    0.000
365.104; 1607.500;  162.050;    0.000
365.166; 1581.500;  155.050;    0.000
365.228; 1650.500;  179.050;    0.000
365.290; 1655.500;  133.050;    0.000
365.351; 1647.500;  142.050;    0.000
365.413; 1657.500;  144.050;    0.000
365.475; 1682.500;  139.050;    0.000
365.537; 1577.500;  181.050;    0.000
365.598; 1729.500;  166.050;    0.000
365.660; 1609.500;  130.050;    0.000
365.722; 1672.500;  177.050;    0.000
365.784; 1613.500;  149.050;    0.000
365.845; 1662.500;  156.050;    0.000
365.907; 1694.500;  122.050;    0.000
365.969; 1660.500;  140.050;    0.000
366.030; 1674.500;  156.050;    0.000
366.092; 1620.500;  140.050;    0.000
366.154; 1605.500;  169.050;    0.000
366.215; 1653.500;  170.050;    0.000
366.277; 1642.500;  143.050;    0.000
366.339; 1695.500;  139.050;    0.000
366.400; 1746.500;  139.050;    0.000
366.462; 1668.500;  140.050;    0.000
366.524; 1688.500;  150.050;    0.000
366.585; 1671.500;  163.050;    0.000
366.647; 1735.500;  193.050;    0.000
366.708; 1633.500;  135.050;    0.000
366.770; 1748.500;  165.050;    0.000
366.832; 1710.500;  168.050;    0.000
366.893; 1709.500;  157.050;    0.000
366.955; 1695.500;  132.050;    0.000
367.016; 1728.500;  127.050;    0.000
367.078; 1718.500;  146.050;    0.000
367.139; 1683.500;  129.050;    0.000
367.201; 1656.500;  148.050;    0.000
367.262; 1769.500;  165.050;    0.000
367.324; 1702.500;  171.050;    0.000
367.385; 1707.500;  118.050;    0.000
367.447; 1697.500;  144.050;    0.000
367.508; 1706.500;  135.050;    0.000
367.570; 1692.500;  160.050;    0.000
367.631; 1705.500;  157.050;    0.000
367.693; 1685.500;  168.050;    0.000
367.754; 1724.500;  139.050;    0.000
367.816; 1749.500;  141.050;    0.000
367.877; 1716.500;  195.050;    0.000
367.939; 1786.500;  166.050;    0.000
368.000; 1692.500;  127.050;    0.000
368.062; 1710.500;  143.050;    0.000
368.123; 1732.500;  156.050;    0.000
368.184; 1678.500;  179.050;    0.000
368.246; 1663.500;  168.050;    0.000
368.307; 1696.500;  203.050;    0.000
368.369; 1713.500;  149.050;    0.000
368.430; 1692.500;  121.050;    0.000
368.491; 1747.500;  131.050;    0.000
368.553; 1791.500;  161.050;    0.000
368.614; 1708.500;  157.050;    0.000
368.675; 1814.500;  152.050;    0.000
368.737; 1740.500;  168.050;    0.000
368.798; 1771.500;  147.050;    0.000
368.859; 1795.500;  174.050;    0.000
368.921; 1732.500;  168.050;    0.000
368.982; 1783.500;  151.050;    0.000
369.043; 1728.500;  169.050;    0.000
369.104; 1787.500;  149.050;    0.000
369.166; 1711.500;  178.050;    0.000
369.227; 1778.500;  149.050;    0.000
369.288; 1757.500;  131.050;    0.000
369.349; 1778.500;  128.050;    0.000
369.411; 1849.500;  198.050;    0.000
369.472; 1877.500;  156.050;    0.000
369.533; 1789.500;  142.050;    0.000
369.594; 1630.500;  125.050;    0.000
369.656; 1835.500;  153.050;    0.000
369.717; 1708.500;  124.050;    0.000
369.778; 1772.500;  163.050;    0.000
369.839; 1776.500;  130.050;    0.000
369.900; 1869.500;  170.050;    0.000
369.961; 1799.500;  142.050;    0.000
370.023; 1818.500;  197.050;    0.000
370.084; 1852.500;  151.050;    0.000
370.145; 1800.500;  128.050;    0.000
370.206; 1810.500;  152.050;    0.000
370.267; 1787.500;  154.050;    0.000
370.328; 1759.500;  154.050;    0.000
370.389; 1812.500;  173.050;    0.000
370.451; 1828.500;  191.050;    0.000
370.512; 1791.500;  155.050;    0.000
370.573; 1873.500;  134.050;    0.000
370.634; 1849.500;  160.050;    0.000
370.695; 1830.500;  124.050;    0.000
370.756; 1908.500;  169.050;    0.000
370.817; 1883.500;  169.050;    0.000
370.878; 1864.500;  200.050;    0.000
370.939; 1856.500;  157.050;    0.000
371.000; 1869.500;  131.050;    0.000
371.061; 1874.500;  136.050;    0.000
371.122; 1817.500;  176.050;    0.000
371.183; 1836.500;   81.050;    0.000
371.244; 1850.500;  156.050;    0.000
371.305; 1920.500;  131.050;    0.000
371.366; 1869.500;  161.050;    0.000
371.427; 1910.500;  127.050;    0.000
371.488; 1928.500;  184.050;    0.000
371.549; 1887.500;  159.050;    0.000
371.610; 1916.500;  147.050;    0.000
371.671; 1788.500;  132.050;    0.000
371.732; 1865.500;  163.050;    0.000
371.793; 1792.500;  179.050;    0.000
371.853; 1899.500;  179.050;    0.000
371.914; 1834.500;  149.050;    0.000
371.975; 1850.500;  117.050;    0.000
372.036; 1870.500;  141.050;    0.000
372.097; 1886.500;  101.050;    0.000
372.158; 1945.500;  115.050;    0.000
372.219; 1885.500;  174.050;    0.000
372.280; 1819.500;  134.050;    0.000
372.340; 1973.500;  180.050;    0.000
372.401; 1869.500;  166.050;    0.000
372.462; 1902.500;  171.050;    0.000
372.523; 1898.500;  132.050;    0.000
372.584; 1967.500;  182.050;    0.000
372.645; 1846.500;  149.050;    0.000
372.705; 1950.500;  182.050;    0.000
372.766; 1967.500;  145.050;    0.000
372.827; 1975.500;  161.050;    0.000
372.888; 1889.500;  156.050;    0.000
372.948; 1925.500;  158.050;    0.000
373.009; 1935.500;  178.050;    0.000
373.070; 1937.500;  166.050;    0.000
373.131; 1951.500;  154.050;    0.000
373.191; 1928.500;  193.050;    0.000
373.252; 1992.500;  148.050;    0.000
373.313; 1885.500;  152.050;    0.000
373.373; 1898.500;  156.050;    0.000
373.434; 2043.500;  166.050;    0.000
373.495; 2012.500;  152.050;    0.000
373.555; 1884.500;  145.050;    0.000
373.616; 1898.500;  141.050;    0.000
373.677; 1979.500;  169.050;    0.000
373.737; 1975.500;  166.050;    0.000
373.798; 1990.500;  151.050;    0.000
373.859; 1944.500;  170.050;    0.000
373.919; 1949.500;  206.050;    0.000
373.980; 1983.500;  140.050;    0.000
374.041; 1927.500;  148.050;    0.000
374.101; 1951.500;  165.050;    0.000
374.162; 1990.500;  166.050;    0.000
374.222; 1956.500;  156.050;    0.000
374.283; 1921.500;  161.050;    0.000
374.343; 1943.500;  185.050;    0.000
374.404; 1955.500;  148.050;    0.000
374.465; 1917.500;  162.050;    0.000
374.525; 2000.500;  177.050;    0.000
374.586; 1982.500;  164.050;    0.000
374.646; 2049.500;  180.050;    0.000
374.707; 2025.500;  203.050;    0.000
374.767; 2032.500;  148.050;    0.000
374.828; 2082.500;  142.050;    0.000
374.888; 2165.500;  187.050;    0.000
374.949; 2082.500;  137.050;    0.000
375.009; 2132.500;  155.050;    0.000
375.070; 2112.500;  165.050;    0.000
375.130; 2111.500;  168.050;    0.000
375.190; 2080.500;  157.050;    0.000
375.251; 2057.500;  206.050;    0.000
375.311; 2046.500;  141.050;    0.000
375.372; 2056.500;  144.050;    0.000
375.432; 2041.500;  153.050;    0.000
375.493; 2134.500;  168.050;    0.000
375.553; 2032.500;  146.050;    0.000
375.613; 2093.500;  142.050;    0.000
375.674; 2074.500;  153.050;    0.000
375.734; 2056.500;  166.050;    0.000
375.794; 2007.500;  145.050;    0.000
375.855; 1908.500;  162.050;    0.000
375.915; 2058.500;  162.050;    0.000
375.975; 2003.500;  144.050;    0.000
376.036; 2022.500;  128.050;    0.000
376.096; 2057.500;  122.050;    0.000
376.156; 2012.500;  140.050;    0.000
376.217; 2007.500;  158.050;    0.000
376.277; 2025.500;  163.050;    0.000
376.337; 2001.500;  139.050;    0.000
376.398; 2178.500;  176.050;    0.000
376.458; 2038.500;  143.050;    0.000
376.518; 2051.500;  136.050;    0.000
376.578; 2014.500;  177.050;    0.000
376.639; 2038.500;  163.050;    0.000
376.699; 2047.500;  183.050;    0.000
376.759; 2035.500;  169.050;    0.000
376.819; 2047.500;  147.050;    0.000
376.880; 2107.500;  188.050;    0.000
376.940; 2035.500;  185.050;    0.000
377.000; 2027.500;  131.050;    0.000
377.060; 2079.500;  182.050;    0.000
377.120; 2025.500;  165.050;    0.000
377.180; 2109.500;  169.050;    0.000
377.241; 2061.500;  146.050;    0.000
377.301; 2227.500;  183.050;    0.000
377.361; 2165.500;  124.050;    0.000
377.421; 2072.500;  186.050;    0.000
377.481; 2116.500;  178.050;    0.000
377.541; 2098.500;  140.050;    0.000
377.601; 2163.500;  175.050;    0.000
377.661; 2150.500;  169.050;    0.000
377.722; 2134.500;  144.050;    0.000
377.782; 2140.500;  182.050;    0.000
377.842; 2189.500;  161.050;    0.000
377.902; 2143.500;  151.050;    0.000
377.962; 2123.500;  134.050;    0.000
378.022; 2115.500;  153.050;    0.000
378.082; 2150.500;  178.050;    0.000
378.142; 2122.500;  118.050;    0.000
378.202; 2155.500;  153.050;    0.000
378.262; 2151.500;  166.050;    0.000
378.322; 2175.500;  174.050;    0.000
378.382; 2139.500;  148.050;    0.000
378.442; 2189.500;  190.050;    0.000
378.502; 2137.500;  136.050;    0.000
378.562; 2209.500;  130.050;    0.000
378.622; 2257.500;  188.050;    0.000
378.682; 2223.500;  163.050;    0.000
378.742; 2218.500;  150.050;    0.000
378.802; 2244.500;  127.050;    0.000
378.862; 2368.500;  186.050;    0.000
378.921; 2264.500;  203.050;    0.000
378.981; 2321.500;  177.050;    0.000
379.041; 2235.500;  134.050;    0.000
379.101; 2268.500;  167.050;    0.000
379.161; 2200.500;  130.050;    0.000
379.221; 2326.500;  169.050;    0.000
379.281; 2312.500;  162.050;    0.000
379.341; 2301.500;  134.050;    0.000
379.401; 2218.500;  151.050;    0.000
379.460; 2398.500;  190.050;    0.000
379.520; 2339.500;  158.050;    0.000
379.580; 2298.500;  162.050;    0.000
379.640; 2402.500;  146.050;    0.000
379.700; 2319.500;  167.050;    0.000
379.759; 2421.500;  194.050;    0.000
379.819; 2345.500;  176.050;    0.000
379.879; 2373.500;  140.050;    0.000
379.939; 2351.500;  184.050;    0.000
379.999; 2425.500;  165.050;    0.000
380.058; 2472.500;  194.050;    0.000
380.118; 2434.500;  137.050;    0.000
380.178; 2364.500;  139.050;    0.000
380.237; 2441.500;  139.050;    0.000
380.297; 2446.500;  160.050;    0.000
380.357; 2444.500;  194.050;    0.000
380.417; 2415.500;  174.050;    0.000
380.476; 2538.500;  153.050;    0.000
380.536; 2462.500;  169.050;    0.000
380.596; 2455.500;  159.050;    0.000
380.655; 2514.500;  178.050;    0.000
380.715; 2511.500;  196.050;    0.000
380.775; 2481.500;  202.050;    0.000
380.834; 2457.500;  186.050;    0.000
380.894; 2415.500;  167.050;    0.000
380.954; 2483.500;  150.050;    0.000
381.013; 2611.500;  187.050;    0.000
381.073; 2520.500;  114.050;    0.000
381.132; 2540.500;  176.050;    0.000
381.192; 2529.500;  197.050;    0.000
381.252; 2561.500;  172.050;    0.000
381.311; 2547.500;  155.050;    0.000
381.371; 2530.500;  172.050;    0.000
381.430; 2702.500;  143.050;    0.000
381.490; 2558.500;  136.050;    0.000
381.549; 2566.500;  131.050;    0.000
381.609; 2639.500;  203.050;    0.000
381.668; 2563.500;  135.050;    0.000
381.728; 2653.500;  163.050;    0.000
381.787; 2667.500;  195.050;    0.000
381.847; 2729.500;  185.050;    0.000
381.906; 2715.500;  187.050;    0.000
381.966; 2727.500;  153.050;    0.000
382.025; 2706.500;  175.050;    0.000
382.085; 2813.500;  195.050;    0.000
382.144; 2888.500;  210.050;    0.000
382.204; 2919.500;  201.050;    0.000
382.263; 2929.500;  178.050;    0.000
382.323; 2897.500;  151.050;    0.000
382.382; 2956.500;  147.050;    0.000
382.441; 3000.500;  144.050;    0.000
382.501; 3253.500;  156.050;    0.000
382.560; 3298.500;  160.050;    0.000
382.619; 3356.500;  173.050;    0.000
382.679; 3536.500;  167.050;    0.000
382.738; 3556.500;  189.050;    0.000
382.798; 4054.500;  181.050;    0.000
382.857; 4255.500;  161.050;    0.000
382.916; 4886.500;  162.050;    0.000
382.976; 5210.500;  169.050;    0.000
383.035; 4644.500;  174.050;    0.000
383.094; 4863.500;  178.050;    0.000
383.154; 5909.500;  188.050;    0.000
383.213; 6857.500;  162.050;    0.000
383.272; 6739.500;  144.050;    0.000
383.331; 5012.500;  144.050;    0.000
383.391; 4497.500;  198.050;    0.000
383.450; 4292.500;  185.050;    0.000
383.509; 4362.500;  132.050;    0.000
383.568; 4511.500;  171.050;    0.000
383.628; 4798.500;  171.050;    0.000
383.687; 5492.500;  172.050;    0.000
383.746; 6650.500;  144.050;    0.000
383.805; 8119.500;  177.050;    0.000
383.864; 8225.500;  145.050;    0.000
383.924; 5919.500;  203.050;    0.000
383.983; 4506.500;  153.050;    0.000
384.042; 4117.500;  171.050;    0.000
384.101; 3845.500;  186.050;    0.000
384.160; 3500.500;  132.050;    0.000
384.219; 3477.500;  157.050;    0.000
384.279; 3383.500;  166.050;    0.000
384.338; 3168.500;  141.050;    0.000
384.397; 3134.500;  142.050;    0.000
384.456; 3112.500;  155.050;    0.000
384.515; 2998.500;  158.050;    0.000
384.574; 3075.500;  208.050;    0.000
384.633; 3046.500;  158.050;    0.000
384.692; 2923.500;  162.050;    0.000
384.751; 3044.500;  179.050;    0.000
384.810; 2973.500;  150.050;    0.000
384.869; 2909.500;  147.050;    0.000
384.929; 2989.500;  132.050;    0.000
384.988; 2913.500;  166.050;    0.000
385.047; 2890.500;  161.050;    0.000
385.106; 2962.500;  180.050;    0.000
385.165; 2914.500;  123.050;    0.000
385.224; 2918.500;  153.050;    0.000
385.283; 2982.500;  158.050;    0.000
385.342; 2963.500;  184.050;    0.000
385.401; 2849.500;  191.050;    0.000
385.459; 2997.500;  143.050;    0.000
385.518; 2887.500;  152.050;    0.000
385.577; 2877.500;  134.050;    0.000
385.636; 3039.500;  187.050;    0.000
385.695; 3028.500;  141.050;    0.000
385.754; 2972.500;  143.050;    0.000
385.813; 2969.500;  145.050;    0.000
385.872; 2974.500;  116.050;    0.000
385.931; 2929.500;  147.050;    0.000
385.990; 2874.500;  170.050;    0.000
386.049; 3012.500;  189.050;    0.000
386.107; 2928.500;  122.050;    0.000
386.166; 2949.500;  155.050;    0.000
386.225; 2842.500;  173.050;    0.000
386.284; 2963.500;  138.050;    0.000
386.343; 2888.500;  216.050;    0.000
386.402; 2948.500;  162.050;    0.000
386.460; 2904.500;  131.050;    0.000
386.519; 2875.500;  122.050;    0.000
386.578; 2855.500;  140.050;    0.000
386.637; 2894.500;  169.050;    0.000
386.696; 2900.500;  176.050;    0.000
386.754; 2868.500;  127.050;    0.000
386.813; 2879.500;  138.050;    0.000
386.872; 2807.500;  135.050;    0.000
386.931; 2893.500;  170.050;    0.000
386.989; 2872.500;  167.050;    0.000
387.048; 2846.500;  131.050;    0.000
387.107; 2949.500;  176.050;    0.000
387.165; 2893.500;  139.050;    0.000
387.224; 2850.500;  150.050;    0.000
387.283; 2868.500;  169.050;    0.000
387.342; 2945.500;  191.050;    0.000
387.400; 2774.500;  131.050;    0.000
387.459; 2812.500;  139.050;    0.000
387.517; 2837.500;  214.050;    0.000
387.576; 2872.500;  146.050;    0.000
387.635; 2822.500;  161.050;    0.000
387.693; 2785.500;  197.050;    0.000
387.752; 2836.500;  159.050;    0.000
387.811; 2836.500;  144.050;    0.000
387.869; 2840.500;  172.050;    0.000
387.928; 2841.500;  160.050;    0.000
387.986; 2876.500;  192.050;    0.000
388.045; 2900.500;  121.050;    0.000
388.103; 2786.500;  129.050;    0.000
388.162; 2836.500;  169.050;    0.000
388.221; 2890.500;  171.050;    0.000
388.279; 2840.500;  135.050;    0.000
388.338; 2982.500;  222.050;    0.000
388.396; 2883.500;  168.050;    0.000
388.455; 2834.500;  178.050;    0.000
388.513; 2811.500;  151.050;    0.000
388.572; 2826.500;  147.050;    0.000
388.630; 2827.500;  158.050;    0.000
388.689; 2723.500;  163.050;    0.000
388.747; 2951.500;  180.050;    0.000
388.806; 2795.500;  119.050;    0.000
388.864; 2705.500;  159.050;    0.000
388.922; 2845.500;  152.050;    0.000
388.981; 2711.500;  125.050;    0.000
389.039; 2635.500;  151.050;    0.000
389.098; 2801.500;  151.050;    0.000
389.156; 2742.500;  175.050;    0.000
389.214; 2834.500;  133.050;    0.000
389.273; 2811.500;  142.050;    0.000
389.331; 2775.500;  179.050;    0.000
389.390; 2740.500;  179.050;    0.000
389.448; 2855.500;  159.050;    0.000
389.506; 2785.500;  140.050;    0.000
389.565; 2901.500;  160.050;    0.000
389.623; 2873.500;  181.050;    0.000
389.681; 2838.500;  181.050;    0.000
389.740; 2785.500;  187.050;    0.000
389.798; 2802.500;  163.050;    0.000
389.856; 2830.500;  185.050;    0.000
389.914; 2786.500;  170.050;    0.000
389.973; 2707.500;  150.050;    0.000
390.031; 2822.500;  149.050;    0.000
390.089; 2859.500;  191.050;    0.000
390.147; 2725.500;  126.050;    0.000
390.206; 2825.500;  174.050;    0.000
390.264; 2831.500;  164.050;    0.000
390.322; 2841.500;  150.050;    0.000
390.380; 2727.500;  137.050;    0.000
390.439; 2770.500;  176.050;    0.000
390.497; 2810.500;  188.050;    0.000
390.555; 2801.500;  143.050;    0.000
390.613; 2698.500;  174.050;    0.000
390.671; 2777.500;  208.050;    0.000
390.729; 2699.500;  135.050;    0.000
390.788; 2709.500;  169.050;    0.000
390.846; 2734.500;  173.050;    0.000
390.904; 2845.500;  176.050;    0.000
390.962; 2776.500;  179.050;    0.000
391.020; 2779.500;  201.050;    0.000
391.078; 2820.500;  192.050;    0.000
391.136; 2935.500;  170.050;    0.000
391.194; 2888.500;  163.050;    0.000
391.253; 2886.500;  203.050;    0.000
391.311; 2887.500;  170.050;    0.000
391.369; 2866.500;  191.050;    0.000
391.427; 2921.500;  226.050;    0.000
391.485; 2912.500;  181.050;    0.000
391.543; 2931.500;  177.050;    0.000
391.601; 2835.500;  150.050;    0.000
391.659; 2921.500;  201.050;    0.000
391.717; 2990.500;  166.050;    0.000
391.775; 2900.500;  200.050;    0.000
391.833; 3057.500;  180.050;    0.000
391.891; 2895.500;  172.050;    0.000
391.949; 2968.500;  174.050;    0.000
392.007; 3105.500;  194.050;    0.000
392.065; 3036.500;  161.050;    0.000
392.123; 3060.500;  159.050;    0.000
392.180; 3041.500;  193.050;    0.000
392.238; 3018.500;  188.050;    0.000
392.296; 3090.500;  206.050;    0.000
392.354; 2954.500;  170.050;    0.000
392.412; 2968.500;  207.050;    0.000
392.470; 2964.500;  168.050;    0.000
392.528; 3121.500;  185.050;    0.000
392.586; 2923.500;  154.050;    0.000
392.644; 3017.500;  190.050;    0.000
392.701; 3084.500;  195.050;    0.000
392.759; 2972.500;  229.050;    0.000
392.817; 3010.500;  176.050;    0.000
392.875; 2941.500;  198.050;    0.000
392.933; 2970.500;  174.050;    0.000
392.991; 2998.500;  237.050;    0.000
393.048; 3120.500;  212.050;    0.000
393.106; 3099.500;  191.050;    0.000
393.164; 3074.500;  136.050;    0.000
393.222; 3223.500;  164.050;    0.000
393.279; 3471.500;  208.050;    0.000
393.337; 4204.500;  203.050;    0.000
393.395; 4491.500;  191.050;    0.000
393.453; 3703.500;  153.050;    0.000
393.510; 3221.500;  171.050;    0.000
393.568; 3141.500;  203.050;    0.000
393.626; 3084.500;  169.050;    0.000
393.684; 3053.500;  201.050;    0.000
393.741; 3053.500;  172.050;    0.000
393.799; 3064.500;  149.050;    0.000
393.857; 3016.500;  151.050;    0.000
393.914; 3030.500;  192.050;    0.000
393.972; 3034.500;  176.050;    0.000
394.030; 3016.500;  165.050;    0.000
394.087; 3080.500;  192.050;    0.000
394.145; 3106.500;  183.050;    0.000
394.202; 3013.500;  161.050;    0.000
394.260; 3007.500;  135.050;    0.000
394.318; 3090.500;  188.050;    0.000
394.375; 3094.500;  163.050;    0.000
394.433; 3115.500;  151.050;    0.000
394.490; 3124.500;  190.050;    0.000
394.548; 3167.500;  157.050;    0.000
394.605; 3149.500;  205.050;    0.000
394.663; 3203.500;  173.050;    0.000
394.720; 3115.500;  171.050;    0.000
394.778; 3078.500;  190.050;    0.000
394.836; 3129.500;  134.050;    0.000
394.893; 3128.500;  142.050;    0.000
394.951; 3231.500;  192.050;    0.000
395.008; 3259.500;  149.050;    0.000
395.065; 3255.500;  194.050;    0.000
395.123; 3250.500;  160.050;    0.000
395.180; 3248.500;  178.050;    0.000
395.238; 3241.500;  191.050;    0.000
395.295; 3247.500;  160.050;    0.000
395.353; 3165.500;  162.050;    0.000
395.410; 3131.500;  165.050;    0.000
395.468; 3262.500;  190.050;    0.000
395.525; 3212.500;  173.050;    0.000
395.582; 3207.500;  161.050;    0.000
395.640; 3332.500;  200.050;    0.000
395.697; 3299.500;  198.050;    0.000
395.754; 3229.500;  136.050;    0.000
395.812; 3298.500;  172.050;    0.000
395.869; 3361.500;  172.050;    0.000
395.927; 3236.500;  145.050;    0.000
395.984; 3351.500;  220.050;    0.000
396.041; 3308.500;  137.050;    0.000
396.098; 3257.500;  161.050;    0.000
396.156; 3440.500;  159.050;    0.000
396.213; 3398.500;  200.050;    0.000
396.270; 3317.500;  209.050;    0.000
396.328; 3348.500;  162.050;    0.000
396.385; 3186.500;  186.050;    0.000
396.442; 3264.500;  177.050;    0.000
396.499; 3305.500;  183.050;    0.000
396.557; 3242.500;  182.050;    0.000
396.614; 3286.500;  186.050;    0.000
396.671; 3285.500;  144.050;    0.000
396.728; 3594.500;  176.050;    0.000
396.785; 3618.500;  169.050;    0.000
396.843; 4031.500;  134.050;    0.000
396.900; 3901.500;  184.050;    0.000
396.957; 3524.500;  197.050;    0.000
397.014; 3429.500;  187.050;    0.000
397.071; 3497.500;  186.050;    0.000
397.128; 3397.500;  200.050;    0.000
397.186; 3414.500;  175.050;    0.000
397.243; 3426.500;  154.050;    0.000
397.300; 3442.500;  191.050;    0.000
397.357; 3398.500;  238.050;    0.000
397.414; 3508.500;  161.050;    0.000
397.471; 3365.500;  135.050;    0.000
397.528; 3407.500;  158.050;    0.000
397.585; 3475.500;  159.050;    0.000
397.642; 3447.500;  180.050;    0.000
397.699; 3426.500;  170.050;    0.000
397.756; 3482.500;  175.050;    0.000
397.814; 3515.500;  182.050;    0.000
397.871; 3445.500;  173.050;    0.000
397.928; 3371.500;  173.050;    0.000
397.985; 3391.500;  176.050;    0.000
398.042; 3387.500;  189.050;    0.000
398.099; 3537.500;  160.050;    0.000
398.156; 3604.500;  218.050;    0.000
398.212; 3593.500;  194.050;    0.000
398.269; 3541.500;  199.050;    0.000
398.326; 3547.500;  188.050;    0.000
398.383; 3610.500;  187.050;    0.000
398.440; 3604.500;  174.050;    0.000
398.497; 3660.500;  214.050;    0.000
398.554; 3692.500;  181.050;    0.000
398.611; 3587.500;  195.050;    0.000
398.668; 3629.500;  145.050;    0.000
398.725; 3676.500;  178.050;    0.000
398.782; 3714.500;  210.050;    0.000
398.839; 3776.500;  216.050;    0.000
398.895; 3689.500;  189.050;    0.000
398.952; 3766.500;  206.050;    0.000
399.009; 3822.500;  142.050;    0.000
399.066; 3879.500;  192.050;    0.000
399.123; 3976.500;  181.050;    0.000
399.180; 4134.500;  200.050;    0.000
399.236; 4115.500;  156.050;    0.000
399.293; 4233.500;  194.050;    0.000
399.350; 4349.500;  167.050;    0.000
399.407; 4472.500;  192.050;    0.000
399.463; 4553.500;  161.050;    0.000
399.520; 4679.500;  149.050;    0.000
399.577; 4680.500;  156.050;    0.000
399.634; 4636.500;  195.050;    0.000
399.690; 4606.500;  163.050;    0.000
399.747; 4668.500;  192.050;    0.000
399.804; 4573.500;  212.050;    0.000
399.861; 4548.500;  203.050;    0.000
399.917; 4554.500;  221.050;    0.000
399.974; 4395.500;  221.050;    0.000
400.031; 4362.500;  195.050;    0.000
400.087; 4198.500;  159.050;    0.000
400.144; 4210.500;  201.050;    0.000
400.201; 4231.500;  206.050;    0.000
400.257; 4133.500;  168.050;    0.000
400.314; 4093.500;  183.050;    0.000
400.370; 4057.500;  209.050;    0.000
400.427; 4059.500;  192.050;    0.000
400.484; 3971.500;  150.050;    0.000
400.540; 4034.500;  213.050;    0.000
400.597; 3932.500;  161.050;    0.000
400.653; 3948.500;  170.050;    0.000
400.710; 3963.500;  173.050;    0.000
400.766; 4081.500;  204.050;    0.000
400.823; 3839.500;  194.050;    0.000
400.879; 3978.500;  188.050;    0.000
400.936; 3874.500;  172.050;    0.000
400.993; 3847.500;  154.050;    0.000
401.049; 3982.500;  157.050;    0.000
401.105; 3889.500;  214.050;    0.000
401.162; 3957.500;  195.050;    0.000
401.218; 3981.500;  195.050;    0.000
401.275; 3857.500;  182.050;    0.000
401.331; 3947.500;  188.050;    0.000
401.388; 3906.500;  194.050;    0.000
401.444; 4014.500;  175.050;    0.000
401.501; 3900.500;  169.050;    0.000
401.557; 3772.500;  176.050;    0.000
401.614; 3845.500;  153.050;    0.000
401.670; 3905.500;  178.050;    0.000
401.726; 3841.500;  179.050;    0.000
401.783; 3904.500;  198.050;    0.000
401.839; 4000.500;  179.050;    0.000
401.895; 3904.500;  154.050;    0.000
401.952; 4026.500;  138.050;    0.000
402.008; 3950.500;  135.050;    0.000
402.064; 3944.500;  154.050;    0.000
402.121; 4010.500;  199.050;    0.000
402.177; 3856.500;  126.050;    0.000
402.233; 3943.500;  190.050;    0.000
402.290; 4027.500;  175.050;    0.000
402.346; 3928.500;  200.050;    0.000
402.402; 3901.500;  191.050;    0.000
402.458; 3964.500;  172.050;    0.000
402.515; 4031.500;  186.050;    0.000
402.571; 4029.500;  189.050;    0.000
402.627; 3880.500;  151.050;    0.000
402.683; 3988.500;  187.050;    0.000
402.740; 4100.500;  147.050;    0.000
402.796; 4037.500;  176.050;    0.000
402.852; 4156.500;  200.050;    0.000
402.908; 4126.500;  201.050;    0.000
402.964; 4150.500;  153.050;    0.000
403.021; 3966.500;  165.050;    0.000
403.077; 4138.500;  195.050;    0.000
403.133; 4078.500;  139.050;    0.000
403.189; 4101.500;  166.050;    0.000
403.245; 4109.500;  194.050;    0.000
403.301; 4115.500;  210.050;    0.000
403.357; 4207.500;  187.050;    0.000
403.414; 4041.500;  195.050;    0.000
403.470; 4140.500;  150.050;    0.000
403.526; 4218.500;  158.050;    0.000
403.582; 4147.500;  184.050;    0.000
403.638; 4309.500;  171.050;    0.000
403.694; 4244.500;  197.050;    0.000
403.750; 4224.500;  196.050;    0.000
403.806; 4355.500;  192.050;    0.000
403.862; 4199.500;  169.050;    0.000
403.918; 4268.500;  199.050;    0.000
403.974; 4202.500;  156.050;    0.000
404.030; 4258.500;  193.050;    0.000
404.086; 4255.500;  161.050;    0.000
404.142; 4281.500;  172.050;    0.000
404.198; 4272.500;  195.050;    0.000
404.254; 4297.500;  167.050;    0.000
404.310; 4363.500;  156.050;    0.000
404.366; 4287.500;  144.050;    0.000
404.422; 4244.500;  161.050;    0.000
404.478; 4304.500;  179.050;    0.000
404.534; 4314.500;  163.050;    0.000
404.590; 4345.500;  183.050;    0.000
404.646; 4291.500;  155.050;    0.000
404.701; 4200.500;  142.050;    0.000
404.757; 4358.500;  175.050;    0.000
404.813; 4317.500;  153.050;    0.000
404.869; 4290.500;  199.050;    0.000
404.925; 4217.500;  153.050;    0.000
404.981; 4316.500;  174.050;    0.000
405.037; 4165.500;  185.050;    0.000
405.092; 4204.500;  166.050;    0.000
405.148; 4159.500;  161.050;    0.000
405.204; 4306.500;  170.050;    0.000
405.260; 4282.500;  154.050;    0.000
405.316; 4352.500;  128.050;    0.000
405.371; 4296.500;  142.050;    0.000
405.427; 4357.500;  196.050;    0.000
405.483; 4345.500;  172.050;    0.000
405.539; 4133.500;  182.050;    0.000
405.594; 4360.500;  153.050;    0.000
405.650; 4298.500;  124.050;    0.000
405.706; 4324.500;  189.050;    0.000
405.761; 4302.500;  165.050;    0.000
405.817; 4338.500;  152.050;    0.000
405.873; 4340.500;  174.050;    0.000
405.928; 4237.500;  167.050;    0.000
405.984; 4292.500;  210.050;    0.000
406.040; 4301.500;  160.050;    0.000
406.095; 4397.500;  163.050;    0.000
406.151; 4316.500;  208.050;    0.000
406.207; 4294.500;  177.050;    0.000
406.262; 4324.500;  176.050;    0.000
406.318; 4334.500;  157.050;    0.000
406.374; 4496.500;  141.050;    0.000
406.429; 4476.500;  189.050;    0.000
406.485; 4501.500;  190.050;    0.000
406.540; 4408.500;  155.050;    0.000
406.596; 4429.500;  182.050;    0.000
406.651; 4552.500;  200.050;    0.000
406.707; 4442.500;  130.050;    0.000
406.763; 4562.500;  174.050;    0.000
406.818; 4482.500;  151.050;    0.000
406.874; 4612.500;  122.050;    0.000
406.929; 4698.500;  153.050;    0.000
406.985; 4681.500;  198.050;    0.000
407.040; 4795.500;  174.050;    0.000
407.095; 4743.500;  161.050;    0.000
407.151; 4808.500;  184.050;    0.000
407.206; 4869.500;  188.050;    0.000
407.262; 4922.500;  180.050;    0.000
407.317; 5067.500;  186.050;    0.000
407.373; 4911.500;  200.050;    0.000
407.428; 5028.500;  211.050;    0.000
407.484; 4938.500;  193.050;    0.000
407.539; 4993.500;  167.050;    0.000
407.594; 5037.500;  178.050;    0.000
407.650; 4915.500;  171.050;    0.000
407.705; 4900.500;  153.050;    0.000
407.760; 4919.500;  196.050;    0.000
407.816; 4850.500;  205.050;    0.000
407.871; 4818.500;  232.050;    0.000
407.926; 4889.500;  215.050;    0.000
407.982; 4796.500;  154.050;    0.000
408.037; 4769.500;  217.050;    0.000
408.092; 4793.500;  190.050;    0.000
408.148; 4843.500;  181.050;    0.000
408.203; 4636.500;  203.050;    0.000
408.258; 4676.500;  154.050;    0.000
408.314; 4722.500;  198.050;    0.000
408.369; 4646.500;  156.050;    0.000
408.424; 4725.500;  216.050;    0.000
408.479; 4634.500;  191.050;    0.000
408.534; 4644.500;  200.050;    0.000
408.590; 4657.500;  182.050;    0.000
408.645; 4717.500;  141.050;    0.000
408.700; 4706.500;  209.050;    0.000
408.755; 4681.500;  205.050;    0.000
408.810; 4574.500;  171.050;    0.000
408.866; 4542.500;  200.050;    0.000
408.921; 4654.500;  188.050;    0.000
408.976; 4653.500;  156.050;    0.000
409.031; 4642.500;  164.050;    0.000
409.086; 4633.500;  155.050;    0.000
409.141; 4633.500;  205.050;    0.000
409.196; 4657.500;  173.050;    0.000
409.252; 4692.500;  179.050;    0.000
409.307; 4623.500;  131.050;    0.000
409.362; 4632.500;  173.050;    0.000
409.417; 4738.500;  120.050;    0.000
409.472; 4766.500;  198.050;    0.000
409.527; 4638.500;  153.050;    0.000
409.582; 4609.500;  177.050;    0.000
409.637; 4570.500;  184.050;    0.000
409.692; 4627.500;  203.050;    0.000
409.747; 4633.500;  158.050;    0.000
409.802; 4591.500;  212.050;    0.000
409.857; 4612.500;  192.050;    0.000
409.912; 4629.500;  179.050;    0.000
409.967; 4611.500;  177.050;    0.000
410.022; 4688.500;  204.050;    0.000
410.077; 4631.500;  175.050;    0.000
410.132; 4704.500;  207.050;    0.000
410.187; 4564.500;  169.050;    0.000
410.242; 4703.500;  186.050;    0.000
410.297; 4616.500;  185.050;    0.000
410.351; 4567.500;  191.050;    0.000
410.406; 4684.500;  215.050;    0.000
410.461; 4730.500;  190.050;    0.000
410.516; 4713.500;  172.050;    0.000
410.571; 4658.500;  190.050;    0.000
410.626; 4773.500;  189.050;    0.000
410.681; 4610.500;  191.050;    0.000
410.736; 4517.500;  166.050;    0.000
410.790; 4528.500;  179.050;    0.000
410.845; 4535.500;  196.050;    0.000
410.900; 4718.500;  168.050;    0.000
410.955; 4611.500;  173.050;    0.000
411.010; 4642.500;  162.050;    0.000
411.064; 4592.500;  205.050;    0.000
411.119; 4515.500;  203.050;    0.000
411.174; 4519.500;  207.050;    0.000
411.229; 4667.500;  218.050;    0.000
411.283; 4541.500;  218.050;    0.000
411.338; 4636.500;  180.050;    0.000
411.393; 4503.500;  191.050;    0.000
411.447; 4547.500;  207.050;    0.000
411.502; 4595.500;  204.050;    0.000
411.557; 4568.500;  208.050;    0.000
411.612; 4520.500;  191.050;    0.000
411.666; 4481.500;  233.050;    0.000
411.721; 4553.500;  193.050;    0.000
411.776; 4613.500;  195.050;    0.000
411.830; 4648.500;  229.050;    0.000
411.885; 4588.500;  181.050;    0.000
411.939; 4628.500;  214.050;    0.000
411.994; 4614.500;  140.050;    0.000
412.049; 4618.500;  205.050;    0.000
412.103; 4700.500;  232.050;    0.000
412.158; 4568.500;  228.050;    0.000
412.212; 4722.500;  204.050;    0.000
412.267; 4605.500;  203.050;    0.000
412.322; 4575.500;  212.050;    0.000
412.376; 4570.500;  195.050;    0.000
412.431; 4560.500;  197.050;    0.000
412.485; 4637.500;  235.050;    0.000
412.540; 4488.500;  197.050;    0.000
412.594; 4635.500;  199.050;    0.000
412.649; 4453.500;  195.050;    0.000
412.703; 4476.500;  214.050;    0.000
412.758; 4452.500;  213.050;    0.000
412.812; 4380.500;  154.050;    0.000
412.866; 4293.500;  159.050;    0.000
412.921; 4422.500;  207.050;    0.000
412.975; 4486.500;  194.050;    0.000
413.030; 4442.500;  214.050;    0.000
413.084; 4474.500;  174.050;    0.000
413.139; 4494.500;  211.050;    0.000
413.193; 4337.500;  223.050;    0.000
413.247; 4573.500;  198.050;    0.000
413.302; 4523.500;  184.050;    0.000
413.356; 4545.500;  194.050;    0.000
413.410; 4479.500;  219.050;    0.000
413.465; 4442.500;  209.050;    0.000
413.519; 4516.500;  178.050;    0.000
413.573; 4455.500;  189.050;    0.000
413.628; 4482.500;  184.050;    0.000
413.682; 4557.500;  189.050;    0.000
413.736; 4501.500;  196.050;    0.000
413.791; 4428.500;  208.050;    0.000
413.845; 4551.500;  206.050;    0.000
413.899; 4415.500;  193.050;    0.000
413.953; 4460.500;  176.050;    0.000
414.008; 4406.500;  163.050;    0.000
414.062; 4438.500;  195.050;    0.000
414.116; 4493.500;  176.050;    0.000
414.170; 4357.500;  218.050;    0.000
414.225; 4560.500;  183.050;    0.000
414.279; 4591.500;  191.050;    0.000
414.333; 4487.500;  215.050;    0.000
414.387; 4536.500;  187.050;    0.000
414.441; 4356.500;  182.050;    0.000
414.496; 4474.500;  205.050;    0.000
414.550; 4583.500;  203.050;    0.000
414.604; 4601.500;  223.050;    0.000
414.658; 4526.500;  159.050;    0.000
414.712; 4622.500;  194.050;    0.000
414.766; 4419.500;  232.050;    0.000
414.820; 4511.500;  235.050;    0.000
414.874; 4558.500;  169.050;    0.000
414.928; 4525.500;  207.050;    0.000
414.982; 4405.500;  174.050;    0.000
415.037; 4617.500;  173.050;    0.000
415.091; 4545.500;  219.050;    0.000
415.145; 4543.500;  174.050;    0.000
415.199; 4554.500;  207.050;    0.000
415.253; 4522.500;  228.050;    0.000
415.307; 4486.500;  182.050;    0.000
415.361; 4600.500;  219.050;    0.000
415.415; 4465.500;  218.050;    0.000
415.469; 4501.500;  233.050;    0.000
415.523; 4441.500;  203.050;    0.000
415.577; 4483.500;  186.050;    0.000
415.631; 4576.500;  215.050;    0.000
415.684; 4518.500;  212.050;    0.000
415.738; 4432.500;  206.050;    0.000
415.792; 4466.500;  219.050;    0.000
415.846; 4407.500;  208.050;    0.000
415.900; 4398.500;  203.050;    0.000
415.954; 4465.500;  237.050;    0.000
416.008; 4466.500;  242.050;    0.000
416.062; 4431.500;  197.050;    0.000
416.116; 4365.500;  189.050;    0.000
416.169; 4437.500;  199.050;    0.000
416.223; 4524.500;  230.050;    0.000
416.277; 4535.500;  226.050;    0.000
416.331; 4317.500;  254.050;    0.000
416.385; 4468.500;  204.050;    0.000
416.439; 4376.500;  201.050;    0.000
416.492; 4526.500;  238.050;    0.000
416.546; 4409.500;  234.050;    0.000
416.600; 4372.500;  244.050;    0.000
416.654; 4504.500;  233.050;    0.000
416.707; 4434.500;  214.050;    0.000
416.761; 4357.500;  214.050;    0.000
416.815; 4410.500;  192.050;    0.000
416.869; 4376.500;  225.050;    0.000
416.922; 4472.500;  214.050;    0.000
416.976; 4445.500;  206.050;    0.000
417.030; 4374.500;  226.050;    0.000
417.083; 4289.500;  207.050;    0.000
417.137; 4420.500;  236.050;    0.000
417.191; 4538.500;  208.050;    0.000
417.244; 4338.500;  260.050;    0.000
417.298; 4367.500;  222.050;    0.000
417.352; 4420.500;  191.050;    0.000
417.405; 4428.500;  229.050;    0.000
417.459; 4453.500;  249.050;    0.000
417.512; 4351.500;  259.050;    0.000
417.566; 4371.500;  220.050;    0.000
417.620; 4440.500;  229.050;    0.000
417.673; 4420.500;  190.050;    0.000
417.727; 4482.500;  204.050;    0.000
417.780; 4351.500;  223.050;    0.000
417.834; 4433.500;  213.050;    0.000
417.887; 4352.500;  238.050;    0.000
417.941; 4418.500;  244.050;    0.000
417.994; 4477.500;  247.050;    0.000
418.048; 4569.500;  225.050;    0.000
418.101; 4474.500;  210.050;    0.000
418.155; 4516.500;  224.050;    0.000
418.208; 4481.500;  229.050;    0.000
418.262; 4394.500;  255.050;    0.000
418.315; 4654.500;  248.050;    0.000
418.369; 4487.500;  212.050;    0.000
418.422; 4452.500;  241.050;    0.000
418.476; 4504.500;  220.050;    0.000
418.529; 4545.500;  257.050;    0.000
418.582; 4389.500;  203.050;    0.000
418.636; 4513.500;  221.050;    0.000
418.689; 4492.500;  202.050;    0.000
418.743; 4480.500;  227.050;    0.000
418.796; 4458.500;  226.050;    0.000
418.849; 4472.500;  199.050;    0.000
418.903; 4526.500;  234.050;    0.000
418.956; 4512.500;  236.050;    0.000
419.009; 4562.500;  305.050;    0.000
419.063; 4609.500;  216.050;    0.000
419.116; 4470.500;  245.050;    0.000
419.169; 4567.500;  208.050;    0.000
419.222; 4494.500;  233.050;    0.000
419.276; 4543.500;  244.050;    0.000
419.329; 4602.500;  197.050;    0.000
419.382; 4499.500;  222.050;    0.000
419.435; 4463.500;  199.050;    0.000
419.489; 4365.500;  226.050;    0.000
419.542; 4553.500;  223.050;    0.000
419.595; 4461.500;  204.050;    0.000
419.648; 4489.500;  234.050;    0.000
419.701; 4425.500;  211.050;    0.000
419.755; 4338.500;  184.050;    0.000
419.808; 4486.500;  223.050;    0.000
419.861; 4454.500;  197.050;    0.000
419.914; 4430.500;  258.050;    0.000
419.967; 4420.500;  205.050;    0.000
420.020; 4287.500;  195.050;    0.000
420.073; 4393.500;  191.050;    0.000
420.127; 4393.500;  256.050;    0.000
420.180; 4357.500;  232.050;    0.000
420.233; 4380.500;  200.050;    0.000
420.286; 4249.500;  207.050;    0.000
420.339; 4434.500;  223.050;    0.000
420.392; 4396.500;  243.050;    0.000
420.445; 4378.500;  195.050;    0.000
420.498; 4314.500;  239.050;    0.000
420.551; 4250.500;  201.050;    0.000
420.604; 4343.500;  245.050;    0.000
420.657; 4232.500;  221.050;    0.000
420.710; 4325.500;  223.050;    0.000
420.763; 4421.500;  241.050;    0.000
420.816; 4131.500;  198.050;    0.000
420.869; 4263.500;  210.050;    0.000
420.922; 4204.500;  206.050;    0.000
420.975; 4324.500;  239.050;    0.000
421.028; 4296.500;  248.050;    0.000
421.081; 4331.500;  236.050;    0.000
421.134; 4161.500;  208.050;    0.000
421.187; 4278.500;  216.050;    0.000
421.239; 4308.500;  199.050;    0.000
421.292; 4218.500;  255.050;    0.000
421.345; 4277.500;  241.050;    0.000
421.398; 4198.500;  221.050;    0.000
421.451; 4263.500;  237.050;    0.000
421.504; 4112.500;  225.050;    0.000
421.557; 4323.500;  213.050;    0.000
421.609; 4200.500;  178.050;    0.000
421.662; 4191.500;  206.050;    0.000
421.715; 4129.500;  212.050;    0.000
421.768; 4350.500;  236.050;    0.000
421.821; 4181.500;  228.050;    0.000
421.873; 4272.500;  200.050;    0.000
421.926; 4121.500;  226.050;    0.000
421.979; 4216.500;  221.050;    0.000
422.032; 4129.500;  219.050;    0.000
422.084; 4282.500;  253.050;    0.000
422.137; 4052.500;  195.050;    0.000
422.190; 4164.500;  192.050;    0.000
422.243; 4124.500;  236.050;    0.000
422.295; 4230.500;  205.050;    0.000
422.348; 4309.500;  198.050;    0.000
422.401; 4168.500;  245.050;    0.000
422.453; 4176.500;  241.050;    0.000
422.506; 4152.500;  255.050;    0.000
422.559; 4241.500;  188.050;    0.000
422.611; 4406.500;  236.050;    0.000
422.664; 4682.500;  218.050;    0.000
422.716; 4842.500;  210.050;    0.000
422.769; 4332.500;  209.050;    0.000
422.822; 4236.500;  213.050;    0.000
422.874; 4177.500;  227.050;    0.000
422.927; 4201.500;  272.050;    0.000
422.979; 4233.500;  204.050;    0.000
423.032; 4270.500;  210.050;    0.000
423.084; 4156.500;  236.050;    0.000
423.137; 4298.500;  223.050;    0.000
423.189; 4214.500;  253.050;    0.000
423.242; 4148.500;  185.050;    0.000
423.294; 4259.500;  232.050;    0.000
423.347; 4174.500;  213.050;    0.000
423.399; 4269.500;  227.050;    0.000
423.452; 4157.500;  236.050;    0.000
423.504; 4094.500;  232.050;    0.000
423.557; 4271.500;  195.050;    0.000
423.609; 4065.500;  238.050;    0.000
423.662; 4238.500;  207.050;    0.000
423.714; 4098.500;  231.050;    0.000
423.766; 4121.500;  211.050;    0.000
423.819; 4137.500;  207.050;    0.000
423.871; 4180.500;  228.050;    0.000
423.923; 4101.500;  223.050;    0.000
423.976; 4257.500;  217.050;    0.000
424.028; 4108.500;  231.050;    0.000
424.081; 4110.500;  219.050;    0.000
424.133; 4046.500;  255.050;    0.000
424.185; 4108.500;  199.050;    0.000
424.238; 4182.500;  238.050;    0.000
424.290; 4176.500;  209.050;    0.000
424.342; 3991.500;  213.050;    0.000
424.394; 4043.500;  215.050;    0.000
424.447; 4142.500;  265.050;    0.000
424.499; 4231.500;  238.050;    0.000
424.551; 4002.500;  256.050;    0.000
424.603; 4173.500;  222.050;    0.000
424.656; 4071.500;  227.050;    0.000
424.708; 4133.500;  250.050;    0.000
424.760; 4043.500;  228.050;    0.000
424.812; 4035.500;  249.050;    0.000
424.864; 4078.500;  222.050;    0.000
424.917; 4019.500;  235.050;    0.000
424.969; 4040.500;  266.050;    0.000
425.021; 4013.500;  233.050;    0.000
425.073; 4007.500;  194.050;    0.000
425.125; 4107.500;  256.050;    0.000
425.177; 3955.500;  225.050;    0.000
425.229; 4064.500;  242.050;    0.000
425.282; 3948.500;  236.050;    0.000
425.334; 4039.500;  250.050;    0.000
425.386; 4063.500;  231.050;    0.000
425.438; 4189.500;  216.050;    0.000
425.490; 4092.500;  240.050;    0.000
425.542; 4006.500;  231.050;    0.000
425.594; 3913.500;  206.050;    0.000
425.646; 3831.500;  201.050;    0.000
425.698; 3858.500;  193.050;    0.000
425.750; 3928.500;  241.050;    0.000
425.802; 3967.500;  199.050;    0.000
425.854; 3900.500;  216.050;    0.000
425.906; 3905.500;  220.050;    0.000
425.958; 3915.500;  200.050;    0.000
426.010; 3932.500;  214.050;    0.000
426.062; 3947.500;  245.050;    0.000
426.114; 3820.500;  241.050;    0.000
426.166; 3912.500;  241.050;    0.000
426.218; 3811.500;  255.050;    0.000
426.270; 3924.500;  228.050;    0.000
426.321; 3813.500;  222.050;    0.000
426.373; 3772.500;  218.050;    0.000
426.425; 3956.500;  258.050;    0.000
426.477; 3799.500;  225.050;    0.000
426.529; 3804.500;  223.050;    0.000
426.581; 3830.500;  198.050;    0.000
426.633; 3748.500;  228.050;    0.000
426.684; 3762.500;  210.050;    0.000
426.736; 3723.500;  208.050;    0.000
426.788; 3864.500;  231.050;    0.000
426.840; 3731.500;  212.050;    0.000
426.892; 3806.500;  221.050;    0.000
426.943; 3711.500;  240.050;    0.000
426.995; 3729.500;  243.050;    0.000
427.047; 3670.500;  231.050;    0.000
427.099; 3827.500;  189.050;    0.000
427.150; 3719.500;  212.050;    0.000
427.202; 3669.500;  219.050;    0.000
427.254; 3724.500;  203.050;    0.000
427.306; 3747.500;  217.050;    0.000
427.357; 3731.500;  232.050;    0.000
427.409; 3759.500;  251.050;    0.000
427.461; 3754.500;  185.050;    0.000
427.512; 3924.500;  239.050;    0.000
427.564; 3819.500;  208.050;    0.000
427.616; 3733.500;  233.050;    0.000
427.667; 3743.500;  223.050;    0.000
427.719; 3629.500;  206.050;    0.000
427.770; 3684.500;  195.050;    0.000
427.822; 3701.500;  223.050;    0.000
427.874; 3630.500;  232.050;    0.000
427.925; 3763.500;  209.050;    0.000
427.977; 3686.500;  208.050;    0.000
428.028; 3770.500;  187.050;    0.000
428.080; 3688.500;  209.050;    0.000
428.131; 3625.500;  237.050;    0.000
428.183; 3667.500;  200.050;    0.000
428.234; 3619.500;  215.050;    0.000
428.286; 3617.500;  229.050;    0.000
428.337; 3704.500;  206.050;    0.000
428.389; 3688.500;  216.050;    0.000
428.440; 3635.500;  287.050;    0.000
428.492; 3769.500;  269.050;    0.000
428.543; 3584.500;  234.050;    0.000
428.595; 3694.500;  214.050;    0.000
428.646; 3580.500;  229.050;    0.000
428.697; 3635.500;  249.050;    0.000
428.749; 3660.500;  250.050;    0.000
428.800; 3636.500;  242.050;    0.000
428.852; 3561.500;  232.050;    0.000
428.903; 3622.500;  196.050;    0.000
428.954; 3677.500;  226.050;    0.000
429.006; 3664.500;  232.050;    0.000
429.057; 3580.500;  188.050;    0.000
429.108; 3668.500;  237.050;    0.000
429.160; 3531.500;  221.050;    0.000
429.211; 3612.500;  222.050;    0.000
429.262; 3468.500;  215.050;    0.000
429.314; 3598.500;  225.050;    0.000
429.365; 3528.500;  220.050;    0.000
429.416; 3547.500;  242.050;    0.000
429.467; 3640.500;  220.050;    0.000
429.519; 3488.500;  217.050;    0.000
429.570; 3405.500;  248.050;    0.000
429.621; 3518.500;  233.050;    0.000
429.672; 3411.500;  220.050;    0.000
429.724; 3534.500;  179.050;    0.000
429.775; 3574.500;  218.050;    0.000
429.826; 3380.500;  197.050;    0.000
429.877; 3357.500;  206.050;    0.000
429.928; 3503.500;  229.050;    0.000
429.980; 3417.500;  207.050;    0.000
430.031; 3409.500;  264.050;    0.000
430.082; 3474.500;  210.050;    0.000
430.133; 3514.500;  218.050;    0.000
430.184; 3453.500;  246.050;    0.000
430.235; 3414.500;  201.050;    0.000
430.286; 3488.500;  207.050;    0.000
430.337; 3459.500;  224.050;    0.000
430.388; 3455.500;  216.050;    0.000
430.439; 3442.500;  210.050;    0.000
430.490; 3271.500;  208.050;    0.000
430.542; 3380.500;  211.050;    0.000
430.593; 3517.500;  203.050;    0.000
430.644; 3391.500;  235.050;    0.000
430.695; 3453.500;  200.050;    0.000
430.746; 3365.500;  215.050;    0.000
430.797; 3392.500;  235.050;    0.000
430.848; 3416.500;  197.050;    0.000
430.898; 3495.500;  209.050;    0.000
430.949; 3408.500;  231.050;    0.000
431.000; 3392.500;  227.050;    0.000
431.051; 3430.500;  225.050;    0.000
431.102; 3538.500;  180.050;    0.000
431.153; 3451.500;  248.050;    0.000
431.204; 3410.500;  185.050;    0.000
431.255; 3420.500;  199.050;    0.000
431.306; 3467.500;  228.050;    0.000
431.357; 3467.500;  237.050;    0.000
431.408; 3505.500;  223.050;    0.000
431.458; 3417.500;  240.050;    0.000
431.509; 3430.500;  207.050;    0.000
431.560; 3521.500;  219.050;    0.000
431.611; 3435.500;  206.050;    0.000
431.662; 3424.500;  253.050;    0.000
431.713; 3444.500;  199.050;    0.000
431.763; 3483.500;  197.050;    0.000
431.814; 3498.500;  205.050;    0.000
431.865; 3455.500;  218.050;    0.000
431.916; 3488.500;  202.050;    0.000
431.966; 3438.500;  203.050;    0.000
432.017; 3489.500;  244.050;    0.000
432.068; 3535.500;  246.050;    0.000
432.118; 3423.500;  212.050;    0.000
432.169; 3374.500;  214.050;    0.000
432.220; 3477.500;  241.050;    0.000
432.271; 3476.500;  237.050;    0.000
432.321; 3427.500;  246.050;    0.000
432.372; 3257.500;  257.050;    0.000
432.423; 3503.500;  198.050;    0.000
432.473; 3486.500;  202.050;    0.000
432.524; 3394.500;  242.050;    0.000
432.574; 3361.500;  202.050;    0.000
432.625; 3374.500;  212.050;    0.000
432.676; 3383.500;  242.050;    0.000
432.726; 3453.500;  268.050;    0.000
432.777; 3373.500;  228.050;    0.000
432.827; 3466.500;  230.050;    0.000
432.878; 3383.500;  221.050;    0.000
432.928; 3329.500;  218.050;    0.000
432.979; 3436.500;  243.050;    0.000
433.029; 3332.500;  217.050;    0.000
433.080; 3295.500;  208.050;    0.000
433.130; 3325.500;  236.050;    0.000
433.181; 3416.500;  282.050;    0.000
433.231; 3426.500;  257.050;    0.000
433.282; 3392.500;  268.050;    0.000
433.332; 3481.500;  241.050;    0.000
433.383; 3400.500;  271.050;    0.000
433.433; 3462.500;  262.050;    0.000
433.484; 3355.500;  266.050;    0.000
433.534; 3416.500;  217.050;    0.000
433.585; 3358.500;  230.050;    0.000
433.635; 3408.500;  245.050;    0.000
433.685; 3453.500;  250.050;    0.000
433.736; 3483.500;  308.050;    0.000
433.786; 3374.500;  242.050;    0.000
433.836; 3395.500;  256.050;    0.000
433.887; 3332.500;  250.050;    0.000
433.937; 3334.500;  250.050;    0.000
433.987; 3389.500;  219.050;    0.000
434.038; 3355.500;  248.050;    0.000
434.088; 3433.500;  231.050;    0.000
434.138; 3416.500;  266.050;    0.000
434.189; 3365.500;  240.050;    0.000
434.239; 3462.500;  245.050;    0.000
434.289; 3519.500;  285.050;    0.000
434.339; 3482.500;  255.050;    0.000
434.389; 3506.500;  242.050;    0.000
434.440; 3358.500;  273.050;    0.000
434.490; 3433.500;  272.050;    0.000
434.540; 3545.500;  264.050;    0.000
434.590; 3589.500;  233.050;    0.000
434.640; 3571.500;  244.050;    0.000
434.691; 3623.500;  226.050;    0.000
434.741; 3624.500;  253.050;    0.000
434.791; 3526.500;  269.050;    0.000
434.841; 3630.500;  252.050;    0.000
434.891; 3697.500;  281.050;    0.000
434.941; 3601.500;  296.050;    0.000
434.991; 3576.500;  264.050;    0.000
435.042; 3643.500;  262.050;    0.000
435.092; 3601.500;  237.050;    0.000
435.142; 3544.500;  232.050;    0.000
435.192; 3460.500;  251.050;    0.000
435.242; 3626.500;  251.050;    0.000
435.292; 3545.500;  246.050;    0.000
435.342; 3448.500;  236.050;    0.000
435.392; 3284.500;  273.050;    0.000
435.442; 3440.500;  273.050;    0.000
435.492; 3419.500;  273.050;    0.000
435.542; 3454.500;  242.050;    0.000
435.592; 3364.500;  213.050;    0.000
435.642; 3440.500;  248.050;    0.000
435.692; 3416.500;  242.050;    0.000
435.742; 3305.500;  222.050;    0.000
435.792; 3241.500;  260.050;    0.000
435.842; 3262.500;  266.050;    0.000
435.891; 3250.500;  227.050;    0.000
435.941; 3230.500;  228.050;    0.000
435.991; 3266.500;  282.050;    0.000
436.041; 3240.500;  231.050;    0.000
436.091; 3265.500;  250.050;    0.000
436.141; 3337.500;  221.050;    0.000
436.191; 3263.500;  223.050;    0.000
436.241; 3195.500;  250.050;    0.000
436.290; 3272.500;  243.050;    0.000
436.340; 3248.500;  236.050;    0.000
436.390; 3138.500;  260.050;    0.000
436.440; 3207.500;  253.050;    0.000
436.490; 3193.500;  236.050;    0.000
436.539; 3218.500;  249.050;    0.000
436.589; 3112.500;  231.050;    0.000
436.639; 3169.500;  237.050;    0.000
436.689; 3235.500;  222.050;    0.000
436.738; 3168.500;  263.050;    0.000
436.788; 3145.500;  230.050;    0.000
436.838; 3226.500;  281.050;    0.000
436.887; 3158.500;  230.050;    0.000
436.937; 3297.500;  250.050;    0.000
436.987; 3148.500;  251.050;    0.000
437.036; 3204.500;  238.050;    0.000
437.086; 3211.500;  234.050;    0.000
437.136; 3149.500;  250.050;    0.000
437.185; 3104.500;  228.050;    0.000
437.235; 3196.500;  309.050;    0.000
437.285; 3092.500;  246.050;    0.000
437.334; 3061.500;  262.050;    0.000
437.384; 3082.500;  228.050;    0.000
437.433; 3176.500;  241.050;    0.000
437.483; 3170.500;  220.050;    0.000
437.532; 3236.500;  252.050;    0.000
437.582; 3082.500;  270.050;    0.000
437.631; 3011.500;  251.050;    0.000
437.681; 3140.500;  284.050;    0.000
437.730; 3099.500;  239.050;    0.000
437.780; 3042.500;  221.050;    0.000
437.829; 2999.500;  254.050;    0.000
437.879; 2999.500;  221.050;    0.000
437.928; 3018.500;  205.050;    0.000
437.978; 3129.500;  223.050;    0.000
438.027; 3063.500;  262.050;    0.000
438.077; 3101.500;  280.050;    0.000
438.126; 3029.500;  254.050;    0.000
438.176; 3017.500;  230.050;    0.000
438.225; 3010.500;  227.050;    0.000
438.274; 2907.500;  264.050;    0.000
438.324; 3104.500;  233.050;    0.000
438.373; 3114.500;  238.050;    0.000
438.422; 3090.500;  260.050;    0.000
438.472; 3081.500;  223.050;    0.000
438.521; 2963.500;  213.050;    0.000
438.570; 3048.500;  236.050;    0.000
438.620; 2969.500;  282.050;    0.000
438.669; 3025.500;  209.050;    0.000
438.718; 3042.500;  245.050;    0.000
438.768; 3015.500;  238.050;    0.000
438.817; 3042.500;  259.050;    0.000
438.866; 3010.500;  232.050;    0.000
438.915; 3060.500;  288.050;    0.000
438.965; 3023.500;  228.050;    0.000
439.014; 3039.500;  246.050;    0.000
439.063; 3009.500;  287.050;    0.000
439.112; 3079.500;  217.050;    0.000
439.162; 3024.500;  275.050;    0.000
439.211; 2955.500;  287.050;    0.000
439.260; 3017.500;  238.050;    0.000
439.309; 3028.500;  225.050;    0.000
439.358; 3077.500;  248.050;    0.000
439.407; 3090.500;  237.050;    0.000
439.456; 2955.500;  223.050;    0.000
439.506; 2962.500;  266.050;    0.000
439.555; 3050.500;  260.050;    0.000
439.604; 3090.500;  233.050;    0.000
439.653; 3197.500;  242.050;    0.000
439.702; 3043.500;  255.050;    0.000
439.751; 2965.500;  202.050;    0.000
439.800; 3041.500;  247.050;    0.000
439.849; 3105.500;  250.050;    0.000
439.898; 3088.500;  216.050;    0.000
439.947; 3107.500;  231.050;    0.000
439.996; 3016.500;  272.050;    0.000
440.045; 3006.500;  217.050;    0.000
440.094; 3074.500;  220.050;    0.000
440.143; 3154.500;  245.050;    0.000
440.192; 3079.500;  267.050;    0.000
440.241; 3220.500;  263.050;    0.000
440.290; 3109.500;  246.050;    0.000
440.339; 3133.500;  225.050;    0.000
440.388; 2991.500;  256.050;    0.000
440.437; 3085.500;  253.050;    0.000
440.486; 3064.500;  249.050;    0.000
440.535; 3132.500;  232.050;    0.000
440.583; 2972.500;  220.050;    0.000
440.632; 3199.500;  239.050;    0.000
440.681; 2954.500;  236.050;    0.000
440.730; 3176.500;  282.050;    0.000
440.779; 3170.500;  245.050;    0.000
440.828; 3064.500;  213.050;    0.000
440.876; 3063.500;  231.050;    0.000
440.925; 3069.500;  271.050;    0.000
440.974; 3182.500;  240.050;    0.000
441.023; 3157.500;  214.050;    0.000
441.072; 3142.500;  236.050;    0.000
441.120; 3157.500;  271.050;    0.000
441.169; 3234.500;  281.050;    0.000
441.218; 3237.500;  255.050;    0.000
441.267; 3222.500;  272.050;    0.000
441.315; 3269.500;  229.050;    0.000
441.364; 3216.500;  241.050;    0.000
441.413; 3273.500;  224.050;    0.000
441.461; 3376.500;  241.050;    0.000
441.510; 3307.500;  289.050;    0.000
441.559; 3370.500;  222.050;    0.000
441.607; 3316.500;  242.050;    0.000
441.656; 3342.500;  255.050;    0.000
441.705; 3436.500;  260.050;    0.000
441.753; 3329.500;  290.050;    0.000
441.802; 3299.500;  264.050;    0.000
441.850; 3346.500;  224.050;    0.000
441.899; 3357.500;  275.050;    0.000
441.948; 3300.500;  227.050;    0.000
441.996; 3272.500;  216.050;    0.000
442.045; 3341.500;  271.050;    0.000
442.093; 3161.500;  227.050;    0.000
442.142; 3228.500;  273.050;    0.000
442.190; 3108.500;  257.050;    0.000
442.239; 3216.500;  269.050;    0.000
442.287; 3232.500;  257.050;    0.000
442.336; 3336.500;  237.050;    0.000
442.384; 3164.500;  214.050;    0.000
442.433; 3218.500;  272.050;    0.000
442.481; 3240.500;  258.050;    0.000
442.529; 3194.500;  242.050;    0.000
442.578; 3276.500;  278.050;    0.000
442.626; 3292.500;  264.050;    0.000
442.675; 3211.500;  293.050;    0.000
442.723; 3122.500;  244.050;    0.000
442.771; 3201.500;  232.050;    0.000
442.820; 3194.500;  266.050;    0.000
442.868; 3206.500;  253.050;    0.000
442.917; 3225.500;  250.050;    0.000
442.965; 3279.500;  279.050;    0.000
443.013; 3124.500;  253.050;    0.000
443.062; 3229.500;  282.050;    0.000
443.110; 3199.500;  258.050;    0.000
443.158; 3218.500;  246.050;    0.000
443.206; 3263.500;  255.050;    0.000
443.255; 3266.500;  296.050;    0.000
443.303; 3266.500;  272.050;    0.000
443.351; 3167.500;  270.050;    0.000
443.399; 3275.500;  258.050;    0.000
443.448; 3223.500;  265.050;    0.000
443.496; 3313.500;  219.050;    0.000
443.544; 3175.500;  205.050;    0.000
443.592; 3281.500;  266.050;    0.000
443.640; 3309.500;  260.050;    0.000
443.689; 3151.500;  232.050;    0.000
443.737; 3278.500;  281.050;    0.000
443.785; 3285.500;  248.050;    0.000
443.833; 3430.500;  286.050;    0.000
443.881; 3278.500;  225.050;    0.000
443.929; 3355.500;  255.050;    0.000
443.977; 3259.500;  248.050;    0.000
444.025; 3310.500;  255.050;    0.000
444.074; 3325.500;  266.050;    0.000
444.122; 3411.500;  266.050;    0.000
444.170; 3403.500;  207.050;    0.000
444.218; 3509.500;  253.050;    0.000
444.266; 3381.500;  263.050;    0.000
444.314; 3470.500;  272.050;    0.000
444.362; 3515.500;  272.050;    0.000
444.410; 3575.500;  255.050;    0.000
444.458; 3634.500;  288.050;    0.000
444.506; 3514.500;  263.050;    0.000
444.554; 3557.500;  243.050;    0.000
444.602; 3643.500;  285.050;    0.000
444.650; 3625.500;  273.050;    0.000
444.698; 3663.500;  221.050;    0.000
444.746; 3627.500;  243.050;    0.000
444.793; 3632.500;  217.050;    0.000
444.841; 3711.500;  262.050;    0.000
444.889; 3546.500;  264.050;    0.000
444.937; 3483.500;  226.050;    0.000
444.985; 3545.500;  257.050;    0.000
445.033; 3490.500;  264.050;    0.000
445.081; 3647.500;  264.050;    0.000
445.129; 3529.500;  187.050;    0.000
445.176; 3535.500;  212.050;    0.000
445.224; 3554.500;  198.050;    0.000
445.272; 3551.500;  265.050;    0.000
445.320; 3457.500;  239.050;    0.000
445.368; 3470.500;  245.050;    0.000
445.415; 3437.500;  215.050;    0.000
445.463; 3353.500;  202.050;    0.000
445.511; 3531.500;  234.050;    0.000
445.559; 3450.500;  269.050;    0.000
445.606; 3357.500;  214.050;    0.000
445.654; 3398.500;  227.050;    0.000
445.702; 3364.500;  276.050;    0.000
445.749; 3401.500;  256.050;    0.000
445.797; 3299.500;  236.050;    0.000
445.845; 3394.500;  230.050;    0.000
445.892; 3287.500;  233.050;    0.000
445.940; 3302.500;  257.050;    0.000
445.988; 3328.500;  253.050;    0.000
446.035; 3345.500;  265.050;    0.000
446.083; 3439.500;  254.050;    0.000
446.130; 3247.500;  228.050;    0.000
446.178; 3359.500;  256.050;    0.000
446.226; 3510.500;  238.050;    0.000
446.273; 3394.500;  228.050;    0.000
446.321; 3381.500;  220.050;    0.000
446.368; 3357.500;  249.050;    0.000
446.416; 3299.500;  221.050;    0.000
446.463; 3385.500;  232.050;    0.000
446.511; 3371.500;  243.050;    0.000
446.558; 3282.500;  217.050;    0.000
446.606; 3508.500;  256.050;    0.000
446.653; 3455.500;  238.050;    0.000
446.701; 3498.500;  259.050;    0.000
446.748; 3585.500;  227.050;    0.000
446.796; 3503.500;  236.050;    0.000
446.843; 3522.500;  241.050;    0.000
446.891; 3549.500;  292.050;    0.000
446.938; 3481.500;  219.050;    0.000
446.985; 3542.500;  255.050;    0.000
447.033; 3629.500;  237.050;    0.000
447.080; 3625.500;  278.050;    0.000
447.128; 3510.500;  237.050;    0.000
447.175; 3648.500;  247.050;    0.000
447.222; 3701.500;  235.050;    0.000
447.270; 3642.500;  274.050;    0.000
447.317; 3586.500;  222.050;    0.000
447.364; 3705.500;  230.050;    0.000
447.411; 3888.500;  297.050;    0.000
447.459; 3794.500;  243.050;    0.000
447.506; 3779.500;  202.050;    0.000
447.553; 3957.500;  232.050;    0.000
447.601; 4022.500;  262.050;    0.000
447.648; 4090.500;  254.050;    0.000
447.695; 4055.500;  287.050;    0.000
447.742; 4023.500;  232.050;    0.000
447.789; 4170.500;  257.050;    0.000
447.837; 4275.500;  260.050;    0.000
447.884; 4295.500;  272.050;    0.000
447.931; 4439.500;  241.050;    0.000
447.978; 4397.500;  241.050;    0.000
448.025; 4535.500;  264.050;    0.000
448.072; 4611.500;  279.050;    0.000
448.120; 4695.500;  263.050;    0.000
448.167; 4683.500;  284.050;    0.000
448.214; 4542.500;  252.050;    0.000
448.261; 4307.500;  247.050;    0.000
448.308; 4283.500;  249.050;    0.000
448.355; 4185.500;  263.050;    0.000
448.402; 4063.500;  251.050;    0.000
448.449; 4041.500;  257.050;    0.000
448.496; 4015.500;  243.050;    0.000
448.543; 3897.500;  274.050;    0.000
448.590; 3906.500;  299.050;    0.000
448.637; 3819.500;  259.050;    0.000
448.684; 3658.500;  266.050;    0.000
448.731; 3701.500;  261.050;    0.000
448.778; 3718.500;  292.050;    0.000
448.825; 3695.500;  253.050;    0.000
448.872; 3459.500;  253.050;    0.000
448.919; 3479.500;  218.050;    0.000
448.966; 3514.500;  254.050;    0.000
449.013; 3461.500;  263.050;    0.000
449.060; 3515.500;  282.050;    0.000
449.107; 3419.500;  244.050;    0.000
449.154; 3401.500;  236.050;    0.000
449.200; 3291.500;  226.050;    0.000
449.247; 3378.500;  273.050;    0.000
449.294; 3255.500;  270.050;    0.000
449.341; 3319.500;  283.050;    0.000
449.388; 3308.500;  261.050;    0.000
449.435; 3299.500;  254.050;    0.000
449.481; 3333.500;  318.050;    0.000
449.528; 3221.500;  274.050;    0.000
449.575; 3197.500;  251.050;    0.000
449.622; 3212.500;  276.050;    0.000
449.668; 3191.500;  242.050;    0.000
449.715; 3196.500;  286.050;    0.000
449.762; 3096.500;  268.050;    0.000
449.809; 3234.500;  285.050;    0.000
449.855; 3094.500;  277.050;    0.000
449.902; 3177.500;  246.050;    0.000
449.949; 3074.500;  268.050;    0.000
449.995; 3146.500;  289.050;    0.000
450.042; 3097.500;  256.050;    0.000
450.089; 3119.500;  290.050;    0.000
450.135; 3110.500;  300.050;    0.000
450.182; 3095.500;  317.050;    0.000
450.229; 3131.500;  282.050;    0.000
450.275; 3102.500;  307.050;    0.000
450.322; 3073.500;  260.050;    0.000
450.368; 3051.500;  315.050;    0.000
450.415; 3101.500;  306.050;    0.000
450.462; 3051.500;  314.050;    0.000
450.508; 3021.500;  303.050;    0.000
450.555; 3070.500;  281.050;    0.000
450.601; 3049.500;  291.050;    0.000
450.648; 3110.500;  288.050;    0.000
450.694; 3005.500;  290.050;    0.000
450.741; 3074.500;  303.050;    0.000
450.787; 3031.500;  298.050;    0.000
450.834; 2898.500;  265.050;    0.000
450.880; 2993.500;  273.050;    0.000
450.927; 3086.500;  312.050;    0.000
450.973; 2999.500;  303.050;    0.000
451.019; 2991.500;  222.050;    0.000
451.066; 2983.500;  284.050;    0.000
451.112; 3022.500;  296.050;    0.000
451.159; 2947.500;  299.050;    0.000
451.205; 2977.500;  311.050;    0.000
451.251; 3027.500;  306.050;    0.000
451.298; 3127.500;  281.050;    0.000
451.344; 2937.500;  311.050;    0.000
451.390; 2959.500;  331.050;    0.000
451.437; 2888.500;  303.050;    0.000
451.483; 2949.500;  284.050;    0.000
451.529; 2897.500;  310.050;    0.000
451.576; 2980.500;  301.050;    0.000
451.622; 2945.500;  275.050;    0.000
451.668; 2844.500;  269.050;    0.000
451.714; 2912.500;  277.050;    0.000
451.761; 2900.500;  298.050;    0.000
451.807; 2910.500;  316.050;    0.000
451.853; 2924.500;  301.050;    0.000
451.899; 2880.500;  292.050;    0.000
451.945; 2970.500;  324.050;    0.000
451.992; 2918.500;  292.050;    0.000
452.038; 2849.500;  261.050;    0.000
452.084; 2866.500;  286.050;    0.000
452.130; 2858.500;  301.050;    0.000
452.176; 2899.500;  287.050;    0.000
452.222; 2805.500;  265.050;    0.000
452.268; 2938.500;  268.050;    0.000
452.315; 2827.500;  272.050;    0.000
452.361; 2959.500;  258.050;    0.000
452.407; 2871.500;  279.050;    0.000
452.453; 2748.500;  252.050;    0.000
452.499; 2895.500;  305.050;    0.000
452.545; 2925.500;  263.050;    0.000
452.591; 2875.500;  284.050;    0.000
452.637; 2831.500;  289.050;    0.000
452.683; 2810.500;  249.050;    0.000
452.729; 2863.500;  290.050;    0.000
452.775; 2862.500;  315.050;    0.000
452.821; 2817.500;  271.050;    0.000
452.867; 2779.500;  258.050;    0.000
452.913; 2891.500;  256.050;    0.000
452.959; 2843.500;  266.050;    0.000
453.005; 2689.500;  299.050;    0.000
453.051; 2822.500;  299.050;    0.000
453.097; 2779.500;  268.050;    0.000
453.142; 2787.500;  251.050;    0.000
453.188; 2781.500;  284.050;    0.000
453.234; 2864.500;  285.050;    0.000
453.280; 2747.500;  263.050;    0.000
453.326; 2735.500;  273.050;    0.000
453.372; 2769.500;  253.050;    0.000
453.418; 2754.500;  269.050;    0.000
453.463; 2796.500;  250.050;    0.000
453.509; 2755.500;  289.050;    0.000
453.555; 2773.500;  262.050;    0.000
453.601; 2752.500;  274.050;    0.000
453.647; 2819.500;  306.050;    0.000
453.692; 2800.500;  264.050;    0.000
453.738; 2751.500;  312.050;    0.000
453.784; 2658.500;  300.050;    0.000
453.829; 2724.500;  284.050;    0.000
453.875; 2811.500;  270.050;    0.000
453.921; 2718.500;  237.050;    0.000
453.967; 2733.500;  263.050;    0.000
454.012; 2865.500;  295.050;    0.000
454.058; 2686.500;  293.050;    0.000
454.104; 2735.500;  264.050;    0.000
454.149; 2689.500;  282.050;    0.000
454.195; 2700.500;  277.050;    0.000
454.240; 2780.500;  307.050;    0.000
454.286; 2695.500;  282.050;    0.000
454.332; 2765.500;  291.050;    0.000
454.377; 2766.500;  302.050;    0.000
454.423; 2690.500;  276.050;    0.000
454.468; 2720.500;  281.050;    0.000
454.514; 2697.500;  290.050;    0.000
454.559; 2704.500;  289.050;    0.000
454.605; 2623.500;  258.050;    0.000
454.650; 2699.500;  281.050;    0.000
454.696; 2726.500;  308.050;    0.000
454.741; 2744.500;  288.050;    0.000
454.787; 2778.500;  284.050;    0.000
454.832; 2779.500;  306.050;    0.000
454.878; 2771.500;  288.050;    0.000
454.923; 2787.500;  287.050;    0.000
454.969; 2794.500;  325.050;    0.000
455.014; 2689.500;  323.050;    0.000
455.060; 2831.500;  290.050;    0.000
455.105; 2705.500;  285.050;    0.000
455.150; 2823.500;  303.050;    0.000
455.196; 2693.500;  282.050;    0.000
455.241; 2716.500;  281.050;    0.000
455.286; 2749.500;  290.050;    0.000
455.332; 2834.500;  280.050;    0.000
455.377; 2745.500;  243.050;    0.000
455.422; 2782.500;  308.050;    0.000
455.468; 2802.500;  308.050;    0.000
455.513; 2740.500;  290.050;    0.000
455.558; 2657.500;  211.050;    0.000
455.604; 2752.500;  289.050;    0.000
455.649; 2809.500;  297.050;    0.000
455.694; 2669.500;  287.050;    0.000
455.739; 2672.500;  296.050;    0.000
455.785; 2806.500;  315.050;    0.000
455.830; 2670.500;  328.050;    0.000
455.875; 2736.500;  310.050;    0.000
455.920; 2746.500;  261.050;    0.000
455.965; 2658.500;  277.050;    0.000
456.010; 2785.500;  317.050;    0.000
456.056; 2715.500;  299.050;    0.000
456.101; 2676.500;  262.050;    0.000
456.146; 2725.500;  318.050;    0.000
456.191; 2717.500;  274.050;    0.000
456.236; 2670.500;  274.050;    0.000
456.281; 2717.500;  275.050;    0.000
456.326; 2728.500;  256.050;    0.000
456.371; 2682.500;  260.050;    0.000
456.416; 2676.500;  304.050;    0.000
456.461; 2695.500;  278.050;    0.000
456.507; 2670.500;  299.050;    0.000
456.552; 2824.500;  305.050;    0.000
456.597; 2661.500;  271.050;    0.000
456.642; 2698.500;  273.050;    0.000
456.687; 2715.500;  290.050;    0.000
456.732; 2723.500;  327.050;    0.000
456.776; 2772.500;  284.050;    0.000
456.821; 2788.500;  321.050;    0.000
456.866; 2739.500;  272.050;    0.000
456.911; 2727.500;  232.050;    0.000
456.956; 2667.500;  263.050;    0.000
457.001; 2754.500;  277.050;    0.000
457.046; 2702.500;  284.050;    0.000
457.091; 2721.500;  269.050;    0.000
457.136; 2647.500;  269.050;    0.000
457.181; 2737.500;  275.050;    0.000
457.225; 2777.500;  310.050;    0.000
457.270; 2747.500;  295.050;    0.000
457.315; 2830.500;  284.050;    0.000
457.360; 2747.500;  264.050;    0.000
457.405; 2762.500;  273.050;    0.000
457.450; 2748.500;  284.050;    0.000
457.494; 2803.500;  273.050;    0.000
457.539; 2743.500;  287.050;    0.000
457.584; 2805.500;  279.050;    0.000
457.629; 2619.500;  288.050;    0.000
457.673; 2776.500;  297.050;    0.000
457.718; 2789.500;  270.050;    0.000
457.763; 2809.500;  295.050;    0.000
457.807; 2744.500;  321.050;    0.000
457.852; 2739.500;  293.050;    0.000
457.897; 2816.500;  282.050;    0.000
457.941; 2728.500;  320.050;    0.000
457.986; 2750.500;  295.050;    0.000
458.031; 2786.500;  314.050;    0.000
458.075; 2757.500;  280.050;    0.000
458.120; 2750.500;  314.050;    0.000
458.165; 2744.500;  289.050;    0.000
458.209; 2727.500;  289.050;    0.000
458.254; 2819.500;  272.050;    0.000
458.298; 2756.500;  305.050;    0.000
458.343; 2821.500;  284.050;    0.000
458.387; 2854.500;  340.050;    0.000
458.432; 2757.500;  306.050;    0.000
458.476; 2875.500;  311.050;    0.000
458.521; 2818.500;  304.050;    0.000
458.565; 2962.500;  329.050;    0.000
458.610; 2935.500;  287.050;    0.000
458.654; 2880.500;  300.050;    0.000
458.699; 2927.500;  295.050;    0.000
458.743; 2837.500;  269.050;    0.000
458.788; 2979.500;  294.050;    0.000
458.832; 2993.500;  301.050;    0.000
458.877; 3058.500;  303.050;    0.000
458.921; 2899.500;  259.050;    0.000
458.965; 3058.500;  308.050;    0.000
459.010; 2881.500;  330.050;    0.000
459.054; 2950.500;  298.050;    0.000
459.099; 2923.500;  303.050;    0.000
459.143; 2945.500;  333.050;    0.000
459.187; 3073.500;  291.050;    0.000
459.231; 3026.500;  316.050;    0.000
459.276; 3119.500;  294.050;    0.000
459.320; 3077.500;  291.050;    0.000
459.364; 3114.500;  318.050;    0.000
459.409; 3014.500;  325.050;    0.000
459.453; 3037.500;  293.050;    0.000
459.497; 3151.500;  354.050;    0.000
459.541; 3128.500;  313.050;    0.000
459.586; 3095.500;  282.050;    0.000
459.630; 3101.500;  286.050;    0.000
459.674; 3114.500;  292.050;    0.000
459.718; 3141.500;  280.050;    0.000
459.762; 3156.500;  304.050;    0.000
459.807; 3105.500;  352.050;    0.000
459.851; 3264.500;  300.050;    0.000
459.895; 3243.500;  311.050;    0.000
459.939; 3156.500;  303.050;    0.000
459.983; 3152.500;  299.050;    0.000
460.027; 3158.500;  307.050;    0.000
460.071; 3310.500;  313.050;    0.000
460.115; 3351.500;  325.050;    0.000
460.159; 3352.500;  331.050;    0.000
460.204; 3242.500;  301.050;    0.000
460.248; 3357.500;  329.050;    0.000
460.292; 3375.500;  310.050;    0.000
460.336; 3311.500;  304.050;    0.000
460.380; 3342.500;  313.050;    0.000
460.424; 3327.500;  300.050;    0.000
460.468; 3406.500;  338.050;    0.000
460.512; 3333.500;  310.050;    0.000
460.556; 3389.500;  337.050;    0.000
460.599; 3337.500;  310.050;    0.000
460.643; 3269.500;  303.050;    0.000
460.687; 3389.500;  316.050;    0.000
460.731; 3354.500;  292.050;    0.000
460.775; 3296.500;  294.050;    0.000
460.819; 3334.500;  310.050;    0.000
460.863; 3364.500;  349.050;    0.000
460.907; 3246.500;  265.050;    0.000
460.951; 3267.500;  325.050;    0.000
460.995; 3502.500;  338.050;    0.000
461.038; 3381.500;  304.050;    0.000
461.082; 3284.500;  312.050;    0.000
461.126; 3369.500;  358.050;    0.000
461.170; 3323.500;  306.050;    0.000
461.214; 3273.500;  330.050;    0.000
461.257; 3428.500;  311.050;    0.000
461.301; 3290.500;  303.050;    0.000
461.345; 3332.500;  310.050;    0.000
461.389; 3351.500;  296.050;    0.000
461.432; 3322.500;  304.050;    0.000
461.476; 3372.500;  305.050;    0.000
461.520; 3285.500;  319.050;    0.000
461.563; 3344.500;  294.050;    0.000
461.607; 3323.500;  295.050;    0.000
461.651; 3343.500;  335.050;    0.000
461.694; 3260.500;  276.050;    0.000
461.738; 3286.500;  327.050;    0.000
461.782; 3316.500;  288.050;    0.000
461.825; 3325.500;  319.050;    0.000
461.869; 3377.500;  305.050;    0.000
461.913; 3354.500;  281.050;    0.000
461.956; 3413.500;  281.050;    0.000
462.000; 3432.500;  339.050;    0.000
462.043; 3484.500;  347.050;    0.000
462.087; 3412.500;  314.050;    0.000
462.130; 3473.500;  332.050;    0.000
462.174; 3562.500;  332.050;    0.000
462.217; 3494.500;  299.050;    0.000
462.261; 3570.500;  323.050;    0.000
462.304; 3498.500;  286.050;    0.000
462.348; 3512.500;  305.050;    0.000
462.391; 3579.500;  293.050;    0.000
462.435; 3511.500;  365.050;    0.000
462.478; 3557.500;  329.050;    0.000
462.522; 3561.500;  316.050;    0.000
462.565; 3652.500;  328.050;    0.000
462.608; 3685.500;  350.050;    0.000
462.652; 3595.500;  328.050;    0.000
462.695; 3690.500;  358.050;    0.000
462.739; 3764.500;  317.050;    0.000
462.782; 3826.500;  329.050;    0.000
462.825; 3816.500;  368.050;    0.000
462.869; 3957.500;  343.050;    0.000
462.912; 3907.500;  404.050;    0.000
462.955; 3950.500;  328.050;    0.000
462.998; 3997.500;  340.050;    0.000
463.042; 4050.500;  361.050;    0.000
463.085; 4070.500;  337.050;    0.000
463.128; 4077.500;  373.050;    0.000
463.172; 3953.500;  347.050;    0.000
463.215;  400.500;  305.050;    0.000
463.258;  319.500;  324.050;    0.000
463.301;  273.500;  296.050;    0.000
463.344;  330.500;  332.050;    0.000
463.388;  326.500;  309.050;    0.000
463.431;  306.500;  298.050;    0.000
463.474;  309.500;  351.050;    0.000
463.517;  300.500;  319.050;    0.000
463.560;  319.500;  325.050;    0.000
463.603;  345.500;  330.050;    0.000
463.646;  353.500;  332.050;    0.000
463.690;  330.500;  325.050;    0.000
463.733;  342.500;  323.050;    0.000
463.776;  289.500;  276.050;    0.000
463.819;  330.500;  320.050;    0.000
463.862;  274.500;  275.050;    0.000

