
Integration time [ms]:   0.300
Averaging Nr. [scans]: 1
Smoothing Nr. [pixels]: 0
Data measured with spectrometer [name]: NIR
Wave   ;Sample   ;Dark     ;Reference
[nm]   ;[counts] ;[counts] ;[counts] 

691.496;   18.525;  155.525;    0.000
691.696;   66.525;  186.525;    0.000
691.896;   56.525;  113.525;    0.000
692.096;   77.525;  169.525;    0.000
692.296;   -6.475;  119.525;    0.000
692.496;  123.525;  182.525;    0.000
692.695;   35.525;  119.525;    0.000
692.895;   66.525;  183.525;    0.000
693.095;   18.525;  119.525;    0.000
693.295;   94.525;  156.525;    0.000
693.495;   69.525;  145.525;    0.000
693.695;   75.525;  144.525;    0.000
693.894;   45.525;  174.525;    0.000
694.094;   93.525;  148.525;    0.000
694.294;   31.525;  114.525;    0.000
694.494;  508.525;  137.525;    0.000
694.693; 4793.525;  112.525;    0.000
694.893; 5234.525;   85.525;    0.000
695.093; 5280.525;  152.525;    0.000
695.293; 5373.525;  159.525;    0.000
695.492; 5388.525;  131.525;    0.000
695.692; 5352.525;  134.525;    0.000
695.891; 5385.525;  161.525;    0.000
696.091; 5386.525;  180.525;    0.000
696.291; 5504.525;  120.525;    0.000
696.490; 5512.525;  146.525;    0.000
696.690; 5464.525;  145.525;    0.000
696.889; 5544.525;  171.525;    0.000
697.089; 5489.525;   98.525;    0.000
697.288; 5556.525;  172.525;    0.000
697.488; 5482.525;  137.525;    0.000
697.687; 5462.525;  171.525;    0.000
697.887; 5592.525;  142.525;    0.000
698.086; 5530.525;  159.525;    0.000
698.286; 5560.525;  122.525;    0.000
698.485; 5499.525;  121.525;    0.000
698.684; 5595.525;   94.525;    0.000
698.884; 5634.525;  131.525;    0.000
699.083; 5531.525;  112.525;    0.000
699.282; 5590.525;  119.525;    0.000
699.482; 5579.525;  117.525;    0.000
699.681; 5703.525;  115.525;    0.000
699.880; 5769.525;  166.525;    0.000
700.080; 5711.525;  194.525;    0.000
700.279; 5639.525;   98.525;    0.000
700.478; 5717.525;  159.525;    0.000
700.677; 5631.525;  134.525;    0.000
700.877; 5694.525;  171.525;    0.000
701.076; 5737.525;  141.525;    0.000
701.275; 5687.525;  119.525;    0.000
701.474; 5682.525;  132.525;    0.000
701.673; 5727.525;  141.525;    0.000
701.872; 5905.525;  158.525;    0.000
702.071; 5672.525;  129.525;    0.000
702.271; 5647.525;  122.525;    0.000
702.470; 5659.525;  158.525;    0.000
702.669; 5773.525;  145.525;    0.000
702.868; 5784.525;  135.525;    0.000
703.067; 5686.525;  169.525;    0.000
703.266; 5869.525;  125.525;    0.000
703.465; 5811.525;  153.525;    0.000
703.664; 5794.525;  113.525;    0.000
703.863; 5742.525;  170.525;    0.000
704.062; 5859.525;  115.525;    0.000
704.260; 5832.525;  133.525;    0.000
704.459; 5955.525;  123.525;    0.000
704.658; 5859.525;  105.525;    0.000
704.857; 5835.525;  125.525;    0.000
705.056; 5699.525;  108.525;    0.000
705.255; 5950.525;  117.525;    0.000
705.454; 5767.525;  126.525;    0.000
705.652; 5803.525;  137.525;    0.000
705.851; 5779.525;   95.525;    0.000
706.050; 5897.525;  120.525;    0.000
706.249; 5997.525;   81.525;    0.000
706.447; 5893.525;  105.525;    0.000
706.646; 5791.525;  107.525;    0.000
706.845; 5985.525;  104.525;    0.000
707.043; 6002.525;  136.525;    0.000
707.242; 5840.525;   89.525;    0.000
707.441; 5882.525;  147.525;    0.000
707.639; 5843.525;  156.525;    0.000
707.838; 5820.525;  114.525;    0.000
708.037; 5791.525;  100.525;    0.000
708.235; 5992.525;  103.525;    0.000
708.434; 5971.525;  102.525;    0.000
708.632; 5885.525;  100.525;    0.000
708.831; 6074.525;  121.525;    0.000
709.029; 6099.525;  102.525;    0.000
709.228; 6020.525;   88.525;    0.000
709.426; 6075.525;  135.525;    0.000
709.625; 5994.525;  128.525;    0.000
709.823; 6131.525;  123.525;    0.000
710.022; 6035.525;  137.525;    0.000
710.220; 6090.525;  134.525;    0.000
710.418; 6181.525;  122.525;    0.000
710.617; 6301.525;   64.525;    0.000
710.815; 6273.525;   94.525;    0.000
711.013; 6157.525;  127.525;    0.000
711.212; 6199.525;  105.525;    0.000
711.410; 6248.525;  117.525;    0.000
711.608; 6268.525;  114.525;    0.000
711.807; 6224.525;  119.525;    0.000
712.005; 6262.525;   92.525;    0.000
712.203; 6287.525;   95.525;    0.000
712.401; 6162.525;  107.525;    0.000
712.599; 6216.525;  127.525;    0.000
712.798; 6244.525;  120.525;    0.000
712.996; 6309.525;   76.525;    0.000
713.194; 6369.525;  118.525;    0.000
713.392; 6463.525;   60.525;    0.000
713.590; 6554.525;   92.525;    0.000
713.788; 6430.525;  110.525;    0.000
713.986; 6574.525;  130.525;    0.000
714.184; 6564.525;   71.525;    0.000
714.382; 6535.525;   86.525;    0.000
714.580; 6627.525;   74.525;    0.000
714.778; 6765.525;  133.525;    0.000
714.976; 6745.525;   81.525;    0.000
715.174; 6896.525;  100.525;    0.000
715.372; 7167.525;  141.525;    0.000
715.570; 7845.525;   73.525;    0.000
715.768; 8254.525;  119.525;    0.000
715.966; 8458.525;   81.525;    0.000
716.164; 8116.525;  130.525;    0.000
716.362; 7797.525;  125.525;    0.000
716.560; 7528.525;  109.525;    0.000
716.758; 7461.525;   96.525;    0.000
716.955; 7293.525;   83.525;    0.000
717.153; 7128.525;   87.525;    0.000
717.351; 7184.525;  123.525;    0.000
717.549; 7010.525;  121.525;    0.000
717.746; 7132.525;  128.525;    0.000
717.944; 7172.525;  132.525;    0.000
718.142; 6988.525;  120.525;    0.000
718.340; 7090.525;   94.525;    0.000
718.537; 6897.525;   95.525;    0.000
718.735; 7038.525;  152.525;    0.000
718.933; 6982.525;  124.525;    0.000
719.130; 7030.525;  114.525;    0.000
719.328; 6925.525;   63.525;    0.000
719.525; 6996.525;  146.525;    0.000
719.723; 6893.525;   96.525;    0.000
719.920; 6911.525;  120.525;    0.000
720.118; 7041.525;   59.525;    0.000
720.316; 6962.525;  116.525;    0.000
720.513; 6930.525;  127.525;    0.000
720.711; 6884.525;  110.525;    0.000
720.908; 6897.525;   92.525;    0.000
721.105; 6958.525;  138.525;    0.000
721.303; 6843.525;   90.525;    0.000
721.500; 7059.525;  126.525;    0.000
721.698; 6970.525;  103.525;    0.000
721.895; 7092.525;  206.525;    0.000
722.092; 6907.525;   63.525;    0.000
722.290; 7075.525;  123.525;    0.000
722.487; 7005.525;  137.525;    0.000
722.684; 6889.525;  126.525;    0.000
722.882; 6998.525;  119.525;    0.000
723.079; 6937.525;  132.525;    0.000
723.276; 7091.525;   98.525;    0.000
723.473; 7084.525;   97.525;    0.000
723.671; 7040.525;   43.525;    0.000
723.868; 7089.525;  142.525;    0.000
724.065; 7192.525;  102.525;    0.000
724.262; 7153.525;  119.525;    0.000
724.459; 7126.525;   73.525;    0.000
724.656; 7068.525;  128.525;    0.000
724.854; 7166.525;  135.525;    0.000
725.051; 7170.525;   81.525;    0.000
725.248; 7108.525;   88.525;    0.000
725.445; 7287.525;  129.525;    0.000
725.642; 7184.525;   76.525;    0.000
725.839; 7229.525;  134.525;    0.000
726.036; 7143.525;  101.525;    0.000
726.233; 7120.525;   68.525;    0.000
726.430; 7223.525;  121.525;    0.000
726.627; 7150.525;  136.525;    0.000
726.824; 7118.525;   87.525;    0.000
727.021; 7157.525;  141.525;    0.000
727.218; 7202.525;   92.525;    0.000
727.414; 7047.525;  121.525;    0.000
727.611; 7149.525;  100.525;    0.000
727.808; 7325.525;  130.525;    0.000
728.005; 7202.525;   83.525;    0.000
728.202; 7289.525;  120.525;    0.000
728.399; 7207.525;   75.525;    0.000
728.595; 7198.525;  148.525;    0.000
728.792; 7220.525;   79.525;    0.000
728.989; 7311.525;   86.525;    0.000
729.186; 7200.525;   80.525;    0.000
729.382; 7247.525;   72.525;    0.000
729.579; 7259.525;  112.525;    0.000
729.776; 7226.525;  106.525;    0.000
729.972; 7209.525;   77.525;    0.000
730.169; 7290.525;  118.525;    0.000
730.366; 7211.525;   92.525;    0.000
730.562; 7247.525;  104.525;    0.000
730.759; 7253.525;   95.525;    0.000
730.955; 7322.525;   85.525;    0.000
731.152; 7285.525;   79.525;    0.000
731.348; 7393.525;   72.525;    0.000
731.545; 7319.525;   56.525;    0.000
731.741; 7402.525;  106.525;    0.000
731.938; 7407.525;  113.525;    0.000
732.134; 7376.525;  106.525;    0.000
732.331; 7306.525;   82.525;    0.000
732.527; 7563.525;   80.525;    0.000
732.724; 7377.525;   97.525;    0.000
732.920; 7371.525;  127.525;    0.000
733.116; 7354.525;  115.525;    0.000
733.313; 7383.525;  153.525;    0.000
733.509; 7353.525;   76.525;    0.000
733.705; 7312.525;  159.525;    0.000
733.902; 7335.525;   82.525;    0.000
734.098; 7505.525;   70.525;    0.000
734.294; 7377.525;  105.525;    0.000
734.490; 7570.525;  110.525;    0.000
734.687; 7558.525;  102.525;    0.000
734.883; 7421.525;   77.525;    0.000
735.079; 7432.525;   93.525;    0.000
735.275; 7566.525;  109.525;    0.000
735.471; 7605.525;   99.525;    0.000
735.667; 7451.525;  107.525;    0.000
735.863; 7506.525;   89.525;    0.000
736.060; 7620.525;  105.525;    0.000
736.256; 7501.525;  113.525;    0.000
736.452; 7548.525;   90.525;    0.000
736.648; 7463.525;   88.525;    0.000
736.844; 7659.525;  129.525;    0.000
737.040; 7702.525;  139.525;    0.000
737.236; 7650.525;  129.525;    0.000
737.432; 7606.525;   67.525;    0.000
737.628; 7745.525;  104.525;    0.000
737.824; 7629.525;  111.525;    0.000
738.019; 7817.525;  116.525;    0.000
738.215; 7899.525;  135.525;    0.000
738.411; 7775.525;  118.525;    0.000
738.607; 7838.525;   58.525;    0.000
738.803; 7826.525;   32.525;    0.000
738.999; 7848.525;  120.525;    0.000
739.195; 7859.525;   76.525;    0.000
739.390; 8037.525;  119.525;    0.000
739.586; 8055.525;   83.525;    0.000
739.782; 8083.525;  134.525;    0.000
739.978; 8108.525;  122.525;    0.000
740.173; 7979.525;   96.525;    0.000
740.369; 8058.525;   86.525;    0.000
740.565; 8217.525;  122.525;    0.000
740.760; 8317.525;   99.525;    0.000
740.956; 8196.525;  137.525;    0.000
741.152; 8173.525;  108.525;    0.000
741.347; 8337.525;   65.525;    0.000
741.543; 8550.525;   73.525;    0.000
741.738; 8646.525;  142.525;    0.000
741.934; 8964.525;  131.525;    0.000
742.129; 9844.525;   66.525;    0.000
742.325;11848.525;  143.525;    0.000
742.520;13321.525;  119.525;    0.000
742.716;12141.525;  109.525;    0.000
742.911;10912.525;   62.525;    0.000
743.107;10506.525;  119.525;    0.000
743.302;10516.525;   78.525;    0.000
743.498;10382.525;  130.525;    0.000
743.693;10584.525;   75.525;    0.000
743.888;11308.525;  135.525;    0.000
744.084;13779.525;  106.525;    0.000
744.279;18482.525;  101.525;    0.000
744.474;17835.525;   91.525;    0.000
744.670;15466.525;  144.525;    0.000
744.865;13794.525;  128.525;    0.000
745.060;12361.525;   63.525;    0.000
745.255;11837.525;  155.525;    0.000
745.451;11419.525;  110.525;    0.000
745.646;11183.525;  150.525;    0.000
745.841;11185.525;  128.525;    0.000
746.036;11192.525;  110.525;    0.000
746.231;11750.525;  126.525;    0.000
746.426;12549.525;   83.525;    0.000
746.622;15309.525;  157.525;    0.000
746.817;22346.525;  112.525;    0.000
747.012;25394.525;  115.525;    0.000
747.207;20907.525;  161.525;    0.000
747.402;17988.525;   88.525;    0.000
747.597;15778.525;  103.525;    0.000
747.792;14909.525;  152.525;    0.000
747.987;14001.525;   80.525;    0.000
748.182;13219.525;   89.525;    0.000
748.377;12562.525;  104.525;    0.000
748.572;12013.525;  138.525;    0.000
748.767;11420.525;  100.525;    0.000
748.961;11030.525;  106.525;    0.000
749.156;10659.525;  113.525;    0.000
749.351;10445.525;  116.525;    0.000
749.546;10316.525;  107.525;    0.000
749.741;10002.525;  102.525;    0.000
749.936; 9881.525;  105.525;    0.000
750.130; 9615.525;  111.525;    0.000
750.325; 9632.525;   72.525;    0.000
750.520; 9494.525;   96.525;    0.000
750.715; 9379.525;  135.525;    0.000
750.909; 9294.525;  107.525;    0.000
751.104; 9275.525;  106.525;    0.000
751.299; 9176.525;  144.525;    0.000
751.493; 9157.525;  116.525;    0.000
751.688; 9165.525;   96.525;    0.000
751.882; 9023.525;   92.525;    0.000
752.077; 8837.525;  109.525;    0.000
752.272; 8750.525;   96.525;    0.000
752.466; 8690.525;  110.525;    0.000
752.661; 8700.525;  120.525;    0.000
752.855; 8607.525;   70.525;    0.000
753.050; 8744.525;  129.525;    0.000
753.244; 8727.525;  126.525;    0.000
753.439; 8481.525;  115.525;    0.000
753.633; 8518.525;  120.525;    0.000
753.828; 8477.525;  129.525;    0.000
754.022; 8322.525;  139.525;    0.000
754.216; 8607.525;  121.525;    0.000
754.411; 8416.525;  108.525;    0.000
754.605; 8397.525;   94.525;    0.000
754.799; 8476.525;  125.525;    0.000
754.994; 8419.525;  160.525;    0.000
755.188; 8393.525;  151.525;    0.000
755.382; 8222.525;  102.525;    0.000
755.576; 8324.525;  103.525;    0.000
755.771; 8116.525;   99.525;    0.000
755.965; 8465.525;  158.525;    0.000
756.159; 8284.525;   96.525;    0.000
756.353; 8467.525;  157.525;    0.000
756.547; 8316.525;  132.525;    0.000
756.742; 8190.525;  106.525;    0.000
756.936; 8378.525;  113.525;    0.000
757.130; 8134.525;  114.525;    0.000
757.324; 8241.525;  111.525;    0.000
757.518; 8352.525;  142.525;    0.000
757.712; 8333.525;  137.525;    0.000
757.906; 8249.525;   93.525;    0.000
758.100; 8309.525;  119.525;    0.000
758.294; 8332.525;  132.525;    0.000
758.488; 8330.525;  153.525;    0.000
758.682; 8330.525;  101.525;    0.000
758.876; 8276.525;  129.525;    0.000
759.070; 8136.525;  168.525;    0.000
759.264; 8144.525;   96.525;    0.000
759.458; 8231.525;  117.525;    0.000
759.651; 8225.525;  135.525;    0.000
759.845; 8160.525;  127.525;    0.000
760.039; 8118.525;  120.525;    0.000
760.233; 8188.525;  124.525;    0.000
760.427; 8263.525;  115.525;    0.000
760.620; 8248.525;  130.525;    0.000
760.814; 8022.525;  102.525;    0.000
761.008; 8069.525;  174.525;    0.000
761.202; 8194.525;  132.525;    0.000
761.395; 8137.525;  126.525;    0.000
761.589; 8220.525;  133.525;    0.000
761.783; 8149.525;  147.525;    0.000
761.976; 8184.525;  147.525;    0.000
762.170; 8279.525;  174.525;    0.000
762.363; 8322.525;   97.525;    0.000
762.557; 8182.525;  141.525;    0.000
762.750; 8356.525;  112.525;    0.000
762.944; 8408.525;  110.525;    0.000
763.138; 8387.525;  125.525;    0.000
763.331; 8349.525;  101.525;    0.000
763.524; 8473.525;  101.525;    0.000
763.718; 8624.525;  156.525;    0.000
763.911; 8398.525;  143.525;    0.000
764.105; 8423.525;  139.525;    0.000
764.298; 8510.525;   89.525;    0.000
764.492; 8294.525;  111.525;    0.000
764.685; 8216.525;  136.525;    0.000
764.878; 8377.525;  146.525;    0.000
765.072; 8245.525;  110.525;    0.000
765.265; 8405.525;  141.525;    0.000
765.458; 8469.525;   82.525;    0.000
765.651; 8476.525;  144.525;    0.000
765.845; 8558.525;   79.525;    0.000
766.038; 8748.525;  123.525;    0.000
766.231;10030.525;  125.525;    0.000
766.424;16048.525;  131.525;    0.000
766.617;16984.525;   62.525;    0.000
766.811; 9661.525;  142.525;    0.000
767.004; 8828.525;  134.525;    0.000
767.197; 8757.525;  147.525;    0.000
767.390; 8618.525;  100.525;    0.000
767.583; 8518.525;  121.525;    0.000
767.776; 8610.525;   91.525;    0.000
767.969; 8528.525;  113.525;    0.000
768.162; 8788.525;  170.525;    0.000
768.355; 8593.525;  134.525;    0.000
768.548; 8681.525;  177.525;    0.000
768.741; 8627.525;   96.525;    0.000
768.934; 8764.525;  143.525;    0.000
769.127; 8784.525;  147.525;    0.000
769.320; 8784.525;   93.525;    0.000
769.513; 9302.525;  137.525;    0.000
769.706;10519.525;   96.525;    0.000
769.898;15850.525;  118.525;    0.000
770.091;12204.525;  138.525;    0.000
770.284; 9322.525;  133.525;    0.000
770.477; 9113.525;  137.525;    0.000
770.670; 9265.525;  124.525;    0.000
770.862; 9315.525;  125.525;    0.000
771.055; 9188.525;  135.525;    0.000
771.248; 9491.525;  109.525;    0.000
771.441; 9318.525;  141.525;    0.000
771.633; 9408.525;  142.525;    0.000
771.826; 9473.525;  123.525;    0.000
772.018; 9372.525;  136.525;    0.000
772.211; 9449.525;  145.525;    0.000
772.404; 9781.525;  127.525;    0.000
772.596; 9876.525;  193.525;    0.000
772.789; 9826.525;   64.525;    0.000
772.981; 9804.525;  142.525;    0.000
773.174;10098.525;  105.525;    0.000
773.366;10030.525;  166.525;    0.000
773.559;10116.525;  125.525;    0.000
773.751;10281.525;  126.525;    0.000
773.944;10504.525;  147.525;    0.000
774.136;10737.525;  155.525;    0.000
774.329;11089.525;  127.525;    0.000
774.521;11258.525;  133.525;    0.000
774.713;11720.525;  139.525;    0.000
774.906;12010.525;  170.525;    0.000
775.098;12582.525;  144.525;    0.000
775.290;13070.525;  162.525;    0.000
775.483;13793.525;  137.525;    0.000
775.675;14314.525;  148.525;    0.000
775.867;15499.525;   81.525;    0.000
776.059;17021.525;  134.525;    0.000
776.251;18873.525;  137.525;    0.000
776.444;21598.525;  155.525;    0.000
776.636;25623.525;  148.525;    0.000
776.828;33467.523;  129.525;    0.000
777.020;50292.523;  133.525;    0.000
777.212;65215.523;  137.525;    0.000
777.404;65215.523;  124.525;    0.000
777.596;65215.523;  142.525;    0.000
777.788;56223.523;  155.525;    0.000
777.980;40564.523;  119.525;    0.000
778.172;32225.525;  129.525;    0.000
778.364;26758.525;  122.525;    0.000
778.556;23183.525;  129.525;    0.000
778.748;20621.525;  178.525;    0.000
778.940;18470.525;  128.525;    0.000
779.132;17108.525;  145.525;    0.000
779.324;15707.525;   89.525;    0.000
779.516;14729.525;  161.525;    0.000
779.708;13904.525;  183.525;    0.000
779.900;13319.525;  124.525;    0.000
780.091;12702.525;  143.525;    0.000
780.283;12271.525;  135.525;    0.000
780.475;11816.525;  129.525;    0.000
780.667;11414.525;  178.525;    0.000
780.859;11253.525;  146.525;    0.000
781.050;10817.525;  156.525;    0.000
781.242;10405.525;  138.525;    0.000
781.434;10386.525;  117.525;    0.000
781.625; 9985.525;  161.525;    0.000
781.817; 9932.525;  127.525;    0.000
782.008; 9858.525;  138.525;    0.000
782.200; 9694.525;  139.525;    0.000
782.392; 9517.525;  179.525;    0.000
782.583; 9534.525;  137.525;    0.000
782.775; 9408.525;  162.525;    0.000
782.966; 9183.525;  159.525;    0.000
783.158; 9015.525;  118.525;    0.000
783.349; 8932.525;  160.525;    0.000
783.541; 8893.525;  139.525;    0.000
783.732; 8844.525;  145.525;    0.000
783.924; 8803.525;  146.525;    0.000
784.115; 8935.525;  125.525;    0.000
784.306; 8728.525;  118.525;    0.000
784.498; 8748.525;  144.525;    0.000
784.689; 8672.525;  145.525;    0.000
784.880; 8679.525;  137.525;    0.000
785.072; 8573.525;  157.525;    0.000
785.263; 8406.525;  149.525;    0.000
785.454; 8388.525;  128.525;    0.000
785.645; 8312.525;  131.525;    0.000
785.837; 8431.525;  137.525;    0.000
786.028; 8426.525;  161.525;    0.000
786.219; 8315.525;  155.525;    0.000
786.410; 8184.525;  146.525;    0.000
786.601; 8234.525;  120.525;    0.000
786.792; 8403.525;  179.525;    0.000
786.984; 8305.525;  113.525;    0.000
787.175; 8201.525;  156.525;    0.000
787.366; 8414.525;  131.525;    0.000
787.557; 8391.525;  138.525;    0.000
787.748; 8417.525;  112.525;    0.000
787.939; 8476.525;  115.525;    0.000
788.130; 8468.525;  150.525;    0.000
788.321; 8513.525;  122.525;    0.000
788.512; 8519.525;  147.525;    0.000
788.703; 8572.525;  126.525;    0.000
788.894; 8572.525;   80.525;    0.000
789.084; 8516.525;  127.525;    0.000
789.275; 8598.525;  141.525;    0.000
789.466; 8805.525;  108.525;    0.000
789.657; 8776.525;  137.525;    0.000
789.848; 8762.525;  126.525;    0.000
790.039; 8718.525;  144.525;    0.000
790.229; 8849.525;  105.525;    0.000
790.420; 8472.525;   96.525;    0.000
790.611; 8732.525;  171.525;    0.000
790.801; 8627.525;   89.525;    0.000
790.992; 8707.525;  140.525;    0.000
791.183; 8574.525;  143.525;    0.000
791.373; 8676.525;  128.525;    0.000
791.564; 8662.525;   96.525;    0.000
791.755; 8493.525;  111.525;    0.000
791.945; 8519.525;  112.525;    0.000
792.136; 8465.525;  124.525;    0.000
792.326; 8544.525;   88.525;    0.000
792.517; 8571.525;  130.525;    0.000
792.707; 8640.525;  144.525;    0.000
792.898; 8699.525;  120.525;    0.000
793.088; 8630.525;  106.525;    0.000
793.279; 8664.525;  104.525;    0.000
793.469; 8901.525;  103.525;    0.000
793.660; 9090.525;  120.525;    0.000
793.850; 9355.525;  106.525;    0.000
794.040; 9551.525;  135.525;    0.000
794.231;10132.525;   80.525;    0.000
794.421;11214.525;  120.525;    0.000
794.611;12973.525;  154.525;    0.000
794.802;15657.525;  103.525;    0.000
794.992;16673.525;  120.525;    0.000
795.182;16884.525;  156.525;    0.000
795.372;15337.525;  104.525;    0.000
795.563;13332.525;  153.525;    0.000
795.753;11858.525;  112.525;    0.000
795.943;11084.525;  128.525;    0.000
796.133;10412.525;  128.525;    0.000
796.323; 9932.525;  152.525;    0.000
796.513; 9462.525;  123.525;    0.000
796.703; 9071.525;  134.525;    0.000
796.893; 8930.525;  120.525;    0.000
797.083; 8784.525;  136.525;    0.000
797.273; 8478.525;  128.525;    0.000
797.463; 8487.525;  140.525;    0.000
797.653; 8201.525;   75.525;    0.000
797.843; 8299.525;  114.525;    0.000
798.033; 7996.525;   90.525;    0.000
798.223; 7853.525;  136.525;    0.000
798.413; 7961.525;  164.525;    0.000
798.603; 7702.525;  150.525;    0.000
798.793; 7653.525;  137.525;    0.000
798.983; 7630.525;  119.525;    0.000
799.172; 7516.525;  136.525;    0.000
799.362; 7550.525;  138.525;    0.000
799.552; 7435.525;  123.525;    0.000
799.742; 7370.525;  117.525;    0.000
799.932; 7365.525;  108.525;    0.000
800.121; 7238.525;  152.525;    0.000
800.311; 7367.525;  117.525;    0.000
800.501; 7297.525;  100.525;    0.000
800.690; 7297.525;  139.525;    0.000
800.880; 7204.525;  138.525;    0.000
801.070; 7081.525;  120.525;    0.000
801.259; 7273.525;  143.525;    0.000
801.449; 7174.525;  110.525;    0.000
801.638; 7170.525;  140.525;    0.000
801.828; 7170.525;  103.525;    0.000
802.017; 7138.525;   78.525;    0.000
802.207; 7004.525;  126.525;    0.000
802.396; 6919.525;  151.525;    0.000
802.586; 6993.525;  106.525;    0.000
802.775; 6977.525;  152.525;    0.000
802.965; 6823.525;  117.525;    0.000
803.154; 6968.525;  171.525;    0.000
803.343; 6833.525;  126.525;    0.000
803.533; 6860.525;  135.525;    0.000
803.722; 6866.525;  144.525;    0.000
803.911; 6785.525;  109.525;    0.000
804.101; 6776.525;  146.525;    0.000
804.290; 6838.525;  115.525;    0.000
804.479; 6846.525;  128.525;    0.000
804.668; 6859.525;  156.525;    0.000
804.857; 6716.525;  151.525;    0.000
805.047; 6692.525;  131.525;    0.000
805.236; 6771.525;  144.525;    0.000
805.425; 6891.525;  160.525;    0.000
805.614; 6581.525;  112.525;    0.000
805.803; 6752.525;  120.525;    0.000
805.992; 6816.525;  148.525;    0.000
806.181; 6767.525;  108.525;    0.000
806.370; 6685.525;  142.525;    0.000
806.559; 6694.525;  116.525;    0.000
806.748; 6632.525;  108.525;    0.000
806.937; 6622.525;  110.525;    0.000
807.126; 6671.525;  126.525;    0.000
807.315; 6782.525;  121.525;    0.000
807.504; 6843.525;  102.525;    0.000
807.693; 6664.525;  134.525;    0.000
807.882; 6701.525;  135.525;    0.000
808.071; 6755.525;  135.525;    0.000
808.260; 6883.525;   93.525;    0.000
808.448; 6811.525;  151.525;    0.000
808.637; 6812.525;  105.525;    0.000
808.826; 6780.525;  178.525;    0.000
809.015; 6613.525;  152.525;    0.000
809.203; 6845.525;  147.525;    0.000
809.392; 6795.525;  144.525;    0.000
809.581; 6896.525;  167.525;    0.000
809.770; 6790.525;  151.525;    0.000
809.958; 6828.525;  128.525;    0.000
810.147; 6952.525;  152.525;    0.000
810.335; 7025.525;  160.525;    0.000
810.524; 7042.525;  130.525;    0.000
810.713; 7129.525;  128.525;    0.000
810.901; 7052.525;  140.525;    0.000
811.090; 7000.525;  152.525;    0.000
811.278; 7282.525;  126.525;    0.000
811.467; 7513.525;  161.525;    0.000
811.655; 7590.525;  184.525;    0.000
811.844; 7492.525;  148.525;    0.000
812.032; 7460.525;  138.525;    0.000
812.220; 7323.525;  157.525;    0.000
812.409; 7260.525;  143.525;    0.000
812.597; 7325.525;  124.525;    0.000
812.785; 7320.525;  170.525;    0.000
812.974; 7336.525;  135.525;    0.000
813.162; 7401.525;  135.525;    0.000
813.350; 7378.525;  182.525;    0.000
813.539; 7404.525;  126.525;    0.000
813.727; 7542.525;  127.525;    0.000
813.915; 7308.525;  140.525;    0.000
814.103; 7560.525;  176.525;    0.000
814.291; 7643.525;  115.525;    0.000
814.479; 7576.525;  119.525;    0.000
814.668; 7657.525;  134.525;    0.000
814.856; 7846.525;  120.525;    0.000
815.044; 7826.525;  164.525;    0.000
815.232; 7977.525;  146.525;    0.000
815.420; 8112.525;  154.525;    0.000
815.608; 8174.525;  137.525;    0.000
815.796; 8185.525;  108.525;    0.000
815.984; 8205.525;  134.525;    0.000
816.172; 8546.525;  123.525;    0.000
816.360; 8582.525;  181.525;    0.000
816.548; 9039.525;  139.525;    0.000
816.736; 9254.525;  138.525;    0.000
816.924; 9708.525;  151.525;    0.000
817.111;10155.525;  156.525;    0.000
817.299;10627.525;  147.525;    0.000
817.487;11409.525;  188.525;    0.000
817.675;12415.525;  129.525;    0.000
817.863;14428.525;  128.525;    0.000
818.050;19473.525;  110.525;    0.000
818.238;36219.523;  166.525;    0.000
818.426;53090.523;  136.525;    0.000
818.613;39119.523;  143.525;    0.000
818.801;33750.523;  150.525;    0.000
818.989;31874.525;  179.525;    0.000
819.176;31285.525;  123.525;    0.000
819.364;45175.523;  148.525;    0.000
819.552;65215.523;   86.525;    0.000
819.739;45471.523;  169.525;    0.000
819.927;32135.525;  130.525;    0.000
820.114;26914.525;  144.525;    0.000
820.302;23659.525;  166.525;    0.000
820.489;21200.525;  145.525;    0.000
820.677;19773.525;  101.525;    0.000
820.864;19375.525;  149.525;    0.000
821.052;20949.525;  130.525;    0.000
821.239;22423.525;  147.525;    0.000
821.426;24450.525;  121.525;    0.000
821.614;32726.525;  187.525;    0.000
821.801;36291.523;  105.525;    0.000
821.988;29260.525;  167.525;    0.000
822.176;27531.525;  130.525;    0.000
822.363;28851.525;  143.525;    0.000
822.550;25865.525;  108.525;    0.000
822.737;21601.525;  109.525;    0.000
822.924;19538.525;  156.525;    0.000
823.112;18107.525;  123.525;    0.000
823.299;16829.525;  128.525;    0.000
823.486;16042.525;  138.525;    0.000
823.673;14812.525;  125.525;    0.000
823.860;14509.525;  138.525;    0.000
824.047;15115.525;  122.525;    0.000
824.234;18380.525;  134.525;    0.000
824.421;19167.525;   95.525;    0.000
824.608;15808.525;  151.525;    0.000
824.795;13488.525;  117.525;    0.000
824.982;12323.525;  143.525;    0.000
825.169;11394.525;   83.525;    0.000
825.356;10837.525;  126.525;    0.000
825.543;10038.525;   92.525;    0.000
825.730; 9680.525;  113.525;    0.000
825.917; 9195.525;  142.525;    0.000
826.104; 8961.525;  182.525;    0.000
826.290; 8638.525;  137.525;    0.000
826.477; 8355.525;  126.525;    0.000
826.664; 8254.525;  135.525;    0.000
826.851; 7989.525;  139.525;    0.000
827.038; 7882.525;  135.525;    0.000
827.224; 7565.525;  143.525;    0.000
827.411; 7487.525;  153.525;    0.000
827.598; 7271.525;  122.525;    0.000
827.784; 7260.525;  138.525;    0.000
827.971; 7159.525;  134.525;    0.000
828.157; 7066.525;  152.525;    0.000
828.344; 6795.525;  135.525;    0.000
828.531; 6825.525;  137.525;    0.000
828.717; 6516.525;  117.525;    0.000
828.904; 6639.525;  127.525;    0.000
829.090; 6567.525;  172.525;    0.000
829.277; 6477.525;  144.525;    0.000
829.463; 6466.525;  159.525;    0.000
829.650; 6394.525;  187.525;    0.000
829.836; 6425.525;  138.525;    0.000
830.022; 6173.525;  196.525;    0.000
830.209; 6280.525;  118.525;    0.000
830.395; 6069.525;  148.525;    0.000
830.581; 5975.525;  108.525;    0.000
830.768; 6008.525;  137.525;    0.000
830.954; 5996.525;  162.525;    0.000
831.140; 5898.525;  117.525;    0.000
831.327; 5968.525;  176.525;    0.000
831.513; 5981.525;  162.525;    0.000
831.699; 5790.525;  157.525;    0.000
831.885; 5834.525;  153.525;    0.000
832.071; 5675.525;  123.525;    0.000
832.257; 5870.525;  142.525;    0.000
832.444; 5692.525;  165.525;    0.000
832.630; 5665.525;  159.525;    0.000
832.816; 5761.525;  145.525;    0.000
833.002; 5567.525;  120.525;    0.000
833.188; 5589.525;  145.525;    0.000
833.374; 5622.525;  137.525;    0.000
833.560; 5458.525;  152.525;    0.000
833.746; 5626.525;  139.525;    0.000
833.932; 5507.525;  170.525;    0.000
834.118; 5372.525;  111.525;    0.000
834.303; 5333.525;  141.525;    0.000
834.489; 5363.525;  146.525;    0.000
834.675; 5373.525;  156.525;    0.000
834.861; 5387.525;   87.525;    0.000
835.047; 5390.525;  134.525;    0.000
835.233; 5286.525;   89.525;    0.000
835.418; 5383.525;  145.525;    0.000
835.604; 5186.525;  136.525;    0.000
835.790; 5231.525;  132.525;    0.000
835.976; 5109.525;  161.525;    0.000
836.161; 5349.525;  157.525;    0.000
836.347; 5055.525;  147.525;    0.000
836.533; 5249.525;  116.525;    0.000
836.718; 5317.525;  168.525;    0.000
836.904; 5216.525;  199.525;    0.000
837.089; 5144.525;  165.525;    0.000
837.275; 5083.525;  166.525;    0.000
837.460; 5172.525;  144.525;    0.000
837.646; 5198.525;  164.525;    0.000
837.831; 5216.525;  122.525;    0.000
838.017; 5190.525;  163.525;    0.000
838.202; 5145.525;  139.525;    0.000
838.388; 5208.525;  174.525;    0.000
838.573; 5071.525;  140.525;    0.000
838.759; 5142.525;  167.525;    0.000
838.944; 5141.525;  142.525;    0.000
839.129; 5102.525;  164.525;    0.000
839.315; 5112.525;  129.525;    0.000
839.500; 5179.525;  150.525;    0.000
839.685; 5087.525;  118.525;    0.000
839.870; 5266.525;  177.525;    0.000
840.056; 5145.525;  144.525;    0.000
840.241; 5280.525;  121.525;    0.000
840.426; 5239.525;  131.525;    0.000
840.611; 5367.525;  177.525;    0.000
840.796; 5391.525;  173.525;    0.000
840.981; 5456.525;  156.525;    0.000
841.166; 5534.525;  145.525;    0.000
841.352; 5441.525;  150.525;    0.000
841.537; 5535.525;  143.525;    0.000
841.722; 5597.525;  165.525;    0.000
841.907; 5520.525;  184.525;    0.000
842.092; 5637.525;  171.525;    0.000
842.277; 5788.525;  155.525;    0.000
842.461; 5951.525;  152.525;    0.000
842.646; 6150.525;  107.525;    0.000
842.831; 6148.525;  160.525;    0.000
843.016; 6390.525;  160.525;    0.000
843.201; 6538.525;  164.525;    0.000
843.386; 6837.525;  134.525;    0.000
843.571; 7353.525;  132.525;    0.000
843.755; 7710.525;  158.525;    0.000
843.940; 8605.525;  152.525;    0.000
844.125; 9809.525;  154.525;    0.000
844.310;12176.525;  147.525;    0.000
844.494;17790.525;  158.525;    0.000
844.679;26733.525;  173.525;    0.000
844.864;25180.525;  152.525;    0.000
845.048;18740.525;  139.525;    0.000
845.233;14598.525;  200.525;    0.000
845.418;12321.525;  139.525;    0.000
845.602;10612.525;  147.525;    0.000
845.787; 9548.525;  148.525;    0.000
845.971; 8670.525;  170.525;    0.000
846.156; 7953.525;  136.525;    0.000
846.340; 7470.525;  146.525;    0.000
846.525; 7248.525;  188.525;    0.000
846.709; 6764.525;  128.525;    0.000
846.893; 6495.525;  151.525;    0.000
847.078; 6206.525;  164.525;    0.000
847.262; 6047.525;  155.525;    0.000
847.447; 5830.525;  114.525;    0.000
847.631; 5604.525;  148.525;    0.000
847.815; 5607.525;  114.525;    0.000
848.000; 5619.525;  134.525;    0.000
848.184; 5443.525;  154.525;    0.000
848.368; 5229.525;  145.525;    0.000
848.552; 5164.525;  122.525;    0.000
848.736; 5087.525;  139.525;    0.000
848.921; 5063.525;  143.525;    0.000
849.105; 5065.525;  145.525;    0.000
849.289; 4872.525;  173.525;    0.000
849.473; 4950.525;  147.525;    0.000
849.657; 4899.525;  144.525;    0.000
849.841; 4777.525;  168.525;    0.000
850.025; 4824.525;  205.525;    0.000
850.209; 4606.525;  171.525;    0.000
850.393; 4565.525;  130.525;    0.000
850.577; 4713.525;  146.525;    0.000
850.761; 4702.525;  188.525;    0.000
850.945; 4718.525;  137.525;    0.000
851.129; 4589.525;  192.525;    0.000
851.313; 4536.525;  199.525;    0.000
851.497; 4622.525;  165.525;    0.000
851.680; 4609.525;  196.525;    0.000
851.864; 4703.525;  169.525;    0.000
852.048; 4610.525;  156.525;    0.000
852.232; 4616.525;  150.525;    0.000
852.416; 4609.525;  219.525;    0.000
852.599; 4552.525;  168.525;    0.000
852.783; 4503.525;  165.525;    0.000
852.967; 4505.525;  166.525;    0.000
853.150; 4634.525;  191.525;    0.000
853.334; 4504.525;  158.525;    0.000
853.518; 4478.525;  168.525;    0.000
853.701; 4473.525;  125.525;    0.000
853.885; 4546.525;  165.525;    0.000
854.068; 4585.525;  142.525;    0.000
854.252; 4650.525;  167.525;    0.000
854.435; 4543.525;  146.525;    0.000
854.619; 4514.525;  163.525;    0.000
854.802; 4339.525;  167.525;    0.000
854.986; 4396.525;  163.525;    0.000
855.169; 4427.525;  146.525;    0.000
855.353; 4561.525;  183.525;    0.000
855.536; 4543.525;  140.525;    0.000
855.719; 4527.525;  168.525;    0.000
855.903; 4612.525;  170.525;    0.000
856.086; 4615.525;  145.525;    0.000
856.269; 4610.525;  126.525;    0.000
856.452; 4713.525;  142.525;    0.000
856.636; 5129.525;  140.525;    0.000
856.819; 5852.525;  127.525;    0.000
857.002; 6027.525;  165.525;    0.000
857.185; 5573.525;  111.525;    0.000
857.368; 5440.525;  143.525;    0.000
857.552; 5200.525;  174.525;    0.000
857.735; 5124.525;  194.525;    0.000
857.918; 5025.525;  171.525;    0.000
858.101; 4984.525;  142.525;    0.000
858.284; 5072.525;  118.525;    0.000
858.467; 5142.525;  163.525;    0.000
858.650; 5176.525;  149.525;    0.000
858.833; 5238.525;  120.525;    0.000
859.016; 5348.525;  169.525;    0.000
859.199; 5806.525;  121.525;    0.000
859.382; 6925.525;  184.525;    0.000
859.564; 7748.525;  139.525;    0.000
859.747; 7199.525;  126.525;    0.000
859.930; 6766.525;  109.525;    0.000
860.113; 6279.525;  137.525;    0.000
860.296; 6074.525;  182.525;    0.000
860.478; 5702.525;  136.525;    0.000
860.661; 5813.525;  157.525;    0.000
860.844; 5661.525;  129.525;    0.000
861.027; 5609.525;  163.525;    0.000
861.209; 5591.525;  151.525;    0.000
861.392; 5555.525;  124.525;    0.000
861.575; 5632.525;  163.525;    0.000
861.757; 5758.525;  205.525;    0.000
861.940; 5830.525;  180.525;    0.000
862.122; 6011.525;  148.525;    0.000
862.305; 6031.525;  128.525;    0.000
862.487; 6492.525;  172.525;    0.000
862.670; 7455.525;  123.525;    0.000
862.852; 9513.525;  126.525;    0.000
863.035;12361.525;  174.525;    0.000
863.217;11637.525;  160.525;    0.000
863.400; 9992.525;  164.525;    0.000
863.582; 8919.525;  118.525;    0.000
863.764; 8158.525;  143.525;    0.000
863.947; 7580.525;  137.525;    0.000
864.129; 7272.525;  166.525;    0.000
864.311; 6994.525;  128.525;    0.000
864.493; 6839.525;  153.525;    0.000
864.676; 6645.525;  156.525;    0.000
864.858; 6632.525;  159.525;    0.000
865.040; 6772.525;  163.525;    0.000
865.222; 6605.525;  138.525;    0.000
865.404; 6857.525;  157.525;    0.000
865.587; 7486.525;  184.525;    0.000
865.769; 7946.525;  178.525;    0.000
865.951; 7702.525;  104.525;    0.000
866.133; 7692.525;  147.525;    0.000
866.315; 7618.525;  141.525;    0.000
866.497; 7497.525;  132.525;    0.000
866.679; 7851.525;  139.525;    0.000
866.861; 7873.525;  118.525;    0.000
867.043; 8458.525;  154.525;    0.000
867.225; 8969.525;  147.525;    0.000
867.407;10166.525;  158.525;    0.000
867.589;11913.525;  172.525;    0.000
867.770;15304.525;  159.525;    0.000
867.952;23507.525;  149.525;    0.000
868.134;32496.525;  156.525;    0.000
868.316;31507.525;  171.525;    0.000
868.498;29716.525;  200.525;    0.000
868.679;24746.525;  174.525;    0.000
868.861;19625.525;  175.525;    0.000
869.043;15584.525;  174.525;    0.000
869.224;13387.525;  122.525;    0.000
869.406;12062.525;  166.525;    0.000
869.588;10757.525;  143.525;    0.000
869.769;10204.525;  152.525;    0.000
869.951;10044.525;  165.525;    0.000
870.132;10481.525;  115.525;    0.000
870.314;12183.525;  139.525;    0.000
870.495;12820.525;  168.525;    0.000
870.677;10996.525;  188.525;    0.000
870.858;10436.525;  123.525;    0.000
871.040;11604.525;  170.525;    0.000
871.221;13625.525;  148.525;    0.000
871.403;12644.525;  140.525;    0.000
871.584;10816.525;  174.525;    0.000
871.765;10978.525;  168.525;    0.000
871.947;12270.525;  191.525;    0.000
872.128;11026.525;  132.525;    0.000
872.309; 9092.525;  140.525;    0.000
872.491; 8080.525;  157.525;    0.000
872.672; 7477.525;  130.525;    0.000
872.853; 7217.525;  148.525;    0.000
873.034; 7083.525;  138.525;    0.000
873.215; 6578.525;  152.525;    0.000
873.396; 6136.525;  149.525;    0.000
873.578; 5826.525;  173.525;    0.000
873.759; 5600.525;  158.525;    0.000
873.940; 5261.525;  147.525;    0.000
874.121; 5159.525;  136.525;    0.000
874.302; 5144.525;  151.525;    0.000
874.483; 5119.525;  137.525;    0.000
874.664; 5082.525;  163.525;    0.000
874.845; 5156.525;  124.525;    0.000
875.026; 4907.525;  134.525;    0.000
875.207; 4654.525;  164.525;    0.000
875.388; 4667.525;  163.525;    0.000
875.568; 4487.525;  176.525;    0.000
875.749; 4340.525;  108.525;    0.000
875.930; 4381.525;  191.525;    0.000
876.111; 4293.525;  170.525;    0.000
876.292; 4193.525;  180.525;    0.000
876.472; 4241.525;  150.525;    0.000
876.653; 4160.525;  162.525;    0.000
876.834; 4094.525;  176.525;    0.000
877.015; 4020.525;  203.525;    0.000
877.195; 3996.525;  178.525;    0.000
877.376; 3934.525;  141.525;    0.000
877.556; 3910.525;  135.525;    0.000
877.737; 3957.525;  174.525;    0.000
877.918; 3818.525;  150.525;    0.000
878.098; 3962.525;  133.525;    0.000
878.279; 3879.525;  129.525;    0.000
878.459; 3765.525;  162.525;    0.000
878.640; 3838.525;  187.525;    0.000
878.820; 3743.525;  151.525;    0.000
879.000; 3659.525;  159.525;    0.000
879.181; 3655.525;  171.525;    0.000
879.361; 3736.525;  167.525;    0.000
879.542; 3647.525;  126.525;    0.000
879.722; 3649.525;  152.525;    0.000
879.902; 3721.525;  144.525;    0.000
880.083; 3729.525;  154.525;    0.000
880.263; 3706.525;  148.525;    0.000
880.443; 3899.525;  185.525;    0.000
880.623; 4810.525;  172.525;    0.000
880.803; 5500.525;  152.525;    0.000
880.984; 4554.525;  165.525;    0.000
881.164; 4167.525;  164.525;    0.000
881.344; 4087.525;  141.525;    0.000
881.524; 3901.525;  160.525;    0.000
881.704; 4098.525;  164.525;    0.000
881.884; 4327.525;  159.525;    0.000
882.064; 4699.525;  158.525;    0.000
882.244; 4825.525;  147.525;    0.000
882.424; 4464.525;  160.525;    0.000
882.604; 4127.525;  150.525;    0.000
882.784; 4003.525;  138.525;    0.000
882.964; 3917.525;  157.525;    0.000
883.144; 3794.525;  128.525;    0.000
883.324; 3732.525;  220.525;    0.000
883.504; 3615.525;  177.525;    0.000
883.683; 3565.525;  159.525;    0.000
883.863; 3510.525;  143.525;    0.000
884.043; 3489.525;  156.525;    0.000
884.223; 3496.525;  152.525;    0.000
884.402; 3441.525;  169.525;    0.000
884.582; 3520.525;  162.525;    0.000
884.762; 3381.525;  172.525;    0.000
884.941; 3430.525;  220.525;    0.000
885.121; 3458.525;  128.525;    0.000
885.301; 3372.525;  141.525;    0.000
885.480; 3344.525;  141.525;    0.000
885.660; 3298.525;  132.525;    0.000
885.839; 3339.525;  146.525;    0.000
886.019; 3313.525;  170.525;    0.000
886.198; 3256.525;  143.525;    0.000
886.378; 3196.525;  159.525;    0.000
886.557; 3247.525;  148.525;    0.000
886.737; 3253.525;  125.525;    0.000
886.916; 3158.525;  177.525;    0.000
887.095; 3246.525;  186.525;    0.000
887.275; 3272.525;  134.525;    0.000
887.454; 3289.525;  148.525;    0.000
887.633; 3136.525;  171.525;    0.000
887.813; 3173.525;  187.525;    0.000
887.992; 3173.525;  157.525;    0.000
888.171; 3194.525;  143.525;    0.000
888.350; 3156.525;  182.525;    0.000
888.530; 3222.525;  142.525;    0.000
888.709; 3114.525;  160.525;    0.000
888.888; 3192.525;  197.525;    0.000
889.067; 3153.525;  126.525;    0.000
889.246; 3150.525;  197.525;    0.000
889.425; 3193.525;  161.525;    0.000
889.604; 3159.525;  180.525;    0.000
889.783; 3148.525;  135.525;    0.000
889.962; 3086.525;  107.525;    0.000
890.141; 3149.525;  167.525;    0.000
890.320; 3124.525;  149.525;    0.000
890.499; 3149.525;  194.525;    0.000
890.678; 3042.525;  138.525;    0.000
890.857; 3093.525;  146.525;    0.000
891.036; 3146.525;  178.525;    0.000
891.214; 3134.525;  151.525;    0.000
891.393; 3168.525;  137.525;    0.000
891.572; 3093.525;  177.525;    0.000
891.751; 3138.525;  149.525;    0.000
891.930; 3175.525;  189.525;    0.000
892.108; 3097.525;  136.525;    0.000
892.287; 3178.525;  129.525;    0.000
892.466; 3216.525;  163.525;    0.000
892.644; 3175.525;  147.525;    0.000
892.823; 3043.525;  127.525;    0.000
893.001; 3124.525;  192.525;    0.000
893.180; 3103.525;  157.525;    0.000
893.359; 3078.525;  176.525;    0.000
893.537; 3181.525;  146.525;    0.000
893.716; 3089.525;  154.525;    0.000
893.894; 3040.525;  166.525;    0.000
894.073; 3153.525;  163.525;    0.000
894.251; 3147.525;  166.525;    0.000
894.429; 3044.525;  149.525;    0.000
894.608; 3176.525;  141.525;    0.000
894.786; 3154.525;  139.525;    0.000
894.964; 3144.525;  180.525;    0.000
895.143; 3027.525;  193.525;    0.000
895.321; 3078.525;  163.525;    0.000
895.499; 3024.525;  163.525;    0.000
895.677; 3127.525;  194.525;    0.000
895.856; 3144.525;  176.525;    0.000
896.034; 3151.525;  173.525;    0.000
896.212; 3131.525;  180.525;    0.000
896.390; 3212.525;  146.525;    0.000
896.568; 3193.525;  167.525;    0.000
896.746; 3138.525;  158.525;    0.000
896.924; 3103.525;  163.525;    0.000
897.102; 3163.525;  170.525;    0.000
897.280; 3134.525;  159.525;    0.000
897.458; 3182.525;  182.525;    0.000
897.636; 3225.525;  151.525;    0.000
897.814; 3145.525;  130.525;    0.000
897.992; 3251.525;  213.525;    0.000
898.170; 3129.525;  164.525;    0.000
898.348; 3223.525;  159.525;    0.000
898.526; 3190.525;  182.525;    0.000
898.704; 3254.525;  209.525;    0.000
898.882; 3179.525;  145.525;    0.000
899.059; 3272.525;  172.525;    0.000
899.237; 3147.525;  172.525;    0.000
899.415; 3191.525;  211.525;    0.000
899.593; 3251.525;  151.525;    0.000
899.770; 3181.525;  147.525;    0.000
899.948; 3312.525;  218.525;    0.000
900.125; 3359.525;  166.525;    0.000
900.303; 3459.525;  146.525;    0.000
900.481; 3389.525;  174.525;    0.000
900.658; 3454.525;  198.525;    0.000
900.836; 3436.525;  125.525;    0.000
901.013; 3533.525;  197.525;    0.000
901.191; 3495.525;  181.525;    0.000
901.368; 3582.525;  185.525;    0.000
901.546; 3773.525;  197.525;    0.000
901.723; 3740.525;  205.525;    0.000
901.901; 3850.525;  187.525;    0.000
902.078; 4023.525;  163.525;    0.000
902.255; 4061.525;  141.525;    0.000
902.433; 4010.525;  183.525;    0.000
902.610; 4124.525;  181.525;    0.000
902.787; 4063.525;  174.525;    0.000
902.964; 4253.525;  174.525;    0.000
903.142; 4530.525;  141.525;    0.000
903.319; 4487.525;  214.525;    0.000
903.496; 4524.525;  187.525;    0.000
903.673; 4613.525;  183.525;    0.000
903.850; 4584.525;  125.525;    0.000
904.027; 4843.525;  197.525;    0.000
904.204; 5245.525;  197.525;    0.000
904.381; 6006.525;  196.525;    0.000
904.558; 7282.525;  176.525;    0.000
904.735; 8512.525;  179.525;    0.000
904.912; 8475.525;  203.525;    0.000
905.089; 8774.525;  159.525;    0.000
905.266; 7701.525;  176.525;    0.000
905.443; 6803.525;  184.525;    0.000
905.620; 6028.525;  168.525;    0.000
905.797; 5659.525;  214.525;    0.000
905.974; 5541.525;  154.525;    0.000
906.151; 5502.525;  132.525;    0.000
906.327; 5695.525;  192.525;    0.000
906.504; 5476.525;  186.525;    0.000
906.681; 5117.525;  171.525;    0.000
906.858; 4932.525;  181.525;    0.000
907.034; 4745.525;  164.525;    0.000
907.211; 4523.525;  184.525;    0.000
907.388; 4450.525;  177.525;    0.000
907.564; 4364.525;  150.525;    0.000
907.741; 4292.525;  195.525;    0.000
907.917; 4240.525;  190.525;    0.000
908.094; 4211.525;  214.525;    0.000
908.271; 4005.525;  173.525;    0.000
908.447; 4074.525;  229.525;    0.000
908.623; 3962.525;  162.525;    0.000
908.800; 3850.525;  195.525;    0.000
908.976; 3967.525;  171.525;    0.000
909.153; 3810.525;  167.525;    0.000
909.329; 3935.525;  227.525;    0.000
909.505; 4089.525;  167.525;    0.000
909.682; 4005.525;  174.525;    0.000
909.858; 3833.525;  158.525;    0.000
910.034; 3741.525;  188.525;    0.000
910.211; 3691.525;  158.525;    0.000
910.387; 3606.525;  208.525;    0.000
910.563; 3508.525;  203.525;    0.000
910.739; 3548.525;  201.525;    0.000
910.915; 3458.525;  170.525;    0.000
911.091; 3557.525;  171.525;    0.000
911.268; 3601.525;  220.525;    0.000
911.444; 3626.525;  202.525;    0.000
911.620; 3472.525;  175.525;    0.000
911.796; 3417.525;  175.525;    0.000
911.972; 3532.525;  164.525;    0.000
912.148; 3562.525;  174.525;    0.000
912.324; 3541.525;  155.525;    0.000
912.500; 3434.525;  156.525;    0.000
912.676; 3360.525;  138.525;    0.000
912.851; 3306.525;  158.525;    0.000
913.027; 3455.525;  161.525;    0.000
913.203; 3402.525;  168.525;    0.000
913.379; 3405.525;  172.525;    0.000
913.555; 3312.525;  193.525;    0.000
913.730; 3273.525;  149.525;    0.000
913.906; 3367.525;  159.525;    0.000
914.082; 3393.525;  184.525;    0.000
914.258; 3368.525;  194.525;    0.000
914.433; 3258.525;  175.525;    0.000
914.609; 3272.525;  175.525;    0.000
914.784; 3355.525;  170.525;    0.000
914.960; 3394.525;  212.525;    0.000
915.136; 3258.525;  157.525;    0.000
915.311; 3391.525;  204.525;    0.000
915.487; 3282.525;  180.525;    0.000
915.662; 3399.525;  203.525;    0.000
915.838; 3385.525;  194.525;    0.000
916.013; 3321.525;  217.525;    0.000
916.189; 3455.525;  196.525;    0.000
916.364; 3341.525;  236.525;    0.000
916.539; 3345.525;  192.525;    0.000
916.715; 3344.525;  181.525;    0.000
916.890; 3338.525;  185.525;    0.000
917.065; 3325.525;  166.525;    0.000
917.240; 3344.525;  182.525;    0.000
917.416; 3336.525;  188.525;    0.000
917.591; 3336.525;  185.525;    0.000
917.766; 3249.525;  187.525;    0.000
917.941; 3398.525;  181.525;    0.000
918.116; 3270.525;  207.525;    0.000
918.292; 3318.525;  140.525;    0.000
918.467; 3366.525;  187.525;    0.000
918.642; 3328.525;  208.525;    0.000
918.817; 3311.525;  203.525;    0.000
918.992; 3205.525;  162.525;    0.000
919.167; 3303.525;  206.525;    0.000
919.342; 3279.525;  188.525;    0.000
919.517; 3278.525;  190.525;    0.000
919.692; 3333.525;  174.525;    0.000
919.867; 3360.525;  181.525;    0.000
920.041; 3543.525;  179.525;    0.000
920.216; 3431.525;  186.525;    0.000
920.391; 3627.525;  209.525;    0.000
920.566; 3480.525;  205.525;    0.000
920.741; 3584.525;  205.525;    0.000
920.915; 3759.525;  206.525;    0.000
921.090; 3951.525;  219.525;    0.000
921.265; 4833.525;  185.525;    0.000
921.439; 5398.525;  171.525;    0.000
921.614; 4738.525;  197.525;    0.000
921.789; 4361.525;  189.525;    0.000
921.963; 4241.525;  210.525;    0.000
922.138; 4024.525;  171.525;    0.000
922.312; 3983.525;  194.525;    0.000
922.487; 3877.525;  231.525;    0.000
922.661; 4006.525;  179.525;    0.000
922.836; 4568.525;  213.525;    0.000
923.010; 4708.525;  182.525;    0.000
923.185; 4111.525;  239.525;    0.000
923.359; 4096.525;  200.525;    0.000
923.534; 4105.525;  232.525;    0.000
923.708; 4232.525;  221.525;    0.000
923.882; 4430.525;  193.525;    0.000
924.057; 4233.525;  204.525;    0.000
924.231; 4128.525;  172.525;    0.000
924.405; 4020.525;  202.525;    0.000
924.579; 4032.525;  207.525;    0.000
924.753; 4095.525;  167.525;    0.000
924.928; 3972.525;  202.525;    0.000
925.102; 4050.525;  200.525;    0.000
925.276; 4170.525;  185.525;    0.000
925.450; 4142.525;  170.525;    0.000
925.624; 4383.525;  176.525;    0.000
925.798; 4564.525;  221.525;    0.000
925.972; 5005.525;  162.525;    0.000
926.146; 5501.525;  207.525;    0.000
926.320; 6335.525;  185.525;    0.000
926.494; 7021.525;  192.525;    0.000
926.668; 7436.525;  179.525;    0.000
926.842; 7842.525;  181.525;    0.000
927.016; 7550.525;  224.525;    0.000
927.190; 7303.525;  193.525;    0.000
927.363; 6842.525;  194.525;    0.000
927.537; 6484.525;  210.525;    0.000
927.711; 6257.525;  153.525;    0.000
927.885; 5999.525;  184.525;    0.000
928.058; 5683.525;  197.525;    0.000
928.232; 5609.525;  219.525;    0.000
928.406; 5338.525;  175.525;    0.000
928.579; 5176.525;  179.525;    0.000
928.753; 5063.525;  208.525;    0.000
928.927; 4837.525;  163.525;    0.000
929.100; 4714.525;  138.525;    0.000
929.274; 4537.525;  160.525;    0.000
929.447; 4550.525;  152.525;    0.000
929.621; 4553.525;  168.525;    0.000
929.794; 4352.525;  152.525;    0.000
929.968; 4369.525;  163.525;    0.000
930.141; 4200.525;  164.525;    0.000
930.315; 3967.525;  170.525;    0.000
930.488; 4002.525;  216.525;    0.000
930.661; 3870.525;  184.525;    0.000
930.835; 3828.525;  156.525;    0.000
931.008; 3800.525;  206.525;    0.000
931.181; 3799.525;  163.525;    0.000
931.354; 3793.525;  198.525;    0.000
931.528; 3625.525;  156.525;    0.000
931.701; 3546.525;  170.525;    0.000
931.874; 3516.525;  167.525;    0.000
932.047; 3543.525;  146.525;    0.000
932.220; 3538.525;  159.525;    0.000
932.393; 3436.525;  186.525;    0.000
932.566; 3497.525;  147.525;    0.000
932.739; 3380.525;  192.525;    0.000
932.912; 3397.525;  197.525;    0.000
933.085; 3309.525;  176.525;    0.000
933.258; 3200.525;  171.525;    0.000
933.431; 3252.525;  150.525;    0.000
933.604; 3306.525;  176.525;    0.000
933.777; 3360.525;  215.525;    0.000
933.950; 3122.525;  164.525;    0.000
934.123; 3184.525;  174.525;    0.000
934.296; 3180.525;  203.525;    0.000
934.468; 3233.525;  208.525;    0.000
934.641; 3128.525;  182.525;    0.000
934.814; 3185.525;  170.525;    0.000
934.987; 3190.525;  183.525;    0.000
935.159; 3202.525;  154.525;    0.000
935.332; 3250.525;  178.525;    0.000
935.505; 3102.525;  213.525;    0.000
935.677; 3182.525;  173.525;    0.000
935.850; 3133.525;  190.525;    0.000
936.022; 3251.525;  205.525;    0.000
936.195; 3207.525;  201.525;    0.000
936.367; 3177.525;  189.525;    0.000
936.540; 3297.525;  179.525;    0.000
936.712; 3182.525;  195.525;    0.000
936.885; 3303.525;  207.525;    0.000
937.057; 3243.525;  163.525;    0.000
937.229; 3330.525;  175.525;    0.000
937.402; 3488.525;  168.525;    0.000
937.574; 3519.525;  136.525;    0.000
937.746; 3685.525;  166.525;    0.000
937.919; 3905.525;  178.525;    0.000
938.091; 4131.525;  192.525;    0.000
938.263; 4460.525;  164.525;    0.000
938.435; 5039.525;  204.525;    0.000
938.608; 6270.525;  153.525;    0.000
938.780; 7936.525;  159.525;    0.000
938.952; 7893.525;  160.525;    0.000
939.124; 8048.525;  156.525;    0.000
939.296; 9739.525;  110.525;    0.000
939.468;10315.525;  135.525;    0.000
939.640; 8416.525;  144.525;    0.000
939.812; 7238.525;  232.525;    0.000
939.984; 6070.525;  128.525;    0.000
940.156; 5631.525;  195.525;    0.000
940.328; 5197.525;  226.525;    0.000
940.500; 4858.525;  146.525;    0.000
940.672; 4693.525;  190.525;    0.000
940.843; 4469.525;  156.525;    0.000
941.015; 4183.525;  200.525;    0.000
941.187; 4032.525;  159.525;    0.000
941.359; 3935.525;  183.525;    0.000
941.531; 3868.525;  137.525;    0.000
941.702; 3634.525;  186.525;    0.000
941.874; 3539.525;  164.525;    0.000
942.046; 3442.525;  202.525;    0.000
942.217; 3405.525;  146.525;    0.000
942.389; 3450.525;  165.525;    0.000
942.560; 3307.525;  191.525;    0.000
942.732; 3145.525;  240.525;    0.000
942.904; 3173.525;  173.525;    0.000
943.075; 3032.525;  157.525;    0.000
943.247; 2965.525;  155.525;    0.000
943.418; 3019.525;  164.525;    0.000
943.589; 2978.525;  150.525;    0.000
943.761; 3006.525;  143.525;    0.000
943.932; 2908.525;  151.525;    0.000
944.104; 2924.525;  194.525;    0.000
944.275; 2823.525;  154.525;    0.000
944.446; 2841.525;  169.525;    0.000
944.617; 2671.525;  138.525;    0.000
944.789; 2766.525;  158.525;    0.000
944.960; 2778.525;  197.525;    0.000
945.131; 2741.525;  139.525;    0.000
945.302; 2836.525;  169.525;    0.000
945.473; 2637.525;  149.525;    0.000
945.645; 2787.525;  171.525;    0.000
945.816; 2853.525;  167.525;    0.000
945.987; 3156.525;  156.525;    0.000
946.158; 3274.525;  185.525;    0.000
946.329; 3106.525;  201.525;    0.000
946.500; 2907.525;  182.525;    0.000
946.671; 2756.525;  156.525;    0.000
946.842; 2788.525;  190.525;    0.000
947.013; 2739.525;  159.525;    0.000
947.183; 2721.525;  209.525;    0.000
947.354; 2589.525;  171.525;    0.000
947.525; 2516.525;  180.525;    0.000
947.696; 2520.525;  163.525;    0.000
947.867; 2621.525;  168.525;    0.000
948.037; 2618.525;  153.525;    0.000
948.208; 2714.525;  178.525;    0.000
948.379; 2760.525;  192.525;    0.000
948.550; 2606.525;  180.525;    0.000
948.720; 2624.525;  196.525;    0.000
948.891; 2637.525;  173.525;    0.000
949.061; 2661.525;  207.525;    0.000
949.232; 2692.525;  176.525;    0.000
949.403; 2585.525;  152.525;    0.000
949.573; 2514.525;  186.525;    0.000
949.744; 2470.525;  181.525;    0.000
949.914; 2626.525;  174.525;    0.000
950.085; 2604.525;  146.525;    0.000
950.255; 2428.525;  162.525;    0.000
950.425; 2549.525;  189.525;    0.000
950.596; 2529.525;  175.525;    0.000
950.766; 2623.525;  209.525;    0.000
950.936; 2458.525;  201.525;    0.000
951.107; 2442.525;  141.525;    0.000
951.277; 2472.525;  211.525;    0.000
951.447; 2398.525;  218.525;    0.000
951.617; 2547.525;  191.525;    0.000
951.788; 2349.525;  193.525;    0.000
951.958; 2505.525;  217.525;    0.000
952.128; 2350.525;  192.525;    0.000
952.298; 2383.525;  237.525;    0.000
952.468; 2433.525;  194.525;    0.000
952.638; 2374.525;  201.525;    0.000
952.808; 2336.525;  203.525;    0.000
952.978; 2375.525;  216.525;    0.000
953.148; 2343.525;  209.525;    0.000
953.318; 2372.525;  213.525;    0.000
953.488; 2325.525;  161.525;    0.000
953.658; 2340.525;  222.525;    0.000
953.828; 2269.525;  196.525;    0.000
953.998; 2309.525;  227.525;    0.000
954.167; 2296.525;  163.525;    0.000
954.337; 2246.525;  201.525;    0.000
954.507; 2220.525;  227.525;    0.000
954.677; 2224.525;  204.525;    0.000
954.846; 2244.525;  210.525;    0.000
955.016; 2152.525;  198.525;    0.000
955.186; 2223.525;  203.525;    0.000
955.355; 2190.525;  198.525;    0.000
955.525; 2190.525;  198.525;    0.000
955.695; 2176.525;  187.525;    0.000
955.864; 2110.525;  243.525;    0.000
956.034; 2161.525;  192.525;    0.000
956.203; 2111.525;  259.525;    0.000
956.373; 2015.525;  185.525;    0.000
956.542; 2100.525;  230.525;    0.000
956.711; 2085.525;  218.525;    0.000
956.881; 2094.525;  232.525;    0.000
957.050; 2167.525;  246.525;    0.000
957.220; 2029.525;  229.525;    0.000
957.389; 2164.525;  211.525;    0.000
957.558; 2142.525;  173.525;    0.000
957.727; 2111.525;  226.525;    0.000
957.897; 2059.525;  209.525;    0.000
958.066; 2052.525;  217.525;    0.000
958.235; 1950.525;  160.525;    0.000
958.404; 2071.525;  199.525;    0.000
958.573; 2133.525;  223.525;    0.000
958.743; 2015.525;  189.525;    0.000
958.912; 2024.525;  199.525;    0.000
959.081; 2021.525;  216.525;    0.000
959.250; 2021.525;  192.525;    0.000
959.419; 1996.525;  216.525;    0.000
959.588; 2003.525;  209.525;    0.000
959.757; 2044.525;  194.525;    0.000
959.926; 1996.525;  200.525;    0.000
960.094; 1914.525;  174.525;    0.000
960.263; 1990.525;  218.525;    0.000
960.432; 1949.525;  173.525;    0.000
960.601; 1906.525;  177.525;    0.000
960.770; 1960.525;  188.525;    0.000
960.939; 1967.525;  167.525;    0.000
961.107; 1865.525;  195.525;    0.000
961.276; 1946.525;  183.525;    0.000
961.445; 1929.525;  195.525;    0.000
961.613; 2004.525;  198.525;    0.000
961.782; 1853.525;  224.525;    0.000
961.951; 2014.525;  178.525;    0.000
962.119; 2007.525;  214.525;    0.000
962.288; 2038.525;  174.525;    0.000
962.456; 1870.525;  197.525;    0.000
962.625; 1972.525;  212.525;    0.000
962.793; 1995.525;  183.525;    0.000
962.962; 1881.525;  189.525;    0.000
963.130; 1839.525;  151.525;    0.000
963.298; 1869.525;  197.525;    0.000
963.467; 1970.525;  202.525;    0.000
963.635; 1947.525;  172.525;    0.000
963.803; 1874.525;  203.525;    0.000
963.972; 1933.525;  204.525;    0.000
964.140; 1894.525;  193.525;    0.000
964.308; 1887.525;  159.525;    0.000
964.477; 1865.525;  142.525;    0.000
964.645; 1881.525;  202.525;    0.000
964.813; 1852.525;  158.525;    0.000
964.981; 1933.525;  179.525;    0.000
965.149; 2001.525;  176.525;    0.000
965.317; 1986.525;  229.525;    0.000
965.485; 1980.525;  179.525;    0.000
965.653; 1992.525;  205.525;    0.000
965.821; 2072.525;  196.525;    0.000
965.989; 1988.525;  202.525;    0.000
966.157; 1963.525;  199.525;    0.000
966.325; 1924.525;  178.525;    0.000
966.493; 1910.525;  177.525;    0.000
966.661; 1876.525;  172.525;    0.000
966.829; 1848.525;  167.525;    0.000
966.996; 1889.525;  202.525;    0.000
967.164; 1888.525;  175.525;    0.000
967.332; 1915.525;  207.525;    0.000
967.500; 1852.525;  170.525;    0.000
967.667; 1896.525;  222.525;    0.000
967.835; 1858.525;  245.525;    0.000
968.003; 1898.525;  180.525;    0.000
968.170; 1875.525;  222.525;    0.000
968.338; 1900.525;  183.525;    0.000
968.505; 1860.525;  197.525;    0.000
968.673; 1879.525;  209.525;    0.000
968.841; 1799.525;  162.525;    0.000
969.008; 1853.525;  187.525;    0.000
969.175; 1850.525;  204.525;    0.000
969.343; 1870.525;  157.525;    0.000
969.510; 1841.525;  189.525;    0.000
969.678; 1719.525;  153.525;    0.000
969.845; 1832.525;  190.525;    0.000
970.012; 1923.525;  162.525;    0.000
970.180; 1825.525;  223.525;    0.000
970.347; 1800.525;  195.525;    0.000
970.514; 1759.525;  185.525;    0.000
970.681; 1780.525;  187.525;    0.000
970.849; 1831.525;  183.525;    0.000
971.016; 1824.525;  168.525;    0.000
971.183; 1790.525;  160.525;    0.000
971.350; 1775.525;  193.525;    0.000
971.517; 1762.525;  202.525;    0.000
971.684; 1761.525;  242.525;    0.000
971.851; 1752.525;  192.525;    0.000
972.018; 1833.525;  194.525;    0.000
972.185; 1837.525;  193.525;    0.000
972.352; 1791.525;  187.525;    0.000
972.519; 1844.525;  233.525;    0.000
972.686; 1818.525;  186.525;    0.000
972.853; 1834.525;  165.525;    0.000
973.020; 1778.525;  183.525;    0.000
973.186; 1787.525;  186.525;    0.000
973.353; 1830.525;  177.525;    0.000
973.520; 1793.525;  203.525;    0.000
973.687; 1737.525;  211.525;    0.000
973.853; 1801.525;  194.525;    0.000
974.020; 1807.525;  201.525;    0.000
974.187; 1767.525;  187.525;    0.000
974.353; 1794.525;  188.525;    0.000
974.520; 1756.525;  136.525;    0.000
974.687; 1808.525;  169.525;    0.000
974.853; 1765.525;  207.525;    0.000
975.020; 1739.525;  190.525;    0.000
975.186; 1829.525;  182.525;    0.000
975.353; 1768.525;  202.525;    0.000
975.519; 1720.525;  189.525;    0.000
975.685; 1724.525;  176.525;    0.000
975.852; 1763.525;  175.525;    0.000
976.018; 1796.525;  155.525;    0.000
976.184; 1770.525;  179.525;    0.000
976.351; 1832.525;  191.525;    0.000
976.517; 1834.525;  246.525;    0.000
976.683; 1861.525;  222.525;    0.000
976.849; 1790.525;  216.525;    0.000
977.016; 1695.525;  212.525;    0.000
977.182; 1752.525;  192.525;    0.000
977.348; 1721.525;  145.525;    0.000
977.514; 1744.525;  195.525;    0.000
977.680; 1753.525;  210.525;    0.000
977.846; 1777.525;  172.525;    0.000
978.012; 1720.525;  190.525;    0.000
978.178; 1704.525;  201.525;    0.000
978.344; 1748.525;  190.525;    0.000
978.510; 1684.525;  199.525;    0.000
978.676; 1796.525;  174.525;    0.000
978.842; 1770.525;  195.525;    0.000
979.008; 1726.525;  205.525;    0.000
979.174; 1692.525;  187.525;    0.000
979.340; 1766.525;  194.525;    0.000
979.505; 1736.525;  221.525;    0.000
979.671; 1871.525;  178.525;    0.000
979.837; 1745.525;  215.525;    0.000
980.003; 1752.525;  176.525;    0.000
980.168; 1785.525;  185.525;    0.000
980.334; 1880.525;  165.525;    0.000
980.499; 1797.525;  231.525;    0.000
980.665; 1874.525;  238.525;    0.000
980.831; 1746.525;  194.525;    0.000
980.996; 1724.525;  169.525;    0.000
981.162; 1892.525;  199.525;    0.000
981.327; 1766.525;  158.525;    0.000
981.493; 1839.525;  193.525;    0.000
981.658; 1763.525;  181.525;    0.000
981.823; 1814.525;  199.525;    0.000
981.989; 1854.525;  186.525;    0.000
982.154; 1779.525;  225.525;    0.000
982.319; 1803.525;  191.525;    0.000
982.485; 1849.525;  205.525;    0.000
982.650; 1905.525;  234.525;    0.000
982.815; 1811.525;  193.525;    0.000
982.980; 1803.525;  177.525;    0.000
983.146; 1849.525;  212.525;    0.000
983.311; 1796.525;  177.525;    0.000
983.476; 1820.525;  185.525;    0.000
983.641; 1787.525;  149.525;    0.000
983.806; 1869.525;  175.525;    0.000
983.971; 1802.525;  234.525;    0.000
984.136; 1798.525;  191.525;    0.000
984.301; 1704.525;  215.525;    0.000
984.466; 1793.525;  207.525;    0.000
984.631; 1766.525;  206.525;    0.000
984.796; 1821.525;  229.525;    0.000
984.961; 1751.525;  220.525;    0.000
985.126; 1824.525;  204.525;    0.000
985.291; 1784.525;  210.525;    0.000
985.455; 1711.525;  193.525;    0.000
985.620; 1742.525;  207.525;    0.000
985.785; 1759.525;  188.525;    0.000
985.950; 1762.525;  168.525;    0.000
986.114; 1780.525;  239.525;    0.000
986.279; 1821.525;  223.525;    0.000
986.444; 1895.525;  154.525;    0.000
986.608; 1985.525;  232.525;    0.000
986.773; 1887.525;  214.525;    0.000
986.937; 2012.525;  220.525;    0.000
987.102; 1892.525;  224.525;    0.000
987.266; 1829.525;  157.525;    0.000
987.431; 1874.525;  246.525;    0.000
987.595; 1901.525;  203.525;    0.000
987.760; 1814.525;  202.525;    0.000
987.924; 1854.525;  208.525;    0.000
988.088; 1828.525;  169.525;    0.000
988.253; 1839.525;  237.525;    0.000
988.417; 1818.525;  202.525;    0.000
988.581; 1753.525;  215.525;    0.000
988.746; 1769.525;  210.525;    0.000
988.910; 1690.525;  191.525;    0.000
989.074; 1683.525;  197.525;    0.000
989.238; 1717.525;  191.525;    0.000
989.402; 1728.525;  222.525;    0.000
989.566; 1678.525;  221.525;    0.000
989.731; 1717.525;  216.525;    0.000
989.895; 1709.525;  183.525;    0.000
990.059; 1622.525;  150.525;    0.000
990.223; 1642.525;  183.525;    0.000
990.387; 1697.525;  241.525;    0.000
990.551; 1628.525;  198.525;    0.000
990.714; 1618.525;  176.525;    0.000
990.878; 1665.525;  203.525;    0.000
991.042; 1653.525;  146.525;    0.000
991.206; 1646.525;  199.525;    0.000
991.370; 1640.525;  223.525;    0.000
991.534; 1635.525;  158.525;    0.000
991.697; 1654.525;  182.525;    0.000
991.861; 1622.525;  195.525;    0.000
992.025; 1643.525;  206.525;    0.000
992.188; 1554.525;  174.525;    0.000
992.352; 1569.525;  183.525;    0.000
992.516; 1635.525;  181.525;    0.000
992.679; 1561.525;  162.525;    0.000
992.843; 1571.525;  173.525;    0.000
993.006; 1645.525;  189.525;    0.000
993.170; 1646.525;  200.525;    0.000
993.333; 1595.525;  167.525;    0.000
993.497; 1562.525;  217.525;    0.000
993.660; 1627.525;  179.525;    0.000
993.824; 1616.525;  195.525;    0.000
993.987; 1607.525;  186.525;    0.000
994.150; 1633.525;  164.525;    0.000
994.314; 1567.525;  215.525;    0.000
994.477; 1491.525;  186.525;    0.000
994.640; 1574.525;  192.525;    0.000
994.803; 1579.525;  215.525;    0.000
994.967; 1586.525;  208.525;    0.000
995.130; 1593.525;  196.525;    0.000
995.293; 1595.525;  221.525;    0.000
995.456; 1601.525;  164.525;    0.000
995.619; 1571.525;  224.525;    0.000
995.782; 1507.525;  184.525;    0.000
995.945; 1596.525;  220.525;    0.000
996.108; 1531.525;  187.525;    0.000
996.271; 1508.525;  192.525;    0.000
996.434; 1529.525;  162.525;    0.000
996.597; 1525.525;  148.525;    0.000
996.760; 1584.525;  186.525;    0.000
996.923; 1543.525;  154.525;    0.000
997.086; 1508.525;  156.525;    0.000
997.248; 1586.525;  215.525;    0.000
997.411; 1560.525;  160.525;    0.000
997.574; 1542.525;  159.525;    0.000
997.737; 1549.525;  179.525;    0.000
997.899; 1544.525;  184.525;    0.000
998.062; 1543.525;  180.525;    0.000
998.225; 1560.525;  168.525;    0.000
998.387; 1451.525;  192.525;    0.000
998.550; 1482.525;  178.525;    0.000
998.712; 1528.525;  192.525;    0.000
998.875; 1539.525;  230.525;    0.000
999.037; 1496.525;  200.525;    0.000
999.200; 1537.525;  196.525;    0.000
999.362; 1563.525;  173.525;    0.000
999.525; 1558.525;  196.525;    0.000
999.687; 1547.525;  159.525;    0.000
999.849; 1528.525;  180.525;    0.000
1000.012; 1470.525;  210.525;    0.000
1000.174; 1589.525;  175.525;    0.000
1000.336; 1547.525;  174.525;    0.000
1000.499; 1545.525;  180.525;    0.000
1000.661; 1574.525;  204.525;    0.000
1000.823; 1505.525;  181.525;    0.000
1000.985; 1520.525;  178.525;    0.000
1001.147; 1625.525;  215.525;    0.000
1001.309; 1604.525;  212.525;    0.000
1001.471; 1555.525;  192.525;    0.000
1001.633; 1562.525;  207.525;    0.000
1001.796; 1558.525;  211.525;    0.000
1001.958; 1624.525;  200.525;    0.000
1002.119; 1694.525;  210.525;    0.000
1002.281; 1635.525;  204.525;    0.000
1002.443; 1687.525;  230.525;    0.000
1002.605; 1645.525;  178.525;    0.000
1002.767; 1746.525;  228.525;    0.000
1002.929; 1731.525;  199.525;    0.000
1003.091; 1805.525;  220.525;    0.000
1003.252; 1885.525;  219.525;    0.000
1003.414; 1848.525;  213.525;    0.000
1003.576; 1923.525;  202.525;    0.000
1003.738; 1905.525;  184.525;    0.000
1003.899; 2000.525;  218.525;    0.000
1004.061; 2100.525;  210.525;    0.000
1004.222; 2132.525;  179.525;    0.000
1004.384; 2217.525;  183.525;    0.000
1004.546; 2214.525;  206.525;    0.000
1004.707; 2240.525;  191.525;    0.000
1004.869; 2274.525;  197.525;    0.000
1005.030; 2240.525;  186.525;    0.000
1005.191; 2192.525;  188.525;    0.000
1005.353; 2177.525;  215.525;    0.000
1005.514; 2080.525;  184.525;    0.000
1005.675; 1995.525;  209.525;    0.000
1005.837; 2010.525;  239.525;    0.000
1005.998; 1948.525;  218.525;    0.000
1006.159; 1968.525;  212.525;    0.000
1006.321; 2002.525;  220.525;    0.000
1006.482; 2035.525;  201.525;    0.000
1006.643; 2143.525;  222.525;    0.000
1006.804; 2120.525;  191.525;    0.000
1006.965; 2172.525;  214.525;    0.000
1007.126; 2169.525;  214.525;    0.000
1007.287; 2215.525;  243.525;    0.000
1007.448; 2163.525;  251.525;    0.000
1007.609; 2168.525;  244.525;    0.000
1007.770; 2146.525;  211.525;    0.000
1007.931; 2154.525;  225.525;    0.000
1008.092; 2153.525;  188.525;    0.000
1008.253; 2235.525;  224.525;    0.000
1008.414; 2256.525;  198.525;    0.000
1008.575; 2289.525;  244.525;    0.000
1008.736; 2279.525;  219.525;    0.000
1008.896; 2228.525;  206.525;    0.000
1009.057; 2327.525;  258.525;    0.000
1009.218; 2220.525;  209.525;    0.000
1009.379; 2400.525;  204.525;    0.000
1009.539; 2379.525;  242.525;    0.000
1009.700; 2360.525;  205.525;    0.000
1009.860; 2451.525;  211.525;    0.000
1010.021; 2488.525;  219.525;    0.000
1010.182; 2516.525;  206.525;    0.000
1010.342; 2509.525;  219.525;    0.000
1010.503; 2656.525;  231.525;    0.000
1010.663; 3021.525;  260.525;    0.000
1010.823; 2988.525;  200.525;    0.000
1010.984; 3220.525;  189.525;    0.000
1011.144; 3334.525;  234.525;    0.000
1011.305; 3506.525;  212.525;    0.000
1011.465; 3814.525;  202.525;    0.000
1011.625; 4018.525;  236.525;    0.000
1011.785; 3942.525;  203.525;    0.000
1011.946; 3905.525;  195.525;    0.000
1012.106; 3719.525;  176.525;    0.000
1012.266; 3695.525;  211.525;    0.000
1012.426; 3539.525;  244.525;    0.000
1012.586; 3429.525;  202.525;    0.000
1012.746; 3464.525;  234.525;    0.000
1012.906; 3323.525;  246.525;    0.000
1013.066; 3327.525;  232.525;    0.000
1013.226; 3255.525;  248.525;    0.000
1013.386; 3184.525;  231.525;    0.000
1013.546; 3132.525;  233.525;    0.000
1013.706; 3059.525;  211.525;    0.000
1013.866; 2965.525;  240.525;    0.000
1014.026; 3047.525;  188.525;    0.000
1014.186; 2882.525;  186.525;    0.000
1014.346; 3010.525;  203.525;    0.000
1014.505; 2931.525;  238.525;    0.000
1014.665; 2964.525;  206.525;    0.000
1014.825; 2961.525;  200.525;    0.000
1014.985; 2909.525;  215.525;    0.000
1015.144; 2899.525;  250.525;    0.000
1015.304; 3015.525;  195.525;    0.000
1015.464; 2972.525;  237.525;    0.000
1015.623; 2842.525;  232.525;    0.000
1015.783; 2990.525;  220.525;    0.000
1015.942; 3053.525;  219.525;    0.000
1016.102; 3049.525;  202.525;    0.000
1016.261; 3000.525;  225.525;    0.000
1016.420; 3195.525;  246.525;    0.000
1016.580; 3333.525;  226.525;    0.000
1016.739; 3324.525;  214.525;    0.000
1016.899; 3132.525;  205.525;    0.000
1017.058; 3256.525;  217.525;    0.000
1017.217; 3323.525;  199.525;    0.000
1017.376; 3302.525;  219.525;    0.000
1017.536; 2972.525;  209.525;    0.000
1017.695; 3134.525;  213.525;    0.000
1017.854; 3064.525;  187.525;    0.000
1018.013; 2999.525;  222.525;    0.000
1018.172; 2945.525;  204.525;    0.000
1018.331; 2912.525;  195.525;    0.000
1018.490; 2953.525;  213.525;    0.000
1018.649; 3148.525;  216.525;    0.000
1018.808; 3137.525;  227.525;    0.000
1018.967; 3118.525;  206.525;    0.000
1019.126; 3242.525;  206.525;    0.000
1019.285; 3194.525;  219.525;    0.000
1019.444; 3082.525;  218.525;    0.000
1019.603; 3100.525;  206.525;    0.000
1019.762; 2921.525;  189.525;    0.000
1019.921; 2969.525;  217.525;    0.000
1020.079; 3111.525;  200.525;    0.000
1020.238; 3303.525;  219.525;    0.000
1020.397; 3216.525;  227.525;    0.000
1020.555; 2974.525;  207.525;    0.000
1020.714; 3008.525;  253.525;    0.000
1020.873; 3209.525;  230.525;    0.000
1021.031; 3187.525;  232.525;    0.000
1021.190; 3098.525;  226.525;    0.000
1021.348; 3073.525;  224.525;    0.000
1021.507; 3144.525;  215.525;    0.000
1021.665; 3296.525;  233.525;    0.000
1021.824; 3183.525;  196.525;    0.000
1021.982; 3109.525;  215.525;    0.000
1022.141; 3106.525;  200.525;    0.000
1022.299; 3446.525;  200.525;    0.000
1022.457; 3496.525;  179.525;    0.000
1022.616; 3301.525;  226.525;    0.000
1022.774; 3032.525;  216.525;    0.000
1022.932; 3163.525;  212.525;    0.000
1023.090; 3497.525;  220.525;    0.000
1023.249; 3352.525;  194.525;    0.000
1023.407; 3264.525;  227.525;    0.000
1023.565; 3100.525;  190.525;    0.000
1023.723; 3213.525;  190.525;    0.000
1023.881; 3374.525;  214.525;    0.000
1024.039; 3466.525;  179.525;    0.000
1024.197; 3112.525;  274.525;    0.000
1024.355; 3174.525;  269.525;    0.000
1024.513; 3190.525;  259.525;    0.000
1024.671; 3485.525;  211.525;    0.000
1024.829; 3423.525;  230.525;    0.000
1024.987; 3236.525;  239.525;    0.000
1025.145; 3097.525;  231.525;    0.000
1025.302; 3169.525;  212.525;    0.000
1025.460; 3414.525;  224.525;    0.000
1025.618; 3437.525;  217.525;    0.000
1025.776; 3298.525;  232.525;    0.000
1025.933; 3054.525;  212.525;    0.000
1026.091; 3216.525;  214.525;    0.000
1026.249; 3505.525;  224.525;    0.000
1026.406; 3608.525;  219.525;    0.000
1026.564; 3383.525;  262.525;    0.000
1026.721; 3339.525;  206.525;    0.000
1026.879; 3232.525;  227.525;    0.000
1027.036; 3498.525;  234.525;    0.000
1027.194; 3678.525;  256.525;    0.000
1027.351; 3609.525;  229.525;    0.000
1027.509; 3365.525;  253.525;    0.000
1027.666; 3318.525;  248.525;    0.000
1027.823; 3571.525;  215.525;    0.000
1027.981; 3643.525;  248.525;    0.000
1028.138; 3846.525;  257.525;    0.000
1028.295; 3390.525;  215.525;    0.000
1028.452; 3329.525;  236.525;    0.000
1028.609; 3283.525;  240.525;    0.000
1028.767; 3545.525;  258.525;    0.000
1028.924; 3849.525;  211.525;    0.000
1029.081; 3551.525;  226.525;    0.000
1029.238; 3580.525;  228.525;    0.000
1029.395; 3287.525;  264.525;    0.000
1029.552; 3494.525;  227.525;    0.000
1029.709; 3728.525;  232.525;    0.000
1029.866; 3813.525;  223.525;    0.000
1030.023; 3704.525;  220.525;    0.000
1030.180; 3425.525;  222.525;    0.000
1030.337; 3471.525;  224.525;    0.000
1030.494; 3550.525;  228.525;    0.000
1030.650; 3718.525;  242.525;    0.000
1030.807; 3938.525;  214.525;    0.000
1030.964; 3616.525;  207.525;    0.000
1031.121; 3527.525;  236.525;    0.000
1031.277; 3453.525;  206.525;    0.000
1031.434; 3589.525;  249.525;    0.000
1031.591; 3991.525;  253.525;    0.000
1031.747; 3898.525;  240.525;    0.000
1031.904; 3801.525;  212.525;    0.000
1032.060; 3686.525;  185.525;    0.000
1032.217; 3712.525;  201.525;    0.000
1032.373; 3931.525;  207.525;    0.000
1032.530; 3939.525;  226.525;    0.000
1032.686; 4386.525;  226.525;    0.000
1032.843; 4205.525;  203.525;    0.000
1032.999; 4178.525;  233.525;    0.000
1033.155; 4119.525;  232.525;    0.000
1033.312; 4209.525;  239.525;    0.000
1033.468; 4957.525;  207.525;    0.000
1033.624; 5074.525;  238.525;    0.000
1033.780; 5441.525;  255.525;    0.000
1033.937; 5189.525;  188.525;    0.000
1034.093; 4868.525;  244.525;    0.000
1034.249; 4954.525;  182.525;    0.000
1034.405; 5061.525;  251.525;    0.000
1034.561; 5650.525;  250.525;    0.000
1034.717; 5672.525;  208.525;    0.000
1034.873; 5634.525;  210.525;    0.000
1035.029; 5611.525;  245.525;    0.000
1035.185; 5312.525;  230.525;    0.000
1035.341; 5263.525;  209.525;    0.000
1035.497; 5686.525;  244.525;    0.000
1035.653; 5825.525;  229.525;    0.000
1035.809; 6369.525;  275.525;    0.000
1035.964; 6670.525;  203.525;    0.000
1036.120; 6273.525;  215.525;    0.000
1036.276; 6301.525;  228.525;    0.000
1036.432; 6082.525;  183.525;    0.000
1036.587; 5886.525;  214.525;    0.000
1036.743; 6191.525;  240.525;    0.000
1036.899; 6728.525;  202.525;    0.000
1037.054; 6762.525;  182.525;    0.000
1037.210; 7739.525;  228.525;    0.000
1037.365; 7303.525;  239.525;    0.000
1037.521; 6753.525;  230.525;    0.000
1037.676; 6712.525;  217.525;    0.000
1037.832; 6407.525;  235.525;    0.000
1037.987; 6525.525;  210.525;    0.000
1038.143; 6725.525;  206.525;    0.000
1038.298; 7624.525;  177.525;    0.000
1038.453; 7462.525;  215.525;    0.000
1038.609; 8291.525;  210.525;    0.000
1038.764; 8242.525;  227.525;    0.000
1038.919; 7530.525;  197.525;    0.000
1039.074; 7614.525;  183.525;    0.000
1039.229; 7113.525;  218.525;    0.000
1039.385; 7223.525;  251.525;    0.000
1039.540; 7267.525;  222.525;    0.000
1039.695; 8315.525;  215.525;    0.000
1039.850; 8627.525;  204.525;    0.000
1040.005; 9048.525;  241.525;    0.000
1040.160; 9553.525;  180.525;    0.000
1040.315; 9261.525;  197.525;    0.000
1040.470; 8771.525;  180.525;    0.000
1040.625; 8551.525;  196.525;    0.000
1040.780; 8128.525;  245.525;    0.000
1040.935; 8204.525;  204.525;    0.000
1041.089; 8676.525;  213.525;    0.000
1041.244;10015.525;  200.525;    0.000
1041.399;10051.525;  212.525;    0.000
1041.554;10902.525;  239.525;    0.000
1041.708;11996.525;  238.525;    0.000
1041.863;11320.525;  213.525;    0.000
1042.018;11009.525;  236.525;    0.000
1042.172;10877.525;  238.525;    0.000
1042.327;10147.525;  254.525;    0.000
1042.481;10370.525;  197.525;    0.000
1042.636;10440.525;  205.525;    0.000
1042.791;10546.525;  218.525;    0.000
1042.945;12442.525;  261.525;    0.000
1043.099;13625.525;  201.525;    0.000
1043.254;13331.525;  191.525;    0.000
1043.408;14044.525;  279.525;    0.000
1043.563;14785.525;  203.525;    0.000
1043.717;13889.525;  229.525;    0.000
1043.871;12920.525;  213.525;    0.000
1044.025;12641.525;  240.525;    0.000
1044.180;12166.525;  220.525;    0.000
1044.334;12244.525;  268.525;    0.000
1044.488;13416.525;  261.525;    0.000
1044.642;14180.525;  205.525;    0.000
1044.796;15372.525;  240.525;    0.000
1044.950;16817.525;  258.525;    0.000
1045.104;18496.525;  218.525;    0.000
1045.258;18004.525;  213.525;    0.000
1045.412;18256.525;  223.525;    0.000
1045.566;17430.525;  240.525;    0.000
1045.720;16820.525;  235.525;    0.000
1045.874;15600.525;  221.525;    0.000
1046.028;14594.525;  247.525;    0.000
1046.182;15162.525;  200.525;    0.000
1046.336;15535.525;  220.525;    0.000
1046.489;15578.525;  228.525;    0.000
1046.643;16694.525;  249.525;    0.000
1046.797;17773.525;  230.525;    0.000
1046.951;18163.525;  234.525;    0.000
1047.104;18621.525;  262.525;    0.000
1047.258;19443.525;  210.525;    0.000
1047.411;20611.525;  235.525;    0.000
1047.565;20124.525;  237.525;    0.000
1047.719;19795.525;  237.525;    0.000
1047.872;18970.525;  225.525;    0.000
1048.026;18105.525;  237.525;    0.000
1048.179;17775.525;  220.525;    0.000
1048.332;17210.525;  219.525;    0.000
1048.486;17635.525;  195.525;    0.000
1048.639;18239.525;  213.525;    0.000
1048.792;18578.525;  245.525;    0.000
1048.946;20309.525;  234.525;    0.000
1049.099;21431.525;  226.525;    0.000
1049.252;21911.525;  282.525;    0.000
1049.406;20767.525;  255.525;    0.000
1049.559;21245.525;  223.525;    0.000
1049.712;24428.525;  253.525;    0.000
1049.865;25591.525;  271.525;    0.000
1050.018;24199.525;  241.525;    0.000
1050.171;21765.525;  202.525;    0.000
1050.324;21006.525;  250.525;    0.000
1050.477;22084.525;  251.525;    0.000
1050.630;24373.525;  216.525;    0.000
1050.783;24551.525;  205.525;    0.000
1050.936;22386.525;  219.525;    0.000
1051.089;21987.525;  247.525;    0.000
1051.242;22726.525;  238.525;    0.000
1051.394;25202.525;  252.525;    0.000
1051.547;26007.525;  245.525;    0.000
1051.700;24579.525;  206.525;    0.000
1051.853;23753.525;  270.525;    0.000
1052.005;25471.525;  245.525;    0.000
1052.158;28415.525;  290.525;    0.000
1052.311;30773.525;  237.525;    0.000
1052.463;29035.525;  271.525;    0.000
1052.616;25674.525;  255.525;    0.000
1052.768;23077.525;  257.525;    0.000
1052.921;23093.525;  289.525;    0.000
1053.073;25088.525;  287.525;    0.000
1053.226;28787.525;  268.525;    0.000
1053.378;32993.523;  294.525;    0.000
1053.531;33618.523;  255.525;    0.000
1053.683;31066.525;  293.525;    0.000
1053.835;26680.525;  274.525;    0.000
1053.988;21127.525;  282.525;    0.000
1054.140; 3826.525;  291.525;    0.000
1054.292; 1013.525;  292.525;    0.000
1054.444;  861.525;  299.525;    0.000
1054.596;  726.525;  319.525;    0.000
1054.749;  723.525;  295.525;    0.000
1054.901;  659.525;  266.525;    0.000
1055.053;  658.525;  300.525;    0.000
1055.205;  612.525;  290.525;    0.000
1055.357;  619.525;  304.525;    0.000
1055.509;  555.525;  292.525;    0.000
1055.661;  603.525;  339.525;    0.000
1055.813;  551.525;  306.525;    0.000
1055.965;  554.525;  293.525;    0.000
1056.116;  579.525;  300.525;    0.000
1056.268;  541.525;  306.525;    0.000
1056.420;  561.525;  288.525;    0.000

