
Integration time [ms]:   0.300
Averaging Nr. [scans]: 1
Smoothing Nr. [pixels]: 0
Data measured with spectrometer [name]: NIR
Wave   ;Sample   ;Dark     ;Reference
[nm]   ;[counts] ;[counts] ;[counts] 

691.496;    3.225;  155.525;    0.000
691.696;   78.225;  186.525;    0.000
691.896;   28.225;  113.525;    0.000
692.096;   35.225;  169.525;    0.000
692.296;    7.225;  119.525;    0.000
692.496;  111.225;  182.525;    0.000
692.695;   17.225;  119.525;    0.000
692.895;   84.225;  183.525;    0.000
693.095;   13.225;  119.525;    0.000
693.295;   79.225;  156.525;    0.000
693.495;   97.225;  145.525;    0.000
693.695;   54.225;  144.525;    0.000
693.894;   40.225;  174.525;    0.000
694.094;   64.225;  148.525;    0.000
694.294;   51.225;  114.525;    0.000
694.494;  458.225;  137.525;    0.000
694.693; 4055.225;  112.525;    0.000
694.893; 4410.225;   85.525;    0.000
695.093; 4464.225;  152.525;    0.000
695.293; 4403.225;  159.525;    0.000
695.492; 4535.225;  131.525;    0.000
695.692; 4389.225;  134.525;    0.000
695.891; 4533.225;  161.525;    0.000
696.091; 4594.225;  180.525;    0.000
696.291; 4589.225;  120.525;    0.000
696.490; 4631.225;  146.525;    0.000
696.690; 4614.225;  145.525;    0.000
696.889; 4680.225;  171.525;    0.000
697.089; 4565.225;   98.525;    0.000
697.288; 4616.225;  172.525;    0.000
697.488; 4629.225;  137.525;    0.000
697.687; 4685.225;  171.525;    0.000
697.887; 4634.225;  142.525;    0.000
698.086; 4700.225;  159.525;    0.000
698.286; 4628.225;  122.525;    0.000
698.485; 4702.225;  121.525;    0.000
698.684; 4546.225;   94.525;    0.000
698.884; 4681.225;  131.525;    0.000
699.083; 4684.225;  112.525;    0.000
699.282; 4586.225;  119.525;    0.000
699.482; 4753.225;  117.525;    0.000
699.681; 4667.225;  115.525;    0.000
699.880; 4826.225;  166.525;    0.000
700.080; 4782.225;  194.525;    0.000
700.279; 4697.225;   98.525;    0.000
700.478; 4798.225;  159.525;    0.000
700.677; 4571.225;  134.525;    0.000
700.877; 4769.225;  171.525;    0.000
701.076; 4835.225;  141.525;    0.000
701.275; 4674.225;  119.525;    0.000
701.474; 4793.225;  132.525;    0.000
701.673; 4637.225;  141.525;    0.000
701.872; 4670.225;  158.525;    0.000
702.071; 4731.225;  129.525;    0.000
702.271; 4773.225;  122.525;    0.000
702.470; 4802.225;  158.525;    0.000
702.669; 4822.225;  145.525;    0.000
702.868; 4875.225;  135.525;    0.000
703.067; 4993.225;  169.525;    0.000
703.266; 4862.225;  125.525;    0.000
703.465; 4833.225;  153.525;    0.000
703.664; 4815.225;  113.525;    0.000
703.863; 4903.225;  170.525;    0.000
704.062; 4932.225;  115.525;    0.000
704.260; 5023.225;  133.525;    0.000
704.459; 4824.225;  123.525;    0.000
704.658; 4837.225;  105.525;    0.000
704.857; 4835.225;  125.525;    0.000
705.056; 4842.225;  108.525;    0.000
705.255; 4787.225;  117.525;    0.000
705.454; 4814.225;  126.525;    0.000
705.652; 4938.225;  137.525;    0.000
705.851; 5007.225;   95.525;    0.000
706.050; 4881.225;  120.525;    0.000
706.249; 4931.225;   81.525;    0.000
706.447; 4993.225;  105.525;    0.000
706.646; 4867.225;  107.525;    0.000
706.845; 4899.225;  104.525;    0.000
707.043; 4926.225;  136.525;    0.000
707.242; 4909.225;   89.525;    0.000
707.441; 5072.225;  147.525;    0.000
707.639; 5079.225;  156.525;    0.000
707.838; 5037.225;  114.525;    0.000
708.037; 5021.225;  100.525;    0.000
708.235; 4946.225;  103.525;    0.000
708.434; 5006.225;  102.525;    0.000
708.632; 5015.225;  100.525;    0.000
708.831; 4988.225;  121.525;    0.000
709.029; 5114.225;  102.525;    0.000
709.228; 5043.225;   88.525;    0.000
709.426; 5065.225;  135.525;    0.000
709.625; 5089.225;  128.525;    0.000
709.823; 4970.225;  123.525;    0.000
710.022; 5195.225;  137.525;    0.000
710.220; 5131.225;  134.525;    0.000
710.418; 5252.225;  122.525;    0.000
710.617; 5242.225;   64.525;    0.000
710.815; 5213.225;   94.525;    0.000
711.013; 5333.225;  127.525;    0.000
711.212; 5147.225;  105.525;    0.000
711.410; 5320.225;  117.525;    0.000
711.608; 5305.225;  114.525;    0.000
711.807; 5348.225;  119.525;    0.000
712.005; 5178.225;   92.525;    0.000
712.203; 5215.225;   95.525;    0.000
712.401; 5218.225;  107.525;    0.000
712.599; 5350.225;  127.525;    0.000
712.798; 5388.225;  120.525;    0.000
712.996; 5189.225;   76.525;    0.000
713.194; 5345.225;  118.525;    0.000
713.392; 5251.225;   60.525;    0.000
713.590; 5415.225;   92.525;    0.000
713.788; 5354.225;  110.525;    0.000
713.986; 5400.225;  130.525;    0.000
714.184; 5542.225;   71.525;    0.000
714.382; 5509.225;   86.525;    0.000
714.580; 5369.225;   74.525;    0.000
714.778; 5685.225;  133.525;    0.000
714.976; 5726.225;   81.525;    0.000
715.174; 5925.225;  100.525;    0.000
715.372; 6178.225;  141.525;    0.000
715.570; 6602.225;   73.525;    0.000
715.768; 7114.225;  119.525;    0.000
715.966; 7111.225;   81.525;    0.000
716.164; 6960.225;  130.525;    0.000
716.362; 6553.225;  125.525;    0.000
716.560; 6473.225;  109.525;    0.000
716.758; 6213.225;   96.525;    0.000
716.955; 6167.225;   83.525;    0.000
717.153; 6244.225;   87.525;    0.000
717.351; 6040.225;  123.525;    0.000
717.549; 5988.225;  121.525;    0.000
717.746; 5872.225;  128.525;    0.000
717.944; 5869.225;  132.525;    0.000
718.142; 5988.225;  120.525;    0.000
718.340; 5876.225;   94.525;    0.000
718.537; 5846.225;   95.525;    0.000
718.735; 5944.225;  152.525;    0.000
718.933; 5886.225;  124.525;    0.000
719.130; 5900.225;  114.525;    0.000
719.328; 5892.225;   63.525;    0.000
719.525; 5915.225;  146.525;    0.000
719.723; 5752.225;   96.525;    0.000
719.920; 5767.225;  120.525;    0.000
720.118; 5692.225;   59.525;    0.000
720.316; 5958.225;  116.525;    0.000
720.513; 5941.225;  127.525;    0.000
720.711; 5868.225;  110.525;    0.000
720.908; 5813.225;   92.525;    0.000
721.105; 5974.225;  138.525;    0.000
721.303; 5861.225;   90.525;    0.000
721.500; 5810.225;  126.525;    0.000
721.698; 5854.225;  103.525;    0.000
721.895; 6032.225;  206.525;    0.000
722.092; 5755.225;   63.525;    0.000
722.290; 5862.225;  123.525;    0.000
722.487; 5835.225;  137.525;    0.000
722.684; 5843.225;  126.525;    0.000
722.882; 5936.225;  119.525;    0.000
723.079; 5919.225;  132.525;    0.000
723.276; 5833.225;   98.525;    0.000
723.473; 5693.225;   97.525;    0.000
723.671; 5895.225;   43.525;    0.000
723.868; 5954.225;  142.525;    0.000
724.065; 5959.225;  102.525;    0.000
724.262; 5892.225;  119.525;    0.000
724.459; 6184.225;   73.525;    0.000
724.656; 5901.225;  128.525;    0.000
724.854; 5965.225;  135.525;    0.000
725.051; 5867.225;   81.525;    0.000
725.248; 5908.225;   88.525;    0.000
725.445; 5976.225;  129.525;    0.000
725.642; 6086.225;   76.525;    0.000
725.839; 6076.225;  134.525;    0.000
726.036; 5983.225;  101.525;    0.000
726.233; 6090.225;   68.525;    0.000
726.430; 5978.225;  121.525;    0.000
726.627; 6155.225;  136.525;    0.000
726.824; 5992.225;   87.525;    0.000
727.021; 6151.225;  141.525;    0.000
727.218; 6001.225;   92.525;    0.000
727.414; 6115.225;  121.525;    0.000
727.611; 6089.225;  100.525;    0.000
727.808; 6094.225;  130.525;    0.000
728.005; 6123.225;   83.525;    0.000
728.202; 6132.225;  120.525;    0.000
728.399; 6077.225;   75.525;    0.000
728.595; 6000.225;  148.525;    0.000
728.792; 6057.225;   79.525;    0.000
728.989; 6153.225;   86.525;    0.000
729.186; 6098.225;   80.525;    0.000
729.382; 6060.225;   72.525;    0.000
729.579; 6230.225;  112.525;    0.000
729.776; 6082.225;  106.525;    0.000
729.972; 6202.225;   77.525;    0.000
730.169; 6215.225;  118.525;    0.000
730.366; 6044.225;   92.525;    0.000
730.562; 6119.225;  104.525;    0.000
730.759; 6165.225;   95.525;    0.000
730.955; 6119.225;   85.525;    0.000
731.152; 6089.225;   79.525;    0.000
731.348; 6158.225;   72.525;    0.000
731.545; 6125.225;   56.525;    0.000
731.741; 6200.225;  106.525;    0.000
731.938; 6101.225;  113.525;    0.000
732.134; 6272.225;  106.525;    0.000
732.331; 6027.225;   82.525;    0.000
732.527; 6206.225;   80.525;    0.000
732.724; 6204.225;   97.525;    0.000
732.920; 6176.225;  127.525;    0.000
733.116; 6150.225;  115.525;    0.000
733.313; 6279.225;  153.525;    0.000
733.509; 6373.225;   76.525;    0.000
733.705; 6134.225;  159.525;    0.000
733.902; 6288.225;   82.525;    0.000
734.098; 6315.225;   70.525;    0.000
734.294; 6277.225;  105.525;    0.000
734.490; 6294.225;  110.525;    0.000
734.687; 6245.225;  102.525;    0.000
734.883; 6378.225;   77.525;    0.000
735.079; 6273.225;   93.525;    0.000
735.275; 6284.225;  109.525;    0.000
735.471; 6253.225;   99.525;    0.000
735.667; 6252.225;  107.525;    0.000
735.863; 6461.225;   89.525;    0.000
736.060; 6414.225;  105.525;    0.000
736.256; 6484.225;  113.525;    0.000
736.452; 6206.225;   90.525;    0.000
736.648; 6400.225;   88.525;    0.000
736.844; 6376.225;  129.525;    0.000
737.040; 6423.225;  139.525;    0.000
737.236; 6424.225;  129.525;    0.000
737.432; 6579.225;   67.525;    0.000
737.628; 6656.225;  104.525;    0.000
737.824; 6550.225;  111.525;    0.000
738.019; 6519.225;  116.525;    0.000
738.215; 6596.225;  135.525;    0.000
738.411; 6601.225;  118.525;    0.000
738.607; 6644.225;   58.525;    0.000
738.803; 6549.225;   32.525;    0.000
738.999; 6757.225;  120.525;    0.000
739.195; 6528.225;   76.525;    0.000
739.390; 6640.225;  119.525;    0.000
739.586; 6678.225;   83.525;    0.000
739.782; 6784.225;  134.525;    0.000
739.978; 6806.225;  122.525;    0.000
740.173; 6746.225;   96.525;    0.000
740.369; 6864.225;   86.525;    0.000
740.565; 6915.225;  122.525;    0.000
740.760; 7028.225;   99.525;    0.000
740.956; 7013.225;  137.525;    0.000
741.152; 6983.225;  108.525;    0.000
741.347; 7062.225;   65.525;    0.000
741.543; 7295.225;   73.525;    0.000
741.738; 7440.225;  142.525;    0.000
741.934; 7556.225;  131.525;    0.000
742.129; 8225.225;   66.525;    0.000
742.325; 9591.225;  143.525;    0.000
742.520;11043.225;  119.525;    0.000
742.716;10072.225;  109.525;    0.000
742.911; 9364.225;   62.525;    0.000
743.107; 9042.225;  119.525;    0.000
743.302; 8891.225;   78.525;    0.000
743.498; 9019.225;  130.525;    0.000
743.693; 8902.225;   75.525;    0.000
743.888; 9492.225;  135.525;    0.000
744.084;11319.225;  106.525;    0.000
744.279;14873.225;  101.525;    0.000
744.474;15023.225;   91.525;    0.000
744.670;12895.225;  144.525;    0.000
744.865;11530.225;  128.525;    0.000
745.060;10509.225;   63.525;    0.000
745.255;10166.225;  155.525;    0.000
745.451; 9843.225;  110.525;    0.000
745.646; 9561.225;  150.525;    0.000
745.841; 9485.225;  128.525;    0.000
746.036; 9684.225;  110.525;    0.000
746.231; 9885.225;  126.525;    0.000
746.426;10553.225;   83.525;    0.000
746.622;12720.225;  157.525;    0.000
746.817;18060.225;  112.525;    0.000
747.012;20810.225;  115.525;    0.000
747.207;17556.225;  161.525;    0.000
747.402;15098.225;   88.525;    0.000
747.597;13528.225;  103.525;    0.000
747.792;12704.225;  152.525;    0.000
747.987;12135.225;   80.525;    0.000
748.182;11620.225;   89.525;    0.000
748.377;10699.225;  104.525;    0.000
748.572;10444.225;  138.525;    0.000
748.767; 9828.225;  100.525;    0.000
748.961; 9423.225;  106.525;    0.000
749.156; 9260.225;  113.525;    0.000
749.351; 8913.225;  116.525;    0.000
749.546; 8810.225;  107.525;    0.000
749.741; 8590.225;  102.525;    0.000
749.936; 8483.225;  105.525;    0.000
750.130; 8352.225;  111.525;    0.000
750.325; 8436.225;   72.525;    0.000
750.520; 8055.225;   96.525;    0.000
750.715; 7915.225;  135.525;    0.000
750.909; 7979.225;  107.525;    0.000
751.104; 7814.225;  106.525;    0.000
751.299; 7848.225;  144.525;    0.000
751.493; 7827.225;  116.525;    0.000
751.688; 7749.225;   96.525;    0.000
751.882; 7833.225;   92.525;    0.000
752.077; 7531.225;  109.525;    0.000
752.272; 7630.225;   96.525;    0.000
752.466; 7587.225;  110.525;    0.000
752.661; 7576.225;  120.525;    0.000
752.855; 7444.225;   70.525;    0.000
753.050; 7463.225;  129.525;    0.000
753.244; 7391.225;  126.525;    0.000
753.439; 7483.225;  115.525;    0.000
753.633; 7418.225;  120.525;    0.000
753.828; 7318.225;  129.525;    0.000
754.022; 7185.225;  139.525;    0.000
754.216; 7277.225;  121.525;    0.000
754.411; 7397.225;  108.525;    0.000
754.605; 7161.225;   94.525;    0.000
754.799; 7147.225;  125.525;    0.000
754.994; 7256.225;  160.525;    0.000
755.188; 7164.225;  151.525;    0.000
755.382; 7178.225;  102.525;    0.000
755.576; 7200.225;  103.525;    0.000
755.771; 7187.225;   99.525;    0.000
755.965; 7136.225;  158.525;    0.000
756.159; 7078.225;   96.525;    0.000
756.353; 7131.225;  157.525;    0.000
756.547; 6952.225;  132.525;    0.000
756.742; 6949.225;  106.525;    0.000
756.936; 7120.225;  113.525;    0.000
757.130; 6977.225;  114.525;    0.000
757.324; 7075.225;  111.525;    0.000
757.518; 7032.225;  142.525;    0.000
757.712; 7236.225;  137.525;    0.000
757.906; 7134.225;   93.525;    0.000
758.100; 7090.225;  119.525;    0.000
758.294; 7073.225;  132.525;    0.000
758.488; 7060.225;  153.525;    0.000
758.682; 7168.225;  101.525;    0.000
758.876; 7055.225;  129.525;    0.000
759.070; 7049.225;  168.525;    0.000
759.264; 7034.225;   96.525;    0.000
759.458; 6926.225;  117.525;    0.000
759.651; 7102.225;  135.525;    0.000
759.845; 6919.225;  127.525;    0.000
760.039; 7064.225;  120.525;    0.000
760.233; 7073.225;  124.525;    0.000
760.427; 6997.225;  115.525;    0.000
760.620; 6971.225;  130.525;    0.000
760.814; 6903.225;  102.525;    0.000
761.008; 7020.225;  174.525;    0.000
761.202; 6956.225;  132.525;    0.000
761.395; 7086.225;  126.525;    0.000
761.589; 6989.225;  133.525;    0.000
761.783; 7163.225;  147.525;    0.000
761.976; 7038.225;  147.525;    0.000
762.170; 7050.225;  174.525;    0.000
762.363; 7045.225;   97.525;    0.000
762.557; 7150.225;  141.525;    0.000
762.750; 7193.225;  112.525;    0.000
762.944; 7129.225;  110.525;    0.000
763.138; 7117.225;  125.525;    0.000
763.331; 6990.225;  101.525;    0.000
763.524; 7285.225;  101.525;    0.000
763.718; 7362.225;  156.525;    0.000
763.911; 7440.225;  143.525;    0.000
764.105; 7214.225;  139.525;    0.000
764.298; 7165.225;   89.525;    0.000
764.492; 7064.225;  111.525;    0.000
764.685; 7061.225;  136.525;    0.000
764.878; 7080.225;  146.525;    0.000
765.072; 6993.225;  110.525;    0.000
765.265; 7050.225;  141.525;    0.000
765.458; 7232.225;   82.525;    0.000
765.651; 7442.225;  144.525;    0.000
765.845; 7242.225;   79.525;    0.000
766.038; 7276.225;  123.525;    0.000
766.231; 7899.225;  125.525;    0.000
766.424;11340.225;  131.525;    0.000
766.617;11725.225;   62.525;    0.000
766.811; 7755.225;  142.525;    0.000
767.004; 7340.225;  134.525;    0.000
767.197; 7387.225;  147.525;    0.000
767.390; 7384.225;  100.525;    0.000
767.583; 7336.225;  121.525;    0.000
767.776; 7339.225;   91.525;    0.000
767.969; 7376.225;  113.525;    0.000
768.162; 7409.225;  170.525;    0.000
768.355; 7448.225;  134.525;    0.000
768.548; 7480.225;  177.525;    0.000
768.741; 7375.225;   96.525;    0.000
768.934; 7512.225;  143.525;    0.000
769.127; 7662.225;  147.525;    0.000
769.320; 7646.225;   93.525;    0.000
769.513; 7676.225;  137.525;    0.000
769.706; 8375.225;   96.525;    0.000
769.898;11312.225;  118.525;    0.000
770.091; 9239.225;  138.525;    0.000
770.284; 7943.225;  133.525;    0.000
770.477; 7846.225;  137.525;    0.000
770.670; 7813.225;  124.525;    0.000
770.862; 7998.225;  125.525;    0.000
771.055; 7867.225;  135.525;    0.000
771.248; 8011.225;  109.525;    0.000
771.441; 7961.225;  141.525;    0.000
771.633; 8052.225;  142.525;    0.000
771.826; 8095.225;  123.525;    0.000
772.018; 8115.225;  136.525;    0.000
772.211; 8435.225;  145.525;    0.000
772.404; 8542.225;  127.525;    0.000
772.596; 8584.225;  193.525;    0.000
772.789; 8639.225;   64.525;    0.000
772.981; 8577.225;  142.525;    0.000
773.174; 8783.225;  105.525;    0.000
773.366; 8753.225;  166.525;    0.000
773.559; 8858.225;  125.525;    0.000
773.751; 9083.225;  126.525;    0.000
773.944; 9378.225;  147.525;    0.000
774.136; 9401.225;  155.525;    0.000
774.329; 9620.225;  127.525;    0.000
774.521; 9963.225;  133.525;    0.000
774.713;10457.225;  139.525;    0.000
774.906;10689.225;  170.525;    0.000
775.098;11102.225;  144.525;    0.000
775.290;11538.225;  162.525;    0.000
775.483;12129.225;  137.525;    0.000
775.675;12876.225;  148.525;    0.000
775.867;14108.225;   81.525;    0.000
776.059;15275.225;  134.525;    0.000
776.251;17189.225;  137.525;    0.000
776.444;19656.225;  155.525;    0.000
776.636;23286.225;  148.525;    0.000
776.828;29884.225;  129.525;    0.000
777.020;44243.227;  133.525;    0.000
777.212;65211.227;  137.525;    0.000
777.404;65211.227;  124.525;    0.000
777.596;65211.227;  142.525;    0.000
777.788;49584.227;  155.525;    0.000
777.980;36619.227;  119.525;    0.000
778.172;29236.225;  129.525;    0.000
778.364;24564.225;  122.525;    0.000
778.556;21640.225;  129.525;    0.000
778.748;19062.225;  178.525;    0.000
778.940;17147.225;  128.525;    0.000
779.132;15650.225;  145.525;    0.000
779.324;14194.225;   89.525;    0.000
779.516;13360.225;  161.525;    0.000
779.708;12603.225;  183.525;    0.000
779.900;12073.225;  124.525;    0.000
780.091;11489.225;  143.525;    0.000
780.283;11085.225;  135.525;    0.000
780.475;10698.225;  129.525;    0.000
780.667;10483.225;  178.525;    0.000
780.859; 9910.225;  146.525;    0.000
781.050; 9626.225;  156.525;    0.000
781.242; 9404.225;  138.525;    0.000
781.434; 9121.225;  117.525;    0.000
781.625; 9083.225;  161.525;    0.000
781.817; 8661.225;  127.525;    0.000
782.008; 8531.225;  138.525;    0.000
782.200; 8560.225;  139.525;    0.000
782.392; 8482.225;  179.525;    0.000
782.583; 8335.225;  137.525;    0.000
782.775; 8172.225;  162.525;    0.000
782.966; 8113.225;  159.525;    0.000
783.158; 8048.225;  118.525;    0.000
783.349; 7945.225;  160.525;    0.000
783.541; 8011.225;  139.525;    0.000
783.732; 7780.225;  145.525;    0.000
783.924; 7658.225;  146.525;    0.000
784.115; 7784.225;  125.525;    0.000
784.306; 7754.225;  118.525;    0.000
784.498; 7653.225;  144.525;    0.000
784.689; 7636.225;  145.525;    0.000
784.880; 7637.225;  137.525;    0.000
785.072; 7496.225;  157.525;    0.000
785.263; 7527.225;  149.525;    0.000
785.454; 7352.225;  128.525;    0.000
785.645; 7248.225;  131.525;    0.000
785.837; 7410.225;  137.525;    0.000
786.028; 7354.225;  161.525;    0.000
786.219; 7341.225;  155.525;    0.000
786.410; 7380.225;  146.525;    0.000
786.601; 7332.225;  120.525;    0.000
786.792; 7275.225;  179.525;    0.000
786.984; 7319.225;  113.525;    0.000
787.175; 7372.225;  156.525;    0.000
787.366; 7332.225;  131.525;    0.000
787.557; 7450.225;  138.525;    0.000
787.748; 7473.225;  112.525;    0.000
787.939; 7551.225;  115.525;    0.000
788.130; 7568.225;  150.525;    0.000
788.321; 7624.225;  122.525;    0.000
788.512; 7665.225;  147.525;    0.000
788.703; 7792.225;  126.525;    0.000
788.894; 7675.225;   80.525;    0.000
789.084; 7504.225;  127.525;    0.000
789.275; 7782.225;  141.525;    0.000
789.466; 7644.225;  108.525;    0.000
789.657; 7730.225;  137.525;    0.000
789.848; 7867.225;  126.525;    0.000
790.039; 7606.225;  144.525;    0.000
790.229; 7957.225;  105.525;    0.000
790.420; 7886.225;   96.525;    0.000
790.611; 7761.225;  171.525;    0.000
790.801; 7741.225;   89.525;    0.000
790.992; 7777.225;  140.525;    0.000
791.183; 7576.225;  143.525;    0.000
791.373; 7767.225;  128.525;    0.000
791.564; 7768.225;   96.525;    0.000
791.755; 7642.225;  111.525;    0.000
791.945; 7686.225;  112.525;    0.000
792.136; 7684.225;  124.525;    0.000
792.326; 7553.225;   88.525;    0.000
792.517; 7718.225;  130.525;    0.000
792.707; 7565.225;  144.525;    0.000
792.898; 7747.225;  120.525;    0.000
793.088; 7956.225;  106.525;    0.000
793.279; 7722.225;  104.525;    0.000
793.469; 7945.225;  103.525;    0.000
793.660; 8028.225;  120.525;    0.000
793.850; 8497.225;  106.525;    0.000
794.040; 8654.225;  135.525;    0.000
794.231; 9205.225;   80.525;    0.000
794.421; 9996.225;  120.525;    0.000
794.611;11470.225;  154.525;    0.000
794.802;13752.225;  103.525;    0.000
794.992;14627.225;  120.525;    0.000
795.182;14900.225;  156.525;    0.000
795.372;13734.225;  104.525;    0.000
795.563;11873.225;  153.525;    0.000
795.753;10710.225;  112.525;    0.000
795.943; 9905.225;  128.525;    0.000
796.133; 9318.225;  128.525;    0.000
796.323; 8751.225;  152.525;    0.000
796.513; 8612.225;  123.525;    0.000
796.703; 8375.225;  134.525;    0.000
796.893; 8166.225;  120.525;    0.000
797.083; 8013.225;  136.525;    0.000
797.273; 7725.225;  128.525;    0.000
797.463; 7716.225;  140.525;    0.000
797.653; 7449.225;   75.525;    0.000
797.843; 7451.225;  114.525;    0.000
798.033; 7124.225;   90.525;    0.000
798.223; 7088.225;  136.525;    0.000
798.413; 7102.225;  164.525;    0.000
798.603; 6846.225;  150.525;    0.000
798.793; 6723.225;  137.525;    0.000
798.983; 6798.225;  119.525;    0.000
799.172; 6692.225;  136.525;    0.000
799.362; 6797.225;  138.525;    0.000
799.552; 6633.225;  123.525;    0.000
799.742; 6641.225;  117.525;    0.000
799.932; 6457.225;  108.525;    0.000
800.121; 6592.225;  152.525;    0.000
800.311; 6460.225;  117.525;    0.000
800.501; 6362.225;  100.525;    0.000
800.690; 6426.225;  139.525;    0.000
800.880; 6418.225;  138.525;    0.000
801.070; 6454.225;  120.525;    0.000
801.259; 6326.225;  143.525;    0.000
801.449; 6361.225;  110.525;    0.000
801.638; 6329.225;  140.525;    0.000
801.828; 6411.225;  103.525;    0.000
802.017; 6261.225;   78.525;    0.000
802.207; 6203.225;  126.525;    0.000
802.396; 6346.225;  151.525;    0.000
802.586; 6110.225;  106.525;    0.000
802.775; 6277.225;  152.525;    0.000
802.965; 5996.225;  117.525;    0.000
803.154; 6051.225;  171.525;    0.000
803.343; 6053.225;  126.525;    0.000
803.533; 6137.225;  135.525;    0.000
803.722; 5904.225;  144.525;    0.000
803.911; 6174.225;  109.525;    0.000
804.101; 6023.225;  146.525;    0.000
804.290; 5958.225;  115.525;    0.000
804.479; 6070.225;  128.525;    0.000
804.668; 6060.225;  156.525;    0.000
804.857; 5925.225;  151.525;    0.000
805.047; 5845.225;  131.525;    0.000
805.236; 5983.225;  144.525;    0.000
805.425; 5903.225;  160.525;    0.000
805.614; 5916.225;  112.525;    0.000
805.803; 5976.225;  120.525;    0.000
805.992; 5818.225;  148.525;    0.000
806.181; 5919.225;  108.525;    0.000
806.370; 5953.225;  142.525;    0.000
806.559; 5886.225;  116.525;    0.000
806.748; 5984.225;  108.525;    0.000
806.937; 6013.225;  110.525;    0.000
807.126; 5933.225;  126.525;    0.000
807.315; 6066.225;  121.525;    0.000
807.504; 6091.225;  102.525;    0.000
807.693; 5870.225;  134.525;    0.000
807.882; 5904.225;  135.525;    0.000
808.071; 6008.225;  135.525;    0.000
808.260; 5753.225;   93.525;    0.000
808.448; 6141.225;  151.525;    0.000
808.637; 5939.225;  105.525;    0.000
808.826; 5964.225;  178.525;    0.000
809.015; 5912.225;  152.525;    0.000
809.203; 6036.225;  147.525;    0.000
809.392; 5992.225;  144.525;    0.000
809.581; 6013.225;  167.525;    0.000
809.770; 5990.225;  151.525;    0.000
809.958; 6168.225;  128.525;    0.000
810.147; 5926.225;  152.525;    0.000
810.335; 6104.225;  160.525;    0.000
810.524; 6246.225;  130.525;    0.000
810.713; 6387.225;  128.525;    0.000
810.901; 6388.225;  140.525;    0.000
811.090; 6223.225;  152.525;    0.000
811.278; 6332.225;  126.525;    0.000
811.467; 6621.225;  161.525;    0.000
811.655; 6805.225;  184.525;    0.000
811.844; 6748.225;  148.525;    0.000
812.032; 6657.225;  138.525;    0.000
812.220; 6564.225;  157.525;    0.000
812.409; 6564.225;  143.525;    0.000
812.597; 6574.225;  124.525;    0.000
812.785; 6664.225;  170.525;    0.000
812.974; 6690.225;  135.525;    0.000
813.162; 6594.225;  135.525;    0.000
813.350; 6556.225;  182.525;    0.000
813.539; 6771.225;  126.525;    0.000
813.727; 6790.225;  127.525;    0.000
813.915; 6833.225;  140.525;    0.000
814.103; 6783.225;  176.525;    0.000
814.291; 6832.225;  115.525;    0.000
814.479; 6901.225;  119.525;    0.000
814.668; 6861.225;  134.525;    0.000
814.856; 7134.225;  120.525;    0.000
815.044; 7183.225;  164.525;    0.000
815.232; 7230.225;  146.525;    0.000
815.420; 7468.225;  154.525;    0.000
815.608; 7450.225;  137.525;    0.000
815.796; 7369.225;  108.525;    0.000
815.984; 7679.225;  134.525;    0.000
816.172; 7843.225;  123.525;    0.000
816.360; 8114.225;  181.525;    0.000
816.548; 8147.225;  139.525;    0.000
816.736; 8544.225;  138.525;    0.000
816.924; 8895.225;  151.525;    0.000
817.111; 9265.225;  156.525;    0.000
817.299; 9775.225;  147.525;    0.000
817.487;10703.225;  188.525;    0.000
817.675;11690.225;  129.525;    0.000
817.863;13259.225;  128.525;    0.000
818.050;17994.225;  110.525;    0.000
818.238;33367.227;  166.525;    0.000
818.426;47877.227;  136.525;    0.000
818.613;34463.227;  143.525;    0.000
818.801;28781.225;  150.525;    0.000
818.989;27521.225;  179.525;    0.000
819.176;27853.225;  123.525;    0.000
819.364;40828.227;  148.525;    0.000
819.552;58185.227;   86.525;    0.000
819.739;40334.227;  169.525;    0.000
819.927;28708.225;  130.525;    0.000
820.114;24340.225;  144.525;    0.000
820.302;21246.225;  166.525;    0.000
820.489;19512.225;  145.525;    0.000
820.677;18115.225;  101.525;    0.000
820.864;17572.225;  149.525;    0.000
821.052;18842.225;  130.525;    0.000
821.239;19761.225;  147.525;    0.000
821.426;21376.225;  121.525;    0.000
821.614;27347.225;  187.525;    0.000
821.801;29768.225;  105.525;    0.000
821.988;24799.225;  167.525;    0.000
822.176;23474.225;  130.525;    0.000
822.363;24698.225;  143.525;    0.000
822.550;22157.225;  108.525;    0.000
822.737;19150.225;  109.525;    0.000
822.924;17325.225;  156.525;    0.000
823.112;16459.225;  123.525;    0.000
823.299;15473.225;  128.525;    0.000
823.486;14426.225;  138.525;    0.000
823.673;13515.225;  125.525;    0.000
823.860;13204.225;  138.525;    0.000
824.047;13491.225;  122.525;    0.000
824.234;15906.225;  134.525;    0.000
824.421;16283.225;   95.525;    0.000
824.608;13955.225;  151.525;    0.000
824.795;12268.225;  117.525;    0.000
824.982;11213.225;  143.525;    0.000
825.169;10441.225;   83.525;    0.000
825.356; 9717.225;  126.525;    0.000
825.543; 9215.225;   92.525;    0.000
825.730; 8938.225;  113.525;    0.000
825.917; 8506.225;  142.525;    0.000
826.104; 8184.225;  182.525;    0.000
826.290; 8002.225;  137.525;    0.000
826.477; 7805.225;  126.525;    0.000
826.664; 7573.225;  135.525;    0.000
826.851; 7431.225;  139.525;    0.000
827.038; 7256.225;  135.525;    0.000
827.224; 7025.225;  143.525;    0.000
827.411; 6960.225;  153.525;    0.000
827.598; 6884.225;  122.525;    0.000
827.784; 6595.225;  138.525;    0.000
827.971; 6526.225;  134.525;    0.000
828.157; 6358.225;  152.525;    0.000
828.344; 6374.225;  135.525;    0.000
828.531; 6312.225;  137.525;    0.000
828.717; 6243.225;  117.525;    0.000
828.904; 5993.225;  127.525;    0.000
829.090; 6049.225;  172.525;    0.000
829.277; 5993.225;  144.525;    0.000
829.463; 5922.225;  159.525;    0.000
829.650; 5853.225;  187.525;    0.000
829.836; 5788.225;  138.525;    0.000
830.022; 5712.225;  196.525;    0.000
830.209; 5672.225;  118.525;    0.000
830.395; 5567.225;  148.525;    0.000
830.581; 5576.225;  108.525;    0.000
830.768; 5414.225;  137.525;    0.000
830.954; 5446.225;  162.525;    0.000
831.140; 5262.225;  117.525;    0.000
831.327; 5399.225;  176.525;    0.000
831.513; 5396.225;  162.525;    0.000
831.699; 5363.225;  157.525;    0.000
831.885; 5201.225;  153.525;    0.000
832.071; 5105.225;  123.525;    0.000
832.257; 5233.225;  142.525;    0.000
832.444; 5166.225;  165.525;    0.000
832.630; 5129.225;  159.525;    0.000
832.816; 5054.225;  145.525;    0.000
833.002; 4992.225;  120.525;    0.000
833.188; 5022.225;  145.525;    0.000
833.374; 4845.225;  137.525;    0.000
833.560; 4952.225;  152.525;    0.000
833.746; 4851.225;  139.525;    0.000
833.932; 4834.225;  170.525;    0.000
834.118; 4733.225;  111.525;    0.000
834.303; 4778.225;  141.525;    0.000
834.489; 4856.225;  146.525;    0.000
834.675; 4783.225;  156.525;    0.000
834.861; 4713.225;   87.525;    0.000
835.047; 4722.225;  134.525;    0.000
835.233; 4677.225;   89.525;    0.000
835.418; 4786.225;  145.525;    0.000
835.604; 4677.225;  136.525;    0.000
835.790; 4762.225;  132.525;    0.000
835.976; 4525.225;  161.525;    0.000
836.161; 4714.225;  157.525;    0.000
836.347; 4629.225;  147.525;    0.000
836.533; 4448.225;  116.525;    0.000
836.718; 4531.225;  168.525;    0.000
836.904; 4572.225;  199.525;    0.000
837.089; 4669.225;  165.525;    0.000
837.275; 4524.225;  166.525;    0.000
837.460; 4560.225;  144.525;    0.000
837.646; 4583.225;  164.525;    0.000
837.831; 4506.225;  122.525;    0.000
838.017; 4556.225;  163.525;    0.000
838.202; 4538.225;  139.525;    0.000
838.388; 4598.225;  174.525;    0.000
838.573; 4553.225;  140.525;    0.000
838.759; 4593.225;  167.525;    0.000
838.944; 4544.225;  142.525;    0.000
839.129; 4441.225;  164.525;    0.000
839.315; 4497.225;  129.525;    0.000
839.500; 4520.225;  150.525;    0.000
839.685; 4496.225;  118.525;    0.000
839.870; 4632.225;  177.525;    0.000
840.056; 4616.225;  144.525;    0.000
840.241; 4584.225;  121.525;    0.000
840.426; 4656.225;  131.525;    0.000
840.611; 4694.225;  177.525;    0.000
840.796; 4750.225;  173.525;    0.000
840.981; 4882.225;  156.525;    0.000
841.166; 4950.225;  145.525;    0.000
841.352; 4712.225;  150.525;    0.000
841.537; 4839.225;  143.525;    0.000
841.722; 4877.225;  165.525;    0.000
841.907; 4977.225;  184.525;    0.000
842.092; 5075.225;  171.525;    0.000
842.277; 5106.225;  155.525;    0.000
842.461; 5295.225;  152.525;    0.000
842.646; 5470.225;  107.525;    0.000
842.831; 5504.225;  160.525;    0.000
843.016; 5753.225;  160.525;    0.000
843.201; 5795.225;  164.525;    0.000
843.386; 6227.225;  134.525;    0.000
843.571; 6479.225;  132.525;    0.000
843.755; 6994.225;  158.525;    0.000
843.940; 7658.225;  152.525;    0.000
844.125; 8827.225;  154.525;    0.000
844.310;10711.225;  147.525;    0.000
844.494;15067.225;  158.525;    0.000
844.679;22033.225;  173.525;    0.000
844.864;21297.225;  152.525;    0.000
845.048;16213.225;  139.525;    0.000
845.233;12987.225;  200.525;    0.000
845.418;11001.225;  139.525;    0.000
845.602; 9506.225;  147.525;    0.000
845.787; 8460.225;  148.525;    0.000
845.971; 7710.225;  170.525;    0.000
846.156; 7255.225;  136.525;    0.000
846.340; 6756.225;  146.525;    0.000
846.525; 6369.225;  188.525;    0.000
846.709; 6146.225;  128.525;    0.000
846.893; 5845.225;  151.525;    0.000
847.078; 5577.225;  164.525;    0.000
847.262; 5442.225;  155.525;    0.000
847.447; 5228.225;  114.525;    0.000
847.631; 5169.225;  148.525;    0.000
847.815; 5138.225;  114.525;    0.000
848.000; 4722.225;  134.525;    0.000
848.184; 4931.225;  154.525;    0.000
848.368; 4606.225;  145.525;    0.000
848.552; 4662.225;  122.525;    0.000
848.736; 4525.225;  139.525;    0.000
848.921; 4533.225;  143.525;    0.000
849.105; 4517.225;  145.525;    0.000
849.289; 4317.225;  173.525;    0.000
849.473; 4243.225;  147.525;    0.000
849.657; 4260.225;  144.525;    0.000
849.841; 4292.225;  168.525;    0.000
850.025; 4256.225;  205.525;    0.000
850.209; 4150.225;  171.525;    0.000
850.393; 4099.225;  130.525;    0.000
850.577; 4116.225;  146.525;    0.000
850.761; 4170.225;  188.525;    0.000
850.945; 4146.225;  137.525;    0.000
851.129; 4175.225;  192.525;    0.000
851.313; 3995.225;  199.525;    0.000
851.497; 4070.225;  165.525;    0.000
851.680; 4019.225;  196.525;    0.000
851.864; 4051.225;  169.525;    0.000
852.048; 4029.225;  156.525;    0.000
852.232; 4061.225;  150.525;    0.000
852.416; 4035.225;  219.525;    0.000
852.599; 3963.225;  168.525;    0.000
852.783; 4049.225;  165.525;    0.000
852.967; 4016.225;  166.525;    0.000
853.150; 3952.225;  191.525;    0.000
853.334; 3971.225;  158.525;    0.000
853.518; 4025.225;  168.525;    0.000
853.701; 3966.225;  125.525;    0.000
853.885; 3834.225;  165.525;    0.000
854.068; 3752.225;  142.525;    0.000
854.252; 3969.225;  167.525;    0.000
854.435; 3968.225;  146.525;    0.000
854.619; 3791.225;  163.525;    0.000
854.802; 3815.225;  167.525;    0.000
854.986; 3886.225;  163.525;    0.000
855.169; 3948.225;  146.525;    0.000
855.353; 3914.225;  183.525;    0.000
855.536; 3959.225;  140.525;    0.000
855.719; 4011.225;  168.525;    0.000
855.903; 4147.225;  170.525;    0.000
856.086; 3980.225;  145.525;    0.000
856.269; 4073.225;  126.525;    0.000
856.452; 4231.225;  142.525;    0.000
856.636; 4445.225;  140.525;    0.000
856.819; 4879.225;  127.525;    0.000
857.002; 4972.225;  165.525;    0.000
857.185; 4764.225;  111.525;    0.000
857.368; 4505.225;  143.525;    0.000
857.552; 4554.225;  174.525;    0.000
857.735; 4437.225;  194.525;    0.000
857.918; 4306.225;  171.525;    0.000
858.101; 4370.225;  142.525;    0.000
858.284; 4384.225;  118.525;    0.000
858.467; 4525.225;  163.525;    0.000
858.650; 4556.225;  149.525;    0.000
858.833; 4705.225;  120.525;    0.000
859.016; 4757.225;  169.525;    0.000
859.199; 5056.225;  121.525;    0.000
859.382; 5742.225;  184.525;    0.000
859.564; 6474.225;  139.525;    0.000
859.747; 6208.225;  126.525;    0.000
859.930; 5726.225;  109.525;    0.000
860.113; 5424.225;  137.525;    0.000
860.296; 5289.225;  182.525;    0.000
860.478; 5079.225;  136.525;    0.000
860.661; 4950.225;  157.525;    0.000
860.844; 4833.225;  129.525;    0.000
861.027; 4884.225;  163.525;    0.000
861.209; 4854.225;  151.525;    0.000
861.392; 4893.225;  124.525;    0.000
861.575; 4841.225;  163.525;    0.000
861.757; 5018.225;  205.525;    0.000
861.940; 5120.225;  180.525;    0.000
862.122; 5091.225;  148.525;    0.000
862.305; 5258.225;  128.525;    0.000
862.487; 5588.225;  172.525;    0.000
862.670; 6285.225;  123.525;    0.000
862.852; 7962.225;  126.525;    0.000
863.035; 9783.225;  174.525;    0.000
863.217; 9671.225;  160.525;    0.000
863.400; 8312.225;  164.525;    0.000
863.582; 7528.225;  118.525;    0.000
863.764; 6987.225;  143.525;    0.000
863.947; 6427.225;  137.525;    0.000
864.129; 6241.225;  166.525;    0.000
864.311; 6198.225;  128.525;    0.000
864.493; 6098.225;  153.525;    0.000
864.676; 5801.225;  156.525;    0.000
864.858; 5755.225;  159.525;    0.000
865.040; 5696.225;  163.525;    0.000
865.222; 5771.225;  138.525;    0.000
865.404; 5871.225;  157.525;    0.000
865.587; 6338.225;  184.525;    0.000
865.769; 6611.225;  178.525;    0.000
865.951; 6494.225;  104.525;    0.000
866.133; 6549.225;  147.525;    0.000
866.315; 6459.225;  141.525;    0.000
866.497; 6515.225;  132.525;    0.000
866.679; 6637.225;  139.525;    0.000
866.861; 6955.225;  118.525;    0.000
867.043; 7252.225;  154.525;    0.000
867.225; 7861.225;  147.525;    0.000
867.407; 8641.225;  158.525;    0.000
867.589;10032.225;  172.525;    0.000
867.770;12871.225;  159.525;    0.000
867.952;19112.225;  149.525;    0.000
868.134;25854.225;  156.525;    0.000
868.316;25554.225;  171.525;    0.000
868.498;24086.225;  200.525;    0.000
868.679;20755.225;  174.525;    0.000
868.861;16474.225;  175.525;    0.000
869.043;13245.225;  174.525;    0.000
869.224;11609.225;  122.525;    0.000
869.406;10207.225;  166.525;    0.000
869.588; 9513.225;  143.525;    0.000
869.769; 8931.225;  152.525;    0.000
869.951; 8610.225;  165.525;    0.000
870.132; 8952.225;  115.525;    0.000
870.314;10463.225;  139.525;    0.000
870.495;10686.225;  168.525;    0.000
870.677; 9471.225;  188.525;    0.000
870.858; 8907.225;  123.525;    0.000
871.040; 9548.225;  170.525;    0.000
871.221;11143.225;  148.525;    0.000
871.403;10421.225;  140.525;    0.000
871.584; 9235.225;  174.525;    0.000
871.765; 9293.225;  168.525;    0.000
871.947;10106.225;  191.525;    0.000
872.128; 9177.225;  132.525;    0.000
872.309; 7622.225;  140.525;    0.000
872.491; 6769.225;  157.525;    0.000
872.672; 6458.225;  130.525;    0.000
872.853; 6299.225;  148.525;    0.000
873.034; 6016.225;  138.525;    0.000
873.215; 5717.225;  152.525;    0.000
873.396; 5254.225;  149.525;    0.000
873.578; 4987.225;  173.525;    0.000
873.759; 4713.225;  158.525;    0.000
873.940; 4570.225;  147.525;    0.000
874.121; 4598.225;  136.525;    0.000
874.302; 4355.225;  151.525;    0.000
874.483; 4439.225;  137.525;    0.000
874.664; 4400.225;  163.525;    0.000
874.845; 4407.225;  124.525;    0.000
875.026; 4249.225;  134.525;    0.000
875.207; 4091.225;  164.525;    0.000
875.388; 3917.225;  163.525;    0.000
875.568; 3864.225;  176.525;    0.000
875.749; 3789.225;  108.525;    0.000
875.930; 3772.225;  191.525;    0.000
876.111; 3813.225;  170.525;    0.000
876.292; 3656.225;  180.525;    0.000
876.472; 3672.225;  150.525;    0.000
876.653; 3548.225;  162.525;    0.000
876.834; 3590.225;  176.525;    0.000
877.015; 3542.225;  203.525;    0.000
877.195; 3536.225;  178.525;    0.000
877.376; 3530.225;  141.525;    0.000
877.556; 3420.225;  135.525;    0.000
877.737; 3495.225;  174.525;    0.000
877.918; 3475.225;  150.525;    0.000
878.098; 3298.225;  133.525;    0.000
878.279; 3309.225;  129.525;    0.000
878.459; 3318.225;  162.525;    0.000
878.640; 3289.225;  187.525;    0.000
878.820; 3283.225;  151.525;    0.000
879.000; 3241.225;  159.525;    0.000
879.181; 3256.225;  171.525;    0.000
879.361; 3197.225;  167.525;    0.000
879.542; 3174.225;  126.525;    0.000
879.722; 3333.225;  152.525;    0.000
879.902; 3322.225;  144.525;    0.000
880.083; 3274.225;  154.525;    0.000
880.263; 3338.225;  148.525;    0.000
880.443; 3535.225;  185.525;    0.000
880.623; 4634.225;  172.525;    0.000
880.803; 5397.225;  152.525;    0.000
880.984; 4253.225;  165.525;    0.000
881.164; 3899.225;  164.525;    0.000
881.344; 3647.225;  141.525;    0.000
881.524; 3677.225;  160.525;    0.000
881.704; 3652.225;  164.525;    0.000
881.884; 3818.225;  159.525;    0.000
882.064; 4129.225;  158.525;    0.000
882.244; 4237.225;  147.525;    0.000
882.424; 3786.225;  160.525;    0.000
882.604; 3696.225;  150.525;    0.000
882.784; 3421.225;  138.525;    0.000
882.964; 3424.225;  157.525;    0.000
883.144; 3338.225;  128.525;    0.000
883.324; 3305.225;  220.525;    0.000
883.504; 3276.225;  177.525;    0.000
883.683; 3130.225;  159.525;    0.000
883.863; 3224.225;  143.525;    0.000
884.043; 3103.225;  156.525;    0.000
884.223; 3100.225;  152.525;    0.000
884.402; 3042.225;  169.525;    0.000
884.582; 3027.225;  162.525;    0.000
884.762; 3036.225;  172.525;    0.000
884.941; 2977.225;  220.525;    0.000
885.121; 2994.225;  128.525;    0.000
885.301; 3013.225;  141.525;    0.000
885.480; 2911.225;  141.525;    0.000
885.660; 2956.225;  132.525;    0.000
885.839; 2946.225;  146.525;    0.000
886.019; 2931.225;  170.525;    0.000
886.198; 2810.225;  143.525;    0.000
886.378; 2847.225;  159.525;    0.000
886.557; 2910.225;  148.525;    0.000
886.737; 2855.225;  125.525;    0.000
886.916; 2833.225;  177.525;    0.000
887.095; 2809.225;  186.525;    0.000
887.275; 2791.225;  134.525;    0.000
887.454; 2787.225;  148.525;    0.000
887.633; 2787.225;  171.525;    0.000
887.813; 2770.225;  187.525;    0.000
887.992; 2932.225;  157.525;    0.000
888.171; 2801.225;  143.525;    0.000
888.350; 2817.225;  182.525;    0.000
888.530; 2791.225;  142.525;    0.000
888.709; 2763.225;  160.525;    0.000
888.888; 2772.225;  197.525;    0.000
889.067; 2710.225;  126.525;    0.000
889.246; 2806.225;  197.525;    0.000
889.425; 2853.225;  161.525;    0.000
889.604; 2717.225;  180.525;    0.000
889.783; 2828.225;  135.525;    0.000
889.962; 2731.225;  107.525;    0.000
890.141; 2773.225;  167.525;    0.000
890.320; 2662.225;  149.525;    0.000
890.499; 2714.225;  194.525;    0.000
890.678; 2754.225;  138.525;    0.000
890.857; 2749.225;  146.525;    0.000
891.036; 2784.225;  178.525;    0.000
891.214; 2723.225;  151.525;    0.000
891.393; 2753.225;  137.525;    0.000
891.572; 2713.225;  177.525;    0.000
891.751; 2726.225;  149.525;    0.000
891.930; 2736.225;  189.525;    0.000
892.108; 2713.225;  136.525;    0.000
892.287; 2788.225;  129.525;    0.000
892.466; 2692.225;  163.525;    0.000
892.644; 2781.225;  147.525;    0.000
892.823; 2714.225;  127.525;    0.000
893.001; 2770.225;  192.525;    0.000
893.180; 2650.225;  157.525;    0.000
893.359; 2714.225;  176.525;    0.000
893.537; 2740.225;  146.525;    0.000
893.716; 2665.225;  154.525;    0.000
893.894; 2853.225;  166.525;    0.000
894.073; 2763.225;  163.525;    0.000
894.251; 2713.225;  166.525;    0.000
894.429; 2782.225;  149.525;    0.000
894.608; 2764.225;  141.525;    0.000
894.786; 2736.225;  139.525;    0.000
894.964; 2801.225;  180.525;    0.000
895.143; 2642.225;  193.525;    0.000
895.321; 2691.225;  163.525;    0.000
895.499; 2682.225;  163.525;    0.000
895.677; 2730.225;  194.525;    0.000
895.856; 2734.225;  176.525;    0.000
896.034; 2775.225;  173.525;    0.000
896.212; 2845.225;  180.525;    0.000
896.390; 2819.225;  146.525;    0.000
896.568; 2759.225;  167.525;    0.000
896.746; 2769.225;  158.525;    0.000
896.924; 2809.225;  163.525;    0.000
897.102; 2828.225;  170.525;    0.000
897.280; 2739.225;  159.525;    0.000
897.458; 2773.225;  182.525;    0.000
897.636; 2724.225;  151.525;    0.000
897.814; 2828.225;  130.525;    0.000
897.992; 2796.225;  213.525;    0.000
898.170; 2771.225;  164.525;    0.000
898.348; 2840.225;  159.525;    0.000
898.526; 2760.225;  182.525;    0.000
898.704; 2830.225;  209.525;    0.000
898.882; 2736.225;  145.525;    0.000
899.059; 2845.225;  172.525;    0.000
899.237; 2836.225;  172.525;    0.000
899.415; 2860.225;  211.525;    0.000
899.593; 2839.225;  151.525;    0.000
899.770; 2878.225;  147.525;    0.000
899.948; 2914.225;  218.525;    0.000
900.125; 2872.225;  166.525;    0.000
900.303; 2938.225;  146.525;    0.000
900.481; 2979.225;  174.525;    0.000
900.658; 3011.225;  198.525;    0.000
900.836; 2973.225;  125.525;    0.000
901.013; 3008.225;  197.525;    0.000
901.191; 3061.225;  181.525;    0.000
901.368; 3063.225;  185.525;    0.000
901.546; 3299.225;  197.525;    0.000
901.723; 3344.225;  205.525;    0.000
901.901; 3314.225;  187.525;    0.000
902.078; 3492.225;  163.525;    0.000
902.255; 3479.225;  141.525;    0.000
902.433; 3543.225;  183.525;    0.000
902.610; 3546.225;  181.525;    0.000
902.787; 3535.225;  174.525;    0.000
902.964; 3674.225;  174.525;    0.000
903.142; 3845.225;  141.525;    0.000
903.319; 3931.225;  214.525;    0.000
903.496; 3889.225;  187.525;    0.000
903.673; 4009.225;  183.525;    0.000
903.850; 4021.225;  125.525;    0.000
904.027; 4220.225;  197.525;    0.000
904.204; 4611.225;  197.525;    0.000
904.381; 5026.225;  196.525;    0.000
904.558; 6128.225;  176.525;    0.000
904.735; 7072.225;  179.525;    0.000
904.912; 7000.225;  203.525;    0.000
905.089; 6969.225;  159.525;    0.000
905.266; 6317.225;  176.525;    0.000
905.443; 5608.225;  184.525;    0.000
905.620; 5194.225;  168.525;    0.000
905.797; 4758.225;  214.525;    0.000
905.974; 4704.225;  154.525;    0.000
906.151; 4588.225;  132.525;    0.000
906.327; 4734.225;  192.525;    0.000
906.504; 4569.225;  186.525;    0.000
906.681; 4335.225;  171.525;    0.000
906.858; 4182.225;  181.525;    0.000
907.034; 4108.225;  164.525;    0.000
907.211; 3891.225;  184.525;    0.000
907.388; 3816.225;  177.525;    0.000
907.564; 3711.225;  150.525;    0.000
907.741; 3641.225;  195.525;    0.000
907.917; 3590.225;  190.525;    0.000
908.094; 3557.225;  214.525;    0.000
908.271; 3464.225;  173.525;    0.000
908.447; 3523.225;  229.525;    0.000
908.623; 3312.225;  162.525;    0.000
908.800; 3501.225;  195.525;    0.000
908.976; 3174.225;  171.525;    0.000
909.153; 3278.225;  167.525;    0.000
909.329; 3215.225;  227.525;    0.000
909.505; 3300.225;  167.525;    0.000
909.682; 3188.225;  174.525;    0.000
909.858; 3075.225;  158.525;    0.000
910.034; 3117.225;  188.525;    0.000
910.211; 3103.225;  158.525;    0.000
910.387; 3070.225;  208.525;    0.000
910.563; 3072.225;  203.525;    0.000
910.739; 3043.225;  201.525;    0.000
910.915; 3050.225;  170.525;    0.000
911.091; 3075.225;  171.525;    0.000
911.268; 3113.225;  220.525;    0.000
911.444; 2984.225;  202.525;    0.000
911.620; 3025.225;  175.525;    0.000
911.796; 3013.225;  175.525;    0.000
911.972; 2989.225;  164.525;    0.000
912.148; 3058.225;  174.525;    0.000
912.324; 3078.225;  155.525;    0.000
912.500; 3026.225;  156.525;    0.000
912.676; 3022.225;  138.525;    0.000
912.851; 2982.225;  158.525;    0.000
913.027; 2989.225;  161.525;    0.000
913.203; 2973.225;  168.525;    0.000
913.379; 2949.225;  172.525;    0.000
913.555; 2953.225;  193.525;    0.000
913.730; 2887.225;  149.525;    0.000
913.906; 2906.225;  159.525;    0.000
914.082; 2872.225;  184.525;    0.000
914.258; 2994.225;  194.525;    0.000
914.433; 2938.225;  175.525;    0.000
914.609; 2963.225;  175.525;    0.000
914.784; 2919.225;  170.525;    0.000
914.960; 2916.225;  212.525;    0.000
915.136; 2933.225;  157.525;    0.000
915.311; 3009.225;  204.525;    0.000
915.487; 2993.225;  180.525;    0.000
915.662; 2947.225;  203.525;    0.000
915.838; 3022.225;  194.525;    0.000
916.013; 3108.225;  217.525;    0.000
916.189; 3116.225;  196.525;    0.000
916.364; 3060.225;  236.525;    0.000
916.539; 2911.225;  192.525;    0.000
916.715; 2991.225;  181.525;    0.000
916.890; 3088.225;  185.525;    0.000
917.065; 3060.225;  166.525;    0.000
917.240; 3032.225;  182.525;    0.000
917.416; 2951.225;  188.525;    0.000
917.591; 3049.225;  185.525;    0.000
917.766; 2952.225;  187.525;    0.000
917.941; 3018.225;  181.525;    0.000
918.116; 2958.225;  207.525;    0.000
918.292; 2923.225;  140.525;    0.000
918.467; 2996.225;  187.525;    0.000
918.642; 3026.225;  208.525;    0.000
918.817; 2929.225;  203.525;    0.000
918.992; 3037.225;  162.525;    0.000
919.167; 3017.225;  206.525;    0.000
919.342; 3106.225;  188.525;    0.000
919.517; 3137.225;  190.525;    0.000
919.692; 3184.225;  174.525;    0.000
919.867; 3090.225;  181.525;    0.000
920.041; 3180.225;  179.525;    0.000
920.216; 3185.225;  186.525;    0.000
920.391; 3280.225;  209.525;    0.000
920.566; 3236.225;  205.525;    0.000
920.741; 3407.225;  205.525;    0.000
920.915; 3580.225;  206.525;    0.000
921.090; 3840.225;  219.525;    0.000
921.265; 4852.225;  185.525;    0.000
921.439; 5458.225;  171.525;    0.000
921.614; 4783.225;  197.525;    0.000
921.789; 4230.225;  189.525;    0.000
921.963; 4072.225;  210.525;    0.000
922.138; 3780.225;  171.525;    0.000
922.312; 3841.225;  194.525;    0.000
922.487; 3799.225;  231.525;    0.000
922.661; 3905.225;  179.525;    0.000
922.836; 4570.225;  213.525;    0.000
923.010; 4676.225;  182.525;    0.000
923.185; 4144.225;  239.525;    0.000
923.359; 3939.225;  200.525;    0.000
923.534; 3842.225;  232.525;    0.000
923.708; 4195.225;  221.525;    0.000
923.882; 4474.225;  193.525;    0.000
924.057; 4186.225;  204.525;    0.000
924.231; 4001.225;  172.525;    0.000
924.405; 3919.225;  202.525;    0.000
924.579; 3877.225;  207.525;    0.000
924.753; 3835.225;  167.525;    0.000
924.928; 3683.225;  202.525;    0.000
925.102; 3728.225;  200.525;    0.000
925.276; 3785.225;  185.525;    0.000
925.450; 3980.225;  170.525;    0.000
925.624; 3953.225;  176.525;    0.000
925.798; 4081.225;  221.525;    0.000
925.972; 4364.225;  162.525;    0.000
926.146; 4812.225;  207.525;    0.000
926.320; 5400.225;  185.525;    0.000
926.494; 5914.225;  192.525;    0.000
926.668; 6356.225;  179.525;    0.000
926.842; 6588.225;  181.525;    0.000
927.016; 6314.225;  224.525;    0.000
927.190; 6282.225;  193.525;    0.000
927.363; 5889.225;  194.525;    0.000
927.537; 5636.225;  210.525;    0.000
927.711; 5486.225;  153.525;    0.000
927.885; 5303.225;  184.525;    0.000
928.058; 5097.225;  197.525;    0.000
928.232; 4822.225;  219.525;    0.000
928.406; 4760.225;  175.525;    0.000
928.579; 4633.225;  179.525;    0.000
928.753; 4587.225;  208.525;    0.000
928.927; 4474.225;  163.525;    0.000
929.100; 4269.225;  138.525;    0.000
929.274; 4096.225;  160.525;    0.000
929.447; 4030.225;  152.525;    0.000
929.621; 4047.225;  168.525;    0.000
929.794; 3935.225;  152.525;    0.000
929.968; 3838.225;  163.525;    0.000
930.141; 3750.225;  164.525;    0.000
930.315; 3709.225;  170.525;    0.000
930.488; 3631.225;  216.525;    0.000
930.661; 3523.225;  184.525;    0.000
930.835; 3435.225;  156.525;    0.000
931.008; 3597.225;  206.525;    0.000
931.181; 3442.225;  163.525;    0.000
931.354; 3333.225;  198.525;    0.000
931.528; 3343.225;  156.525;    0.000
931.701; 3277.225;  170.525;    0.000
931.874; 3242.225;  167.525;    0.000
932.047; 3215.225;  146.525;    0.000
932.220; 3264.225;  159.525;    0.000
932.393; 3203.225;  186.525;    0.000
932.566; 3146.225;  147.525;    0.000
932.739; 3069.225;  192.525;    0.000
932.912; 3083.225;  197.525;    0.000
933.085; 3088.225;  176.525;    0.000
933.258; 2983.225;  171.525;    0.000
933.431; 2985.225;  150.525;    0.000
933.604; 2992.225;  176.525;    0.000
933.777; 3043.225;  215.525;    0.000
933.950; 2926.225;  164.525;    0.000
934.123; 2941.225;  174.525;    0.000
934.296; 2962.225;  203.525;    0.000
934.468; 2926.225;  208.525;    0.000
934.641; 2837.225;  182.525;    0.000
934.814; 2897.225;  170.525;    0.000
934.987; 2886.225;  183.525;    0.000
935.159; 2897.225;  154.525;    0.000
935.332; 2893.225;  178.525;    0.000
935.505; 2784.225;  213.525;    0.000
935.677; 2884.225;  173.525;    0.000
935.850; 2895.225;  190.525;    0.000
936.022; 2882.225;  205.525;    0.000
936.195; 2882.225;  201.525;    0.000
936.367; 2854.225;  189.525;    0.000
936.540; 2906.225;  179.525;    0.000
936.712; 2955.225;  195.525;    0.000
936.885; 3069.225;  207.525;    0.000
937.057; 2997.225;  163.525;    0.000
937.229; 3069.225;  175.525;    0.000
937.402; 3099.225;  168.525;    0.000
937.574; 3159.225;  136.525;    0.000
937.746; 3272.225;  166.525;    0.000
937.919; 3426.225;  178.525;    0.000
938.091; 3626.225;  192.525;    0.000
938.263; 3923.225;  164.525;    0.000
938.435; 4363.225;  204.525;    0.000
938.608; 5340.225;  153.525;    0.000
938.780; 6479.225;  159.525;    0.000
938.952; 6583.225;  160.525;    0.000
939.124; 6739.225;  156.525;    0.000
939.296; 8073.225;  110.525;    0.000
939.468; 8430.225;  135.525;    0.000
939.640; 7081.225;  144.525;    0.000
939.812; 6205.225;  232.525;    0.000
939.984; 5417.225;  128.525;    0.000
940.156; 4890.225;  195.525;    0.000
940.328; 4459.225;  226.525;    0.000
940.500; 4014.225;  146.525;    0.000
940.672; 3920.225;  190.525;    0.000
940.843; 3704.225;  156.525;    0.000
941.015; 3657.225;  200.525;    0.000
941.187; 3377.225;  159.525;    0.000
941.359; 3525.225;  183.525;    0.000
941.531; 3422.225;  137.525;    0.000
941.702; 3270.225;  186.525;    0.000
941.874; 3190.225;  164.525;    0.000
942.046; 3160.225;  202.525;    0.000
942.217; 3130.225;  146.525;    0.000
942.389; 3085.225;  165.525;    0.000
942.560; 3011.225;  191.525;    0.000
942.732; 2879.225;  240.525;    0.000
942.904; 2820.225;  173.525;    0.000
943.075; 2673.225;  157.525;    0.000
943.247; 2702.225;  155.525;    0.000
943.418; 2709.225;  164.525;    0.000
943.589; 2611.225;  150.525;    0.000
943.761; 2660.225;  143.525;    0.000
943.932; 2716.225;  151.525;    0.000
944.104; 2637.225;  194.525;    0.000
944.275; 2536.225;  154.525;    0.000
944.446; 2613.225;  169.525;    0.000
944.617; 2448.225;  138.525;    0.000
944.789; 2460.225;  158.525;    0.000
944.960; 2486.225;  197.525;    0.000
945.131; 2558.225;  139.525;    0.000
945.302; 2612.225;  169.525;    0.000
945.473; 2556.225;  149.525;    0.000
945.645; 2520.225;  171.525;    0.000
945.816; 2565.225;  167.525;    0.000
945.987; 2759.225;  156.525;    0.000
946.158; 2808.225;  185.525;    0.000
946.329; 2760.225;  201.525;    0.000
946.500; 2626.225;  182.525;    0.000
946.671; 2566.225;  156.525;    0.000
946.842; 2581.225;  190.525;    0.000
947.013; 2486.225;  159.525;    0.000
947.183; 2466.225;  209.525;    0.000
947.354; 2401.225;  171.525;    0.000
947.525; 2369.225;  180.525;    0.000
947.696; 2474.225;  163.525;    0.000
947.867; 2421.225;  168.525;    0.000
948.037; 2379.225;  153.525;    0.000
948.208; 2378.225;  178.525;    0.000
948.379; 2494.225;  192.525;    0.000
948.550; 2303.225;  180.525;    0.000
948.720; 2384.225;  196.525;    0.000
948.891; 2397.225;  173.525;    0.000
949.061; 2259.225;  207.525;    0.000
949.232; 2389.225;  176.525;    0.000
949.403; 2349.225;  152.525;    0.000
949.573; 2298.225;  186.525;    0.000
949.744; 2316.225;  181.525;    0.000
949.914; 2299.225;  174.525;    0.000
950.085; 2334.225;  146.525;    0.000
950.255; 2270.225;  162.525;    0.000
950.425; 2317.225;  189.525;    0.000
950.596; 2366.225;  175.525;    0.000
950.766; 2299.225;  209.525;    0.000
950.936; 2263.225;  201.525;    0.000
951.107; 2179.225;  141.525;    0.000
951.277; 2248.225;  211.525;    0.000
951.447; 2123.225;  218.525;    0.000
951.617; 2279.225;  191.525;    0.000
951.788; 2153.225;  193.525;    0.000
951.958; 2199.225;  217.525;    0.000
952.128; 2140.225;  192.525;    0.000
952.298; 2207.225;  237.525;    0.000
952.468; 2233.225;  194.525;    0.000
952.638; 2180.225;  201.525;    0.000
952.808; 2211.225;  203.525;    0.000
952.978; 2182.225;  216.525;    0.000
953.148; 2183.225;  209.525;    0.000
953.318; 2126.225;  213.525;    0.000
953.488; 2062.225;  161.525;    0.000
953.658; 2153.225;  222.525;    0.000
953.828; 2019.225;  196.525;    0.000
953.998; 2069.225;  227.525;    0.000
954.167; 2097.225;  163.525;    0.000
954.337; 2075.225;  201.525;    0.000
954.507; 2006.225;  227.525;    0.000
954.677; 1993.225;  204.525;    0.000
954.846; 2086.225;  210.525;    0.000
955.016; 2028.225;  198.525;    0.000
955.186; 2023.225;  203.525;    0.000
955.355; 2023.225;  198.525;    0.000
955.525; 2046.225;  198.525;    0.000
955.695; 1971.225;  187.525;    0.000
955.864; 1940.225;  243.525;    0.000
956.034; 2009.225;  192.525;    0.000
956.203; 1993.225;  259.525;    0.000
956.373; 1891.225;  185.525;    0.000
956.542; 1939.225;  230.525;    0.000
956.711; 1932.225;  218.525;    0.000
956.881; 1924.225;  232.525;    0.000
957.050; 1986.225;  246.525;    0.000
957.220; 1955.225;  229.525;    0.000
957.389; 1877.225;  211.525;    0.000
957.558; 1950.225;  173.525;    0.000
957.727; 1912.225;  226.525;    0.000
957.897; 1963.225;  209.525;    0.000
958.066; 1891.225;  217.525;    0.000
958.235; 1884.225;  160.525;    0.000
958.404; 1899.225;  199.525;    0.000
958.573; 1906.225;  223.525;    0.000
958.743; 1853.225;  189.525;    0.000
958.912; 1861.225;  199.525;    0.000
959.081; 1838.225;  216.525;    0.000
959.250; 1773.225;  192.525;    0.000
959.419; 1879.225;  216.525;    0.000
959.588; 1884.225;  209.525;    0.000
959.757; 1740.225;  194.525;    0.000
959.926; 1857.225;  200.525;    0.000
960.094; 1764.225;  174.525;    0.000
960.263; 1845.225;  218.525;    0.000
960.432; 1798.225;  173.525;    0.000
960.601; 1800.225;  177.525;    0.000
960.770; 1766.225;  188.525;    0.000
960.939; 1800.225;  167.525;    0.000
961.107; 1794.225;  195.525;    0.000
961.276; 1735.225;  183.525;    0.000
961.445; 1760.225;  195.525;    0.000
961.613; 1721.225;  198.525;    0.000
961.782; 1798.225;  224.525;    0.000
961.951; 1811.225;  178.525;    0.000
962.119; 1763.225;  214.525;    0.000
962.288; 1774.225;  174.525;    0.000
962.456; 1726.225;  197.525;    0.000
962.625; 1793.225;  212.525;    0.000
962.793; 1747.225;  183.525;    0.000
962.962; 1719.225;  189.525;    0.000
963.130; 1701.225;  151.525;    0.000
963.298; 1709.225;  197.525;    0.000
963.467; 1758.225;  202.525;    0.000
963.635; 1709.225;  172.525;    0.000
963.803; 1831.225;  203.525;    0.000
963.972; 1778.225;  204.525;    0.000
964.140; 1756.225;  193.525;    0.000
964.308; 1751.225;  159.525;    0.000
964.477; 1732.225;  142.525;    0.000
964.645; 1733.225;  202.525;    0.000
964.813; 1705.225;  158.525;    0.000
964.981; 1726.225;  179.525;    0.000
965.149; 1787.225;  176.525;    0.000
965.317; 1804.225;  229.525;    0.000
965.485; 1758.225;  179.525;    0.000
965.653; 1796.225;  205.525;    0.000
965.821; 1741.225;  196.525;    0.000
965.989; 1727.225;  202.525;    0.000
966.157; 1714.225;  199.525;    0.000
966.325; 1685.225;  178.525;    0.000
966.493; 1742.225;  177.525;    0.000
966.661; 1790.225;  172.525;    0.000
966.829; 1747.225;  167.525;    0.000
966.996; 1677.225;  202.525;    0.000
967.164; 1690.225;  175.525;    0.000
967.332; 1783.225;  207.525;    0.000
967.500; 1729.225;  170.525;    0.000
967.667; 1767.225;  222.525;    0.000
967.835; 1758.225;  245.525;    0.000
968.003; 1755.225;  180.525;    0.000
968.170; 1785.225;  222.525;    0.000
968.338; 1778.225;  183.525;    0.000
968.505; 1725.225;  197.525;    0.000
968.673; 1733.225;  209.525;    0.000
968.841; 1721.225;  162.525;    0.000
969.008; 1818.225;  187.525;    0.000
969.175; 1759.225;  204.525;    0.000
969.343; 1740.225;  157.525;    0.000
969.510; 1762.225;  189.525;    0.000
969.678; 1706.225;  153.525;    0.000
969.845; 1733.225;  190.525;    0.000
970.012; 1735.225;  162.525;    0.000
970.180; 1758.225;  223.525;    0.000
970.347; 1647.225;  195.525;    0.000
970.514; 1641.225;  185.525;    0.000
970.681; 1644.225;  187.525;    0.000
970.849; 1679.225;  183.525;    0.000
971.016; 1747.225;  168.525;    0.000
971.183; 1655.225;  160.525;    0.000
971.350; 1714.225;  193.525;    0.000
971.517; 1590.225;  202.525;    0.000
971.684; 1705.225;  242.525;    0.000
971.851; 1689.225;  192.525;    0.000
972.018; 1723.225;  194.525;    0.000
972.185; 1669.225;  193.525;    0.000
972.352; 1647.225;  187.525;    0.000
972.519; 1704.225;  233.525;    0.000
972.686; 1664.225;  186.525;    0.000
972.853; 1641.225;  165.525;    0.000
973.020; 1622.225;  183.525;    0.000
973.186; 1667.225;  186.525;    0.000
973.353; 1694.225;  177.525;    0.000
973.520; 1630.225;  203.525;    0.000
973.687; 1674.225;  211.525;    0.000
973.853; 1703.225;  194.525;    0.000
974.020; 1725.225;  201.525;    0.000
974.187; 1585.225;  187.525;    0.000
974.353; 1693.225;  188.525;    0.000
974.520; 1643.225;  136.525;    0.000
974.687; 1661.225;  169.525;    0.000
974.853; 1648.225;  207.525;    0.000
975.020; 1642.225;  190.525;    0.000
975.186; 1674.225;  182.525;    0.000
975.353; 1653.225;  202.525;    0.000
975.519; 1612.225;  189.525;    0.000
975.685; 1634.225;  176.525;    0.000
975.852; 1583.225;  175.525;    0.000
976.018; 1569.225;  155.525;    0.000
976.184; 1688.225;  179.525;    0.000
976.351; 1622.225;  191.525;    0.000
976.517; 1645.225;  246.525;    0.000
976.683; 1621.225;  222.525;    0.000
976.849; 1692.225;  216.525;    0.000
977.016; 1556.225;  212.525;    0.000
977.182; 1603.225;  192.525;    0.000
977.348; 1570.225;  145.525;    0.000
977.514; 1570.225;  195.525;    0.000
977.680; 1632.225;  210.525;    0.000
977.846; 1640.225;  172.525;    0.000
978.012; 1609.225;  190.525;    0.000
978.178; 1597.225;  201.525;    0.000
978.344; 1615.225;  190.525;    0.000
978.510; 1594.225;  199.525;    0.000
978.676; 1634.225;  174.525;    0.000
978.842; 1696.225;  195.525;    0.000
979.008; 1702.225;  205.525;    0.000
979.174; 1677.225;  187.525;    0.000
979.340; 1591.225;  194.525;    0.000
979.505; 1649.225;  221.525;    0.000
979.671; 1586.225;  178.525;    0.000
979.837; 1681.225;  215.525;    0.000
980.003; 1598.225;  176.525;    0.000
980.168; 1651.225;  185.525;    0.000
980.334; 1630.225;  165.525;    0.000
980.499; 1701.225;  231.525;    0.000
980.665; 1666.225;  238.525;    0.000
980.831; 1681.225;  194.525;    0.000
980.996; 1573.225;  169.525;    0.000
981.162; 1673.225;  199.525;    0.000
981.327; 1624.225;  158.525;    0.000
981.493; 1645.225;  193.525;    0.000
981.658; 1612.225;  181.525;    0.000
981.823; 1650.225;  199.525;    0.000
981.989; 1708.225;  186.525;    0.000
982.154; 1680.225;  225.525;    0.000
982.319; 1700.225;  191.525;    0.000
982.485; 1716.225;  205.525;    0.000
982.650; 1775.225;  234.525;    0.000
982.815; 1684.225;  193.525;    0.000
982.980; 1696.225;  177.525;    0.000
983.146; 1660.225;  212.525;    0.000
983.311; 1700.225;  177.525;    0.000
983.476; 1673.225;  185.525;    0.000
983.641; 1636.225;  149.525;    0.000
983.806; 1594.225;  175.525;    0.000
983.971; 1652.225;  234.525;    0.000
984.136; 1632.225;  191.525;    0.000
984.301; 1670.225;  215.525;    0.000
984.466; 1644.225;  207.525;    0.000
984.631; 1647.225;  206.525;    0.000
984.796; 1592.225;  229.525;    0.000
984.961; 1642.225;  220.525;    0.000
985.126; 1671.225;  204.525;    0.000
985.291; 1618.225;  210.525;    0.000
985.455; 1633.225;  193.525;    0.000
985.620; 1630.225;  207.525;    0.000
985.785; 1603.225;  188.525;    0.000
985.950; 1633.225;  168.525;    0.000
986.114; 1607.225;  239.525;    0.000
986.279; 1664.225;  223.525;    0.000
986.444; 1715.225;  154.525;    0.000
986.608; 1763.225;  232.525;    0.000
986.773; 1752.225;  214.525;    0.000
986.937; 1775.225;  220.525;    0.000
987.102; 1710.225;  224.525;    0.000
987.266; 1603.225;  157.525;    0.000
987.431; 1701.225;  246.525;    0.000
987.595; 1722.225;  203.525;    0.000
987.760; 1679.225;  202.525;    0.000
987.924; 1671.225;  208.525;    0.000
988.088; 1639.225;  169.525;    0.000
988.253; 1724.225;  237.525;    0.000
988.417; 1661.225;  202.525;    0.000
988.581; 1637.225;  215.525;    0.000
988.746; 1579.225;  210.525;    0.000
988.910; 1645.225;  191.525;    0.000
989.074; 1616.225;  197.525;    0.000
989.238; 1638.225;  191.525;    0.000
989.402; 1674.225;  222.525;    0.000
989.566; 1559.225;  221.525;    0.000
989.731; 1570.225;  216.525;    0.000
989.895; 1572.225;  183.525;    0.000
990.059; 1557.225;  150.525;    0.000
990.223; 1479.225;  183.525;    0.000
990.387; 1527.225;  241.525;    0.000
990.551; 1535.225;  198.525;    0.000
990.714; 1534.225;  176.525;    0.000
990.878; 1524.225;  203.525;    0.000
991.042; 1517.225;  146.525;    0.000
991.206; 1551.225;  199.525;    0.000
991.370; 1535.225;  223.525;    0.000
991.534; 1529.225;  158.525;    0.000
991.697; 1466.225;  182.525;    0.000
991.861; 1556.225;  195.525;    0.000
992.025; 1477.225;  206.525;    0.000
992.188; 1573.225;  174.525;    0.000
992.352; 1500.225;  183.525;    0.000
992.516; 1499.225;  181.525;    0.000
992.679; 1474.225;  162.525;    0.000
992.843; 1522.225;  173.525;    0.000
993.006; 1532.225;  189.525;    0.000
993.170; 1528.225;  200.525;    0.000
993.333; 1463.225;  167.525;    0.000
993.497; 1545.225;  217.525;    0.000
993.660; 1489.225;  179.525;    0.000
993.824; 1498.225;  195.525;    0.000
993.987; 1520.225;  186.525;    0.000
994.150; 1553.225;  164.525;    0.000
994.314; 1542.225;  215.525;    0.000
994.477; 1504.225;  186.525;    0.000
994.640; 1453.225;  192.525;    0.000
994.803; 1478.225;  215.525;    0.000
994.967; 1440.225;  208.525;    0.000
995.130; 1483.225;  196.525;    0.000
995.293; 1446.225;  221.525;    0.000
995.456; 1464.225;  164.525;    0.000
995.619; 1459.225;  224.525;    0.000
995.782; 1456.225;  184.525;    0.000
995.945; 1511.225;  220.525;    0.000
996.108; 1457.225;  187.525;    0.000
996.271; 1500.225;  192.525;    0.000
996.434; 1453.225;  162.525;    0.000
996.597; 1452.225;  148.525;    0.000
996.760; 1409.225;  186.525;    0.000
996.923; 1470.225;  154.525;    0.000
997.086; 1450.225;  156.525;    0.000
997.248; 1466.225;  215.525;    0.000
997.411; 1454.225;  160.525;    0.000
997.574; 1370.225;  159.525;    0.000
997.737; 1463.225;  179.525;    0.000
997.899; 1455.225;  184.525;    0.000
998.062; 1463.225;  180.525;    0.000
998.225; 1375.225;  168.525;    0.000
998.387; 1491.225;  192.525;    0.000
998.550; 1439.225;  178.525;    0.000
998.712; 1421.225;  192.525;    0.000
998.875; 1407.225;  230.525;    0.000
999.037; 1379.225;  200.525;    0.000
999.200; 1451.225;  196.525;    0.000
999.362; 1433.225;  173.525;    0.000
999.525; 1472.225;  196.525;    0.000
999.687; 1441.225;  159.525;    0.000
999.849; 1435.225;  180.525;    0.000
1000.012; 1433.225;  210.525;    0.000
1000.174; 1430.225;  175.525;    0.000
1000.336; 1466.225;  174.525;    0.000
1000.499; 1428.225;  180.525;    0.000
1000.661; 1429.225;  204.525;    0.000
1000.823; 1416.225;  181.525;    0.000
1000.985; 1459.225;  178.525;    0.000
1001.147; 1579.225;  215.525;    0.000
1001.309; 1478.225;  212.525;    0.000
1001.471; 1498.225;  192.525;    0.000
1001.633; 1542.225;  207.525;    0.000
1001.796; 1475.225;  211.525;    0.000
1001.958; 1515.225;  200.525;    0.000
1002.119; 1423.225;  210.525;    0.000
1002.281; 1561.225;  204.525;    0.000
1002.443; 1551.225;  230.525;    0.000
1002.605; 1603.225;  178.525;    0.000
1002.767; 1657.225;  228.525;    0.000
1002.929; 1689.225;  199.525;    0.000
1003.091; 1748.225;  220.525;    0.000
1003.252; 1789.225;  219.525;    0.000
1003.414; 1781.225;  213.525;    0.000
1003.576; 1850.225;  202.525;    0.000
1003.738; 1912.225;  184.525;    0.000
1003.899; 1998.225;  218.525;    0.000
1004.061; 2058.225;  210.525;    0.000
1004.222; 2028.225;  179.525;    0.000
1004.384; 2097.225;  183.525;    0.000
1004.546; 2160.225;  206.525;    0.000
1004.707; 2149.225;  191.525;    0.000
1004.869; 2245.225;  197.525;    0.000
1005.030; 2078.225;  186.525;    0.000
1005.191; 2098.225;  188.525;    0.000
1005.353; 2002.225;  215.525;    0.000
1005.514; 2006.225;  184.525;    0.000
1005.675; 2022.225;  209.525;    0.000
1005.837; 1917.225;  239.525;    0.000
1005.998; 1935.225;  218.525;    0.000
1006.159; 1863.225;  212.525;    0.000
1006.321; 1995.225;  220.525;    0.000
1006.482; 1973.225;  201.525;    0.000
1006.643; 2080.225;  222.525;    0.000
1006.804; 2139.225;  191.525;    0.000
1006.965; 2179.225;  214.525;    0.000
1007.126; 2225.225;  214.525;    0.000
1007.287; 2090.225;  243.525;    0.000
1007.448; 2080.225;  251.525;    0.000
1007.609; 2167.225;  244.525;    0.000
1007.770; 2063.225;  211.525;    0.000
1007.931; 2088.225;  225.525;    0.000
1008.092; 2145.225;  188.525;    0.000
1008.253; 2178.225;  224.525;    0.000
1008.414; 2271.225;  198.525;    0.000
1008.575; 2305.225;  244.525;    0.000
1008.736; 2236.225;  219.525;    0.000
1008.896; 2196.225;  206.525;    0.000
1009.057; 2191.225;  258.525;    0.000
1009.218; 2219.225;  209.525;    0.000
1009.379; 2248.225;  204.525;    0.000
1009.539; 2334.225;  242.525;    0.000
1009.700; 2354.225;  205.525;    0.000
1009.860; 2353.225;  211.525;    0.000
1010.021; 2373.225;  219.525;    0.000
1010.182; 2468.225;  206.525;    0.000
1010.342; 2359.225;  219.525;    0.000
1010.503; 2609.225;  231.525;    0.000
1010.663; 2742.225;  260.525;    0.000
1010.823; 2830.225;  200.525;    0.000
1010.984; 2928.225;  189.525;    0.000
1011.144; 3093.225;  234.525;    0.000
1011.305; 3146.225;  212.525;    0.000
1011.465; 3335.225;  202.525;    0.000
1011.625; 3505.225;  236.525;    0.000
1011.785; 3546.225;  203.525;    0.000
1011.946; 3464.225;  195.525;    0.000
1012.106; 3295.225;  176.525;    0.000
1012.266; 3261.225;  211.525;    0.000
1012.426; 3272.225;  244.525;    0.000
1012.586; 3161.225;  202.525;    0.000
1012.746; 3132.225;  234.525;    0.000
1012.906; 3123.225;  246.525;    0.000
1013.066; 3130.225;  232.525;    0.000
1013.226; 3086.225;  248.525;    0.000
1013.386; 3006.225;  231.525;    0.000
1013.546; 2968.225;  233.525;    0.000
1013.706; 2821.225;  211.525;    0.000
1013.866; 2841.225;  240.525;    0.000
1014.026; 2799.225;  188.525;    0.000
1014.186; 2821.225;  186.525;    0.000
1014.346; 2810.225;  203.525;    0.000
1014.505; 2774.225;  238.525;    0.000
1014.665; 2824.225;  206.525;    0.000
1014.825; 2851.225;  200.525;    0.000
1014.985; 2752.225;  215.525;    0.000
1015.144; 2903.225;  250.525;    0.000
1015.304; 2895.225;  195.525;    0.000
1015.464; 2856.225;  237.525;    0.000
1015.623; 2769.225;  232.525;    0.000
1015.783; 2860.225;  220.525;    0.000
1015.942; 2979.225;  219.525;    0.000
1016.102; 2957.225;  202.525;    0.000
1016.261; 2906.225;  225.525;    0.000
1016.420; 3120.225;  246.525;    0.000
1016.580; 3432.225;  226.525;    0.000
1016.739; 3305.225;  214.525;    0.000
1016.899; 3234.225;  205.525;    0.000
1017.058; 3297.225;  217.525;    0.000
1017.217; 3468.225;  199.525;    0.000
1017.376; 3324.225;  219.525;    0.000
1017.536; 3092.225;  209.525;    0.000
1017.695; 3103.225;  213.525;    0.000
1017.854; 3172.225;  187.525;    0.000
1018.013; 3038.225;  222.525;    0.000
1018.172; 2870.225;  204.525;    0.000
1018.331; 2874.225;  195.525;    0.000
1018.490; 3065.225;  213.525;    0.000
1018.649; 3168.225;  216.525;    0.000
1018.808; 3303.225;  227.525;    0.000
1018.967; 3127.225;  206.525;    0.000
1019.126; 3181.225;  206.525;    0.000
1019.285; 3168.225;  219.525;    0.000
1019.444; 3220.225;  218.525;    0.000
1019.603; 3115.225;  206.525;    0.000
1019.762; 3013.225;  189.525;    0.000
1019.921; 3024.225;  217.525;    0.000
1020.079; 3126.225;  200.525;    0.000
1020.238; 3308.225;  219.525;    0.000
1020.397; 3237.225;  227.525;    0.000
1020.555; 3134.225;  207.525;    0.000
1020.714; 3194.225;  253.525;    0.000
1020.873; 3341.225;  230.525;    0.000
1021.031; 3270.225;  232.525;    0.000
1021.190; 3128.225;  226.525;    0.000
1021.348; 3083.225;  224.525;    0.000
1021.507; 3241.225;  215.525;    0.000
1021.665; 3418.225;  233.525;    0.000
1021.824; 3289.225;  196.525;    0.000
1021.982; 3048.225;  215.525;    0.000
1022.141; 3193.225;  200.525;    0.000
1022.299; 3502.225;  200.525;    0.000
1022.457; 3613.225;  179.525;    0.000
1022.616; 3302.225;  226.525;    0.000
1022.774; 3108.225;  216.525;    0.000
1022.932; 3272.225;  212.525;    0.000
1023.090; 3465.225;  220.525;    0.000
1023.249; 3654.225;  194.525;    0.000
1023.407; 3303.225;  227.525;    0.000
1023.565; 3010.225;  190.525;    0.000
1023.723; 3254.225;  190.525;    0.000
1023.881; 3586.225;  214.525;    0.000
1024.039; 3631.225;  179.525;    0.000
1024.197; 3309.225;  274.525;    0.000
1024.355; 3187.225;  269.525;    0.000
1024.513; 3367.225;  259.525;    0.000
1024.671; 3665.225;  211.525;    0.000
1024.829; 3585.225;  230.525;    0.000
1024.987; 3308.225;  239.525;    0.000
1025.145; 3261.225;  231.525;    0.000
1025.302; 3333.225;  212.525;    0.000
1025.460; 3642.225;  224.525;    0.000
1025.618; 3620.225;  217.525;    0.000
1025.776; 3540.225;  232.525;    0.000
1025.933; 3362.225;  212.525;    0.000
1026.091; 3300.225;  214.525;    0.000
1026.249; 3565.225;  224.525;    0.000
1026.406; 3798.225;  219.525;    0.000
1026.564; 3732.225;  262.525;    0.000
1026.721; 3493.225;  206.525;    0.000
1026.879; 3404.225;  227.525;    0.000
1027.036; 3668.225;  234.525;    0.000
1027.194; 3735.225;  256.525;    0.000
1027.351; 3942.225;  229.525;    0.000
1027.509; 3666.225;  253.525;    0.000
1027.666; 3480.225;  248.525;    0.000
1027.823; 3770.225;  215.525;    0.000
1027.981; 3939.225;  248.525;    0.000
1028.138; 3951.225;  257.525;    0.000
1028.295; 3809.225;  215.525;    0.000
1028.452; 3512.225;  236.525;    0.000
1028.609; 3555.225;  240.525;    0.000
1028.767; 3799.225;  258.525;    0.000
1028.924; 3921.225;  211.525;    0.000
1029.081; 3826.225;  226.525;    0.000
1029.238; 3734.225;  228.525;    0.000
1029.395; 3619.225;  264.525;    0.000
1029.552; 3711.225;  227.525;    0.000
1029.709; 3906.225;  232.525;    0.000
1029.866; 4047.225;  223.525;    0.000
1030.023; 3999.225;  220.525;    0.000
1030.180; 3671.225;  222.525;    0.000
1030.337; 3693.225;  224.525;    0.000
1030.494; 3983.225;  228.525;    0.000
1030.650; 4037.225;  242.525;    0.000
1030.807; 4129.225;  214.525;    0.000
1030.964; 3861.225;  207.525;    0.000
1031.121; 3728.225;  236.525;    0.000
1031.277; 3719.225;  206.525;    0.000
1031.434; 3866.225;  249.525;    0.000
1031.591; 4236.225;  253.525;    0.000
1031.747; 4248.225;  240.525;    0.000
1031.904; 4200.225;  212.525;    0.000
1032.060; 4031.225;  185.525;    0.000
1032.217; 3753.225;  201.525;    0.000
1032.373; 4286.225;  207.525;    0.000
1032.530; 4314.225;  226.525;    0.000
1032.686; 4714.225;  226.525;    0.000
1032.843; 4665.225;  203.525;    0.000
1032.999; 4534.225;  233.525;    0.000
1033.155; 4623.225;  232.525;    0.000
1033.312; 4739.225;  239.525;    0.000
1033.468; 5175.225;  207.525;    0.000
1033.624; 5586.225;  238.525;    0.000
1033.780; 5893.225;  255.525;    0.000
1033.937; 5659.225;  188.525;    0.000
1034.093; 5573.225;  244.525;    0.000
1034.249; 5455.225;  182.525;    0.000
1034.405; 5329.225;  251.525;    0.000
1034.561; 5802.225;  250.525;    0.000
1034.717; 5889.225;  208.525;    0.000
1034.873; 6016.225;  210.525;    0.000
1035.029; 6343.225;  245.525;    0.000
1035.185; 5980.225;  230.525;    0.000
1035.341; 5693.225;  209.525;    0.000
1035.497; 5952.225;  244.525;    0.000
1035.653; 6094.225;  229.525;    0.000
1035.809; 6721.225;  275.525;    0.000
1035.964; 7050.225;  203.525;    0.000
1036.120; 6660.225;  215.525;    0.000
1036.276; 6844.225;  228.525;    0.000
1036.432; 6659.225;  183.525;    0.000
1036.587; 6198.225;  214.525;    0.000
1036.743; 6805.225;  240.525;    0.000
1036.899; 7094.225;  202.525;    0.000
1037.054; 7338.225;  182.525;    0.000
1037.210; 7993.225;  228.525;    0.000
1037.365; 7971.225;  239.525;    0.000
1037.521; 7768.225;  230.525;    0.000
1037.676; 7541.225;  217.525;    0.000
1037.832; 6877.225;  235.525;    0.000
1037.987; 6936.225;  210.525;    0.000
1038.143; 6841.225;  206.525;    0.000
1038.298; 7962.225;  177.525;    0.000
1038.453; 8254.225;  215.525;    0.000
1038.609; 9006.225;  210.525;    0.000
1038.764; 8898.225;  227.525;    0.000
1038.919; 8748.225;  197.525;    0.000
1039.074; 8153.225;  183.525;    0.000
1039.229; 7659.225;  218.525;    0.000
1039.385; 7629.225;  251.525;    0.000
1039.540; 7933.225;  222.525;    0.000
1039.695; 8366.225;  215.525;    0.000
1039.850; 9422.225;  204.525;    0.000
1040.005;10021.225;  241.525;    0.000
1040.160;10194.225;  180.525;    0.000
1040.315;10002.225;  197.525;    0.000
1040.470; 9535.225;  180.525;    0.000
1040.625; 8615.225;  196.525;    0.000
1040.780; 8918.225;  245.525;    0.000
1040.935; 8517.225;  204.525;    0.000
1041.089; 9043.225;  213.525;    0.000
1041.244;10289.225;  200.525;    0.000
1041.399;10547.225;  212.525;    0.000
1041.554;11779.225;  239.525;    0.000
1041.708;12884.225;  238.525;    0.000
1041.863;12141.225;  213.525;    0.000
1042.018;11980.225;  236.525;    0.000
1042.172;11399.225;  238.525;    0.000
1042.327;10781.225;  254.525;    0.000
1042.481;11132.225;  197.525;    0.000
1042.636;11266.225;  205.525;    0.000
1042.791;11494.225;  218.525;    0.000
1042.945;12983.225;  261.525;    0.000
1043.099;14718.225;  201.525;    0.000
1043.254;14548.225;  191.525;    0.000
1043.408;15099.225;  279.525;    0.000
1043.563;15227.225;  203.525;    0.000
1043.717;15143.225;  229.525;    0.000
1043.871;13377.225;  213.525;    0.000
1044.025;13026.225;  240.525;    0.000
1044.180;12951.225;  220.525;    0.000
1044.334;13453.225;  268.525;    0.000
1044.488;13699.225;  261.525;    0.000
1044.642;15056.225;  205.525;    0.000
1044.796;16837.225;  240.525;    0.000
1044.950;18555.225;  258.525;    0.000
1045.104;20154.225;  218.525;    0.000
1045.258;19557.225;  213.525;    0.000
1045.412;18628.225;  223.525;    0.000
1045.566;18100.225;  240.525;    0.000
1045.720;17655.225;  235.525;    0.000
1045.874;16211.225;  221.525;    0.000
1046.028;15030.225;  247.525;    0.000
1046.182;15524.225;  200.525;    0.000
1046.336;16860.225;  220.525;    0.000
1046.489;17683.225;  228.525;    0.000
1046.643;17845.225;  249.525;    0.000
1046.797;19435.225;  230.525;    0.000
1046.951;20018.225;  234.525;    0.000
1047.104;20016.225;  262.525;    0.000
1047.258;21153.225;  210.525;    0.000
1047.411;21578.225;  235.525;    0.000
1047.565;21479.225;  237.525;    0.000
1047.719;20259.225;  237.525;    0.000
1047.872;19442.225;  225.525;    0.000
1048.026;19396.225;  237.525;    0.000
1048.179;19579.225;  220.525;    0.000
1048.332;18887.225;  219.525;    0.000
1048.486;17753.225;  195.525;    0.000
1048.639;18219.225;  213.525;    0.000
1048.792;19284.225;  245.525;    0.000
1048.946;21425.225;  234.525;    0.000
1049.099;24109.225;  226.525;    0.000
1049.252;24064.225;  282.525;    0.000
1049.406;22373.225;  255.525;    0.000
1049.559;23092.225;  223.525;    0.000
1049.712;24096.225;  253.525;    0.000
1049.865;26410.225;  271.525;    0.000
1050.018;26018.225;  241.525;    0.000
1050.171;23484.225;  202.525;    0.000
1050.324;22506.225;  250.525;    0.000
1050.477;23646.225;  251.525;    0.000
1050.630;23701.225;  216.525;    0.000
1050.783;25239.225;  205.525;    0.000
1050.936;23684.225;  219.525;    0.000
1051.089;22929.225;  247.525;    0.000
1051.242;25059.225;  238.525;    0.000
1051.394;27960.225;  252.525;    0.000
1051.547;28355.225;  245.525;    0.000
1051.700;26510.225;  206.525;    0.000
1051.853;26146.225;  270.525;    0.000
1052.005;28467.225;  245.525;    0.000
1052.158;31300.225;  290.525;    0.000
1052.311;33875.227;  237.525;    0.000
1052.463;32621.225;  271.525;    0.000
1052.616;28607.225;  255.525;    0.000
1052.768;25511.225;  257.525;    0.000
1052.921;25646.225;  289.525;    0.000
1053.073;26731.225;  287.525;    0.000
1053.226;29208.225;  268.525;    0.000
1053.378;33121.227;  294.525;    0.000
1053.531;34559.227;  255.525;    0.000
1053.683;33583.227;  293.525;    0.000
1053.835;30035.225;  274.525;    0.000
1053.988;23626.225;  282.525;    0.000
1054.140; 4258.225;  291.525;    0.000
1054.292; 1001.225;  292.525;    0.000
1054.444;  843.225;  299.525;    0.000
1054.596;  827.225;  319.525;    0.000
1054.749;  763.225;  295.525;    0.000
1054.901;  661.225;  266.525;    0.000
1055.053;  666.225;  300.525;    0.000
1055.205;  637.225;  290.525;    0.000
1055.357;  615.225;  304.525;    0.000
1055.509;  585.225;  292.525;    0.000
1055.661;  602.225;  339.525;    0.000
1055.813;  557.225;  306.525;    0.000
1055.965;  604.225;  293.525;    0.000
1056.116;  539.225;  300.525;    0.000
1056.268;  608.225;  306.525;    0.000
1056.420;  603.225;  288.525;    0.000

