
Integration time [ms]:   1.000
Averaging Nr. [scans]: 1
Smoothing Nr. [pixels]: 0
Data measured with spectrometer [name]: NIR
Wave   ;Sample   ;Dark     ;Reference
[nm]   ;[counts] ;[counts] ;[counts] 

691.496;   18.650;  163.125;    0.000
691.696;  -13.350;  208.125;    0.000
691.896;  -47.350;  111.125;    0.000
692.096;    2.650;  178.125;    0.000
692.296;  -77.350;   93.125;    0.000
692.496;  -86.350;  161.125;    0.000
692.695;  -72.350;  135.125;    0.000
692.895;  -23.350;  179.125;    0.000
693.095;  -46.350;  158.125;    0.000
693.295;   25.650;  168.125;    0.000
693.495;  -11.350;  170.125;    0.000
693.695;  -34.350;  155.125;    0.000
693.894;  -43.350;  151.125;    0.000
694.094;  -39.350;  164.125;    0.000
694.294;  -21.350;  129.125;    0.000
694.494;  290.650;  170.125;    0.000
694.693; 3152.650;  137.125;    0.000
694.893; 3518.650;  163.125;    0.000
695.093; 3508.650;  121.125;    0.000
695.293; 3507.650;  144.125;    0.000
695.492; 3519.650;   88.125;    0.000
695.692; 3554.650;  148.125;    0.000
695.891; 3537.650;  125.125;    0.000
696.091; 3592.650;  184.125;    0.000
696.291; 3503.650;  153.125;    0.000
696.490; 3651.650;  131.125;    0.000
696.690; 3735.650;  123.125;    0.000
696.889; 3714.650;  180.125;    0.000
697.089; 3606.650;  147.125;    0.000
697.288; 3665.650;  164.125;    0.000
697.488; 3615.650;  133.125;    0.000
697.687; 3669.650;  153.125;    0.000
697.887; 3639.650;  119.125;    0.000
698.086; 3751.650;  143.125;    0.000
698.286; 3730.650;  125.125;    0.000
698.485; 3635.650;  120.125;    0.000
698.684; 3676.650;  116.125;    0.000
698.884; 3681.650;  131.125;    0.000
699.083; 3659.650;  115.125;    0.000
699.282; 3687.650;  144.125;    0.000
699.482; 3649.650;  109.125;    0.000
699.681; 3760.650;  115.125;    0.000
699.880; 3662.650;  125.125;    0.000
700.080; 3757.650;  139.125;    0.000
700.279; 3741.650;  111.125;    0.000
700.478; 3808.650;  146.125;    0.000
700.677; 3774.650;  131.125;    0.000
700.877; 3793.650;  156.125;    0.000
701.076; 3832.650;  153.125;    0.000
701.275; 3674.650;  123.125;    0.000
701.474; 3722.650;  150.125;    0.000
701.673; 3717.650;   97.125;    0.000
701.872; 3874.650;  139.125;    0.000
702.071; 3872.650;  108.125;    0.000
702.271; 3805.650;  125.125;    0.000
702.470; 3879.650;  108.125;    0.000
702.669; 3736.650;  102.125;    0.000
702.868; 3795.650;  153.125;    0.000
703.067; 3904.650;  145.125;    0.000
703.266; 3788.650;   96.125;    0.000
703.465; 3859.650;  165.125;    0.000
703.664; 3868.650;  106.125;    0.000
703.863; 3831.650;  144.125;    0.000
704.062; 3796.650;   86.125;    0.000
704.260; 3786.650;   99.125;    0.000
704.459; 3911.650;  112.125;    0.000
704.658; 3914.650;  106.125;    0.000
704.857; 3857.650;  129.125;    0.000
705.056; 3880.650;   98.125;    0.000
705.255; 3835.650;   97.125;    0.000
705.454; 3787.650;  101.125;    0.000
705.652; 3991.650;  142.125;    0.000
705.851; 3896.650;  100.125;    0.000
706.050; 3926.650;  162.125;    0.000
706.249; 3915.650;  146.125;    0.000
706.447; 3933.650;  120.125;    0.000
706.646; 3875.650;  114.125;    0.000
706.845; 3922.650;  117.125;    0.000
707.043; 3979.650;  136.125;    0.000
707.242; 3905.650;   90.125;    0.000
707.441; 3848.650;  131.125;    0.000
707.639; 3935.650;  120.125;    0.000
707.838; 4003.650;  122.125;    0.000
708.037; 3955.650;  109.125;    0.000
708.235; 3944.650;  122.125;    0.000
708.434; 4028.650;  109.125;    0.000
708.632; 3861.650;   47.125;    0.000
708.831; 4083.650;  122.125;    0.000
709.029; 4005.650;  130.125;    0.000
709.228; 4020.650;  112.125;    0.000
709.426; 3912.650;  128.125;    0.000
709.625; 4086.650;  129.125;    0.000
709.823; 4037.650;  130.125;    0.000
710.022; 4012.650;   90.125;    0.000
710.220; 4112.650;  131.125;    0.000
710.418; 4078.650;  133.125;    0.000
710.617; 4115.650;   82.125;    0.000
710.815; 4130.650;   90.125;    0.000
711.013; 4058.650;   86.125;    0.000
711.212; 4166.650;  117.125;    0.000
711.410; 4153.650;  106.125;    0.000
711.608; 4145.650;  138.125;    0.000
711.807; 4205.650;  116.125;    0.000
712.005; 4223.650;   82.125;    0.000
712.203; 4101.650;   90.125;    0.000
712.401; 4180.650;  124.125;    0.000
712.599; 4136.650;   64.125;    0.000
712.798; 4284.650;  113.125;    0.000
712.996; 4181.650;  100.125;    0.000
713.194; 4172.650;  130.125;    0.000
713.392; 4222.650;   89.125;    0.000
713.590; 4266.650;  105.125;    0.000
713.788; 4244.650;  100.125;    0.000
713.986; 4260.650;  117.125;    0.000
714.184; 4354.650;   72.125;    0.000
714.382; 4395.650;   88.125;    0.000
714.580; 4281.650;   88.125;    0.000
714.778; 4428.650;  129.125;    0.000
714.976; 4408.650;   90.125;    0.000
715.174; 4673.650;  119.125;    0.000
715.372; 4755.650;  117.125;    0.000
715.570; 4870.650;  101.125;    0.000
715.768; 5168.650;  122.125;    0.000
715.966; 5208.650;  114.125;    0.000
716.164; 5184.650;  135.125;    0.000
716.362; 4993.650;  126.125;    0.000
716.560; 5047.650;  126.125;    0.000
716.758; 4850.650;   98.125;    0.000
716.955; 4756.650;   76.125;    0.000
717.153; 4774.650;   45.125;    0.000
717.351; 4750.650;  106.125;    0.000
717.549; 4683.650;  108.125;    0.000
717.746; 4677.650;   66.125;    0.000
717.944; 4736.650;  127.125;    0.000
718.142; 4683.650;  148.125;    0.000
718.340; 4665.650;   94.125;    0.000
718.537; 4635.650;  107.125;    0.000
718.735; 4812.650;  130.125;    0.000
718.933; 4622.650;  111.125;    0.000
719.130; 4653.650;  107.125;    0.000
719.328; 4732.650;  128.125;    0.000
719.525; 4639.650;  141.125;    0.000
719.723; 4624.650;  122.125;    0.000
719.920; 4689.650;   85.125;    0.000
720.118; 4678.650;  115.125;    0.000
720.316; 4512.650;  153.125;    0.000
720.513; 4657.650;  120.125;    0.000
720.711; 4658.650;  134.125;    0.000
720.908; 4708.650;  126.125;    0.000
721.105; 4585.650;  119.125;    0.000
721.303; 4706.650;  112.125;    0.000
721.500; 4694.650;  125.125;    0.000
721.698; 4739.650;   94.125;    0.000
721.895; 4728.650;  118.125;    0.000
722.092; 4696.650;   77.125;    0.000
722.290; 4725.650;  135.125;    0.000
722.487; 4479.650;  154.125;    0.000
722.684; 4647.650;  122.125;    0.000
722.882; 4580.650;   90.125;    0.000
723.079; 4688.650;  132.125;    0.000
723.276; 4744.650;   95.125;    0.000
723.473; 4637.650;  106.125;    0.000
723.671; 4703.650;   80.125;    0.000
723.868; 4650.650;  112.125;    0.000
724.065; 4754.650;  107.125;    0.000
724.262; 4854.650;  119.125;    0.000
724.459; 4666.650;   80.125;    0.000
724.656; 4687.650;  109.125;    0.000
724.854; 4699.650;  107.125;    0.000
725.051; 4751.650;  103.125;    0.000
725.248; 4727.650;  101.125;    0.000
725.445; 4751.650;   93.125;    0.000
725.642; 4823.650;   92.125;    0.000
725.839; 4757.650;  157.125;    0.000
726.036; 4685.650;   71.125;    0.000
726.233; 4609.650;   80.125;    0.000
726.430; 4753.650;  146.125;    0.000
726.627; 4753.650;  103.125;    0.000
726.824; 4796.650;   46.125;    0.000
727.021; 4848.650;  149.125;    0.000
727.218; 4790.650;   87.125;    0.000
727.414; 4764.650;  112.125;    0.000
727.611; 4824.650;  111.125;    0.000
727.808; 4774.650;  122.125;    0.000
728.005; 4868.650;   58.125;    0.000
728.202; 4837.650;  129.125;    0.000
728.399; 4796.650;  111.125;    0.000
728.595; 4842.650;   93.125;    0.000
728.792; 4819.650;   78.125;    0.000
728.989; 4718.650;  104.125;    0.000
729.186; 5046.650;  110.125;    0.000
729.382; 4834.650;   93.125;    0.000
729.579; 4823.650;  102.125;    0.000
729.776; 4871.650;  112.125;    0.000
729.972; 4883.650;  101.125;    0.000
730.169; 4901.650;  150.125;    0.000
730.366; 4865.650;   92.125;    0.000
730.562; 4877.650;   74.125;    0.000
730.759; 4823.650;   97.125;    0.000
730.955; 4911.650;   86.125;    0.000
731.152; 4894.650;   88.125;    0.000
731.348; 4902.650;  117.125;    0.000
731.545; 4900.650;   62.125;    0.000
731.741; 4923.650;   84.125;    0.000
731.938; 4931.650;  108.125;    0.000
732.134; 4947.650;  115.125;    0.000
732.331; 4871.650;   88.125;    0.000
732.527; 4942.650;   96.125;    0.000
732.724; 4921.650;  103.125;    0.000
732.920; 4957.650;   93.125;    0.000
733.116; 4989.650;  109.125;    0.000
733.313; 5041.650;   77.125;    0.000
733.509; 4975.650;   81.125;    0.000
733.705; 5006.650;  141.125;    0.000
733.902; 4998.650;   88.125;    0.000
734.098; 5042.650;   56.125;    0.000
734.294; 4950.650;  122.125;    0.000
734.490; 5009.650;  102.125;    0.000
734.687; 4929.650;   70.125;    0.000
734.883; 4973.650;   73.125;    0.000
735.079; 5089.650;   65.125;    0.000
735.275; 5073.650;  112.125;    0.000
735.471; 4868.650;  124.125;    0.000
735.667; 4950.650;   94.125;    0.000
735.863; 5040.650;  106.125;    0.000
736.060; 5134.650;  106.125;    0.000
736.256; 4966.650;   95.125;    0.000
736.452; 4980.650;  103.125;    0.000
736.648; 5003.650;  106.125;    0.000
736.844; 5162.650;   98.125;    0.000
737.040; 5101.650;  118.125;    0.000
737.236; 5229.650;   95.125;    0.000
737.432; 5196.650;   59.125;    0.000
737.628; 5159.650;  120.125;    0.000
737.824; 5197.650;   78.125;    0.000
738.019; 5184.650;   98.125;    0.000
738.215; 5284.650;  127.125;    0.000
738.411; 5222.650;  111.125;    0.000
738.607; 5347.650;   69.125;    0.000
738.803; 5108.650;   40.125;    0.000
738.999; 5332.650;  128.125;    0.000
739.195; 5348.650;   81.125;    0.000
739.390; 5335.650;   97.125;    0.000
739.586; 5307.650;  100.125;    0.000
739.782; 5294.650;  135.125;    0.000
739.978; 5440.650;  121.125;    0.000
740.173; 5374.650;   92.125;    0.000
740.369; 5457.650;   92.125;    0.000
740.565; 5411.650;  119.125;    0.000
740.760; 5411.650;  139.125;    0.000
740.956; 5482.650;  134.125;    0.000
741.152; 5499.650;  107.125;    0.000
741.347; 5534.650;   63.125;    0.000
741.543; 5517.650;   99.125;    0.000
741.738; 5737.650;  119.125;    0.000
741.934; 5833.650;  156.125;    0.000
742.129; 6239.650;   87.125;    0.000
742.325; 6727.650;  143.125;    0.000
742.520; 7404.650;  109.125;    0.000
742.716; 7124.650;  135.125;    0.000
742.911; 6708.650;   77.125;    0.000
743.107; 6607.650;  117.125;    0.000
743.302; 6517.650;   93.125;    0.000
743.498; 6652.650;  118.125;    0.000
743.693; 6644.650;   95.125;    0.000
743.888; 6948.650;  122.125;    0.000
744.084; 7737.650;  104.125;    0.000
744.279; 9160.650;   94.125;    0.000
744.474; 9594.650;  138.125;    0.000
744.670; 8796.650;  113.125;    0.000
744.865; 7984.650;  116.125;    0.000
745.060; 7606.650;   89.125;    0.000
745.255; 7484.650;  144.125;    0.000
745.451; 7203.650;   98.125;    0.000
745.646; 7194.650;  110.125;    0.000
745.841; 7056.650;   87.125;    0.000
746.036; 7061.650;   98.125;    0.000
746.231; 7348.650;  153.125;    0.000
746.426; 7577.650;   90.125;    0.000
746.622; 8653.650;  154.125;    0.000
746.817;11062.650;  111.125;    0.000
747.012;12344.650;  110.125;    0.000
747.207;11236.650;   76.125;    0.000
747.402;10092.650;   94.125;    0.000
747.597; 9290.650;   68.125;    0.000
747.792; 9015.650;  125.125;    0.000
747.987; 8508.650;   92.125;    0.000
748.182; 8258.650;  113.125;    0.000
748.377; 7866.650;   72.125;    0.000
748.572; 7723.650;  135.125;    0.000
748.767; 7485.650;   98.125;    0.000
748.961; 7182.650;  123.125;    0.000
749.156; 7127.650;   96.125;    0.000
749.351; 6879.650;  121.125;    0.000
749.546; 6851.650;   95.125;    0.000
749.741; 6656.650;  144.125;    0.000
749.936; 6499.650;  105.125;    0.000
750.130; 6439.650;  101.125;    0.000
750.325; 6437.650;  126.125;    0.000
750.520; 6397.650;  113.125;    0.000
750.715; 6310.650;  135.125;    0.000
750.909; 6151.650;  138.125;    0.000
751.104; 6181.650;   96.125;    0.000
751.299; 6254.650;  118.125;    0.000
751.493; 6026.650;  124.125;    0.000
751.688; 6221.650;  131.125;    0.000
751.882; 6061.650;   96.125;    0.000
752.077; 6108.650;  123.125;    0.000
752.272; 6027.650;  112.125;    0.000
752.466; 5943.650;  143.125;    0.000
752.661; 5934.650;  107.125;    0.000
752.855; 5840.650;   97.125;    0.000
753.050; 5800.650;  125.125;    0.000
753.244; 5911.650;  161.125;    0.000
753.439; 5819.650;  101.125;    0.000
753.633; 5857.650;  129.125;    0.000
753.828; 5862.650;  114.125;    0.000
754.022; 5792.650;  118.125;    0.000
754.216; 5623.650;  126.125;    0.000
754.411; 5763.650;  148.125;    0.000
754.605; 5698.650;  100.125;    0.000
754.799; 5833.650;  146.125;    0.000
754.994; 5802.650;  116.125;    0.000
755.188; 5853.650;  146.125;    0.000
755.382; 5719.650;  103.125;    0.000
755.576; 5651.650;  119.125;    0.000
755.771; 5738.650;  100.125;    0.000
755.965; 5675.650;  129.125;    0.000
756.159; 5664.650;  100.125;    0.000
756.353; 5621.650;  153.125;    0.000
756.547; 5497.650;  113.125;    0.000
756.742; 5681.650;  129.125;    0.000
756.936; 5637.650;   70.125;    0.000
757.130; 5848.650;   91.125;    0.000
757.324; 5660.650;   92.125;    0.000
757.518; 5590.650;  128.125;    0.000
757.712; 5676.650;  146.125;    0.000
757.906; 5634.650;  114.125;    0.000
758.100; 5634.650;  153.125;    0.000
758.294; 5708.650;  133.125;    0.000
758.488; 5577.650;  149.125;    0.000
758.682; 5614.650;  132.125;    0.000
758.876; 5761.650;  128.125;    0.000
759.070; 5589.650;  178.125;    0.000
759.264; 5610.650;   98.125;    0.000
759.458; 5452.650;  168.125;    0.000
759.651; 5481.650;  131.125;    0.000
759.845; 5530.650;  133.125;    0.000
760.039; 5464.650;  120.125;    0.000
760.233; 5631.650;  116.125;    0.000
760.427; 5560.650;  121.125;    0.000
760.620; 5528.650;  163.125;    0.000
760.814; 5605.650;  106.125;    0.000
761.008; 5594.650;  119.125;    0.000
761.202; 5599.650;  121.125;    0.000
761.395; 5658.650;  136.125;    0.000
761.589; 5518.650;  111.125;    0.000
761.783; 5568.650;  116.125;    0.000
761.976; 5651.650;  139.125;    0.000
762.170; 5701.650;  140.125;    0.000
762.363; 5559.650;  115.125;    0.000
762.557; 5639.650;  129.125;    0.000
762.750; 5764.650;   85.125;    0.000
762.944; 5627.650;  107.125;    0.000
763.138; 5602.650;   99.125;    0.000
763.331; 5607.650;   97.125;    0.000
763.524; 5679.650;  100.125;    0.000
763.718; 5838.650;  130.125;    0.000
763.911; 5819.650;  127.125;    0.000
764.105; 5755.650;   69.125;    0.000
764.298; 5639.650;   94.125;    0.000
764.492; 5757.650;  129.125;    0.000
764.685; 5541.650;  114.125;    0.000
764.878; 5647.650;  145.125;    0.000
765.072; 5657.650;  124.125;    0.000
765.265; 5765.650;  124.125;    0.000
765.458; 5784.650;  108.125;    0.000
765.651; 5768.650;  132.125;    0.000
765.845; 5747.650;  106.125;    0.000
766.038; 5884.650;  155.125;    0.000
766.231; 6782.650;  153.125;    0.000
766.424;10148.650;  165.125;    0.000
766.617;10412.650;   85.125;    0.000
766.811; 6635.650;  140.125;    0.000
767.004; 6038.650;  151.125;    0.000
767.197; 5879.650;  178.125;    0.000
767.390; 5834.650;  112.125;    0.000
767.583; 5924.650;  134.125;    0.000
767.776; 5915.650;  101.125;    0.000
767.969; 5979.650;   99.125;    0.000
768.162; 6007.650;  152.125;    0.000
768.355; 5871.650;  115.125;    0.000
768.548; 5938.650;  154.125;    0.000
768.741; 5853.650;  124.125;    0.000
768.934; 6085.650;  129.125;    0.000
769.127; 6059.650;  137.125;    0.000
769.320; 6015.650;  115.125;    0.000
769.513; 6299.650;  144.125;    0.000
769.706; 7156.650;  107.125;    0.000
769.898;10090.650;  134.125;    0.000
770.091; 7909.650;  128.125;    0.000
770.284; 6431.650;   97.125;    0.000
770.477; 6293.650;  135.125;    0.000
770.670; 6296.650;  137.125;    0.000
770.862; 6331.650;  112.125;    0.000
771.055; 6302.650;  127.125;    0.000
771.248; 6389.650;  116.125;    0.000
771.441; 6460.650;  101.125;    0.000
771.633; 6402.650;  130.125;    0.000
771.826; 6445.650;  147.125;    0.000
772.018; 6395.650;  117.125;    0.000
772.211; 6554.650;  141.125;    0.000
772.404; 6664.650;  104.125;    0.000
772.596; 6791.650;  128.125;    0.000
772.789; 6794.650;  131.125;    0.000
772.981; 6841.650;  134.125;    0.000
773.174; 6869.650;  108.125;    0.000
773.366; 6986.650;  153.125;    0.000
773.559; 7021.650;  137.125;    0.000
773.751; 7025.650;  119.125;    0.000
773.944; 7280.650;  148.125;    0.000
774.136; 7394.650;  155.125;    0.000
774.329; 7533.650;  126.125;    0.000
774.521; 7776.650;  116.125;    0.000
774.713; 7968.650;  119.125;    0.000
774.906; 8322.650;  179.125;    0.000
775.098; 8523.650;  127.125;    0.000
775.290; 9116.650;  146.125;    0.000
775.483; 9390.650;  123.125;    0.000
775.675; 9788.650;  119.125;    0.000
775.867;10591.650;  119.125;    0.000
776.059;11411.650;  137.125;    0.000
776.251;12508.650;  154.125;    0.000
776.444;14059.650;  101.125;    0.000
776.636;16474.650;  153.125;    0.000
776.828;20187.650;  127.125;    0.000
777.020;27755.650;  140.125;    0.000
777.212;40026.648;  160.125;    0.000
777.404;45069.648;  170.125;    0.000
777.596;41579.648;  136.125;    0.000
777.788;32115.650;  137.125;    0.000
777.980;24903.650;  129.125;    0.000
778.172;20605.650;  139.125;    0.000
778.364;17724.650;  124.125;    0.000
778.556;15567.650;  163.125;    0.000
778.748;14299.650;  142.125;    0.000
778.940;12869.650;  178.125;    0.000
779.132;11836.650;  159.125;    0.000
779.324;10988.650;  109.125;    0.000
779.516;10431.650;  143.125;    0.000
779.708; 9811.650;  158.125;    0.000
779.900; 9424.650;  142.125;    0.000
780.091; 8896.650;  131.125;    0.000
780.283; 8570.650;  176.125;    0.000
780.475; 8459.650;  151.125;    0.000
780.667; 8167.650;  120.125;    0.000
780.859; 7790.650;  134.125;    0.000
781.050; 7676.650;  183.125;    0.000
781.242; 7463.650;   95.125;    0.000
781.434; 7263.650;  127.125;    0.000
781.625; 7117.650;  163.125;    0.000
781.817; 7095.650;  170.125;    0.000
782.008; 6818.650;  123.125;    0.000
782.200; 6873.650;  141.125;    0.000
782.392; 6797.650;  149.125;    0.000
782.583; 6800.650;  155.125;    0.000
782.775; 6635.650;  140.125;    0.000
782.966; 6493.650;  167.125;    0.000
783.158; 6494.650;  164.125;    0.000
783.349; 6456.650;  174.125;    0.000
783.541; 6344.650;  141.125;    0.000
783.732; 6157.650;  115.125;    0.000
783.924; 6292.650;  135.125;    0.000
784.115; 6171.650;  157.125;    0.000
784.306; 6172.650;  102.125;    0.000
784.498; 6098.650;  124.125;    0.000
784.689; 6068.650;  171.125;    0.000
784.880; 6036.650;  165.125;    0.000
785.072; 6107.650;  152.125;    0.000
785.263; 5892.650;  146.125;    0.000
785.454; 5843.650;  145.125;    0.000
785.645; 5786.650;  127.125;    0.000
785.837; 5818.650;  138.125;    0.000
786.028; 6059.650;  151.125;    0.000
786.219; 5934.650;  142.125;    0.000
786.410; 5915.650;  140.125;    0.000
786.601; 5849.650;  137.125;    0.000
786.792; 5829.650;  158.125;    0.000
786.984; 5869.650;  139.125;    0.000
787.175; 5831.650;  140.125;    0.000
787.366; 5861.650;  145.125;    0.000
787.557; 5880.650;  156.125;    0.000
787.748; 5914.650;  148.125;    0.000
787.939; 5808.650;  157.125;    0.000
788.130; 5903.650;  179.125;    0.000
788.321; 5860.650;  142.125;    0.000
788.512; 5870.650;  167.125;    0.000
788.703; 5981.650;  145.125;    0.000
788.894; 5924.650;  132.125;    0.000
789.084; 5927.650;  113.125;    0.000
789.275; 6138.650;  134.125;    0.000
789.466; 6059.650;  151.125;    0.000
789.657; 6212.650;  138.125;    0.000
789.848; 6186.650;  145.125;    0.000
790.039; 6033.650;  130.125;    0.000
790.229; 6103.650;  140.125;    0.000
790.420; 5951.650;  135.125;    0.000
790.611; 6086.650;  156.125;    0.000
790.801; 5957.650;   64.125;    0.000
790.992; 6024.650;  150.125;    0.000
791.183; 6065.650;  177.125;    0.000
791.373; 6005.650;   91.125;    0.000
791.564; 5983.650;   85.125;    0.000
791.755; 5926.650;  125.125;    0.000
791.945; 6038.650;   94.125;    0.000
792.136; 6054.650;   98.125;    0.000
792.326; 5876.650;  105.125;    0.000
792.517; 6005.650;  136.125;    0.000
792.707; 6121.650;  140.125;    0.000
792.898; 5917.650;  164.125;    0.000
793.088; 6167.650;  116.125;    0.000
793.279; 6174.650;  112.125;    0.000
793.469; 6152.650;  105.125;    0.000
793.660; 6300.650;  161.125;    0.000
793.850; 6504.650;  133.125;    0.000
794.040; 6787.650;  121.125;    0.000
794.231; 7021.650;  115.125;    0.000
794.421; 7432.650;  152.125;    0.000
794.611; 8122.650;  132.125;    0.000
794.802; 9172.650;  144.125;    0.000
794.992; 9733.650;  142.125;    0.000
795.182; 9808.650;  179.125;    0.000
795.372; 9436.650;  167.125;    0.000
795.563; 8783.650;  149.125;    0.000
795.753; 7876.650;  117.125;    0.000
795.943; 7412.650;  146.125;    0.000
796.133; 6984.650;  119.125;    0.000
796.323; 6878.650;  141.125;    0.000
796.513; 6725.650;  134.125;    0.000
796.703; 6460.650;  116.125;    0.000
796.893; 6216.650;  120.125;    0.000
797.083; 6194.650;  131.125;    0.000
797.273; 6181.650;  118.125;    0.000
797.463; 5952.650;  130.125;    0.000
797.653; 5850.650;   87.125;    0.000
797.843; 5724.650;  123.125;    0.000
798.033; 5677.650;  115.125;    0.000
798.223; 5796.650;  142.125;    0.000
798.413; 5650.650;  148.125;    0.000
798.603; 5503.650;  147.125;    0.000
798.793; 5566.650;  107.125;    0.000
798.983; 5434.650;  121.125;    0.000
799.172; 5450.650;  120.125;    0.000
799.362; 5273.650;  145.125;    0.000
799.552; 5367.650;  101.125;    0.000
799.742; 5257.650;  149.125;    0.000
799.932; 5187.650;  104.125;    0.000
800.121; 5379.650;  175.125;    0.000
800.311; 5144.650;  132.125;    0.000
800.501; 5137.650;  118.125;    0.000
800.690; 5186.650;  162.125;    0.000
800.880; 5119.650;  141.125;    0.000
801.070; 5045.650;  151.125;    0.000
801.259; 5028.650;  167.125;    0.000
801.449; 5014.650;  108.125;    0.000
801.638; 5063.650;  176.125;    0.000
801.828; 4959.650;  118.125;    0.000
802.017; 5022.650;  179.125;    0.000
802.207; 4902.650;  127.125;    0.000
802.396; 4993.650;  167.125;    0.000
802.586; 4941.650;  129.125;    0.000
802.775; 4973.650;  142.125;    0.000
802.965; 4829.650;  147.125;    0.000
803.154; 4959.650;  179.125;    0.000
803.343; 4782.650;  117.125;    0.000
803.533; 4816.650;  120.125;    0.000
803.722; 4818.650;  122.125;    0.000
803.911; 4848.650;  155.125;    0.000
804.101; 4865.650;  147.125;    0.000
804.290; 4827.650;  160.125;    0.000
804.479; 4862.650;  139.125;    0.000
804.668; 4705.650;  180.125;    0.000
804.857; 4746.650;  131.125;    0.000
805.047; 4756.650;  119.125;    0.000
805.236; 4715.650;  139.125;    0.000
805.425; 4857.650;  163.125;    0.000
805.614; 4810.650;  103.125;    0.000
805.803; 4741.650;  133.125;    0.000
805.992; 4704.650;  147.125;    0.000
806.181; 4771.650;  109.125;    0.000
806.370; 4610.650;  133.125;    0.000
806.559; 4745.650;  119.125;    0.000
806.748; 4736.650;  144.125;    0.000
806.937; 4752.650;  147.125;    0.000
807.126; 4787.650;  134.125;    0.000
807.315; 4649.650;  132.125;    0.000
807.504; 4680.650;  141.125;    0.000
807.693; 4678.650;  145.125;    0.000
807.882; 4614.650;   91.125;    0.000
808.071; 4693.650;  116.125;    0.000
808.260; 4674.650;  105.125;    0.000
808.448; 4790.650;  184.125;    0.000
808.637; 4717.650;  146.125;    0.000
808.826; 4767.650;  153.125;    0.000
809.015; 4722.650;  113.125;    0.000
809.203; 4765.650;  166.125;    0.000
809.392; 4589.650;  117.125;    0.000
809.581; 4800.650;  186.125;    0.000
809.770; 4757.650;  122.125;    0.000
809.958; 4769.650;  140.125;    0.000
810.147; 4858.650;  130.125;    0.000
810.335; 4854.650;  112.125;    0.000
810.524; 4796.650;  106.125;    0.000
810.713; 4902.650;  154.125;    0.000
810.901; 4840.650;  131.125;    0.000
811.090; 4973.650;  164.125;    0.000
811.278; 4913.650;  159.125;    0.000
811.467; 5122.650;  194.125;    0.000
811.655; 5187.650;  164.125;    0.000
811.844; 5098.650;  149.125;    0.000
812.032; 5092.650;  169.125;    0.000
812.220; 4938.650;  163.125;    0.000
812.409; 5099.650;  134.125;    0.000
812.597; 4987.650;  165.125;    0.000
812.785; 5043.650;  180.125;    0.000
812.974; 5046.650;  166.125;    0.000
813.162; 5183.650;  171.125;    0.000
813.350; 5187.650;  142.125;    0.000
813.539; 5025.650;  126.125;    0.000
813.727; 5209.650;  153.125;    0.000
813.915; 5255.650;  138.125;    0.000
814.103; 5303.650;  191.125;    0.000
814.291; 5333.650;  142.125;    0.000
814.479; 5228.650;  156.125;    0.000
814.668; 5274.650;  152.125;    0.000
814.856; 5455.650;  150.125;    0.000
815.044; 5541.650;  165.125;    0.000
815.232; 5634.650;  172.125;    0.000
815.420; 5620.650;  147.125;    0.000
815.608; 5605.650;  143.125;    0.000
815.796; 5721.650;  126.125;    0.000
815.984; 5864.650;  152.125;    0.000
816.172; 5933.650;  129.125;    0.000
816.360; 6050.650;  177.125;    0.000
816.548; 6098.650;  141.125;    0.000
816.736; 6372.650;  142.125;    0.000
816.924; 6722.650;  161.125;    0.000
817.111; 6858.650;  138.125;    0.000
817.299; 7195.650;  112.125;    0.000
817.487; 7623.650;  180.125;    0.000
817.675; 8452.650;  138.125;    0.000
817.863; 9545.650;  172.125;    0.000
818.050;12311.650;  142.125;    0.000
818.238;21877.650;  151.125;    0.000
818.426;30687.650;  129.125;    0.000
818.613;21400.650;  124.125;    0.000
818.801;18046.650;  209.125;    0.000
818.989;17473.650;  178.125;    0.000
819.176;18386.650;  155.125;    0.000
819.364;26635.650;  174.125;    0.000
819.552;38444.648;  131.125;    0.000
819.739;26343.650;  184.125;    0.000
819.927;18868.650;  132.125;    0.000
820.114;16275.650;  173.125;    0.000
820.302;14611.650;  140.125;    0.000
820.489;13312.650;  133.125;    0.000
820.677;12537.650;  167.125;    0.000
820.864;12386.650;  161.125;    0.000
821.052;12799.650;  134.125;    0.000
821.239;13159.650;  149.125;    0.000
821.426;13760.650;  160.125;    0.000
821.614;16538.650;  143.125;    0.000
821.801;17745.650;  118.125;    0.000
821.988;15857.650;  154.125;    0.000
822.176;15099.650;  112.125;    0.000
822.363;15222.650;  131.125;    0.000
822.550;14349.650;  131.125;    0.000
822.737;12772.650;  104.125;    0.000
822.924;11888.650;  160.125;    0.000
823.112;11241.650;  161.125;    0.000
823.299;10657.650;  169.125;    0.000
823.486;10130.650;  129.125;    0.000
823.673; 9454.650;  135.125;    0.000
823.860; 9238.650;  169.125;    0.000
824.047; 9444.650;  124.125;    0.000
824.234;10320.650;  160.125;    0.000
824.421;10515.650;  114.125;    0.000
824.608; 9423.650;  191.125;    0.000
824.795; 8541.650;  160.125;    0.000
824.982; 8022.650;  139.125;    0.000
825.169; 7568.650;  121.125;    0.000
825.356; 7289.650;  148.125;    0.000
825.543; 6981.650;  167.125;    0.000
825.730; 6574.650;  103.125;    0.000
825.917; 6273.650;  113.125;    0.000
826.104; 6318.650;  188.125;    0.000
826.290; 6222.650;  193.125;    0.000
826.477; 5980.650;  175.125;    0.000
826.664; 5843.650;  151.125;    0.000
826.851; 5756.650;  122.125;    0.000
827.038; 5513.650;  121.125;    0.000
827.224; 5359.650;  124.125;    0.000
827.411; 5330.650;  155.125;    0.000
827.598; 5341.650;  127.125;    0.000
827.784; 5196.650;  140.125;    0.000
827.971; 5160.650;  114.125;    0.000
828.157; 5069.650;  135.125;    0.000
828.344; 5069.650;  173.125;    0.000
828.531; 5002.650;  113.125;    0.000
828.717; 4868.650;  137.125;    0.000
828.904; 4798.650;  158.125;    0.000
829.090; 4802.650;  199.125;    0.000
829.277; 4724.650;  156.125;    0.000
829.463; 4651.650;  154.125;    0.000
829.650; 4652.650;  174.125;    0.000
829.836; 4609.650;  136.125;    0.000
830.022; 4523.650;  143.125;    0.000
830.209; 4548.650;  157.125;    0.000
830.395; 4427.650;  156.125;    0.000
830.581; 4254.650;  148.125;    0.000
830.768; 4266.650;  169.125;    0.000
830.954; 4289.650;  169.125;    0.000
831.140; 4350.650;  124.125;    0.000
831.327; 4183.650;  157.125;    0.000
831.513; 4117.650;  163.125;    0.000
831.699; 4219.650;  176.125;    0.000
831.885; 4156.650;  154.125;    0.000
832.071; 4237.650;  159.125;    0.000
832.257; 4031.650;  142.125;    0.000
832.444; 4114.650;  159.125;    0.000
832.630; 4049.650;  129.125;    0.000
832.816; 4070.650;  132.125;    0.000
833.002; 4024.650;  125.125;    0.000
833.188; 4083.650;  144.125;    0.000
833.374; 3883.650;  131.125;    0.000
833.560; 4074.650;  154.125;    0.000
833.746; 3785.650;  171.125;    0.000
833.932; 3918.650;  162.125;    0.000
834.118; 3735.650;  131.125;    0.000
834.303; 3879.650;  113.125;    0.000
834.489; 3781.650;  170.125;    0.000
834.675; 3782.650;  177.125;    0.000
834.861; 3821.650;  154.125;    0.000
835.047; 3909.650;  171.125;    0.000
835.233; 3823.650;   98.125;    0.000
835.418; 3614.650;  138.125;    0.000
835.604; 3739.650;  140.125;    0.000
835.790; 3658.650;  130.125;    0.000
835.976; 3708.650;  129.125;    0.000
836.161; 3727.650;  142.125;    0.000
836.347; 3807.650;  128.125;    0.000
836.533; 3657.650;  143.125;    0.000
836.718; 3787.650;  164.125;    0.000
836.904; 3630.650;  172.125;    0.000
837.089; 3657.650;  152.125;    0.000
837.275; 3785.650;  143.125;    0.000
837.460; 3738.650;  125.125;    0.000
837.646; 3741.650;  137.125;    0.000
837.831; 3673.650;  153.125;    0.000
838.017; 3662.650;  171.125;    0.000
838.202; 3682.650;  111.125;    0.000
838.388; 3689.650;  140.125;    0.000
838.573; 3704.650;  158.125;    0.000
838.759; 3686.650;  188.125;    0.000
838.944; 3705.650;  125.125;    0.000
839.129; 3703.650;  123.125;    0.000
839.315; 3706.650;  181.125;    0.000
839.500; 3732.650;  150.125;    0.000
839.685; 3709.650;  109.125;    0.000
839.870; 3734.650;  202.125;    0.000
840.056; 3681.650;  101.125;    0.000
840.241; 3663.650;  184.125;    0.000
840.426; 3826.650;  192.125;    0.000
840.611; 3786.650;  180.125;    0.000
840.796; 3707.650;  156.125;    0.000
840.981; 3850.650;  142.125;    0.000
841.166; 3855.650;  161.125;    0.000
841.352; 3829.650;  185.125;    0.000
841.537; 3839.650;  139.125;    0.000
841.722; 3875.650;  143.125;    0.000
841.907; 4015.650;  140.125;    0.000
842.092; 3975.650;  176.125;    0.000
842.277; 4008.650;  136.125;    0.000
842.461; 4187.650;  155.125;    0.000
842.646; 4225.650;  163.125;    0.000
842.831; 4295.650;  153.125;    0.000
843.016; 4391.650;  187.125;    0.000
843.201; 4512.650;  179.125;    0.000
843.386; 4715.650;  167.125;    0.000
843.571; 4950.650;  129.125;    0.000
843.755; 5245.650;  136.125;    0.000
843.940; 5391.650;  121.125;    0.000
844.125; 6338.650;  157.125;    0.000
844.310; 7233.650;  175.125;    0.000
844.494; 9287.650;  164.125;    0.000
844.679;12416.650;  167.125;    0.000
844.864;12379.650;  166.125;    0.000
845.048;10431.650;  132.125;    0.000
845.233; 8654.650;  175.125;    0.000
845.418; 7853.650;  159.125;    0.000
845.602; 6850.650;  147.125;    0.000
845.787; 6403.650;  132.125;    0.000
845.971; 5893.650;  187.125;    0.000
846.156; 5371.650;  141.125;    0.000
846.340; 5272.650;  153.125;    0.000
846.525; 4927.650;  157.125;    0.000
846.709; 4753.650;  117.125;    0.000
846.893; 4636.650;  147.125;    0.000
847.078; 4335.650;  170.125;    0.000
847.262; 4346.650;  150.125;    0.000
847.447; 4111.650;  132.125;    0.000
847.631; 4050.650;  144.125;    0.000
847.815; 4066.650;  157.125;    0.000
848.000; 3871.650;  164.125;    0.000
848.184; 3899.650;  174.125;    0.000
848.368; 3715.650;  149.125;    0.000
848.552; 3791.650;  143.125;    0.000
848.736; 3689.650;  132.125;    0.000
848.921; 3609.650;  147.125;    0.000
849.105; 3531.650;  150.125;    0.000
849.289; 3505.650;  146.125;    0.000
849.473; 3449.650;  167.125;    0.000
849.657; 3418.650;  149.125;    0.000
849.841; 3426.650;  181.125;    0.000
850.025; 3415.650;  154.125;    0.000
850.209; 3410.650;  152.125;    0.000
850.393; 3324.650;  139.125;    0.000
850.577; 3297.650;  128.125;    0.000
850.761; 3361.650;  194.125;    0.000
850.945; 3279.650;  152.125;    0.000
851.129; 3403.650;  157.125;    0.000
851.313; 3364.650;  181.125;    0.000
851.497; 3208.650;  145.125;    0.000
851.680; 3122.650;  168.125;    0.000
851.864; 3151.650;  185.125;    0.000
852.048; 3255.650;  170.125;    0.000
852.232; 3314.650;  192.125;    0.000
852.416; 3286.650;  182.125;    0.000
852.599; 3219.650;  169.125;    0.000
852.783; 3265.650;  168.125;    0.000
852.967; 3161.650;  184.125;    0.000
853.150; 3235.650;  163.125;    0.000
853.334; 3231.650;  164.125;    0.000
853.518; 3187.650;  190.125;    0.000
853.701; 3178.650;  137.125;    0.000
853.885; 3188.650;  177.125;    0.000
854.068; 3165.650;  163.125;    0.000
854.252; 3119.650;  139.125;    0.000
854.435; 3229.650;  152.125;    0.000
854.619; 3137.650;  148.125;    0.000
854.802; 3184.650;  168.125;    0.000
854.986; 3124.650;  157.125;    0.000
855.169; 3129.650;  147.125;    0.000
855.353; 3230.650;  173.125;    0.000
855.536; 3064.650;  127.125;    0.000
855.719; 3142.650;  191.125;    0.000
855.903; 3176.650;  186.125;    0.000
856.086; 3224.650;  145.125;    0.000
856.269; 3199.650;  130.125;    0.000
856.452; 3258.650;  153.125;    0.000
856.636; 3391.650;  129.125;    0.000
856.819; 3648.650;  134.125;    0.000
857.002; 3640.650;  152.125;    0.000
857.185; 3471.650;  140.125;    0.000
857.368; 3497.650;  170.125;    0.000
857.552; 3333.650;  132.125;    0.000
857.735; 3414.650;  160.125;    0.000
857.918; 3444.650;  139.125;    0.000
858.101; 3421.650;  159.125;    0.000
858.284; 3330.650;  136.125;    0.000
858.467; 3530.650;  147.125;    0.000
858.650; 3479.650;  153.125;    0.000
858.833; 3560.650;  113.125;    0.000
859.016; 3566.650;  167.125;    0.000
859.199; 3675.650;  141.125;    0.000
859.382; 4137.650;  155.125;    0.000
859.564; 4419.650;  136.125;    0.000
859.747; 4296.650;  142.125;    0.000
859.930; 3949.650;  141.125;    0.000
860.113; 3919.650;  156.125;    0.000
860.296; 3894.650;  167.125;    0.000
860.478; 3765.650;  121.125;    0.000
860.661; 3796.650;  230.125;    0.000
860.844; 3756.650;  186.125;    0.000
861.027; 3621.650;  155.125;    0.000
861.209; 3671.650;  151.125;    0.000
861.392; 3738.650;  162.125;    0.000
861.575; 3838.650;  150.125;    0.000
861.757; 3730.650;  162.125;    0.000
861.940; 3702.650;  207.125;    0.000
862.122; 3879.650;  113.125;    0.000
862.305; 3887.650;  114.125;    0.000
862.487; 4025.650;  162.125;    0.000
862.670; 4353.650;  148.125;    0.000
862.852; 5029.650;  131.125;    0.000
863.035; 5943.650;  174.125;    0.000
863.217; 5975.650;  170.125;    0.000
863.400; 5502.650;  148.125;    0.000
863.582; 4990.650;  129.125;    0.000
863.764; 4792.650;  181.125;    0.000
863.947; 4507.650;  152.125;    0.000
864.129; 4467.650;  178.125;    0.000
864.311; 4449.650;  139.125;    0.000
864.493; 4411.650;  166.125;    0.000
864.676; 4324.650;  148.125;    0.000
864.858; 4277.650;  123.125;    0.000
865.040; 4195.650;  180.125;    0.000
865.222; 4224.650;  131.125;    0.000
865.404; 4265.650;  146.125;    0.000
865.587; 4568.650;  175.125;    0.000
865.769; 4794.650;  183.125;    0.000
865.951; 4567.650;  171.125;    0.000
866.133; 4638.650;  165.125;    0.000
866.315; 4666.650;  138.125;    0.000
866.497; 4776.650;  139.125;    0.000
866.679; 4685.650;  167.125;    0.000
866.861; 4893.650;  151.125;    0.000
867.043; 5253.650;  190.125;    0.000
867.225; 5529.650;  140.125;    0.000
867.407; 6004.650;  125.125;    0.000
867.589; 6786.650;  141.125;    0.000
867.770; 8176.650;  149.125;    0.000
867.952;11010.650;  138.125;    0.000
868.134;14266.650;  153.125;    0.000
868.316;14498.650;  148.125;    0.000
868.498;13851.650;  180.125;    0.000
868.679;12096.650;  152.125;    0.000
868.861;10235.650;  174.125;    0.000
869.043; 8551.650;  152.125;    0.000
869.224; 7615.650;  177.125;    0.000
869.406; 7067.650;  171.125;    0.000
869.588; 6604.650;  177.125;    0.000
869.769; 6277.650;  174.125;    0.000
869.951; 6037.650;  167.125;    0.000
870.132; 6181.650;  144.125;    0.000
870.314; 6839.650;  143.125;    0.000
870.495; 6784.650;  162.125;    0.000
870.677; 6388.650;  136.125;    0.000
870.858; 5972.650;  155.125;    0.000
871.040; 6366.650;  179.125;    0.000
871.221; 7003.650;  177.125;    0.000
871.403; 6674.650;  180.125;    0.000
871.584; 6416.650;  157.125;    0.000
871.765; 6294.650;  183.125;    0.000
871.947; 6729.650;  169.125;    0.000
872.128; 6087.650;  162.125;    0.000
872.309; 5373.650;  159.125;    0.000
872.491; 4902.650;  148.125;    0.000
872.672; 4593.650;  163.125;    0.000
872.853; 4482.650;  152.125;    0.000
873.034; 4459.650;  166.125;    0.000
873.215; 4208.650;  155.125;    0.000
873.396; 4079.650;  147.125;    0.000
873.578; 3880.650;  147.125;    0.000
873.759; 3797.650;  153.125;    0.000
873.940; 3737.650;  194.125;    0.000
874.121; 3550.650;  179.125;    0.000
874.302; 3493.650;  155.125;    0.000
874.483; 3526.650;  131.125;    0.000
874.664; 3482.650;  106.125;    0.000
874.845; 3380.650;  122.125;    0.000
875.026; 3389.650;  127.125;    0.000
875.207; 3272.650;  151.125;    0.000
875.388; 3293.650;  149.125;    0.000
875.568; 3289.650;  164.125;    0.000
875.749; 3074.650;  176.125;    0.000
875.930; 3124.650;  207.125;    0.000
876.111; 2996.650;  177.125;    0.000
876.292; 3028.650;  178.125;    0.000
876.472; 3044.650;  163.125;    0.000
876.653; 2965.650;  159.125;    0.000
876.834; 2928.650;  177.125;    0.000
877.015; 2950.650;  212.125;    0.000
877.195; 2846.650;  166.125;    0.000
877.376; 2834.650;  157.125;    0.000
877.556; 2848.650;  175.125;    0.000
877.737; 2890.650;  220.125;    0.000
877.918; 2749.650;  163.125;    0.000
878.098; 2853.650;  166.125;    0.000
878.279; 2763.650;  136.125;    0.000
878.459; 2848.650;  167.125;    0.000
878.640; 2883.650;  167.125;    0.000
878.820; 2806.650;  155.125;    0.000
879.000; 2768.650;  158.125;    0.000
879.181; 2801.650;  155.125;    0.000
879.361; 2770.650;  181.125;    0.000
879.542; 2663.650;  181.125;    0.000
879.722; 2729.650;  117.125;    0.000
879.902; 2758.650;  180.125;    0.000
880.083; 2858.650;  139.125;    0.000
880.263; 2845.650;  168.125;    0.000
880.443; 3047.650;  206.125;    0.000
880.623; 3478.650;  132.125;    0.000
880.803; 3843.650;  149.125;    0.000
880.984; 3321.650;  189.125;    0.000
881.164; 3096.650;  171.125;    0.000
881.344; 3009.650;  150.125;    0.000
881.524; 3061.650;  185.125;    0.000
881.704; 3031.650;  152.125;    0.000
881.884; 3036.650;  188.125;    0.000
882.064; 3170.650;  155.125;    0.000
882.244; 3306.650;  182.125;    0.000
882.424; 3106.650;  154.125;    0.000
882.604; 3041.650;  175.125;    0.000
882.784; 2838.650;  137.125;    0.000
882.964; 2779.650;  135.125;    0.000
883.144; 2749.650;  142.125;    0.000
883.324; 2843.650;  192.125;    0.000
883.504; 2712.650;  193.125;    0.000
883.683; 2567.650;  208.125;    0.000
883.863; 2567.650;  127.125;    0.000
884.043; 2474.650;  140.125;    0.000
884.223; 2623.650;  167.125;    0.000
884.402; 2586.650;  156.125;    0.000
884.582; 2559.650;  185.125;    0.000
884.762; 2605.650;  187.125;    0.000
884.941; 2505.650;  201.125;    0.000
885.121; 2489.650;  157.125;    0.000
885.301; 2549.650;  173.125;    0.000
885.480; 2447.650;  158.125;    0.000
885.660; 2500.650;  153.125;    0.000
885.839; 2522.650;  144.125;    0.000
886.019; 2472.650;  184.125;    0.000
886.198; 2430.650;  132.125;    0.000
886.378; 2489.650;  124.125;    0.000
886.557; 2476.650;  146.125;    0.000
886.737; 2339.650;  157.125;    0.000
886.916; 2446.650;  203.125;    0.000
887.095; 2463.650;  151.125;    0.000
887.275; 2390.650;  143.125;    0.000
887.454; 2432.650;  140.125;    0.000
887.633; 2373.650;  196.125;    0.000
887.813; 2395.650;  161.125;    0.000
887.992; 2429.650;  183.125;    0.000
888.171; 2351.650;  153.125;    0.000
888.350; 2450.650;  185.125;    0.000
888.530; 2334.650;  163.125;    0.000
888.709; 2357.650;  174.125;    0.000
888.888; 2388.650;  179.125;    0.000
889.067; 2405.650;  178.125;    0.000
889.246; 2451.650;  184.125;    0.000
889.425; 2377.650;  169.125;    0.000
889.604; 2386.650;  210.125;    0.000
889.783; 2388.650;  183.125;    0.000
889.962; 2172.650;  116.125;    0.000
890.141; 2365.650;  179.125;    0.000
890.320; 2368.650;  182.125;    0.000
890.499; 2347.650;  188.125;    0.000
890.678; 2310.650;  167.125;    0.000
890.857; 2272.650;  141.125;    0.000
891.036; 2384.650;  179.125;    0.000
891.214; 2266.650;  156.125;    0.000
891.393; 2393.650;  209.125;    0.000
891.572; 2357.650;  181.125;    0.000
891.751; 2398.650;  172.125;    0.000
891.930; 2386.650;  169.125;    0.000
892.108; 2365.650;  131.125;    0.000
892.287; 2394.650;  162.125;    0.000
892.466; 2388.650;  178.125;    0.000
892.644; 2313.650;  161.125;    0.000
892.823; 2289.650;  180.125;    0.000
893.001; 2300.650;  179.125;    0.000
893.180; 2345.650;  152.125;    0.000
893.359; 2402.650;  184.125;    0.000
893.537; 2356.650;  178.125;    0.000
893.716; 2352.650;  169.125;    0.000
893.894; 2266.650;  159.125;    0.000
894.073; 2300.650;  179.125;    0.000
894.251; 2323.650;  167.125;    0.000
894.429; 2332.650;  142.125;    0.000
894.608; 2304.650;  166.125;    0.000
894.786; 2307.650;  153.125;    0.000
894.964; 2340.650;  181.125;    0.000
895.143; 2315.650;  161.125;    0.000
895.321; 2390.650;  198.125;    0.000
895.499; 2230.650;  184.125;    0.000
895.677; 2287.650;  178.125;    0.000
895.856; 2340.650;  226.125;    0.000
896.034; 2387.650;  180.125;    0.000
896.212; 2391.650;  200.125;    0.000
896.390; 2429.650;  161.125;    0.000
896.568; 2291.650;  204.125;    0.000
896.746; 2364.650;  136.125;    0.000
896.924; 2319.650;  171.125;    0.000
897.102; 2423.650;  203.125;    0.000
897.280; 2440.650;  142.125;    0.000
897.458; 2283.650;  159.125;    0.000
897.636; 2354.650;  163.125;    0.000
897.814; 2415.650;  137.125;    0.000
897.992; 2511.650;  199.125;    0.000
898.170; 2288.650;  176.125;    0.000
898.348; 2365.650;  195.125;    0.000
898.526; 2491.650;  199.125;    0.000
898.704; 2375.650;  260.125;    0.000
898.882; 2391.650;  185.125;    0.000
899.059; 2440.650;  169.125;    0.000
899.237; 2430.650;  197.125;    0.000
899.415; 2409.650;  207.125;    0.000
899.593; 2311.650;  169.125;    0.000
899.770; 2385.650;  182.125;    0.000
899.948; 2566.650;  198.125;    0.000
900.125; 2487.650;  200.125;    0.000
900.303; 2386.650;  165.125;    0.000
900.481; 2499.650;  182.125;    0.000
900.658; 2520.650;  206.125;    0.000
900.836; 2465.650;  188.125;    0.000
901.013; 2563.650;  169.125;    0.000
901.191; 2551.650;  172.125;    0.000
901.368; 2523.650;  170.125;    0.000
901.546; 2682.650;  234.125;    0.000
901.723; 2708.650;  173.125;    0.000
901.901; 2695.650;  190.125;    0.000
902.078; 2765.650;  145.125;    0.000
902.255; 2785.650;  204.125;    0.000
902.433; 2687.650;  198.125;    0.000
902.610; 2756.650;  190.125;    0.000
902.787; 2861.650;  204.125;    0.000
902.964; 2844.650;  208.125;    0.000
903.142; 2938.650;  187.125;    0.000
903.319; 2957.650;  216.125;    0.000
903.496; 2956.650;  186.125;    0.000
903.673; 3128.650;  201.125;    0.000
903.850; 3076.650;  195.125;    0.000
904.027; 3191.650;  211.125;    0.000
904.204; 3388.650;  197.125;    0.000
904.381; 3574.650;  198.125;    0.000
904.558; 3984.650;  188.125;    0.000
904.735; 4532.650;  207.125;    0.000
904.912; 4467.650;  217.125;    0.000
905.089; 4580.650;  188.125;    0.000
905.266; 4253.650;  160.125;    0.000
905.443; 3982.650;  221.125;    0.000
905.620; 3732.650;  163.125;    0.000
905.797; 3555.650;  186.125;    0.000
905.974; 3480.650;  205.125;    0.000
906.151; 3506.650;  159.125;    0.000
906.327; 3395.650;  206.125;    0.000
906.504; 3338.650;  201.125;    0.000
906.681; 3159.650;  202.125;    0.000
906.858; 3116.650;  188.125;    0.000
907.034; 3157.650;  207.125;    0.000
907.211; 3027.650;  182.125;    0.000
907.388; 2991.650;  184.125;    0.000
907.564; 2941.650;  148.125;    0.000
907.741; 2906.650;  181.125;    0.000
907.917; 2840.650;  191.125;    0.000
908.094; 2887.650;  210.125;    0.000
908.271; 2733.650;  171.125;    0.000
908.447; 2692.650;  241.125;    0.000
908.623; 2699.650;  188.125;    0.000
908.800; 2714.650;  205.125;    0.000
908.976; 2703.650;  210.125;    0.000
909.153; 2682.650;  193.125;    0.000
909.329; 2686.650;  206.125;    0.000
909.505; 2683.650;  181.125;    0.000
909.682; 2577.650;  192.125;    0.000
909.858; 2509.650;  134.125;    0.000
910.034; 2629.650;  214.125;    0.000
910.211; 2579.650;  182.125;    0.000
910.387; 2605.650;  194.125;    0.000
910.563; 2458.650;  199.125;    0.000
910.739; 2540.650;  188.125;    0.000
910.915; 2512.650;  192.125;    0.000
911.091; 2591.650;  198.125;    0.000
911.268; 2492.650;  178.125;    0.000
911.444; 2475.650;  201.125;    0.000
911.620; 2498.650;  181.125;    0.000
911.796; 2432.650;  185.125;    0.000
911.972; 2477.650;  176.125;    0.000
912.148; 2448.650;  196.125;    0.000
912.324; 2583.650;  192.125;    0.000
912.500; 2515.650;  204.125;    0.000
912.676; 2500.650;  164.125;    0.000
912.851; 2460.650;  193.125;    0.000
913.027; 2430.650;  175.125;    0.000
913.203; 2475.650;  193.125;    0.000
913.379; 2543.650;  213.125;    0.000
913.555; 2500.650;  211.125;    0.000
913.730; 2452.650;  194.125;    0.000
913.906; 2453.650;  153.125;    0.000
914.082; 2425.650;  212.125;    0.000
914.258; 2459.650;  194.125;    0.000
914.433; 2456.650;  191.125;    0.000
914.609; 2476.650;  208.125;    0.000
914.784; 2534.650;  176.125;    0.000
914.960; 2554.650;  227.125;    0.000
915.136; 2467.650;  152.125;    0.000
915.311; 2556.650;  171.125;    0.000
915.487; 2478.650;  173.125;    0.000
915.662; 2471.650;  189.125;    0.000
915.838; 2465.650;  179.125;    0.000
916.013; 2557.650;  191.125;    0.000
916.189; 2504.650;  207.125;    0.000
916.364; 2509.650;  194.125;    0.000
916.539; 2583.650;  174.125;    0.000
916.715; 2520.650;  207.125;    0.000
916.890; 2486.650;  193.125;    0.000
917.065; 2576.650;  199.125;    0.000
917.240; 2496.650;  214.125;    0.000
917.416; 2573.650;  194.125;    0.000
917.591; 2476.650;  213.125;    0.000
917.766; 2589.650;  194.125;    0.000
917.941; 2614.650;  201.125;    0.000
918.116; 2496.650;  198.125;    0.000
918.292; 2558.650;  176.125;    0.000
918.467; 2554.650;  190.125;    0.000
918.642; 2550.650;  200.125;    0.000
918.817; 2597.650;  186.125;    0.000
918.992; 2544.650;  174.125;    0.000
919.167; 2553.650;  197.125;    0.000
919.342; 2615.650;  188.125;    0.000
919.517; 2635.650;  179.125;    0.000
919.692; 2598.650;  182.125;    0.000
919.867; 2732.650;  216.125;    0.000
920.041; 2660.650;  208.125;    0.000
920.216; 2679.650;  223.125;    0.000
920.391; 2837.650;  203.125;    0.000
920.566; 2887.650;  202.125;    0.000
920.741; 2776.650;  197.125;    0.000
920.915; 2912.650;  223.125;    0.000
921.090; 3095.650;  183.125;    0.000
921.265; 3536.650;  169.125;    0.000
921.439; 3851.650;  212.125;    0.000
921.614; 3490.650;  190.125;    0.000
921.789; 3352.650;  177.125;    0.000
921.963; 3159.650;  233.125;    0.000
922.138; 3120.650;  156.125;    0.000
922.312; 3099.650;  193.125;    0.000
922.487; 3173.650;  208.125;    0.000
922.661; 3160.650;  212.125;    0.000
922.836; 3301.650;  210.125;    0.000
923.010; 3388.650;  183.125;    0.000
923.185; 3313.650;  228.125;    0.000
923.359; 3228.650;  227.125;    0.000
923.534; 3188.650;  189.125;    0.000
923.708; 3212.650;  210.125;    0.000
923.882; 3268.650;  217.125;    0.000
924.057; 3238.650;  195.125;    0.000
924.231; 3150.650;  201.125;    0.000
924.405; 3108.650;  188.125;    0.000
924.579; 3128.650;  188.125;    0.000
924.753; 3014.650;  174.125;    0.000
924.928; 3039.650;  179.125;    0.000
925.102; 2915.650;  186.125;    0.000
925.276; 2924.650;  201.125;    0.000
925.450; 3126.650;  211.125;    0.000
925.624; 3123.650;  238.125;    0.000
925.798; 3219.650;  191.125;    0.000
925.972; 3205.650;  192.125;    0.000
926.146; 3460.650;  198.125;    0.000
926.320; 3697.650;  151.125;    0.000
926.494; 3815.650;  202.125;    0.000
926.668; 4057.650;  197.125;    0.000
926.842; 4170.650;  177.125;    0.000
927.016; 4194.650;  202.125;    0.000
927.190; 4102.650;  207.125;    0.000
927.363; 4039.650;  180.125;    0.000
927.537; 3902.650;  212.125;    0.000
927.711; 3783.650;  148.125;    0.000
927.885; 3733.650;  196.125;    0.000
928.058; 3717.650;  173.125;    0.000
928.232; 3643.650;  219.125;    0.000
928.406; 3569.650;  141.125;    0.000
928.579; 3451.650;  157.125;    0.000
928.753; 3432.650;  205.125;    0.000
928.927; 3348.650;  196.125;    0.000
929.100; 3265.650;  237.125;    0.000
929.274; 3218.650;  166.125;    0.000
929.447; 3095.650;  150.125;    0.000
929.621; 3180.650;  188.125;    0.000
929.794; 3088.650;  169.125;    0.000
929.968; 3044.650;  194.125;    0.000
930.141; 3013.650;  226.125;    0.000
930.315; 3033.650;  196.125;    0.000
930.488; 2982.650;  233.125;    0.000
930.661; 2960.650;  188.125;    0.000
930.835; 2870.650;  170.125;    0.000
931.008; 2840.650;  176.125;    0.000
931.181; 2806.650;  175.125;    0.000
931.354; 2815.650;  212.125;    0.000
931.528; 2746.650;  177.125;    0.000
931.701; 2701.650;  218.125;    0.000
931.874; 2728.650;  175.125;    0.000
932.047; 2639.650;  157.125;    0.000
932.220; 2667.650;  187.125;    0.000
932.393; 2657.650;  166.125;    0.000
932.566; 2672.650;  168.125;    0.000
932.739; 2670.650;  203.125;    0.000
932.912; 2617.650;  202.125;    0.000
933.085; 2697.650;  209.125;    0.000
933.258; 2652.650;  196.125;    0.000
933.431; 2602.650;  207.125;    0.000
933.604; 2573.650;  201.125;    0.000
933.777; 2588.650;  202.125;    0.000
933.950; 2574.650;  184.125;    0.000
934.123; 2622.650;  167.125;    0.000
934.296; 2553.650;  209.125;    0.000
934.468; 2446.650;  216.125;    0.000
934.641; 2492.650;  156.125;    0.000
934.814; 2493.650;  215.125;    0.000
934.987; 2457.650;  201.125;    0.000
935.159; 2494.650;  176.125;    0.000
935.332; 2469.650;  203.125;    0.000
935.505; 2500.650;  163.125;    0.000
935.677; 2504.650;  169.125;    0.000
935.850; 2418.650;  178.125;    0.000
936.022; 2489.650;  187.125;    0.000
936.195; 2526.650;  207.125;    0.000
936.367; 2416.650;  191.125;    0.000
936.540; 2522.650;  214.125;    0.000
936.712; 2499.650;  202.125;    0.000
936.885; 2450.650;  195.125;    0.000
937.057; 2469.650;  173.125;    0.000
937.229; 2576.650;  179.125;    0.000
937.402; 2579.650;  174.125;    0.000
937.574; 2611.650;  140.125;    0.000
937.746; 2671.650;  153.125;    0.000
937.919; 2820.650;  196.125;    0.000
938.091; 2902.650;  173.125;    0.000
938.263; 2975.650;  206.125;    0.000
938.435; 3185.650;  213.125;    0.000
938.608; 3659.650;  204.125;    0.000
938.780; 4260.650;  199.125;    0.000
938.952; 4349.650;  190.125;    0.000
939.124; 4407.650;  182.125;    0.000
939.296; 4926.650;  188.125;    0.000
939.468; 4933.650;  119.125;    0.000
939.640; 4636.650;  171.125;    0.000
939.812; 4146.650;  222.125;    0.000
939.984; 3821.650;  172.125;    0.000
940.156; 3605.650;  171.125;    0.000
940.328; 3364.650;  215.125;    0.000
940.500; 3250.650;  179.125;    0.000
940.672; 3053.650;  178.125;    0.000
940.843; 3044.650;  193.125;    0.000
941.015; 2948.650;  207.125;    0.000
941.187; 2854.650;  179.125;    0.000
941.359; 2821.650;  191.125;    0.000
941.531; 2764.650;  160.125;    0.000
941.702; 2736.650;  208.125;    0.000
941.874; 2670.650;  143.125;    0.000
942.046; 2563.650;  189.125;    0.000
942.217; 2606.650;  167.125;    0.000
942.389; 2638.650;  199.125;    0.000
942.560; 2524.650;  179.125;    0.000
942.732; 2455.650;  209.125;    0.000
942.904; 2499.650;  180.125;    0.000
943.075; 2405.650;  197.125;    0.000
943.247; 2339.650;  207.125;    0.000
943.418; 2348.650;  183.125;    0.000
943.589; 2291.650;  176.125;    0.000
943.761; 2339.650;  165.125;    0.000
943.932; 2386.650;  170.125;    0.000
944.104; 2301.650;  147.125;    0.000
944.275; 2248.650;  149.125;    0.000
944.446; 2255.650;  191.125;    0.000
944.617; 2231.650;  128.125;    0.000
944.789; 2321.650;  166.125;    0.000
944.960; 2192.650;  195.125;    0.000
945.131; 2306.650;  164.125;    0.000
945.302; 2207.650;  229.125;    0.000
945.473; 2157.650;  153.125;    0.000
945.645; 2228.650;  166.125;    0.000
945.816; 2284.650;  187.125;    0.000
945.987; 2225.650;  193.125;    0.000
946.158; 2375.650;  166.125;    0.000
946.329; 2380.650;  196.125;    0.000
946.500; 2350.650;  152.125;    0.000
946.671; 2098.650;  161.125;    0.000
946.842; 2206.650;  176.125;    0.000
947.013; 2259.650;  188.125;    0.000
947.183; 2216.650;  213.125;    0.000
947.354; 2169.650;  163.125;    0.000
947.525; 2199.650;  204.125;    0.000
947.696; 2081.650;  159.125;    0.000
947.867; 2245.650;  197.125;    0.000
948.037; 2128.650;  174.125;    0.000
948.208; 2138.650;  163.125;    0.000
948.379; 2161.650;  189.125;    0.000
948.550; 2190.650;  173.125;    0.000
948.720; 2144.650;  186.125;    0.000
948.891; 2146.650;  166.125;    0.000
949.061; 2121.650;  197.125;    0.000
949.232; 2094.650;  168.125;    0.000
949.403; 2061.650;  188.125;    0.000
949.573; 2100.650;  164.125;    0.000
949.744; 2119.650;  194.125;    0.000
949.914; 2044.650;  154.125;    0.000
950.085; 2063.650;  197.125;    0.000
950.255; 2064.650;  187.125;    0.000
950.425; 2038.650;  193.125;    0.000
950.596; 2041.650;  182.125;    0.000
950.766; 2014.650;  202.125;    0.000
950.936; 2013.650;  230.125;    0.000
951.107; 2028.650;  133.125;    0.000
951.277; 2027.650;  234.125;    0.000
951.447; 2106.650;  200.125;    0.000
951.617; 2099.650;  212.125;    0.000
951.788; 1996.650;  176.125;    0.000
951.958; 2100.650;  218.125;    0.000
952.128; 2055.650;  198.125;    0.000
952.298; 1993.650;  185.125;    0.000
952.468; 2053.650;  231.125;    0.000
952.638; 1968.650;  213.125;    0.000
952.808; 1980.650;  218.125;    0.000
952.978; 2017.650;  252.125;    0.000
953.148; 1988.650;  200.125;    0.000
953.318; 1966.650;  243.125;    0.000
953.488; 1986.650;  140.125;    0.000
953.658; 1954.650;  208.125;    0.000
953.828; 1944.650;  179.125;    0.000
953.998; 1956.650;  211.125;    0.000
954.167; 2013.650;  197.125;    0.000
954.337; 1941.650;  217.125;    0.000
954.507; 1981.650;  219.125;    0.000
954.677; 1900.650;  201.125;    0.000
954.846; 1958.650;  241.125;    0.000
955.016; 1874.650;  222.125;    0.000
955.186; 1856.650;  200.125;    0.000
955.355; 1988.650;  247.125;    0.000
955.525; 1964.650;  212.125;    0.000
955.695; 1877.650;  200.125;    0.000
955.864; 1795.650;  196.125;    0.000
956.034; 1954.650;  195.125;    0.000
956.203; 1874.650;  243.125;    0.000
956.373; 1824.650;  197.125;    0.000
956.542; 1882.650;  237.125;    0.000
956.711; 1919.650;  249.125;    0.000
956.881; 1871.650;  235.125;    0.000
957.050; 1917.650;  259.125;    0.000
957.220; 1896.650;  234.125;    0.000
957.389; 1853.650;  250.125;    0.000
957.558; 1801.650;  214.125;    0.000
957.727; 1861.650;  225.125;    0.000
957.897; 1864.650;  211.125;    0.000
958.066; 1814.650;  200.125;    0.000
958.235; 1906.650;  202.125;    0.000
958.404; 1822.650;  242.125;    0.000
958.573; 1864.650;  222.125;    0.000
958.743; 1760.650;  191.125;    0.000
958.912; 1831.650;  183.125;    0.000
959.081; 1761.650;  212.125;    0.000
959.250; 1821.650;  192.125;    0.000
959.419; 1870.650;  238.125;    0.000
959.588; 1824.650;  205.125;    0.000
959.757; 1753.650;  213.125;    0.000
959.926; 1796.650;  217.125;    0.000
960.094; 1768.650;  215.125;    0.000
960.263; 1755.650;  220.125;    0.000
960.432; 1810.650;  164.125;    0.000
960.601; 1752.650;  228.125;    0.000
960.770; 1744.650;  176.125;    0.000
960.939; 1692.650;  201.125;    0.000
961.107; 1753.650;  183.125;    0.000
961.276; 1691.650;  199.125;    0.000
961.445; 1810.650;  205.125;    0.000
961.613; 1714.650;  183.125;    0.000
961.782; 1732.650;  216.125;    0.000
961.951; 1776.650;  169.125;    0.000
962.119; 1765.650;  211.125;    0.000
962.288; 1769.650;  204.125;    0.000
962.456; 1625.650;  187.125;    0.000
962.625; 1734.650;  223.125;    0.000
962.793; 1674.650;  200.125;    0.000
962.962; 1722.650;  185.125;    0.000
963.130; 1742.650;  195.125;    0.000
963.298; 1670.650;  187.125;    0.000
963.467; 1779.650;  247.125;    0.000
963.635; 1745.650;  165.125;    0.000
963.803; 1811.650;  192.125;    0.000
963.972; 1801.650;  191.125;    0.000
964.140; 1789.650;  163.125;    0.000
964.308; 1715.650;  161.125;    0.000
964.477; 1736.650;  182.125;    0.000
964.645; 1733.650;  195.125;    0.000
964.813; 1726.650;  165.125;    0.000
964.981; 1732.650;  193.125;    0.000
965.149; 1761.650;  174.125;    0.000
965.317; 1812.650;  194.125;    0.000
965.485; 1756.650;  209.125;    0.000
965.653; 1777.650;  210.125;    0.000
965.821; 1724.650;  194.125;    0.000
965.989; 1762.650;  182.125;    0.000
966.157; 1718.650;  180.125;    0.000
966.325; 1704.650;  198.125;    0.000
966.493; 1752.650;  182.125;    0.000
966.661; 1696.650;  200.125;    0.000
966.829; 1695.650;  190.125;    0.000
966.996; 1703.650;  221.125;    0.000
967.164; 1722.650;  176.125;    0.000
967.332; 1768.650;  228.125;    0.000
967.500; 1742.650;  177.125;    0.000
967.667; 1753.650;  202.125;    0.000
967.835; 1739.650;  220.125;    0.000
968.003; 1759.650;  183.125;    0.000
968.170; 1754.650;  163.125;    0.000
968.338; 1751.650;  162.125;    0.000
968.505; 1754.650;  198.125;    0.000
968.673; 1723.650;  213.125;    0.000
968.841; 1707.650;  131.125;    0.000
969.008; 1841.650;  225.125;    0.000
969.175; 1775.650;  202.125;    0.000
969.343; 1707.650;  222.125;    0.000
969.510; 1771.650;  230.125;    0.000
969.678; 1689.650;  161.125;    0.000
969.845; 1688.650;  208.125;    0.000
970.012; 1771.650;  186.125;    0.000
970.180; 1793.650;  226.125;    0.000
970.347; 1697.650;  222.125;    0.000
970.514; 1724.650;  206.125;    0.000
970.681; 1616.650;  173.125;    0.000
970.849; 1597.650;  190.125;    0.000
971.016; 1748.650;  220.125;    0.000
971.183; 1778.650;  202.125;    0.000
971.350; 1712.650;  196.125;    0.000
971.517; 1736.650;  218.125;    0.000
971.684; 1734.650;  228.125;    0.000
971.851; 1792.650;  235.125;    0.000
972.018; 1775.650;  200.125;    0.000
972.185; 1770.650;  183.125;    0.000
972.352; 1770.650;  216.125;    0.000
972.519; 1811.650;  227.125;    0.000
972.686; 1680.650;  209.125;    0.000
972.853; 1763.650;  157.125;    0.000
973.020; 1707.650;  179.125;    0.000
973.186; 1733.650;  173.125;    0.000
973.353; 1753.650;  189.125;    0.000
973.520; 1728.650;  228.125;    0.000
973.687; 1675.650;  190.125;    0.000
973.853; 1763.650;  197.125;    0.000
974.020; 1686.650;  208.125;    0.000
974.187; 1632.650;  158.125;    0.000
974.353; 1726.650;  201.125;    0.000
974.520; 1655.650;  158.125;    0.000
974.687; 1735.650;  192.125;    0.000
974.853; 1773.650;  177.125;    0.000
975.020; 1666.650;  212.125;    0.000
975.186; 1723.650;  200.125;    0.000
975.353; 1691.650;  208.125;    0.000
975.519; 1719.650;  169.125;    0.000
975.685; 1704.650;  176.125;    0.000
975.852; 1727.650;  201.125;    0.000
976.018; 1705.650;  209.125;    0.000
976.184; 1659.650;  197.125;    0.000
976.351; 1633.650;  196.125;    0.000
976.517; 1730.650;  243.125;    0.000
976.683; 1715.650;  210.125;    0.000
976.849; 1710.650;  226.125;    0.000
977.016; 1613.650;  218.125;    0.000
977.182; 1732.650;  213.125;    0.000
977.348; 1653.650;  205.125;    0.000
977.514; 1709.650;  210.125;    0.000
977.680; 1633.650;  226.125;    0.000
977.846; 1648.650;  206.125;    0.000
978.012; 1682.650;  222.125;    0.000
978.178; 1682.650;  216.125;    0.000
978.344; 1648.650;  172.125;    0.000
978.510; 1616.650;  210.125;    0.000
978.676; 1578.650;  184.125;    0.000
978.842; 1627.650;  190.125;    0.000
979.008; 1669.650;  203.125;    0.000
979.174; 1626.650;  211.125;    0.000
979.340; 1688.650;  190.125;    0.000
979.505; 1703.650;  235.125;    0.000
979.671; 1625.650;  182.125;    0.000
979.837; 1656.650;  235.125;    0.000
980.003; 1641.650;  183.125;    0.000
980.168; 1688.650;  220.125;    0.000
980.334; 1635.650;  161.125;    0.000
980.499; 1704.650;  212.125;    0.000
980.665; 1780.650;  219.125;    0.000
980.831; 1672.650;  201.125;    0.000
980.996; 1676.650;  189.125;    0.000
981.162; 1747.650;  222.125;    0.000
981.327; 1722.650;  173.125;    0.000
981.493; 1766.650;  197.125;    0.000
981.658; 1668.650;  178.125;    0.000
981.823; 1664.650;  196.125;    0.000
981.989; 1743.650;  248.125;    0.000
982.154; 1721.650;  222.125;    0.000
982.319; 1771.650;  226.125;    0.000
982.485; 1720.650;  188.125;    0.000
982.650; 1742.650;  203.125;    0.000
982.815; 1695.650;  237.125;    0.000
982.980; 1748.650;  210.125;    0.000
983.146; 1725.650;  202.125;    0.000
983.311; 1620.650;  195.125;    0.000
983.476; 1655.650;  207.125;    0.000
983.641; 1657.650;  198.125;    0.000
983.806; 1710.650;  136.125;    0.000
983.971; 1792.650;  248.125;    0.000
984.136; 1646.650;  213.125;    0.000
984.301; 1627.650;  181.125;    0.000
984.466; 1672.650;  210.125;    0.000
984.631; 1679.650;  219.125;    0.000
984.796; 1652.650;  207.125;    0.000
984.961; 1713.650;  214.125;    0.000
985.126; 1725.650;  218.125;    0.000
985.291; 1692.650;  214.125;    0.000
985.455; 1685.650;  187.125;    0.000
985.620; 1666.650;  191.125;    0.000
985.785; 1618.650;  190.125;    0.000
985.950; 1576.650;  184.125;    0.000
986.114; 1656.650;  242.125;    0.000
986.279; 1648.650;  251.125;    0.000
986.444; 1743.650;  177.125;    0.000
986.608; 1731.650;  216.125;    0.000
986.773; 1796.650;  211.125;    0.000
986.937; 1780.650;  244.125;    0.000
987.102; 1732.650;  187.125;    0.000
987.266; 1627.650;  178.125;    0.000
987.431; 1757.650;  205.125;    0.000
987.595; 1756.650;  221.125;    0.000
987.760; 1768.650;  205.125;    0.000
987.924; 1706.650;  195.125;    0.000
988.088; 1639.650;  184.125;    0.000
988.253; 1746.650;  188.125;    0.000
988.417; 1748.650;  196.125;    0.000
988.581; 1670.650;  218.125;    0.000
988.746; 1677.650;  203.125;    0.000
988.910; 1695.650;  195.125;    0.000
989.074; 1711.650;  187.125;    0.000
989.238; 1560.650;  243.125;    0.000
989.402; 1601.650;  242.125;    0.000
989.566; 1702.650;  205.125;    0.000
989.731; 1633.650;  195.125;    0.000
989.895; 1669.650;  211.125;    0.000
990.059; 1612.650;  175.125;    0.000
990.223; 1656.650;  176.125;    0.000
990.387; 1655.650;  234.125;    0.000
990.551; 1644.650;  231.125;    0.000
990.714; 1668.650;  209.125;    0.000
990.878; 1680.650;  187.125;    0.000
991.042; 1674.650;  183.125;    0.000
991.206; 1655.650;  216.125;    0.000
991.370; 1672.650;  257.125;    0.000
991.534; 1640.650;  188.125;    0.000
991.697; 1680.650;  203.125;    0.000
991.861; 1669.650;  219.125;    0.000
992.025; 1649.650;  221.125;    0.000
992.188; 1646.650;  188.125;    0.000
992.352; 1616.650;  205.125;    0.000
992.516; 1660.650;  189.125;    0.000
992.679; 1674.650;  207.125;    0.000
992.843; 1674.650;  210.125;    0.000
993.006; 1553.650;  191.125;    0.000
993.170; 1654.650;  228.125;    0.000
993.333; 1574.650;  142.125;    0.000
993.497; 1627.650;  175.125;    0.000
993.660; 1657.650;  220.125;    0.000
993.824; 1654.650;  193.125;    0.000
993.987; 1673.650;  219.125;    0.000
994.150; 1635.650;  166.125;    0.000
994.314; 1691.650;  207.125;    0.000
994.477; 1532.650;  227.125;    0.000
994.640; 1625.650;  210.125;    0.000
994.803; 1644.650;  219.125;    0.000
994.967; 1631.650;  192.125;    0.000
995.130; 1601.650;  197.125;    0.000
995.293; 1568.650;  189.125;    0.000
995.456; 1526.650;  180.125;    0.000
995.619; 1558.650;  239.125;    0.000
995.782; 1609.650;  209.125;    0.000
995.945; 1602.650;  216.125;    0.000
996.108; 1614.650;  198.125;    0.000
996.271; 1591.650;  205.125;    0.000
996.434; 1577.650;  205.125;    0.000
996.597; 1566.650;  208.125;    0.000
996.760; 1615.650;  205.125;    0.000
996.923; 1587.650;  174.125;    0.000
997.086; 1621.650;  198.125;    0.000
997.248; 1588.650;  214.125;    0.000
997.411; 1575.650;  237.125;    0.000
997.574; 1529.650;  182.125;    0.000
997.737; 1565.650;  188.125;    0.000
997.899; 1546.650;  216.125;    0.000
998.062; 1578.650;  210.125;    0.000
998.225; 1553.650;  202.125;    0.000
998.387; 1540.650;  202.125;    0.000
998.550; 1516.650;  193.125;    0.000
998.712; 1551.650;  225.125;    0.000
998.875; 1603.650;  228.125;    0.000
999.037; 1582.650;  186.125;    0.000
999.200; 1640.650;  212.125;    0.000
999.362; 1598.650;  234.125;    0.000
999.525; 1611.650;  170.125;    0.000
999.687; 1599.650;  191.125;    0.000
999.849; 1553.650;  218.125;    0.000
1000.012; 1656.650;  187.125;    0.000
1000.174; 1539.650;  216.125;    0.000
1000.336; 1611.650;  194.125;    0.000
1000.499; 1613.650;  209.125;    0.000
1000.661; 1616.650;  208.125;    0.000
1000.823; 1604.650;  197.125;    0.000
1000.985; 1615.650;  201.125;    0.000
1001.147; 1715.650;  234.125;    0.000
1001.309; 1558.650;  180.125;    0.000
1001.471; 1586.650;  223.125;    0.000
1001.633; 1564.650;  198.125;    0.000
1001.796; 1635.650;  200.125;    0.000
1001.958; 1713.650;  204.125;    0.000
1002.119; 1701.650;  193.125;    0.000
1002.281; 1773.650;  205.125;    0.000
1002.443; 1792.650;  236.125;    0.000
1002.605; 1941.650;  197.125;    0.000
1002.767; 2028.650;  223.125;    0.000
1002.929; 2078.650;  220.125;    0.000
1003.091; 2150.650;  214.125;    0.000
1003.252; 2180.650;  233.125;    0.000
1003.414; 2316.650;  230.125;    0.000
1003.576; 2388.650;  203.125;    0.000
1003.738; 2495.650;  201.125;    0.000
1003.899; 2681.650;  222.125;    0.000
1004.061; 2794.650;  208.125;    0.000
1004.222; 2904.650;  194.125;    0.000
1004.384; 2988.650;  205.125;    0.000
1004.546; 3065.650;  162.125;    0.000
1004.707; 3100.650;  232.125;    0.000
1004.869; 3201.650;  223.125;    0.000
1005.030; 3090.650;  204.125;    0.000
1005.191; 3020.650;  214.125;    0.000
1005.353; 2890.650;  226.125;    0.000
1005.514; 2800.650;  201.125;    0.000
1005.675; 2830.650;  205.125;    0.000
1005.837; 2537.650;  235.125;    0.000
1005.998; 2546.650;  210.125;    0.000
1006.159; 2427.650;  214.125;    0.000
1006.321; 2602.650;  236.125;    0.000
1006.482; 2677.650;  214.125;    0.000
1006.643; 2732.650;  213.125;    0.000
1006.804; 2871.650;  204.125;    0.000
1006.965; 2969.650;  212.125;    0.000
1007.126; 2897.650;  251.125;    0.000
1007.287; 2916.650;  238.125;    0.000
1007.448; 2806.650;  198.125;    0.000
1007.609; 2865.650;  241.125;    0.000
1007.770; 2724.650;  213.125;    0.000
1007.931; 2814.650;  225.125;    0.000
1008.092; 2836.650;  204.125;    0.000
1008.253; 2923.650;  220.125;    0.000
1008.414; 2930.650;  180.125;    0.000
1008.575; 2972.650;  224.125;    0.000
1008.736; 2955.650;  164.125;    0.000
1008.896; 3012.650;  247.125;    0.000
1009.057; 2865.650;  263.125;    0.000
1009.218; 2805.650;  233.125;    0.000
1009.379; 2876.650;  207.125;    0.000
1009.539; 3077.650;  221.125;    0.000
1009.700; 3050.650;  209.125;    0.000
1009.860; 3000.650;  217.125;    0.000
1010.021; 3008.650;  182.125;    0.000
1010.182; 3092.650;  233.125;    0.000
1010.342; 3010.650;  210.125;    0.000
1010.503; 3115.650;  232.125;    0.000
1010.663; 3202.650;  228.125;    0.000
1010.823; 3332.650;  212.125;    0.000
1010.984; 3224.650;  244.125;    0.000
1011.144; 3403.650;  200.125;    0.000
1011.305; 3431.650;  237.125;    0.000
1011.465; 3583.650;  225.125;    0.000
1011.625; 3642.650;  215.125;    0.000
1011.785; 3760.650;  235.125;    0.000
1011.946; 3763.650;  231.125;    0.000
1012.106; 3719.650;  206.125;    0.000
1012.266; 3611.650;  218.125;    0.000
1012.426; 3573.650;  249.125;    0.000
1012.586; 3694.650;  217.125;    0.000
1012.746; 3577.650;  231.125;    0.000
1012.906; 3647.650;  230.125;    0.000
1013.066; 3555.650;  260.125;    0.000
1013.226; 3524.650;  206.125;    0.000
1013.386; 3611.650;  220.125;    0.000
1013.546; 3586.650;  233.125;    0.000
1013.706; 3457.650;  194.125;    0.000
1013.866; 3509.650;  209.125;    0.000
1014.026; 3540.650;  204.125;    0.000
1014.186; 3533.650;  203.125;    0.000
1014.346; 3445.650;  244.125;    0.000
1014.505; 3588.650;  206.125;    0.000
1014.665; 3678.650;  210.125;    0.000
1014.825; 3488.650;  235.125;    0.000
1014.985; 3476.650;  227.125;    0.000
1015.144; 3774.650;  237.125;    0.000
1015.304; 3944.650;  196.125;    0.000
1015.464; 3791.650;  228.125;    0.000
1015.623; 3818.650;  235.125;    0.000
1015.783; 4020.650;  187.125;    0.000
1015.942; 4285.650;  184.125;    0.000
1016.102; 4322.650;  245.125;    0.000
1016.261; 4185.650;  203.125;    0.000
1016.420; 4489.650;  209.125;    0.000
1016.580; 4998.650;  235.125;    0.000
1016.739; 4878.650;  175.125;    0.000
1016.899; 4687.650;  220.125;    0.000
1017.058; 4774.650;  219.125;    0.000
1017.217; 5418.650;  238.125;    0.000
1017.376; 5089.650;  235.125;    0.000
1017.536; 4529.650;  195.125;    0.000
1017.695; 4463.650;  215.125;    0.000
1017.854; 4699.650;  231.125;    0.000
1018.013; 4463.650;  184.125;    0.000
1018.172; 4256.650;  179.125;    0.000
1018.331; 4182.650;  205.125;    0.000
1018.490; 4535.650;  203.125;    0.000
1018.649; 4687.650;  261.125;    0.000
1018.808; 4927.650;  253.125;    0.000
1018.967; 4912.650;  201.125;    0.000
1019.126; 4751.650;  216.125;    0.000
1019.285; 5019.650;  169.125;    0.000
1019.444; 5037.650;  226.125;    0.000
1019.603; 4827.650;  252.125;    0.000
1019.762; 4486.650;  206.125;    0.000
1019.921; 4659.650;  235.125;    0.000
1020.079; 4891.650;  192.125;    0.000
1020.238; 5320.650;  226.125;    0.000
1020.397; 5085.650;  231.125;    0.000
1020.555; 4663.650;  218.125;    0.000
1020.714; 4775.650;  235.125;    0.000
1020.873; 5125.650;  229.125;    0.000
1021.031; 5168.650;  234.125;    0.000
1021.190; 4906.650;  223.125;    0.000
1021.348; 4873.650;  186.125;    0.000
1021.507; 5345.650;  201.125;    0.000
1021.665; 5824.650;  222.125;    0.000
1021.824; 5310.650;  208.125;    0.000
1021.982; 4963.650;  209.125;    0.000
1022.141; 5012.650;  224.125;    0.000
1022.299; 5654.650;  214.125;    0.000
1022.457; 5840.650;  176.125;    0.000
1022.616; 5351.650;  211.125;    0.000
1022.774; 4991.650;  218.125;    0.000
1022.932; 4930.650;  205.125;    0.000
1023.090; 5659.650;  246.125;    0.000
1023.249; 5858.650;  249.125;    0.000
1023.407; 5409.650;  235.125;    0.000
1023.565; 4995.650;  202.125;    0.000
1023.723; 5201.650;  210.125;    0.000
1023.881; 5829.650;  206.125;    0.000
1024.039; 5859.650;  240.125;    0.000
1024.197; 5376.650;  275.125;    0.000
1024.355; 5063.650;  228.125;    0.000
1024.513; 5364.650;  234.125;    0.000
1024.671; 5974.650;  222.125;    0.000
1024.829; 6079.650;  241.125;    0.000
1024.987; 5558.650;  209.125;    0.000
1025.145; 5249.650;  227.125;    0.000
1025.302; 5340.650;  208.125;    0.000
1025.460; 5721.650;  210.125;    0.000
1025.618; 6095.650;  192.125;    0.000
1025.776; 5903.650;  220.125;    0.000
1025.933; 5384.650;  223.125;    0.000
1026.091; 5380.650;  189.125;    0.000
1026.249; 5786.650;  210.125;    0.000
1026.406; 6305.650;  231.125;    0.000
1026.564; 6007.650;  247.125;    0.000
1026.721; 5746.650;  213.125;    0.000
1026.879; 5444.650;  208.125;    0.000
1027.036; 6003.650;  222.125;    0.000
1027.194; 6264.650;  253.125;    0.000
1027.351; 6503.650;  239.125;    0.000
1027.509; 5955.650;  232.125;    0.000
1027.666; 5606.650;  251.125;    0.000
1027.823; 5957.650;  212.125;    0.000
1027.981; 6376.650;  260.125;    0.000
1028.138; 6589.650;  263.125;    0.000
1028.295; 6023.650;  251.125;    0.000
1028.452; 5785.650;  249.125;    0.000
1028.609; 5812.650;  259.125;    0.000
1028.767; 6220.650;  255.125;    0.000
1028.924; 6460.650;  201.125;    0.000
1029.081; 6601.650;  217.125;    0.000
1029.238; 6268.650;  230.125;    0.000
1029.395; 6070.650;  263.125;    0.000
1029.552; 6084.650;  207.125;    0.000
1029.709; 6550.650;  220.125;    0.000
1029.866; 6714.650;  214.125;    0.000
1030.023; 6592.650;  224.125;    0.000
1030.180; 6123.650;  209.125;    0.000
1030.337; 6166.650;  269.125;    0.000
1030.494; 6379.650;  207.125;    0.000
1030.650; 6825.650;  230.125;    0.000
1030.807; 7080.650;  217.125;    0.000
1030.964; 6463.650;  212.125;    0.000
1031.121; 6369.650;  220.125;    0.000
1031.277; 6189.650;  233.125;    0.000
1031.434; 6432.650;  266.125;    0.000
1031.591; 6924.650;  270.125;    0.000
1031.747; 6941.650;  229.125;    0.000
1031.904; 6898.650;  227.125;    0.000
1032.060; 6646.650;  210.125;    0.000
1032.217; 6440.650;  218.125;    0.000
1032.373; 7310.650;  190.125;    0.000
1032.530; 7246.650;  236.125;    0.000
1032.686; 8015.650;  199.125;    0.000
1032.843; 8065.650;  216.125;    0.000
1032.999; 7490.650;  204.125;    0.000
1033.155; 7773.650;  208.125;    0.000
1033.312; 7591.650;  231.125;    0.000
1033.468; 8951.650;  213.125;    0.000
1033.624; 9478.650;  235.125;    0.000
1033.780; 9871.650;  233.125;    0.000
1033.937;10212.650;  201.125;    0.000
1034.093; 8949.650;  233.125;    0.000
1034.249; 9601.650;  214.125;    0.000
1034.405; 9391.650;  245.125;    0.000
1034.561;10131.650;  228.125;    0.000
1034.717;10730.650;  234.125;    0.000
1034.873;10248.650;  248.125;    0.000
1035.029;10986.650;  220.125;    0.000
1035.185;10115.650;  294.125;    0.000
1035.341; 9781.650;  231.125;    0.000
1035.497;11089.650;  254.125;    0.000
1035.653;10762.650;  225.125;    0.000
1035.809;11799.650;  243.125;    0.000
1035.964;12723.650;  216.125;    0.000
1036.120;12044.650;  199.125;    0.000
1036.276;12092.650;  220.125;    0.000
1036.432;12167.650;  210.125;    0.000
1036.587;11093.650;  225.125;    0.000
1036.743;12013.650;  245.125;    0.000
1036.899;12518.650;  219.125;    0.000
1037.054;12592.650;  157.125;    0.000
1037.210;13791.650;  208.125;    0.000
1037.365;14400.650;  230.125;    0.000
1037.521;12968.650;  236.125;    0.000
1037.676;12949.650;  193.125;    0.000
1037.832;12368.650;  246.125;    0.000
1037.987;12253.650;  231.125;    0.000
1038.143;12796.650;  234.125;    0.000
1038.298;13964.650;  219.125;    0.000
1038.453;14002.650;  230.125;    0.000
1038.609;15314.650;  254.125;    0.000
1038.764;16258.650;  249.125;    0.000
1038.919;14684.650;  224.125;    0.000
1039.074;14518.650;  209.125;    0.000
1039.229;13813.650;  214.125;    0.000
1039.385;13129.650;  268.125;    0.000
1039.540;13941.650;  268.125;    0.000
1039.695;15220.650;  229.125;    0.000
1039.850;16559.650;  252.125;    0.000
1040.005;17018.650;  248.125;    0.000
1040.160;18346.650;  215.125;    0.000
1040.315;17994.650;  239.125;    0.000
1040.470;17198.650;  210.125;    0.000
1040.625;16561.650;  239.125;    0.000
1040.780;15817.650;  251.125;    0.000
1040.935;15411.650;  247.125;    0.000
1041.089;16093.650;  215.125;    0.000
1041.244;18983.650;  210.125;    0.000
1041.399;20014.650;  237.125;    0.000
1041.554;20898.650;  253.125;    0.000
1041.708;23263.650;  227.125;    0.000
1041.863;21964.650;  219.125;    0.000
1042.018;20961.650;  246.125;    0.000
1042.172;21313.650;  236.125;    0.000
1042.327;19769.650;  272.125;    0.000
1042.481;19607.650;  197.125;    0.000
1042.636;20100.650;  213.125;    0.000
1042.791;19818.650;  250.125;    0.000
1042.945;23928.650;  267.125;    0.000
1043.099;26066.650;  257.125;    0.000
1043.254;24301.650;  206.125;    0.000
1043.408;26088.650;  266.125;    0.000
1043.563;28385.650;  232.125;    0.000
1043.717;27882.650;  241.125;    0.000
1043.871;25075.650;  248.125;    0.000
1044.025;24876.650;  234.125;    0.000
1044.180;24468.650;  222.125;    0.000
1044.334;24498.650;  235.125;    0.000
1044.488;25075.650;  270.125;    0.000
1044.642;26537.650;  215.125;    0.000
1044.796;29598.650;  212.125;    0.000
1044.950;32928.648;  228.125;    0.000
1045.104;34751.648;  223.125;    0.000
1045.258;37061.648;  236.125;    0.000
1045.412;35336.648;  225.125;    0.000
1045.566;33045.648;  245.125;    0.000
1045.720;32654.650;  201.125;    0.000
1045.874;31585.650;  229.125;    0.000
1046.028;28690.650;  243.125;    0.000
1046.182;28932.650;  212.125;    0.000
1046.336;29388.650;  256.125;    0.000
1046.489;29729.650;  234.125;    0.000
1046.643;30060.650;  246.125;    0.000
1046.797;34303.648;  219.125;    0.000
1046.951;35408.648;  231.125;    0.000
1047.104;37188.648;  285.125;    0.000
1047.258;38196.648;  256.125;    0.000
1047.411;40586.648;  232.125;    0.000
1047.565;38609.648;  269.125;    0.000
1047.719;37926.648;  213.125;    0.000
1047.872;35288.648;  210.125;    0.000
1048.026;34802.648;  251.125;    0.000
1048.179;34587.648;  213.125;    0.000
1048.332;34152.648;  212.125;    0.000
1048.486;33505.648;  218.125;    0.000
1048.639;34904.648;  218.125;    0.000
1048.792;34491.648;  247.125;    0.000
1048.946;37729.648;  208.125;    0.000
1049.099;40720.648;  247.125;    0.000
1049.252;42370.648;  274.125;    0.000
1049.406;40688.648;  232.125;    0.000
1049.559;41873.648;  251.125;    0.000
1049.712;47054.648;  243.125;    0.000
1049.865;49884.648;  219.125;    0.000
1050.018;48339.648;  216.125;    0.000
1050.171;41740.648;  237.125;    0.000
1050.324;39950.648;  291.125;    0.000
1050.477;42247.648;  241.125;    0.000
1050.630;46208.648;  245.125;    0.000
1050.783;48149.648;  213.125;    0.000
1050.936;44706.648;  246.125;    0.000
1051.089;41661.648;  255.125;    0.000
1051.242;44669.648;  228.125;    0.000
1051.394;47868.648;  276.125;    0.000
1051.547;51254.648;  246.125;    0.000
1051.700;50555.648;  252.125;    0.000
1051.853;46728.648;  267.125;    0.000
1052.005;48752.648;  261.125;    0.000
1052.158;54764.648;  313.125;    0.000
1052.311;59943.648;  264.125;    0.000
1052.463;60407.648;  271.125;    0.000
1052.616;52518.648;  291.125;    0.000
1052.768;45506.648;  298.125;    0.000
1052.921;44734.648;  262.125;    0.000
1053.073;49687.648;  307.125;    0.000
1053.226;55671.648;  301.125;    0.000
1053.378;60029.648;  309.125;    0.000
1053.531;64065.648;  280.125;    0.000
1053.683;61617.648;  258.125;    0.000
1053.835;52979.648;  267.125;    0.000
1053.988;40491.648;  294.125;    0.000
1054.140; 7352.650;  292.125;    0.000
1054.292; 1794.650;  249.125;    0.000
1054.444; 1358.650;  288.125;    0.000
1054.596; 1287.650;  275.125;    0.000
1054.749; 1141.650;  284.125;    0.000
1054.901; 1044.650;  291.125;    0.000
1055.053; 1021.650;  274.125;    0.000
1055.205;  935.650;  313.125;    0.000
1055.357;  909.650;  309.125;    0.000
1055.509;  872.650;  283.125;    0.000
1055.661;  884.650;  341.125;    0.000
1055.813;  852.650;  288.125;    0.000
1055.965;  753.650;  300.125;    0.000
1056.116;  790.650;  296.125;    0.000
1056.268;  802.650;  319.125;    0.000
1056.420;  802.650;  298.125;    0.000

