
Integration time [ms]:   1.000
Averaging Nr. [scans]: 1
Smoothing Nr. [pixels]: 0
Data measured with spectrometer [name]: UV2
Wave   ;Sample   ;Dark     ;Reference
[nm]   ;[counts] ;[counts] ;[counts] 

353.533;  194.650;  216.475;    0.000
353.597;  227.650;  244.475;    0.000
353.660;  187.650;  181.475;    0.000
353.723;  195.650;  203.475;    0.000
353.786;  178.650;  180.475;    0.000
353.850;  269.650;  213.475;    0.000
353.913;  199.650;  191.475;    0.000
353.976;  205.650;  195.475;    0.000
354.039;  175.650;  158.475;    0.000
354.102;  191.650;  199.475;    0.000
354.166;  204.650;  185.475;    0.000
354.229;  221.650;  188.475;    0.000
354.292;  174.650;  188.475;    0.000
354.355;  221.650;  226.475;    0.000
354.418;  215.650;  158.475;    0.000
354.481;  224.650;  185.475;    0.000
354.545;  694.650;  191.475;    0.000
354.608;  753.650;  247.475;    0.000
354.671;  718.650;  176.475;    0.000
354.734;  785.650;  198.475;    0.000
354.797;  716.650;  195.475;    0.000
354.860;  773.650;  212.475;    0.000
354.923;  726.650;  184.475;    0.000
354.986;  791.650;  169.475;    0.000
355.050;  812.650;  206.475;    0.000
355.113;  818.650;  210.475;    0.000
355.176;  842.650;  217.475;    0.000
355.239;  849.650;  201.475;    0.000
355.302;  839.650;  193.475;    0.000
355.365;  904.650;  234.475;    0.000
355.428;  841.650;  182.475;    0.000
355.491;  963.650;  233.475;    0.000
355.554;  906.650;  167.475;    0.000
355.617;  901.650;  195.475;    0.000
355.680;  918.650;  198.475;    0.000
355.743;  906.650;  186.475;    0.000
355.806;  861.650;  171.475;    0.000
355.869;  929.650;  244.475;    0.000
355.932;  960.650;  164.475;    0.000
355.995; 1049.650;  220.475;    0.000
356.058;  949.650;  172.475;    0.000
356.121;  996.650;  228.475;    0.000
356.184;  978.650;  225.475;    0.000
356.247;  968.650;  161.475;    0.000
356.310;  968.650;  195.475;    0.000
356.373;  976.650;  191.475;    0.000
356.436;  998.650;  147.475;    0.000
356.498; 1027.650;  183.475;    0.000
356.561; 1002.650;  137.475;    0.000
356.624; 1046.650;  186.475;    0.000
356.687; 1018.650;  158.475;    0.000
356.750; 1021.650;  194.475;    0.000
356.813; 1011.650;  186.475;    0.000
356.876; 1039.650;  161.475;    0.000
356.939;  997.650;  188.475;    0.000
357.001; 1035.650;  200.475;    0.000
357.064; 1038.650;  182.475;    0.000
357.127; 1063.650;  168.475;    0.000
357.190; 1063.650;  157.475;    0.000
357.253; 1012.650;  199.475;    0.000
357.316; 1061.650;  187.475;    0.000
357.378; 1067.650;  174.475;    0.000
357.441; 1083.650;  165.475;    0.000
357.504; 1031.650;  189.475;    0.000
357.567; 1012.650;  116.475;    0.000
357.629; 1038.650;  176.475;    0.000
357.692; 1055.650;  134.475;    0.000
357.755; 1093.650;  175.475;    0.000
357.818; 1045.650;  159.475;    0.000
357.880; 1088.650;  185.475;    0.000
357.943; 1061.650;  159.475;    0.000
358.006; 1067.650;  176.475;    0.000
358.069; 1122.650;  156.475;    0.000
358.131; 1080.650;  170.475;    0.000
358.194; 1070.650;  125.475;    0.000
358.257; 1078.650;  186.475;    0.000
358.319; 1123.650;  139.475;    0.000
358.382; 1135.650;  175.475;    0.000
358.445; 1102.650;  170.475;    0.000
358.507; 1109.650;  129.475;    0.000
358.570; 1119.650;  168.475;    0.000
358.633; 1077.650;  152.475;    0.000
358.695; 1121.650;  194.475;    0.000
358.758; 1071.650;  154.475;    0.000
358.821; 1088.650;  147.475;    0.000
358.883; 1145.650;  163.475;    0.000
358.946; 1116.650;  155.475;    0.000
359.008; 1118.650;  208.475;    0.000
359.071; 1115.650;  182.475;    0.000
359.134; 1110.650;  126.475;    0.000
359.196; 1088.650;  142.475;    0.000
359.259; 1064.650;  138.475;    0.000
359.321; 1123.650;  153.475;    0.000
359.384; 1117.650;  186.475;    0.000
359.446; 1153.650;  152.475;    0.000
359.509; 1098.650;  144.475;    0.000
359.571; 1158.650;  164.475;    0.000
359.634; 1107.650;  171.475;    0.000
359.696; 1112.650;  144.475;    0.000
359.759; 1154.650;  171.475;    0.000
359.821; 1171.650;  161.475;    0.000
359.884; 1121.650;  159.475;    0.000
359.946; 1163.650;  186.475;    0.000
360.009; 1212.650;  171.475;    0.000
360.071; 1191.650;  166.475;    0.000
360.134; 1123.650;  215.475;    0.000
360.196; 1118.650;  138.475;    0.000
360.259; 1211.650;  196.475;    0.000
360.321; 1152.650;  148.475;    0.000
360.384; 1217.650;  150.475;    0.000
360.446; 1153.650;  148.475;    0.000
360.508; 1245.650;  172.475;    0.000
360.571; 1193.650;  155.475;    0.000
360.633; 1216.650;  153.475;    0.000
360.696; 1166.650;  142.475;    0.000
360.758; 1202.650;  165.475;    0.000
360.820; 1098.650;  155.475;    0.000
360.883; 1206.650;  156.475;    0.000
360.945; 1192.650;  171.475;    0.000
361.007; 1181.650;  138.475;    0.000
361.070; 1193.650;  129.475;    0.000
361.132; 1143.650;  166.475;    0.000
361.194; 1171.650;  143.475;    0.000
361.257; 1146.650;  154.475;    0.000
361.319; 1206.650;  176.475;    0.000
361.381; 1272.650;  143.475;    0.000
361.443; 1197.650;  136.475;    0.000
361.506; 1295.650;  160.475;    0.000
361.568; 1209.650;  140.475;    0.000
361.630; 1199.650;  159.475;    0.000
361.693; 1248.650;  162.475;    0.000
361.755; 1244.650;  185.475;    0.000
361.817; 1321.650;  209.475;    0.000
361.879; 1278.650;  161.475;    0.000
361.941; 1223.650;  152.475;    0.000
362.004; 1198.650;  132.475;    0.000
362.066; 1240.650;  159.475;    0.000
362.128; 1308.650;  143.475;    0.000
362.190; 1257.650;  131.475;    0.000
362.252; 1335.650;  131.475;    0.000
362.315; 1177.650;  175.475;    0.000
362.377; 1212.650;  140.475;    0.000
362.439; 1296.650;  140.475;    0.000
362.501; 1212.650;  140.475;    0.000
362.563; 1257.650;  152.475;    0.000
362.625; 1320.650;  174.475;    0.000
362.688; 1270.650;  195.475;    0.000
362.750; 1244.650;  221.475;    0.000
362.812; 1256.650;  171.475;    0.000
362.874; 1282.650;  117.475;    0.000
362.936; 1330.650;  162.475;    0.000
362.998; 1265.650;  142.475;    0.000
363.060; 1332.650;  143.475;    0.000
363.122; 1322.650;  148.475;    0.000
363.184; 1333.650;  179.475;    0.000
363.246; 1285.650;  186.475;    0.000
363.308; 1256.650;  180.475;    0.000
363.370; 1352.650;  200.475;    0.000
363.432; 1237.650;  139.475;    0.000
363.494; 1324.650;  138.475;    0.000
363.556; 1296.650;  114.475;    0.000
363.618; 1336.650;  153.475;    0.000
363.680; 1250.650;  153.475;    0.000
363.742; 1354.650;  178.475;    0.000
363.804; 1304.650;  214.475;    0.000
363.866; 1346.650;  170.475;    0.000
363.928; 1326.650;  145.475;    0.000
363.990; 1311.650;  215.475;    0.000
364.052; 1341.650;  166.475;    0.000
364.114; 1322.650;  168.475;    0.000
364.176; 1387.650;  176.475;    0.000
364.238; 1335.650;  203.475;    0.000
364.300; 1357.650;  158.475;    0.000
364.362; 1266.650;  152.475;    0.000
364.424; 1293.650;  119.475;    0.000
364.486; 1343.650;  187.475;    0.000
364.548; 1335.650;  180.475;    0.000
364.609; 1358.650;  212.475;    0.000
364.671; 1317.650;  165.475;    0.000
364.733; 1278.650;  190.475;    0.000
364.795; 1343.650;  148.475;    0.000
364.857; 1311.650;  159.475;    0.000
364.919; 1347.650;  159.475;    0.000
364.981; 1322.650;  191.475;    0.000
365.042; 1353.650;  170.475;    0.000
365.104; 1333.650;  145.475;    0.000
365.166; 1331.650;  134.475;    0.000
365.228; 1331.650;  150.475;    0.000
365.290; 1339.650;  158.475;    0.000
365.351; 1360.650;  168.475;    0.000
365.413; 1340.650;  173.475;    0.000
365.475; 1435.650;  172.475;    0.000
365.537; 1363.650;  126.475;    0.000
365.598; 1321.650;  160.475;    0.000
365.660; 1328.650;  127.475;    0.000
365.722; 1350.650;  189.475;    0.000
365.784; 1377.650;  161.475;    0.000
365.845; 1277.650;  152.475;    0.000
365.907; 1334.650;  117.475;    0.000
365.969; 1364.650;  146.475;    0.000
366.030; 1317.650;  171.475;    0.000
366.092; 1314.650;  155.475;    0.000
366.154; 1398.650;  137.475;    0.000
366.215; 1321.650;  147.475;    0.000
366.277; 1410.650;  148.475;    0.000
366.339; 1434.650;  158.475;    0.000
366.400; 1277.650;  140.475;    0.000
366.462; 1305.650;  159.475;    0.000
366.524; 1346.650;  160.475;    0.000
366.585; 1361.650;  157.475;    0.000
366.647; 1445.650;  170.475;    0.000
366.708; 1364.650;  123.475;    0.000
366.770; 1360.650;  194.475;    0.000
366.832; 1363.650;  191.475;    0.000
366.893; 1384.650;  155.475;    0.000
366.955; 1370.650;  132.475;    0.000
367.016; 1432.650;  126.475;    0.000
367.078; 1342.650;  202.475;    0.000
367.139; 1335.650;  116.475;    0.000
367.201; 1414.650;  134.475;    0.000
367.262; 1343.650;  157.475;    0.000
367.324; 1390.650;  202.475;    0.000
367.385; 1327.650;  118.475;    0.000
367.447; 1355.650;  155.475;    0.000
367.508; 1349.650;  134.475;    0.000
367.570; 1439.650;  165.475;    0.000
367.631; 1375.650;  118.475;    0.000
367.693; 1383.650;  170.475;    0.000
367.754; 1351.650;  154.475;    0.000
367.816; 1368.650;  146.475;    0.000
367.877; 1447.650;  175.475;    0.000
367.939; 1391.650;  200.475;    0.000
368.000; 1379.650;  168.475;    0.000
368.062; 1401.650;  138.475;    0.000
368.123; 1406.650;  170.475;    0.000
368.184; 1417.650;  188.475;    0.000
368.246; 1399.650;  145.475;    0.000
368.307; 1445.650;  163.475;    0.000
368.369; 1384.650;  144.475;    0.000
368.430; 1369.650;  140.475;    0.000
368.491; 1382.650;  133.475;    0.000
368.553; 1457.650;  145.475;    0.000
368.614; 1442.650;  158.475;    0.000
368.675; 1438.650;  147.475;    0.000
368.737; 1462.650;  157.475;    0.000
368.798; 1495.650;  163.475;    0.000
368.859; 1468.650;  173.475;    0.000
368.921; 1483.650;  122.475;    0.000
368.982; 1467.650;  184.475;    0.000
369.043; 1457.650;  169.475;    0.000
369.104; 1391.650;  142.475;    0.000
369.166; 1428.650;  169.475;    0.000
369.227; 1431.650;  156.475;    0.000
369.288; 1427.650;  151.475;    0.000
369.349; 1372.650;  191.475;    0.000
369.411; 1497.650;  168.475;    0.000
369.472; 1490.650;  155.475;    0.000
369.533; 1445.650;  149.475;    0.000
369.594; 1417.650;  174.475;    0.000
369.656; 1372.650;  188.475;    0.000
369.717; 1446.650;  113.475;    0.000
369.778; 1469.650;  184.475;    0.000
369.839; 1492.650;  151.475;    0.000
369.900; 1482.650;  180.475;    0.000
369.961; 1516.650;  171.475;    0.000
370.023; 1451.650;  143.475;    0.000
370.084; 1468.650;  137.475;    0.000
370.145; 1462.650;  152.475;    0.000
370.206; 1497.650;  151.475;    0.000
370.267; 1462.650;  134.475;    0.000
370.328; 1475.650;  178.475;    0.000
370.389; 1466.650;  181.475;    0.000
370.451; 1459.650;  169.475;    0.000
370.512; 1404.650;  172.475;    0.000
370.573; 1489.650;  148.475;    0.000
370.634; 1543.650;  156.475;    0.000
370.695; 1455.650;  151.475;    0.000
370.756; 1473.650;  185.475;    0.000
370.817; 1438.650;  185.475;    0.000
370.878; 1534.650;  191.475;    0.000
370.939; 1419.650;  147.475;    0.000
371.000; 1465.650;  162.475;    0.000
371.061; 1516.650;  145.475;    0.000
371.122; 1483.650;  179.475;    0.000
371.183; 1455.650;  114.475;    0.000
371.244; 1491.650;  180.475;    0.000
371.305; 1614.650;  138.475;    0.000
371.366; 1568.650;  157.475;    0.000
371.427; 1505.650;  148.475;    0.000
371.488; 1501.650;  138.475;    0.000
371.549; 1469.650;  193.475;    0.000
371.610; 1477.650;  158.475;    0.000
371.671; 1494.650;  119.475;    0.000
371.732; 1508.650;  159.475;    0.000
371.793; 1502.650;  178.475;    0.000
371.853; 1512.650;  155.475;    0.000
371.914; 1524.650;  148.475;    0.000
371.975; 1535.650;  124.475;    0.000
372.036; 1488.650;  158.475;    0.000
372.097; 1523.650;  136.475;    0.000
372.158; 1494.650;  116.475;    0.000
372.219; 1574.650;  157.475;    0.000
372.280; 1529.650;  151.475;    0.000
372.340; 1556.650;  190.475;    0.000
372.401; 1581.650;  151.475;    0.000
372.462; 1547.650;  129.475;    0.000
372.523; 1481.650;  121.475;    0.000
372.584; 1576.650;  152.475;    0.000
372.645; 1550.650;  132.475;    0.000
372.705; 1588.650;  190.475;    0.000
372.766; 1537.650;  153.475;    0.000
372.827; 1552.650;  133.475;    0.000
372.888; 1558.650;  161.475;    0.000
372.948; 1547.650;  159.475;    0.000
373.009; 1512.650;  164.475;    0.000
373.070; 1478.650;  139.475;    0.000
373.131; 1564.650;  137.475;    0.000
373.191; 1613.650;  181.475;    0.000
373.252; 1503.650;  154.475;    0.000
373.313; 1578.650;  179.475;    0.000
373.373; 1515.650;  136.475;    0.000
373.434; 1572.650;  169.475;    0.000
373.495; 1566.650;   97.475;    0.000
373.555; 1505.650;  142.475;    0.000
373.616; 1565.650;  178.475;    0.000
373.677; 1537.650;  167.475;    0.000
373.737; 1560.650;  139.475;    0.000
373.798; 1501.650;  155.475;    0.000
373.859; 1534.650;  162.475;    0.000
373.919; 1566.650;  174.475;    0.000
373.980; 1598.650;  172.475;    0.000
374.041; 1546.650;  166.475;    0.000
374.101; 1610.650;  172.475;    0.000
374.162; 1641.650;  188.475;    0.000
374.222; 1637.650;  186.475;    0.000
374.283; 1565.650;  195.475;    0.000
374.343; 1591.650;  204.475;    0.000
374.404; 1647.650;  187.475;    0.000
374.465; 1572.650;  183.475;    0.000
374.525; 1610.650;  136.475;    0.000
374.586; 1686.650;  140.475;    0.000
374.646; 1597.650;  191.475;    0.000
374.707; 1681.650;  208.475;    0.000
374.767; 1660.650;  178.475;    0.000
374.828; 1603.650;  159.475;    0.000
374.888; 1613.650;  143.475;    0.000
374.949; 1678.650;  202.475;    0.000
375.009; 1632.650;  151.475;    0.000
375.070; 1610.650;  160.475;    0.000
375.130; 1635.650;  160.475;    0.000
375.190; 1580.650;  164.475;    0.000
375.251; 1689.650;  196.475;    0.000
375.311; 1624.650;  154.475;    0.000
375.372; 1587.650;  197.475;    0.000
375.432; 1655.650;  159.475;    0.000
375.493; 1648.650;  197.475;    0.000
375.553; 1644.650;  165.475;    0.000
375.613; 1640.650;  174.475;    0.000
375.674; 1633.650;  165.475;    0.000
375.734; 1653.650;  128.475;    0.000
375.794; 1594.650;  169.475;    0.000
375.855; 1690.650;  193.475;    0.000
375.915; 1650.650;  162.475;    0.000
375.975; 1626.650;  181.475;    0.000
376.036; 1592.650;  161.475;    0.000
376.096; 1681.650;  131.475;    0.000
376.156; 1685.650;  165.475;    0.000
376.217; 1627.650;  182.475;    0.000
376.277; 1697.650;  185.475;    0.000
376.337; 1656.650;  177.475;    0.000
376.398; 1664.650;  162.475;    0.000
376.458; 1638.650;  179.475;    0.000
376.518; 1615.650;  150.475;    0.000
376.578; 1588.650;  165.475;    0.000
376.639; 1660.650;  159.475;    0.000
376.699; 1576.650;  180.475;    0.000
376.759; 1593.650;  206.475;    0.000
376.819; 1623.650;  146.475;    0.000
376.880; 1668.650;  177.475;    0.000
376.940; 1668.650;  160.475;    0.000
377.000; 1642.650;  149.475;    0.000
377.060; 1594.650;  180.475;    0.000
377.120; 1657.650;  146.475;    0.000
377.180; 1684.650;  137.475;    0.000
377.241; 1664.650;  163.475;    0.000
377.301; 1675.650;  169.475;    0.000
377.361; 1625.650;  137.475;    0.000
377.421; 1636.650;  184.475;    0.000
377.481; 1632.650;  185.475;    0.000
377.541; 1592.650;  146.475;    0.000
377.601; 1715.650;  179.475;    0.000
377.661; 1750.650;  181.475;    0.000
377.722; 1708.650;  185.475;    0.000
377.782; 1600.650;  147.475;    0.000
377.842; 1684.650;  190.475;    0.000
377.902; 1763.650;  166.475;    0.000
377.962; 1681.650;  153.475;    0.000
378.022; 1732.650;  163.475;    0.000
378.082; 1738.650;  146.475;    0.000
378.142; 1760.650;  152.475;    0.000
378.202; 1735.650;  164.475;    0.000
378.262; 1738.650;  195.475;    0.000
378.322; 1714.650;  190.475;    0.000
378.382; 1749.650;  152.475;    0.000
378.442; 1818.650;  175.475;    0.000
378.502; 1761.650;  153.475;    0.000
378.562; 1649.650;  142.475;    0.000
378.622; 1801.650;  166.475;    0.000
378.682; 1750.650;  173.475;    0.000
378.742; 1763.650;  182.475;    0.000
378.802; 1704.650;  145.475;    0.000
378.862; 1834.650;  210.475;    0.000
378.921; 1868.650;  182.475;    0.000
378.981; 1829.650;  185.475;    0.000
379.041; 1751.650;  130.475;    0.000
379.101; 1768.650;  177.475;    0.000
379.161; 1729.650;  166.475;    0.000
379.221; 1812.650;  162.475;    0.000
379.281; 1818.650;  167.475;    0.000
379.341; 1811.650;  136.475;    0.000
379.401; 1810.650;  145.475;    0.000
379.460; 1830.650;  176.475;    0.000
379.520; 1864.650;  162.475;    0.000
379.580; 1763.650;  144.475;    0.000
379.640; 1853.650;  163.475;    0.000
379.700; 1837.650;  157.475;    0.000
379.759; 1795.650;  165.475;    0.000
379.819; 1816.650;  190.475;    0.000
379.879; 1931.650;  143.475;    0.000
379.939; 1888.650;  188.475;    0.000
379.999; 1808.650;  141.475;    0.000
380.058; 1885.650;  169.475;    0.000
380.118; 1874.650;  158.475;    0.000
380.178; 1907.650;  114.475;    0.000
380.237; 1924.650;  157.475;    0.000
380.297; 1894.650;  177.475;    0.000
380.357; 1914.650;  189.475;    0.000
380.417; 1911.650;  182.475;    0.000
380.476; 1967.650;  178.475;    0.000
380.536; 1976.650;  189.475;    0.000
380.596; 1845.650;  183.475;    0.000
380.655; 1989.650;  195.475;    0.000
380.715; 1873.650;  170.475;    0.000
380.775; 1915.650;  170.475;    0.000
380.834; 1988.650;  179.475;    0.000
380.894; 2018.650;  188.475;    0.000
380.954; 2008.650;  142.475;    0.000
381.013; 2018.650;  178.475;    0.000
381.073; 1947.650;  164.475;    0.000
381.132; 2070.650;  192.475;    0.000
381.192; 1897.650;  187.475;    0.000
381.252; 2064.650;  176.475;    0.000
381.311; 1983.650;  206.475;    0.000
381.371; 2013.650;  167.475;    0.000
381.430; 2001.650;  131.475;    0.000
381.490; 1996.650;  150.475;    0.000
381.549; 2010.650;  129.475;    0.000
381.609; 2051.650;  178.475;    0.000
381.668; 2130.650;  194.475;    0.000
381.728; 2088.650;  210.475;    0.000
381.787; 2138.650;  190.475;    0.000
381.847; 2085.650;  181.475;    0.000
381.906; 2101.650;  156.475;    0.000
381.966; 2105.650;  176.475;    0.000
382.025; 2122.650;  186.475;    0.000
382.085; 2145.650;  192.475;    0.000
382.144; 2202.650;  173.475;    0.000
382.204; 2220.650;  207.475;    0.000
382.263; 2268.650;  193.475;    0.000
382.323; 2341.650;  164.475;    0.000
382.382; 2250.650;  161.475;    0.000
382.441; 2301.650;  199.475;    0.000
382.501; 2424.650;  208.475;    0.000
382.560; 2404.650;  173.475;    0.000
382.619; 2506.650;  179.475;    0.000
382.679; 2599.650;  177.475;    0.000
382.738; 2630.650;  190.475;    0.000
382.798; 2700.650;  213.475;    0.000
382.857; 2972.650;  195.475;    0.000
382.916; 3281.650;  184.475;    0.000
382.976; 3321.650;  169.475;    0.000
383.035; 3149.650;  194.475;    0.000
383.094; 3398.650;  185.475;    0.000
383.154; 3616.650;  198.475;    0.000
383.213; 3942.650;  147.475;    0.000
383.272; 3892.650;  175.475;    0.000
383.331; 3256.650;  122.475;    0.000
383.391; 3135.650;  185.475;    0.000
383.450; 3000.650;  160.475;    0.000
383.509; 3045.650;  168.475;    0.000
383.568; 3126.650;  196.475;    0.000
383.628; 3244.650;  156.475;    0.000
383.687; 3461.650;  171.475;    0.000
383.746; 3870.650;  155.475;    0.000
383.805; 4526.650;  201.475;    0.000
383.864; 4525.650;  125.475;    0.000
383.924; 3568.650;  213.475;    0.000
383.983; 3120.650;  188.475;    0.000
384.042; 2865.650;  162.475;    0.000
384.101; 2733.650;  183.475;    0.000
384.160; 2576.650;  155.475;    0.000
384.219; 2476.650;  155.475;    0.000
384.279; 2430.650;  189.475;    0.000
384.338; 2382.650;  156.475;    0.000
384.397; 2440.650;  148.475;    0.000
384.456; 2322.650;  154.475;    0.000
384.515; 2328.650;  160.475;    0.000
384.574; 2365.650;  223.475;    0.000
384.633; 2203.650;  133.475;    0.000
384.692; 2294.650;  163.475;    0.000
384.751; 2299.650;  186.475;    0.000
384.810; 2274.650;  187.475;    0.000
384.869; 2250.650;  172.475;    0.000
384.929; 2263.650;  153.475;    0.000
384.988; 2243.650;  174.475;    0.000
385.047; 2215.650;  154.475;    0.000
385.106; 2201.650;  164.475;    0.000
385.165; 2235.650;  151.475;    0.000
385.224; 2253.650;  147.475;    0.000
385.283; 2221.650;  176.475;    0.000
385.342; 2199.650;  142.475;    0.000
385.401; 2290.650;  175.475;    0.000
385.459; 2271.650;  150.475;    0.000
385.518; 2194.650;  124.475;    0.000
385.577; 2208.650;  115.475;    0.000
385.636; 2265.650;  174.475;    0.000
385.695; 2207.650;  158.475;    0.000
385.754; 2223.650;  150.475;    0.000
385.813; 2189.650;  129.475;    0.000
385.872; 2118.650;  146.475;    0.000
385.931; 2282.650;  194.475;    0.000
385.990; 2153.650;  174.475;    0.000
386.049; 2145.650;  176.475;    0.000
386.107; 2246.650;  151.475;    0.000
386.166; 2295.650;  178.475;    0.000
386.225; 2219.650;  162.475;    0.000
386.284; 2182.650;  180.475;    0.000
386.343; 2202.650;  171.475;    0.000
386.402; 2117.650;  176.475;    0.000
386.460; 2207.650;  144.475;    0.000
386.519; 2193.650;  140.475;    0.000
386.578; 2211.650;  145.475;    0.000
386.637; 2235.650;  164.475;    0.000
386.696; 2208.650;  189.475;    0.000
386.754; 2177.650;  135.475;    0.000
386.813; 2266.650;  139.475;    0.000
386.872; 2141.650;  121.475;    0.000
386.931; 2197.650;  153.475;    0.000
386.989; 2190.650;  211.475;    0.000
387.048; 2220.650;  156.475;    0.000
387.107; 2223.650;  210.475;    0.000
387.165; 2226.650;  129.475;    0.000
387.224; 2278.650;  205.475;    0.000
387.283; 2195.650;  130.475;    0.000
387.342; 2216.650;  171.475;    0.000
387.400; 2135.650;  156.475;    0.000
387.459; 2181.650;  141.475;    0.000
387.517; 2233.650;  219.475;    0.000
387.576; 2207.650;  166.475;    0.000
387.635; 2242.650;  136.475;    0.000
387.693; 2201.650;  191.475;    0.000
387.752; 2310.650;  165.475;    0.000
387.811; 2248.650;  158.475;    0.000
387.869; 2213.650;  204.475;    0.000
387.928; 2183.650;  149.475;    0.000
387.986; 2182.650;  156.475;    0.000
388.045; 2217.650;  123.475;    0.000
388.103; 2126.650;  150.475;    0.000
388.162; 2166.650;  173.475;    0.000
388.221; 2099.650;  143.475;    0.000
388.279; 2139.650;  129.475;    0.000
388.338; 2242.650;  212.475;    0.000
388.396; 2189.650;  150.475;    0.000
388.455; 2139.650;  167.475;    0.000
388.513; 2145.650;  116.475;    0.000
388.572; 2131.650;  181.475;    0.000
388.630; 2117.650;  187.475;    0.000
388.689; 2154.650;  180.475;    0.000
388.747; 2205.650;  154.475;    0.000
388.806; 2146.650;  161.475;    0.000
388.864; 2147.650;  167.475;    0.000
388.922; 2240.650;  184.475;    0.000
388.981; 2151.650;  169.475;    0.000
389.039; 2170.650;  102.475;    0.000
389.098; 2181.650;  183.475;    0.000
389.156; 2263.650;  182.475;    0.000
389.214; 2234.650;  173.475;    0.000
389.273; 2177.650;  167.475;    0.000
389.331; 2203.650;  170.475;    0.000
389.390; 2174.650;  150.475;    0.000
389.448; 2195.650;  156.475;    0.000
389.506; 2125.650;  149.475;    0.000
389.565; 2190.650;  162.475;    0.000
389.623; 2187.650;  188.475;    0.000
389.681; 2177.650;  204.475;    0.000
389.740; 2251.650;  187.475;    0.000
389.798; 2308.650;  153.475;    0.000
389.856; 2229.650;  214.475;    0.000
389.914; 2161.650;  177.475;    0.000
389.973; 2124.650;  189.475;    0.000
390.031; 2261.650;  178.475;    0.000
390.089; 2144.650;  163.475;    0.000
390.147; 2250.650;  170.475;    0.000
390.206; 2218.650;  183.475;    0.000
390.264; 2138.650;  161.475;    0.000
390.322; 2254.650;  148.475;    0.000
390.380; 2142.650;  138.475;    0.000
390.439; 2123.650;  194.475;    0.000
390.497; 2171.650;  170.475;    0.000
390.555; 2167.650;  165.475;    0.000
390.613; 2263.650;  177.475;    0.000
390.671; 2203.650;  170.475;    0.000
390.729; 2097.650;  158.475;    0.000
390.788; 2153.650;  162.475;    0.000
390.846; 2227.650;  161.475;    0.000
390.904; 2187.650;  197.475;    0.000
390.962; 2251.650;  212.475;    0.000
391.020; 2230.650;  224.475;    0.000
391.078; 2228.650;  184.475;    0.000
391.136; 2203.650;  191.475;    0.000
391.194; 2241.650;  187.475;    0.000
391.253; 2275.650;  197.475;    0.000
391.311; 2215.650;  185.475;    0.000
391.369; 2238.650;  207.475;    0.000
391.427; 2341.650;  222.475;    0.000
391.485; 2260.650;  184.475;    0.000
391.543; 2301.650;  203.475;    0.000
391.601; 2271.650;  151.475;    0.000
391.659; 2255.650;  176.475;    0.000
391.717; 2222.650;  190.475;    0.000
391.775; 2302.650;  159.475;    0.000
391.833; 2290.650;  186.475;    0.000
391.891; 2283.650;  154.475;    0.000
391.949; 2331.650;  181.475;    0.000
392.007; 2349.650;  190.475;    0.000
392.065; 2293.650;  182.475;    0.000
392.123; 2219.650;  158.475;    0.000
392.180; 2265.650;  198.475;    0.000
392.238; 2321.650;  191.475;    0.000
392.296; 2298.650;  164.475;    0.000
392.354; 2256.650;  172.475;    0.000
392.412; 2367.650;  194.475;    0.000
392.470; 2244.650;  154.475;    0.000
392.528; 2268.650;  172.475;    0.000
392.586; 2311.650;  179.475;    0.000
392.644; 2336.650;  173.475;    0.000
392.701; 2353.650;  202.475;    0.000
392.759; 2332.650;  180.475;    0.000
392.817; 2340.650;  181.475;    0.000
392.875; 2345.650;  168.475;    0.000
392.933; 2320.650;  161.475;    0.000
392.991; 2340.650;  216.475;    0.000
393.048; 2314.650;  197.475;    0.000
393.106; 2330.650;  199.475;    0.000
393.164; 2282.650;  173.475;    0.000
393.222; 2386.650;  179.475;    0.000
393.279; 2352.650;  209.475;    0.000
393.337; 2433.650;  185.475;    0.000
393.395; 2439.650;  174.475;    0.000
393.453; 2355.650;  181.475;    0.000
393.510; 2379.650;  188.475;    0.000
393.568; 2406.650;  191.475;    0.000
393.626; 2362.650;  151.475;    0.000
393.684; 2397.650;  208.475;    0.000
393.741; 2365.650;  179.475;    0.000
393.799; 2375.650;  149.475;    0.000
393.857; 2399.650;  136.475;    0.000
393.914; 2371.650;  190.475;    0.000
393.972; 2342.650;  155.475;    0.000
394.030; 2320.650;  170.475;    0.000
394.087; 2351.650;  213.475;    0.000
394.145; 2371.650;  191.475;    0.000
394.202; 2407.650;  188.475;    0.000
394.260; 2483.650;  168.475;    0.000
394.318; 2460.650;  176.475;    0.000
394.375; 2453.650;  159.475;    0.000
394.433; 2409.650;  168.475;    0.000
394.490; 2419.650;  163.475;    0.000
394.548; 2417.650;  163.475;    0.000
394.605; 2448.650;  181.475;    0.000
394.663; 2366.650;  180.475;    0.000
394.720; 2460.650;  193.475;    0.000
394.778; 2413.650;  168.475;    0.000
394.836; 2434.650;  128.475;    0.000
394.893; 2406.650;  151.475;    0.000
394.951; 2461.650;  173.475;    0.000
395.008; 2408.650;  201.475;    0.000
395.065; 2470.650;  139.475;    0.000
395.123; 2481.650;  173.475;    0.000
395.180; 2417.650;  144.475;    0.000
395.238; 2474.650;  135.475;    0.000
395.295; 2544.650;  167.475;    0.000
395.353; 2523.650;  150.475;    0.000
395.410; 2474.650;  165.475;    0.000
395.468; 2576.650;  223.475;    0.000
395.525; 2507.650;  156.475;    0.000
395.582; 2520.650;  178.475;    0.000
395.640; 2593.650;  178.475;    0.000
395.697; 2501.650;  173.475;    0.000
395.754; 2544.650;  154.475;    0.000
395.812; 2567.650;  169.475;    0.000
395.869; 2630.650;  196.475;    0.000
395.927; 2522.650;  190.475;    0.000
395.984; 2530.650;  195.475;    0.000
396.041; 2546.650;  160.475;    0.000
396.098; 2523.650;  161.475;    0.000
396.156; 2513.650;  187.475;    0.000
396.213; 2567.650;  200.475;    0.000
396.270; 2521.650;  160.475;    0.000
396.328; 2419.650;  113.475;    0.000
396.385; 2563.650;  165.475;    0.000
396.442; 2566.650;  168.475;    0.000
396.499; 2507.650;  117.475;    0.000
396.557; 2566.650;  203.475;    0.000
396.614; 2529.650;  155.475;    0.000
396.671; 2547.650;  187.475;    0.000
396.728; 2575.650;  169.475;    0.000
396.785; 2571.650;  167.475;    0.000
396.843; 2565.650;  154.475;    0.000
396.900; 2646.650;  172.475;    0.000
396.957; 2617.650;  176.475;    0.000
397.014; 2623.650;  193.475;    0.000
397.071; 2629.650;  170.475;    0.000
397.128; 2576.650;  172.475;    0.000
397.186; 2625.650;  205.475;    0.000
397.243; 2662.650;  163.475;    0.000
397.300; 2631.650;  193.475;    0.000
397.357; 2730.650;  166.475;    0.000
397.414; 2660.650;  149.475;    0.000
397.471; 2554.650;  157.475;    0.000
397.528; 2645.650;  180.475;    0.000
397.585; 2609.650;  203.475;    0.000
397.642; 2587.650;  156.475;    0.000
397.699; 2668.650;  229.475;    0.000
397.756; 2695.650;  185.475;    0.000
397.814; 2618.650;  191.475;    0.000
397.871; 2676.650;  170.475;    0.000
397.928; 2751.650;  191.475;    0.000
397.985; 2618.650;  183.475;    0.000
398.042; 2621.650;  161.475;    0.000
398.099; 2709.650;  192.475;    0.000
398.156; 2662.650;  176.475;    0.000
398.212; 2757.650;  170.475;    0.000
398.269; 2749.650;  158.475;    0.000
398.326; 2732.650;  175.475;    0.000
398.383; 2770.650;  177.475;    0.000
398.440; 2729.650;  169.475;    0.000
398.497; 2772.650;  184.475;    0.000
398.554; 2768.650;  196.475;    0.000
398.611; 2772.650;  198.475;    0.000
398.668; 2761.650;  135.475;    0.000
398.725; 2806.650;  181.475;    0.000
398.782; 2832.650;  195.475;    0.000
398.839; 2846.650;  179.475;    0.000
398.895; 2858.650;  188.475;    0.000
398.952; 2854.650;  176.475;    0.000
399.009; 2965.650;  183.475;    0.000
399.066; 2994.650;  190.475;    0.000
399.123; 3011.650;  174.475;    0.000
399.180; 2971.650;  191.475;    0.000
399.236; 2975.650;  217.475;    0.000
399.293; 3106.650;  154.475;    0.000
399.350; 3121.650;  210.475;    0.000
399.407; 3247.650;  202.475;    0.000
399.463; 3211.650;  162.475;    0.000
399.520; 3183.650;  207.475;    0.000
399.577; 3293.650;  174.475;    0.000
399.634; 3288.650;  170.475;    0.000
399.690; 3323.650;  186.475;    0.000
399.747; 3191.650;  218.475;    0.000
399.804; 3189.650;  200.475;    0.000
399.861; 3262.650;  190.475;    0.000
399.917; 3166.650;  218.475;    0.000
399.974; 3257.650;  200.475;    0.000
400.031; 3235.650;  200.475;    0.000
400.087; 3096.650;  153.475;    0.000
400.144; 3155.650;  188.475;    0.000
400.201; 3177.650;  198.475;    0.000
400.257; 2960.650;  205.475;    0.000
400.314; 3167.650;  183.475;    0.000
400.370; 3126.650;  227.475;    0.000
400.427; 3061.650;  177.475;    0.000
400.484; 3178.650;  202.475;    0.000
400.540; 3082.650;  173.475;    0.000
400.597; 2989.650;  212.475;    0.000
400.653; 3043.650;  182.475;    0.000
400.710; 3150.650;  201.475;    0.000
400.766; 3041.650;  188.475;    0.000
400.823; 3013.650;  205.475;    0.000
400.879; 2980.650;  165.475;    0.000
400.936; 2967.650;  180.475;    0.000
400.993; 2877.650;  181.475;    0.000
401.049; 3018.650;  147.475;    0.000
401.105; 3058.650;  205.475;    0.000
401.162; 2962.650;  197.475;    0.000
401.218; 2935.650;  177.475;    0.000
401.275; 2926.650;  183.475;    0.000
401.331; 2997.650;  198.475;    0.000
401.388; 2977.650;  209.475;    0.000
401.444; 2957.650;  211.475;    0.000
401.501; 3091.650;  185.475;    0.000
401.557; 2987.650;  190.475;    0.000
401.614; 2932.650;  172.475;    0.000
401.670; 3042.650;  185.475;    0.000
401.726; 3098.650;  196.475;    0.000
401.783; 3023.650;  187.475;    0.000
401.839; 3103.650;  192.475;    0.000
401.895; 2914.650;  173.475;    0.000
401.952; 2991.650;  145.475;    0.000
402.008; 2995.650;  197.475;    0.000
402.064; 3049.650;  146.475;    0.000
402.121; 2977.650;  197.475;    0.000
402.177; 2957.650;  173.475;    0.000
402.233; 3043.650;  185.475;    0.000
402.290; 2941.650;  175.475;    0.000
402.346; 2982.650;  164.475;    0.000
402.402; 2988.650;  173.475;    0.000
402.458; 2970.650;  183.475;    0.000
402.515; 2995.650;  147.475;    0.000
402.571; 3024.650;  210.475;    0.000
402.627; 3149.650;  181.475;    0.000
402.683; 3032.650;  177.475;    0.000
402.740; 2973.650;  162.475;    0.000
402.796; 3045.650;  178.475;    0.000
402.852; 3090.650;  138.475;    0.000
402.908; 3170.650;  181.475;    0.000
402.964; 3082.650;  151.475;    0.000
403.021; 3108.650;  170.475;    0.000
403.077; 3042.650;  204.475;    0.000
403.133; 2959.650;  144.475;    0.000
403.189; 2999.650;  207.475;    0.000
403.245; 3083.650;  184.475;    0.000
403.301; 3136.650;  170.475;    0.000
403.357; 3141.650;  201.475;    0.000
403.414; 3025.650;  205.475;    0.000
403.470; 3037.650;  170.475;    0.000
403.526; 3123.650;  135.475;    0.000
403.582; 3072.650;  180.475;    0.000
403.638; 3244.650;  185.475;    0.000
403.694; 3172.650;  169.475;    0.000
403.750; 3246.650;  210.475;    0.000
403.806; 3179.650;  210.475;    0.000
403.862; 3152.650;  219.475;    0.000
403.918; 3116.650;  191.475;    0.000
403.974; 3102.650;  193.475;    0.000
404.030; 3111.650;  154.475;    0.000
404.086; 3097.650;  170.475;    0.000
404.142; 3220.650;  194.475;    0.000
404.198; 3192.650;  224.475;    0.000
404.254; 3197.650;  177.475;    0.000
404.310; 3251.650;  204.475;    0.000
404.366; 3258.650;  170.475;    0.000
404.422; 3168.650;  172.475;    0.000
404.478; 3226.650;  153.475;    0.000
404.534; 3188.650;  159.475;    0.000
404.590; 3281.650;  203.475;    0.000
404.646; 3161.650;  164.475;    0.000
404.701; 3146.650;  141.475;    0.000
404.757; 3249.650;  195.475;    0.000
404.813; 3190.650;  152.475;    0.000
404.869; 3186.650;  174.475;    0.000
404.925; 3292.650;  167.475;    0.000
404.981; 3277.650;  175.475;    0.000
405.037; 3244.650;  170.475;    0.000
405.092; 3287.650;  155.475;    0.000
405.148; 3145.650;  160.475;    0.000
405.204; 3178.650;  158.475;    0.000
405.260; 3192.650;  128.475;    0.000
405.316; 3190.650;  168.475;    0.000
405.371; 3177.650;  162.475;    0.000
405.427; 3224.650;  187.475;    0.000
405.483; 3275.650;  214.475;    0.000
405.539; 3232.650;  163.475;    0.000
405.594; 3165.650;  191.475;    0.000
405.650; 3214.650;  124.475;    0.000
405.706; 3262.650;  188.475;    0.000
405.761; 3161.650;  204.475;    0.000
405.817; 3270.650;  150.475;    0.000
405.873; 3348.650;  152.475;    0.000
405.928; 3269.650;  135.475;    0.000
405.984; 3323.650;  209.475;    0.000
406.040; 3228.650;  165.475;    0.000
406.095; 3299.650;  146.475;    0.000
406.151; 3294.650;  169.475;    0.000
406.207; 3348.650;  174.475;    0.000
406.262; 3213.650;  189.475;    0.000
406.318; 3372.650;  141.475;    0.000
406.374; 3271.650;  178.475;    0.000
406.429; 3357.650;  197.475;    0.000
406.485; 3368.650;  194.475;    0.000
406.540; 3268.650;  149.475;    0.000
406.596; 3388.650;  173.475;    0.000
406.651; 3499.650;  154.475;    0.000
406.707; 3342.650;  183.475;    0.000
406.763; 3398.650;  156.475;    0.000
406.818; 3506.650;  181.475;    0.000
406.874; 3490.650;  135.475;    0.000
406.929; 3613.650;  194.475;    0.000
406.985; 3483.650;  166.475;    0.000
407.040; 3583.650;  207.475;    0.000
407.095; 3541.650;  213.475;    0.000
407.151; 3599.650;  198.475;    0.000
407.206; 3578.650;  186.475;    0.000
407.262; 3583.650;  148.475;    0.000
407.317; 3681.650;  212.475;    0.000
407.373; 3666.650;  209.475;    0.000
407.428; 3763.650;  218.475;    0.000
407.484; 3653.650;  158.475;    0.000
407.539; 3597.650;  165.475;    0.000
407.594; 3612.650;  197.475;    0.000
407.650; 3651.650;  177.475;    0.000
407.705; 3627.650;  154.475;    0.000
407.760; 3656.650;  198.475;    0.000
407.816; 3754.650;  181.475;    0.000
407.871; 3604.650;  185.475;    0.000
407.926; 3613.650;  167.475;    0.000
407.982; 3625.650;  172.475;    0.000
408.037; 3698.650;  202.475;    0.000
408.092; 3579.650;  201.475;    0.000
408.148; 3612.650;  199.475;    0.000
408.203; 3630.650;  174.475;    0.000
408.258; 3578.650;  157.475;    0.000
408.314; 3587.650;  194.475;    0.000
408.369; 3571.650;  189.475;    0.000
408.424; 3626.650;  204.475;    0.000
408.479; 3509.650;  192.475;    0.000
408.534; 3601.650;  215.475;    0.000
408.590; 3567.650;  190.475;    0.000
408.645; 3575.650;  159.475;    0.000
408.700; 3543.650;  191.475;    0.000
408.755; 3536.650;  217.475;    0.000
408.810; 3476.650;  158.475;    0.000
408.866; 3433.650;  166.475;    0.000
408.921; 3613.650;  214.475;    0.000
408.976; 3419.650;  158.475;    0.000
409.031; 3590.650;  185.475;    0.000
409.086; 3544.650;  158.475;    0.000
409.141; 3606.650;  180.475;    0.000
409.196; 3576.650;  188.475;    0.000
409.252; 3597.650;  186.475;    0.000
409.307; 3413.650;  135.475;    0.000
409.362; 3522.650;  162.475;    0.000
409.417; 3431.650;  149.475;    0.000
409.472; 3678.650;  205.475;    0.000
409.527; 3624.650;  184.475;    0.000
409.582; 3522.650;  174.475;    0.000
409.637; 3583.650;  188.475;    0.000
409.692; 3561.650;  211.475;    0.000
409.747; 3521.650;  159.475;    0.000
409.802; 3522.650;  199.475;    0.000
409.857; 3473.650;  118.475;    0.000
409.912; 3573.650;  177.475;    0.000
409.967; 3488.650;  182.475;    0.000
410.022; 3512.650;  188.475;    0.000
410.077; 3589.650;  204.475;    0.000
410.132; 3558.650;  174.475;    0.000
410.187; 3472.650;  169.475;    0.000
410.242; 3544.650;  178.475;    0.000
410.297; 3542.650;  185.475;    0.000
410.351; 3482.650;  203.475;    0.000
410.406; 3525.650;  180.475;    0.000
410.461; 3494.650;  213.475;    0.000
410.516; 3552.650;  198.475;    0.000
410.571; 3485.650;  171.475;    0.000
410.626; 3497.650;  186.475;    0.000
410.681; 3548.650;  187.475;    0.000
410.736; 3529.650;  147.475;    0.000
410.790; 3502.650;  186.475;    0.000
410.845; 3494.650;  152.475;    0.000
410.900; 3498.650;  202.475;    0.000
410.955; 3516.650;  196.475;    0.000
411.010; 3594.650;  150.475;    0.000
411.064; 3659.650;  200.475;    0.000
411.119; 3583.650;  203.475;    0.000
411.174; 3525.650;  176.475;    0.000
411.229; 3510.650;  203.475;    0.000
411.283; 3459.650;  176.475;    0.000
411.338; 3521.650;  153.475;    0.000
411.393; 3491.650;  168.475;    0.000
411.447; 3474.650;  223.475;    0.000
411.502; 3651.650;  238.475;    0.000
411.557; 3517.650;  179.475;    0.000
411.612; 3398.650;  159.475;    0.000
411.666; 3507.650;  189.475;    0.000
411.721; 3545.650;  212.475;    0.000
411.776; 3579.650;  242.475;    0.000
411.830; 3496.650;  194.475;    0.000
411.885; 3535.650;  188.475;    0.000
411.939; 3563.650;  245.475;    0.000
411.994; 3640.650;  177.475;    0.000
412.049; 3529.650;  170.475;    0.000
412.103; 3584.650;  196.475;    0.000
412.158; 3561.650;  215.475;    0.000
412.212; 3455.650;  199.475;    0.000
412.267; 3462.650;  191.475;    0.000
412.322; 3640.650;  238.475;    0.000
412.376; 3576.650;  243.475;    0.000
412.431; 3574.650;  214.475;    0.000
412.485; 3571.650;  210.475;    0.000
412.540; 3539.650;  200.475;    0.000
412.594; 3522.650;  174.475;    0.000
412.649; 3590.650;  246.475;    0.000
412.703; 3373.650;  182.475;    0.000
412.758; 3513.650;  222.475;    0.000
412.812; 3519.650;  201.475;    0.000
412.866; 3419.650;  162.475;    0.000
412.921; 3483.650;  202.475;    0.000
412.975; 3522.650;  212.475;    0.000
413.030; 3520.650;  238.475;    0.000
413.084; 3425.650;  201.475;    0.000
413.139; 3443.650;  210.475;    0.000
413.193; 3415.650;  218.475;    0.000
413.247; 3457.650;  203.475;    0.000
413.302; 3476.650;  176.475;    0.000
413.356; 3434.650;  215.475;    0.000
413.410; 3437.650;  204.475;    0.000
413.465; 3453.650;  186.475;    0.000
413.519; 3378.650;  196.475;    0.000
413.573; 3524.650;  181.475;    0.000
413.628; 3475.650;  200.475;    0.000
413.682; 3460.650;  157.475;    0.000
413.736; 3484.650;  194.475;    0.000
413.791; 3487.650;  193.475;    0.000
413.845; 3462.650;  225.475;    0.000
413.899; 3337.650;  195.475;    0.000
413.953; 3460.650;  173.475;    0.000
414.008; 3434.650;  186.475;    0.000
414.062; 3393.650;  217.475;    0.000
414.116; 3557.650;  169.475;    0.000
414.170; 3462.650;  228.475;    0.000
414.225; 3400.650;  177.475;    0.000
414.279; 3469.650;  210.475;    0.000
414.333; 3554.650;  207.475;    0.000
414.387; 3508.650;  217.475;    0.000
414.441; 3411.650;  187.475;    0.000
414.496; 3580.650;  215.475;    0.000
414.550; 3474.650;  204.475;    0.000
414.604; 3527.650;  206.475;    0.000
414.658; 3498.650;  139.475;    0.000
414.712; 3511.650;  198.475;    0.000
414.766; 3510.650;  208.475;    0.000
414.820; 3529.650;  199.475;    0.000
414.874; 3517.650;  216.475;    0.000
414.928; 3487.650;  186.475;    0.000
414.982; 3507.650;  176.475;    0.000
415.037; 3509.650;  181.475;    0.000
415.091; 3446.650;  208.475;    0.000
415.145; 3368.650;  209.475;    0.000
415.199; 3547.650;  186.475;    0.000
415.253; 3447.650;  203.475;    0.000
415.307; 3482.650;  197.475;    0.000
415.361; 3551.650;  223.475;    0.000
415.415; 3542.650;  213.475;    0.000
415.469; 3543.650;  226.475;    0.000
415.523; 3535.650;  222.475;    0.000
415.577; 3403.650;  205.475;    0.000
415.631; 3529.650;  224.475;    0.000
415.684; 3525.650;  193.475;    0.000
415.738; 3369.650;  224.475;    0.000
415.792; 3487.650;  204.475;    0.000
415.846; 3517.650;  189.475;    0.000
415.900; 3402.650;  223.475;    0.000
415.954; 3490.650;  187.475;    0.000
416.008; 3488.650;  237.475;    0.000
416.062; 3417.650;  195.475;    0.000
416.116; 3378.650;  223.475;    0.000
416.169; 3433.650;  210.475;    0.000
416.223; 3511.650;  232.475;    0.000
416.277; 3534.650;  227.475;    0.000
416.331; 3444.650;  216.475;    0.000
416.385; 3477.650;  186.475;    0.000
416.439; 3486.650;  226.475;    0.000
416.492; 3497.650;  229.475;    0.000
416.546; 3335.650;  216.475;    0.000
416.600; 3402.650;  211.475;    0.000
416.654; 3426.650;  226.475;    0.000
416.707; 3499.650;  248.475;    0.000
416.761; 3382.650;  217.475;    0.000
416.815; 3385.650;  207.475;    0.000
416.869; 3573.650;  226.475;    0.000
416.922; 3357.650;  192.475;    0.000
416.976; 3409.650;  205.475;    0.000
417.030; 3487.650;  233.475;    0.000
417.083; 3420.650;  226.475;    0.000
417.137; 3410.650;  222.475;    0.000
417.191; 3414.650;  217.475;    0.000
417.244; 3508.650;  221.475;    0.000
417.298; 3395.650;  201.475;    0.000
417.352; 3370.650;  170.475;    0.000
417.405; 3509.650;  234.475;    0.000
417.459; 3507.650;  241.475;    0.000
417.512; 3394.650;  247.475;    0.000
417.566; 3513.650;  219.475;    0.000
417.620; 3455.650;  228.475;    0.000
417.673; 3354.650;  192.475;    0.000
417.727; 3361.650;  203.475;    0.000
417.780; 3491.650;  204.475;    0.000
417.834; 3408.650;  234.475;    0.000
417.887; 3395.650;  245.475;    0.000
417.941; 3491.650;  211.475;    0.000
417.994; 3440.650;  244.475;    0.000
418.048; 3445.650;  203.475;    0.000
418.101; 3452.650;  212.475;    0.000
418.155; 3387.650;  251.475;    0.000
418.208; 3529.650;  286.475;    0.000
418.262; 3470.650;  243.475;    0.000
418.315; 3468.650;  214.475;    0.000
418.369; 3478.650;  269.475;    0.000
418.422; 3439.650;  222.475;    0.000
418.476; 3430.650;  226.475;    0.000
418.529; 3535.650;  238.475;    0.000
418.582; 3458.650;  210.475;    0.000
418.636; 3423.650;  221.475;    0.000
418.689; 3443.650;  224.475;    0.000
418.743; 3563.650;  228.475;    0.000
418.796; 3447.650;  192.475;    0.000
418.849; 3479.650;  230.475;    0.000
418.903; 3503.650;  257.475;    0.000
418.956; 3443.650;  241.475;    0.000
419.009; 3533.650;  247.475;    0.000
419.063; 3469.650;  235.475;    0.000
419.116; 3403.650;  218.475;    0.000
419.169; 3475.650;  219.475;    0.000
419.222; 3545.650;  215.475;    0.000
419.276; 3528.650;  202.475;    0.000
419.329; 3360.650;  210.475;    0.000
419.382; 3443.650;  188.475;    0.000
419.435; 3365.650;  222.475;    0.000
419.489; 3508.650;  232.475;    0.000
419.542; 3416.650;  250.475;    0.000
419.595; 3470.650;  240.475;    0.000
419.648; 3449.650;  261.475;    0.000
419.701; 3442.650;  222.475;    0.000
419.755; 3434.650;  233.475;    0.000
419.808; 3438.650;  178.475;    0.000
419.861; 3391.650;  207.475;    0.000
419.914; 3402.650;  223.475;    0.000
419.967; 3491.650;  216.475;    0.000
420.020; 3371.650;  211.475;    0.000
420.073; 3375.650;  200.475;    0.000
420.127; 3479.650;  248.475;    0.000
420.180; 3349.650;  220.475;    0.000
420.233; 3321.650;  215.475;    0.000
420.286; 3331.650;  222.475;    0.000
420.339; 3397.650;  229.475;    0.000
420.392; 3343.650;  245.475;    0.000
420.445; 3268.650;  221.475;    0.000
420.498; 3308.650;  224.475;    0.000
420.551; 3245.650;  170.475;    0.000
420.604; 3310.650;  237.475;    0.000
420.657; 3319.650;  235.475;    0.000
420.710; 3296.650;  223.475;    0.000
420.763; 3416.650;  219.475;    0.000
420.816; 3238.650;  200.475;    0.000
420.869; 3229.650;  197.475;    0.000
420.922; 3223.650;  212.475;    0.000
420.975; 3308.650;  274.475;    0.000
421.028; 3362.650;  228.475;    0.000
421.081; 3283.650;  243.475;    0.000
421.134; 3306.650;  227.475;    0.000
421.187; 3355.650;  245.475;    0.000
421.239; 3254.650;  210.475;    0.000
421.292; 3307.650;  193.475;    0.000
421.345; 3169.650;  226.475;    0.000
421.398; 3289.650;  226.475;    0.000
421.451; 3347.650;  259.475;    0.000
421.504; 3207.650;  204.475;    0.000
421.557; 3253.650;  215.475;    0.000
421.609; 3276.650;  194.475;    0.000
421.662; 3210.650;  216.475;    0.000
421.715; 3329.650;  226.475;    0.000
421.768; 3205.650;  177.475;    0.000
421.821; 3260.650;  210.475;    0.000
421.873; 3254.650;  208.475;    0.000
421.926; 3249.650;  223.475;    0.000
421.979; 3158.650;  230.475;    0.000
422.032; 3206.650;  227.475;    0.000
422.084; 3192.650;  234.475;    0.000
422.137; 3309.650;  207.475;    0.000
422.190; 3280.650;  228.475;    0.000
422.243; 3279.650;  206.475;    0.000
422.295; 3293.650;  236.475;    0.000
422.348; 3294.650;  232.475;    0.000
422.401; 3314.650;  228.475;    0.000
422.453; 3294.650;  239.475;    0.000
422.506; 3185.650;  226.475;    0.000
422.559; 3304.650;  205.475;    0.000
422.611; 3247.650;  235.475;    0.000
422.664; 3197.650;  231.475;    0.000
422.716; 3315.650;  228.475;    0.000
422.769; 3208.650;  204.475;    0.000
422.822; 3226.650;  205.475;    0.000
422.874; 3215.650;  228.475;    0.000
422.927; 3278.650;  266.475;    0.000
422.979; 3165.650;  223.475;    0.000
423.032; 3228.650;  207.475;    0.000
423.084; 3263.650;  211.475;    0.000
423.137; 3193.650;  205.475;    0.000
423.189; 3203.650;  254.475;    0.000
423.242; 3190.650;  208.475;    0.000
423.294; 3220.650;  240.475;    0.000
423.347; 3157.650;  218.475;    0.000
423.399; 3196.650;  237.475;    0.000
423.452; 3251.650;  242.475;    0.000
423.504; 3257.650;  225.475;    0.000
423.557; 3106.650;  195.475;    0.000
423.609; 3140.650;  206.475;    0.000
423.662; 3160.650;  211.475;    0.000
423.714; 3177.650;  252.475;    0.000
423.766; 3210.650;  181.475;    0.000
423.819; 3215.650;  216.475;    0.000
423.871; 3144.650;  216.475;    0.000
423.923; 3224.650;  222.475;    0.000
423.976; 3188.650;  223.475;    0.000
424.028; 3083.650;  229.475;    0.000
424.081; 3273.650;  267.475;    0.000
424.133; 3128.650;  251.475;    0.000
424.185; 3152.650;  238.475;    0.000
424.238; 3162.650;  220.475;    0.000
424.290; 3147.650;  259.475;    0.000
424.342; 3092.650;  248.475;    0.000
424.394; 3106.650;  234.475;    0.000
424.447; 3066.650;  248.475;    0.000
424.499; 3165.650;  233.475;    0.000
424.551; 3117.650;  236.475;    0.000
424.603; 3152.650;  207.475;    0.000
424.656; 3075.650;  210.475;    0.000
424.708; 3133.650;  251.475;    0.000
424.760; 3116.650;  221.475;    0.000
424.812; 3102.650;  275.475;    0.000
424.864; 3032.650;  206.475;    0.000
424.917; 3125.650;  198.475;    0.000
424.969; 3160.650;  246.475;    0.000
425.021; 3126.650;  209.475;    0.000
425.073; 3161.650;  242.475;    0.000
425.125; 3152.650;  254.475;    0.000
425.177; 3152.650;  224.475;    0.000
425.229; 3110.650;  256.475;    0.000
425.282; 3131.650;  265.475;    0.000
425.334; 3064.650;  266.475;    0.000
425.386; 3156.650;  242.475;    0.000
425.438; 3152.650;  205.475;    0.000
425.490; 3119.650;  227.475;    0.000
425.542; 3079.650;  235.475;    0.000
425.594; 3058.650;  210.475;    0.000
425.646; 2998.650;  232.475;    0.000
425.698; 2980.650;  243.475;    0.000
425.750; 3057.650;  230.475;    0.000
425.802; 2973.650;  218.475;    0.000
425.854; 3039.650;  222.475;    0.000
425.906; 3011.650;  235.475;    0.000
425.958; 3030.650;  220.475;    0.000
426.010; 3026.650;  236.475;    0.000
426.062; 3106.650;  230.475;    0.000
426.114; 3029.650;  216.475;    0.000
426.166; 3077.650;  230.475;    0.000
426.218; 3071.650;  237.475;    0.000
426.270; 2871.650;  217.475;    0.000
426.321; 3025.650;  224.475;    0.000
426.373; 2996.650;  207.475;    0.000
426.425; 3052.650;  278.475;    0.000
426.477; 3023.650;  243.475;    0.000
426.529; 3109.650;  247.475;    0.000
426.581; 2992.650;  229.475;    0.000
426.633; 2952.650;  212.475;    0.000
426.684; 2972.650;  244.475;    0.000
426.736; 3005.650;  250.475;    0.000
426.788; 3022.650;  210.475;    0.000
426.840; 3008.650;  201.475;    0.000
426.892; 3000.650;  225.475;    0.000
426.943; 2936.650;  215.475;    0.000
426.995; 2972.650;  216.475;    0.000
427.047; 2881.650;  216.475;    0.000
427.099; 2952.650;  203.475;    0.000
427.150; 2950.650;  195.475;    0.000
427.202; 2870.650;  212.475;    0.000
427.254; 2836.650;  233.475;    0.000
427.306; 2852.650;  211.475;    0.000
427.357; 2962.650;  210.475;    0.000
427.409; 2925.650;  244.475;    0.000
427.461; 2875.650;  187.475;    0.000
427.512; 2896.650;  227.475;    0.000
427.564; 2860.650;  210.475;    0.000
427.616; 2877.650;  202.475;    0.000
427.667; 2910.650;  185.475;    0.000
427.719; 2975.650;  222.475;    0.000
427.770; 2856.650;  230.475;    0.000
427.822; 2926.650;  254.475;    0.000
427.874; 2842.650;  222.475;    0.000
427.925; 2945.650;  199.475;    0.000
427.977; 2895.650;  228.475;    0.000
428.028; 2842.650;  226.475;    0.000
428.080; 2869.650;  236.475;    0.000
428.131; 2919.650;  220.475;    0.000
428.183; 2874.650;  256.475;    0.000
428.234; 2807.650;  217.475;    0.000
428.286; 2833.650;  234.475;    0.000
428.337; 2900.650;  209.475;    0.000
428.389; 2783.650;  219.475;    0.000
428.440; 2953.650;  249.475;    0.000
428.492; 2867.650;  255.475;    0.000
428.543; 2770.650;  224.475;    0.000
428.595; 2848.650;  225.475;    0.000
428.646; 2897.650;  240.475;    0.000
428.697; 2798.650;  211.475;    0.000
428.749; 2881.650;  200.475;    0.000
428.800; 2833.650;  235.475;    0.000
428.852; 2796.650;  265.475;    0.000
428.903; 2946.650;  201.475;    0.000
428.954; 2751.650;  242.475;    0.000
429.006; 2770.650;  245.475;    0.000
429.057; 2846.650;  252.475;    0.000
429.108; 2866.650;  211.475;    0.000
429.160; 2791.650;  217.475;    0.000
429.211; 2775.650;  234.475;    0.000
429.262; 2847.650;  205.475;    0.000
429.314; 2807.650;  211.475;    0.000
429.365; 2769.650;  240.475;    0.000
429.416; 2909.650;  263.475;    0.000
429.467; 2797.650;  244.475;    0.000
429.519; 2815.650;  223.475;    0.000
429.570; 2755.650;  214.475;    0.000
429.621; 2744.650;  235.475;    0.000
429.672; 2834.650;  202.475;    0.000
429.724; 2702.650;  189.475;    0.000
429.775; 2741.650;  214.475;    0.000
429.826; 2707.650;  178.475;    0.000
429.877; 2718.650;  224.475;    0.000
429.928; 2743.650;  230.475;    0.000
429.980; 2817.650;  199.475;    0.000
430.031; 2816.650;  208.475;    0.000
430.082; 2777.650;  224.475;    0.000
430.133; 2661.650;  193.475;    0.000
430.184; 2795.650;  220.475;    0.000
430.235; 2770.650;  184.475;    0.000
430.286; 2758.650;  197.475;    0.000
430.337; 2790.650;  199.475;    0.000
430.388; 2718.650;  207.475;    0.000
430.439; 2739.650;  227.475;    0.000
430.490; 2773.650;  215.475;    0.000
430.542; 2785.650;  211.475;    0.000
430.593; 2753.650;  230.475;    0.000
430.644; 2721.650;  186.475;    0.000
430.695; 2785.650;  232.475;    0.000
430.746; 2766.650;  214.475;    0.000
430.797; 2746.650;  260.475;    0.000
430.848; 2778.650;  214.475;    0.000
430.898; 2786.650;  204.475;    0.000
430.949; 2734.650;  189.475;    0.000
431.000; 2759.650;  240.475;    0.000
431.051; 2797.650;  201.475;    0.000
431.102; 2749.650;  188.475;    0.000
431.153; 2757.650;  209.475;    0.000
431.204; 2673.650;  187.475;    0.000
431.255; 2667.650;  171.475;    0.000
431.306; 2768.650;  181.475;    0.000
431.357; 2744.650;  221.475;    0.000
431.408; 2748.650;  217.475;    0.000
431.458; 2718.650;  206.475;    0.000
431.509; 2739.650;  194.475;    0.000
431.560; 2750.650;  235.475;    0.000
431.611; 2728.650;  213.475;    0.000
431.662; 2784.650;  237.475;    0.000
431.713; 2793.650;  220.475;    0.000
431.763; 2711.650;  212.475;    0.000
431.814; 2787.650;  238.475;    0.000
431.865; 2784.650;  213.475;    0.000
431.916; 2724.650;  191.475;    0.000
431.966; 2736.650;  171.475;    0.000
432.017; 2783.650;  263.475;    0.000
432.068; 2839.650;  240.475;    0.000
432.118; 2738.650;  235.475;    0.000
432.169; 2752.650;  212.475;    0.000
432.220; 2776.650;  188.475;    0.000
432.271; 2765.650;  216.475;    0.000
432.321; 2755.650;  223.475;    0.000
432.372; 2709.650;  254.475;    0.000
432.423; 2686.650;  193.475;    0.000
432.473; 2738.650;  219.475;    0.000
432.524; 2732.650;  215.475;    0.000
432.574; 2685.650;  234.475;    0.000
432.625; 2740.650;  226.475;    0.000
432.676; 2701.650;  219.475;    0.000
432.726; 2745.650;  254.475;    0.000
432.777; 2640.650;  210.475;    0.000
432.827; 2764.650;  234.475;    0.000
432.878; 2728.650;  212.475;    0.000
432.928; 2708.650;  238.475;    0.000
432.979; 2758.650;  252.475;    0.000
433.029; 2672.650;  222.475;    0.000
433.080; 2596.650;  188.475;    0.000
433.130; 2696.650;  223.475;    0.000
433.181; 2620.650;  254.475;    0.000
433.231; 2757.650;  237.475;    0.000
433.282; 2740.650;  242.475;    0.000
433.332; 2776.650;  261.475;    0.000
433.383; 2720.650;  266.475;    0.000
433.433; 2764.650;  286.475;    0.000
433.484; 2786.650;  231.475;    0.000
433.534; 2792.650;  256.475;    0.000
433.585; 2690.650;  253.475;    0.000
433.635; 2686.650;  228.475;    0.000
433.685; 2740.650;  226.475;    0.000
433.736; 2665.650;  276.475;    0.000
433.786; 2750.650;  253.475;    0.000
433.836; 2727.650;  289.475;    0.000
433.887; 2679.650;  241.475;    0.000
433.937; 2682.650;  252.475;    0.000
433.987; 2758.650;  223.475;    0.000
434.038; 2627.650;  241.475;    0.000
434.088; 2745.650;  231.475;    0.000
434.138; 2743.650;  259.475;    0.000
434.189; 2727.650;  263.475;    0.000
434.239; 2773.650;  194.475;    0.000
434.289; 2771.650;  273.475;    0.000
434.339; 2798.650;  212.475;    0.000
434.389; 2815.650;  248.475;    0.000
434.440; 2759.650;  250.475;    0.000
434.490; 2694.650;  278.475;    0.000
434.540; 2711.650;  241.475;    0.000
434.590; 2765.650;  251.475;    0.000
434.640; 2659.650;  207.475;    0.000
434.691; 2805.650;  242.475;    0.000
434.741; 2771.650;  218.475;    0.000
434.791; 2819.650;  267.475;    0.000
434.841; 2812.650;  272.475;    0.000
434.891; 2875.650;  260.475;    0.000
434.941; 2776.650;  258.475;    0.000
434.991; 2833.650;  264.475;    0.000
435.042; 2807.650;  264.475;    0.000
435.092; 2802.650;  271.475;    0.000
435.142; 2727.650;  229.475;    0.000
435.192; 2792.650;  226.475;    0.000
435.242; 2786.650;  253.475;    0.000
435.292; 2779.650;  215.475;    0.000
435.342; 2691.650;  240.475;    0.000
435.392; 2683.650;  235.475;    0.000
435.442; 2698.650;  230.475;    0.000
435.492; 2737.650;  235.475;    0.000
435.542; 2599.650;  230.475;    0.000
435.592; 2719.650;  239.475;    0.000
435.642; 2663.650;  244.475;    0.000
435.692; 2653.650;  236.475;    0.000
435.742; 2670.650;  236.475;    0.000
435.792; 2689.650;  230.475;    0.000
435.842; 2613.650;  248.475;    0.000
435.891; 2591.650;  233.475;    0.000
435.941; 2598.650;  243.475;    0.000
435.991; 2635.650;  279.475;    0.000
436.041; 2568.650;  204.475;    0.000
436.091; 2638.650;  217.475;    0.000
436.141; 2623.650;  205.475;    0.000
436.191; 2545.650;  220.475;    0.000
436.241; 2613.650;  248.475;    0.000
436.290; 2652.650;  255.475;    0.000
436.340; 2603.650;  235.475;    0.000
436.390; 2531.650;  207.475;    0.000
436.440; 2568.650;  207.475;    0.000
436.490; 2594.650;  251.475;    0.000
436.539; 2602.650;  240.475;    0.000
436.589; 2529.650;  198.475;    0.000
436.639; 2523.650;  240.475;    0.000
436.689; 2578.650;  216.475;    0.000
436.738; 2569.650;  246.475;    0.000
436.788; 2493.650;  203.475;    0.000
436.838; 2590.650;  230.475;    0.000
436.887; 2637.650;  235.475;    0.000
436.937; 2595.650;  249.475;    0.000
436.987; 2526.650;  208.475;    0.000
437.036; 2504.650;  232.475;    0.000
437.086; 2589.650;  238.475;    0.000
437.136; 2572.650;  228.475;    0.000
437.185; 2535.650;  219.475;    0.000
437.235; 2487.650;  227.475;    0.000
437.285; 2514.650;  241.475;    0.000
437.334; 2584.650;  216.475;    0.000
437.384; 2440.650;  243.475;    0.000
437.433; 2549.650;  214.475;    0.000
437.483; 2525.650;  246.475;    0.000
437.532; 2599.650;  261.475;    0.000
437.582; 2534.650;  205.475;    0.000
437.631; 2470.650;  218.475;    0.000
437.681; 2494.650;  240.475;    0.000
437.730; 2526.650;  258.475;    0.000
437.780; 2471.650;  237.475;    0.000
437.829; 2471.650;  209.475;    0.000
437.879; 2481.650;  214.475;    0.000
437.928; 2467.650;  223.475;    0.000
437.978; 2511.650;  220.475;    0.000
438.027; 2529.650;  239.475;    0.000
438.077; 2539.650;  231.475;    0.000
438.126; 2526.650;  266.475;    0.000
438.176; 2449.650;  234.475;    0.000
438.225; 2553.650;  237.475;    0.000
438.274; 2408.650;  234.475;    0.000
438.324; 2505.650;  244.475;    0.000
438.373; 2421.650;  232.475;    0.000
438.422; 2528.650;  218.475;    0.000
438.472; 2504.650;  221.475;    0.000
438.521; 2404.650;  190.475;    0.000
438.570; 2446.650;  243.475;    0.000
438.620; 2512.650;  255.475;    0.000
438.669; 2444.650;  210.475;    0.000
438.718; 2436.650;  237.475;    0.000
438.768; 2466.650;  220.475;    0.000
438.817; 2427.650;  218.475;    0.000
438.866; 2486.650;  198.475;    0.000
438.915; 2506.650;  256.475;    0.000
438.965; 2456.650;  221.475;    0.000
439.014; 2467.650;  255.475;    0.000
439.063; 2459.650;  276.475;    0.000
439.112; 2427.650;  220.475;    0.000
439.162; 2655.650;  253.475;    0.000
439.211; 2522.650;  247.475;    0.000
439.260; 2539.650;  220.475;    0.000
439.309; 2509.650;  235.475;    0.000
439.358; 2385.650;  205.475;    0.000
439.407; 2419.650;  207.475;    0.000
439.456; 2403.650;  216.475;    0.000
439.506; 2487.650;  245.475;    0.000
439.555; 2518.650;  264.475;    0.000
439.604; 2454.650;  227.475;    0.000
439.653; 2533.650;  220.475;    0.000
439.702; 2543.650;  223.475;    0.000
439.751; 2415.650;  197.475;    0.000
439.800; 2509.650;  207.475;    0.000
439.849; 2525.650;  238.475;    0.000
439.898; 2452.650;  209.475;    0.000
439.947; 2421.650;  170.475;    0.000
439.996; 2495.650;  233.475;    0.000
440.045; 2516.650;  222.475;    0.000
440.094; 2578.650;  240.475;    0.000
440.143; 2458.650;  249.475;    0.000
440.192; 2512.650;  252.475;    0.000
440.241; 2491.650;  239.475;    0.000
440.290; 2522.650;  234.475;    0.000
440.339; 2459.650;  241.475;    0.000
440.388; 2381.650;  239.475;    0.000
440.437; 2528.650;  231.475;    0.000
440.486; 2487.650;  254.475;    0.000
440.535; 2613.650;  266.475;    0.000
440.583; 2469.650;  205.475;    0.000
440.632; 2494.650;  234.475;    0.000
440.681; 2538.650;  218.475;    0.000
440.730; 2509.650;  248.475;    0.000
440.779; 2510.650;  246.475;    0.000
440.828; 2578.650;  235.475;    0.000
440.876; 2495.650;  218.475;    0.000
440.925; 2433.650;  228.475;    0.000
440.974; 2508.650;  249.475;    0.000
441.023; 2523.650;  192.475;    0.000
441.072; 2465.650;  226.475;    0.000
441.120; 2555.650;  238.475;    0.000
441.169; 2564.650;  255.475;    0.000
441.218; 2562.650;  233.475;    0.000
441.267; 2607.650;  231.475;    0.000
441.315; 2622.650;  214.475;    0.000
441.364; 2591.650;  250.475;    0.000
441.413; 2576.650;  228.475;    0.000
441.461; 2613.650;  209.475;    0.000
441.510; 2557.650;  260.475;    0.000
441.559; 2619.650;  230.475;    0.000
441.607; 2639.650;  220.475;    0.000
441.656; 2686.650;  251.475;    0.000
441.705; 2742.650;  237.475;    0.000
441.753; 2676.650;  257.475;    0.000
441.802; 2687.650;  256.475;    0.000
441.850; 2575.650;  253.475;    0.000
441.899; 2627.650;  212.475;    0.000
441.948; 2573.650;  251.475;    0.000
441.996; 2656.650;  239.475;    0.000
442.045; 2645.650;  223.475;    0.000
442.093; 2727.650;  211.475;    0.000
442.142; 2611.650;  235.475;    0.000
442.190; 2572.650;  254.475;    0.000
442.239; 2520.650;  226.475;    0.000
442.287; 2572.650;  242.475;    0.000
442.336; 2651.650;  256.475;    0.000
442.384; 2597.650;  252.475;    0.000
442.433; 2538.650;  262.475;    0.000
442.481; 2608.650;  246.475;    0.000
442.529; 2636.650;  290.475;    0.000
442.578; 2605.650;  247.475;    0.000
442.626; 2596.650;  247.475;    0.000
442.675; 2585.650;  272.475;    0.000
442.723; 2576.650;  230.475;    0.000
442.771; 2558.650;  234.475;    0.000
442.820; 2636.650;  224.475;    0.000
442.868; 2578.650;  246.475;    0.000
442.917; 2654.650;  249.475;    0.000
442.965; 2636.650;  260.475;    0.000
443.013; 2677.650;  258.475;    0.000
443.062; 2664.650;  259.475;    0.000
443.110; 2497.650;  226.475;    0.000
443.158; 2549.650;  213.475;    0.000
443.206; 2684.650;  201.475;    0.000
443.255; 2602.650;  280.475;    0.000
443.303; 2672.650;  292.475;    0.000
443.351; 2576.650;  256.475;    0.000
443.399; 2552.650;  215.475;    0.000
443.448; 2630.650;  243.475;    0.000
443.496; 2601.650;  249.475;    0.000
443.544; 2620.650;  231.475;    0.000
443.592; 2602.650;  243.475;    0.000
443.640; 2576.650;  252.475;    0.000
443.689; 2579.650;  220.475;    0.000
443.737; 2674.650;  231.475;    0.000
443.785; 2578.650;  256.475;    0.000
443.833; 2665.650;  268.475;    0.000
443.881; 2614.650;  181.475;    0.000
443.929; 2701.650;  245.475;    0.000
443.977; 2723.650;  278.475;    0.000
444.025; 2619.650;  245.475;    0.000
444.074; 2692.650;  233.475;    0.000
444.122; 2697.650;  267.475;    0.000
444.170; 2726.650;  247.475;    0.000
444.218; 2727.650;  246.475;    0.000
444.266; 2703.650;  275.475;    0.000
444.314; 2748.650;  263.475;    0.000
444.362; 2706.650;  240.475;    0.000
444.410; 2747.650;  220.475;    0.000
444.458; 2865.650;  258.475;    0.000
444.506; 2733.650;  258.475;    0.000
444.554; 2818.650;  224.475;    0.000
444.602; 2819.650;  245.475;    0.000
444.650; 2819.650;  261.475;    0.000
444.698; 2738.650;  232.475;    0.000
444.746; 2844.650;  206.475;    0.000
444.793; 2799.650;  249.475;    0.000
444.841; 2833.650;  261.475;    0.000
444.889; 2865.650;  221.475;    0.000
444.937; 2755.650;  215.475;    0.000
444.985; 2816.650;  244.475;    0.000
445.033; 2829.650;  211.475;    0.000
445.081; 2814.650;  225.475;    0.000
445.129; 2758.650;  217.475;    0.000
445.176; 2809.650;  196.475;    0.000
445.224; 2718.650;  211.475;    0.000
445.272; 2856.650;  242.475;    0.000
445.320; 2705.650;  225.475;    0.000
445.368; 2825.650;  249.475;    0.000
445.415; 2738.650;  243.475;    0.000
445.463; 2815.650;  242.475;    0.000
445.511; 2794.650;  248.475;    0.000
445.559; 2784.650;  219.475;    0.000
445.606; 2738.650;  221.475;    0.000
445.654; 2721.650;  202.475;    0.000
445.702; 2701.650;  210.475;    0.000
445.749; 2715.650;  249.475;    0.000
445.797; 2732.650;  206.475;    0.000
445.845; 2763.650;  213.475;    0.000
445.892; 2696.650;  224.475;    0.000
445.940; 2762.650;  214.475;    0.000
445.988; 2747.650;  247.475;    0.000
446.035; 2726.650;  204.475;    0.000
446.083; 2687.650;  235.475;    0.000
446.130; 2802.650;  195.475;    0.000
446.178; 2829.650;  236.475;    0.000
446.226; 2819.650;  218.475;    0.000
446.273; 2799.650;  215.475;    0.000
446.321; 2785.650;  222.475;    0.000
446.368; 2811.650;  228.475;    0.000
446.416; 2808.650;  223.475;    0.000
446.463; 2793.650;  220.475;    0.000
446.511; 2761.650;  198.475;    0.000
446.558; 2796.650;  208.475;    0.000
446.606; 2933.650;  253.475;    0.000
446.653; 2818.650;  198.475;    0.000
446.701; 2944.650;  231.475;    0.000
446.748; 2886.650;  224.475;    0.000
446.796; 2846.650;  201.475;    0.000
446.843; 2886.650;  257.475;    0.000
446.891; 2825.650;  218.475;    0.000
446.938; 3016.650;  232.475;    0.000
446.985; 2957.650;  229.475;    0.000
447.033; 3011.650;  251.475;    0.000
447.080; 2969.650;  257.475;    0.000
447.128; 2906.650;  232.475;    0.000
447.175; 3082.650;  269.475;    0.000
447.222; 2920.650;  185.475;    0.000
447.270; 2991.650;  264.475;    0.000
447.317; 2954.650;  225.475;    0.000
447.364; 3059.650;  243.475;    0.000
447.411; 3099.650;  263.475;    0.000
447.459; 3052.650;  257.475;    0.000
447.506; 3107.650;  175.475;    0.000
447.553; 3125.650;  203.475;    0.000
447.601; 3179.650;  238.475;    0.000
447.648; 3183.650;  244.475;    0.000
447.695; 3216.650;  249.475;    0.000
447.742; 3191.650;  234.475;    0.000
447.789; 3268.650;  228.475;    0.000
447.837; 3371.650;  258.475;    0.000
447.884; 3325.650;  243.475;    0.000
447.931; 3476.650;  235.475;    0.000
447.978; 3417.650;  224.475;    0.000
448.025; 3448.650;  245.475;    0.000
448.072; 3517.650;  212.475;    0.000
448.120; 3666.650;  256.475;    0.000
448.167; 3564.650;  240.475;    0.000
448.214; 3390.650;  247.475;    0.000
448.261; 3430.650;  245.475;    0.000
448.308; 3354.650;  273.475;    0.000
448.355; 3315.650;  257.475;    0.000
448.402; 3396.650;  259.475;    0.000
448.449; 3247.650;  238.475;    0.000
448.496; 3217.650;  245.475;    0.000
448.543; 3203.650;  217.475;    0.000
448.590; 3277.650;  269.475;    0.000
448.637; 3128.650;  250.475;    0.000
448.684; 3067.650;  250.475;    0.000
448.731; 3070.650;  235.475;    0.000
448.778; 2947.650;  265.475;    0.000
448.825; 3004.650;  257.475;    0.000
448.872; 3012.650;  234.475;    0.000
448.919; 2861.650;  216.475;    0.000
448.966; 2863.650;  274.475;    0.000
449.013; 2873.650;  263.475;    0.000
449.060; 2986.650;  247.475;    0.000
449.107; 2854.650;  218.475;    0.000
449.154; 2820.650;  225.475;    0.000
449.200; 2855.650;  212.475;    0.000
449.247; 2828.650;  242.475;    0.000
449.294; 2815.650;  228.475;    0.000
449.341; 2749.650;  232.475;    0.000
449.388; 2754.650;  247.475;    0.000
449.435; 2801.650;  227.475;    0.000
449.481; 2782.650;  270.475;    0.000
449.528; 2729.650;  265.475;    0.000
449.575; 2708.650;  255.475;    0.000
449.622; 2657.650;  210.475;    0.000
449.668; 2626.650;  234.475;    0.000
449.715; 2699.650;  262.475;    0.000
449.762; 2676.650;  247.475;    0.000
449.809; 2660.650;  286.475;    0.000
449.855; 2672.650;  246.475;    0.000
449.902; 2689.650;  224.475;    0.000
449.949; 2637.650;  244.475;    0.000
449.995; 2632.650;  274.475;    0.000
450.042; 2590.650;  272.475;    0.000
450.089; 2680.650;  274.475;    0.000
450.135; 2610.650;  285.475;    0.000
450.182; 2598.650;  251.475;    0.000
450.229; 2638.650;  242.475;    0.000
450.275; 2613.650;  277.475;    0.000
450.322; 2664.650;  260.475;    0.000
450.368; 2605.650;  257.475;    0.000
450.415; 2657.650;  276.475;    0.000
450.462; 2529.650;  298.475;    0.000
450.508; 2536.650;  255.475;    0.000
450.555; 2584.650;  271.475;    0.000
450.601; 2590.650;  281.475;    0.000
450.648; 2544.650;  249.475;    0.000
450.694; 2608.650;  270.475;    0.000
450.741; 2504.650;  256.475;    0.000
450.787; 2482.650;  292.475;    0.000
450.834; 2549.650;  221.475;    0.000
450.880; 2568.650;  265.475;    0.000
450.927; 2430.650;  242.475;    0.000
450.973; 2586.650;  259.475;    0.000
451.019; 2551.650;  221.475;    0.000
451.066; 2420.650;  257.475;    0.000
451.112; 2578.650;  251.475;    0.000
451.159; 2449.650;  278.475;    0.000
451.205; 2479.650;  274.475;    0.000
451.251; 2469.650;  281.475;    0.000
451.298; 2456.650;  273.475;    0.000
451.344; 2501.650;  246.475;    0.000
451.390; 2532.650;  286.475;    0.000
451.437; 2507.650;  268.475;    0.000
451.483; 2486.650;  315.475;    0.000
451.529; 2442.650;  251.475;    0.000
451.576; 2526.650;  306.475;    0.000
451.622; 2464.650;  234.475;    0.000
451.668; 2459.650;  243.475;    0.000
451.714; 2519.650;  256.475;    0.000
451.761; 2453.650;  264.475;    0.000
451.807; 2461.650;  284.475;    0.000
451.853; 2490.650;  282.475;    0.000
451.899; 2443.650;  240.475;    0.000
451.945; 2499.650;  263.475;    0.000
451.992; 2472.650;  255.475;    0.000
452.038; 2404.650;  273.475;    0.000
452.084; 2429.650;  274.475;    0.000
452.130; 2355.650;  261.475;    0.000
452.176; 2449.650;  246.475;    0.000
452.222; 2416.650;  238.475;    0.000
452.268; 2448.650;  267.475;    0.000
452.315; 2362.650;  274.475;    0.000
452.361; 2429.650;  241.475;    0.000
452.407; 2502.650;  274.475;    0.000
452.453; 2384.650;  260.475;    0.000
452.499; 2420.650;  232.475;    0.000
452.545; 2433.650;  252.475;    0.000
452.591; 2482.650;  263.475;    0.000
452.637; 2429.650;  208.475;    0.000
452.683; 2398.650;  237.475;    0.000
452.729; 2334.650;  263.475;    0.000
452.775; 2362.650;  291.475;    0.000
452.821; 2409.650;  238.475;    0.000
452.867; 2362.650;  223.475;    0.000
452.913; 2385.650;  257.475;    0.000
452.959; 2341.650;  238.475;    0.000
453.005; 2353.650;  252.475;    0.000
453.051; 2360.650;  260.475;    0.000
453.097; 2345.650;  268.475;    0.000
453.142; 2380.650;  231.475;    0.000
453.188; 2354.650;  266.475;    0.000
453.234; 2386.650;  233.475;    0.000
453.280; 2292.650;  219.475;    0.000
453.326; 2348.650;  265.475;    0.000
453.372; 2294.650;  238.475;    0.000
453.418; 2325.650;  240.475;    0.000
453.463; 2401.650;  219.475;    0.000
453.509; 2366.650;  264.475;    0.000
453.555; 2340.650;  247.475;    0.000
453.601; 2297.650;  230.475;    0.000
453.647; 2346.650;  285.475;    0.000
453.692; 2308.650;  240.475;    0.000
453.738; 2379.650;  233.475;    0.000
453.784; 2320.650;  230.475;    0.000
453.829; 2344.650;  246.475;    0.000
453.875; 2359.650;  261.475;    0.000
453.921; 2364.650;  203.475;    0.000
453.967; 2327.650;  241.475;    0.000
454.012; 2324.650;  250.475;    0.000
454.058; 2390.650;  252.475;    0.000
454.104; 2303.650;  239.475;    0.000
454.149; 2330.650;  250.475;    0.000
454.195; 2245.650;  243.475;    0.000
454.240; 2304.650;  252.475;    0.000
454.286; 2315.650;  245.475;    0.000
454.332; 2341.650;  286.475;    0.000
454.377; 2271.650;  254.475;    0.000
454.423; 2282.650;  246.475;    0.000
454.468; 2294.650;  235.475;    0.000
454.514; 2359.650;  231.475;    0.000
454.559; 2390.650;  246.475;    0.000
454.605; 2291.650;  204.475;    0.000
454.650; 2271.650;  272.475;    0.000
454.696; 2271.650;  222.475;    0.000
454.741; 2413.650;  290.475;    0.000
454.787; 2301.650;  262.475;    0.000
454.832; 2415.650;  227.475;    0.000
454.878; 2311.650;  241.475;    0.000
454.923; 2279.650;  272.475;    0.000
454.969; 2284.650;  290.475;    0.000
455.014; 2340.650;  278.475;    0.000
455.060; 2341.650;  246.475;    0.000
455.105; 2339.650;  231.475;    0.000
455.150; 2365.650;  265.475;    0.000
455.196; 2232.650;  266.475;    0.000
455.241; 2320.650;  258.475;    0.000
455.286; 2266.650;  266.475;    0.000
455.332; 2323.650;  252.475;    0.000
455.377; 2244.650;  219.475;    0.000
455.422; 2326.650;  262.475;    0.000
455.468; 2288.650;  260.475;    0.000
455.513; 2255.650;  212.475;    0.000
455.558; 2239.650;  197.475;    0.000
455.604; 2334.650;  262.475;    0.000
455.649; 2319.650;  238.475;    0.000
455.694; 2278.650;  221.475;    0.000
455.739; 2293.650;  251.475;    0.000
455.785; 2249.650;  287.475;    0.000
455.830; 2331.650;  284.475;    0.000
455.875; 2357.650;  234.475;    0.000
455.920; 2317.650;  215.475;    0.000
455.965; 2336.650;  256.475;    0.000
456.010; 2300.650;  266.475;    0.000
456.056; 2201.650;  263.475;    0.000
456.101; 2224.650;  240.475;    0.000
456.146; 2318.650;  258.475;    0.000
456.191; 2298.650;  241.475;    0.000
456.236; 2324.650;  252.475;    0.000
456.281; 2224.650;  218.475;    0.000
456.326; 2280.650;  251.475;    0.000
456.371; 2319.650;  256.475;    0.000
456.416; 2323.650;  301.475;    0.000
456.461; 2316.650;  233.475;    0.000
456.507; 2324.650;  218.475;    0.000
456.552; 2278.650;  278.475;    0.000
456.597; 2213.650;  223.475;    0.000
456.642; 2339.650;  203.475;    0.000
456.687; 2294.650;  245.475;    0.000
456.732; 2304.650;  256.475;    0.000
456.776; 2405.650;  244.475;    0.000
456.821; 2310.650;  276.475;    0.000
456.866; 2315.650;  232.475;    0.000
456.911; 2223.650;  225.475;    0.000
456.956; 2264.650;  237.475;    0.000
457.001; 2358.650;  261.475;    0.000
457.046; 2283.650;  205.475;    0.000
457.091; 2271.650;  241.475;    0.000
457.136; 2329.650;  217.475;    0.000
457.181; 2280.650;  251.475;    0.000
457.225; 2327.650;  241.475;    0.000
457.270; 2301.650;  237.475;    0.000
457.315; 2333.650;  279.475;    0.000
457.360; 2284.650;  245.475;    0.000
457.405; 2248.650;  202.475;    0.000
457.450; 2315.650;  247.475;    0.000
457.494; 2388.650;  243.475;    0.000
457.539; 2398.650;  222.475;    0.000
457.584; 2334.650;  239.475;    0.000
457.629; 2276.650;  236.475;    0.000
457.673; 2307.650;  234.475;    0.000
457.718; 2330.650;  202.475;    0.000
457.763; 2293.650;  274.475;    0.000
457.807; 2391.650;  236.475;    0.000
457.852; 2396.650;  265.475;    0.000
457.897; 2393.650;  252.475;    0.000
457.941; 2393.650;  264.475;    0.000
457.986; 2346.650;  280.475;    0.000
458.031; 2367.650;  217.475;    0.000
458.075; 2408.650;  249.475;    0.000
458.120; 2388.650;  257.475;    0.000
458.165; 2308.650;  183.475;    0.000
458.209; 2423.650;  245.475;    0.000
458.254; 2399.650;  245.475;    0.000
458.298; 2374.650;  265.475;    0.000
458.343; 2364.650;  241.475;    0.000
458.387; 2342.650;  262.475;    0.000
458.432; 2445.650;  245.475;    0.000
458.476; 2463.650;  255.475;    0.000
458.521; 2425.650;  269.475;    0.000
458.565; 2470.650;  265.475;    0.000
458.610; 2375.650;  222.475;    0.000
458.654; 2466.650;  257.475;    0.000
458.699; 2499.650;  296.475;    0.000
458.743; 2382.650;  203.475;    0.000
458.788; 2499.650;  267.475;    0.000
458.832; 2445.650;  274.475;    0.000
458.877; 2495.650;  251.475;    0.000
458.921; 2533.650;  237.475;    0.000
458.965; 2557.650;  264.475;    0.000
459.010; 2565.650;  256.475;    0.000
459.054; 2534.650;  280.475;    0.000
459.099; 2481.650;  240.475;    0.000
459.143; 2544.650;  287.475;    0.000
459.187; 2544.650;  257.475;    0.000
459.231; 2472.650;  273.475;    0.000
459.276; 2569.650;  231.475;    0.000
459.320; 2528.650;  261.475;    0.000
459.364; 2530.650;  278.475;    0.000
459.409; 2572.650;  249.475;    0.000
459.453; 2508.650;  235.475;    0.000
459.497; 2660.650;  262.475;    0.000
459.541; 2552.650;  269.475;    0.000
459.586; 2543.650;  240.475;    0.000
459.630; 2644.650;  261.475;    0.000
459.674; 2498.650;  276.475;    0.000
459.718; 2550.650;  236.475;    0.000
459.762; 2630.650;  263.475;    0.000
459.807; 2585.650;  263.475;    0.000
459.851; 2606.650;  225.475;    0.000
459.895; 2525.650;  247.475;    0.000
459.939; 2635.650;  231.475;    0.000
459.983; 2617.650;  242.475;    0.000
460.027; 2616.650;  248.475;    0.000
460.071; 2691.650;  273.475;    0.000
460.115; 2622.650;  282.475;    0.000
460.159; 2725.650;  264.475;    0.000
460.204; 2698.650;  288.475;    0.000
460.248; 2706.650;  293.475;    0.000
460.292; 2671.650;  277.475;    0.000
460.336; 2601.650;  250.475;    0.000
460.380; 2610.650;  275.475;    0.000
460.424; 2739.650;  243.475;    0.000
460.468; 2697.650;  277.475;    0.000
460.512; 2707.650;  261.475;    0.000
460.556; 2668.650;  266.475;    0.000
460.599; 2647.650;  246.475;    0.000
460.643; 2629.650;  256.475;    0.000
460.687; 2806.650;  257.475;    0.000
460.731; 2765.650;  235.475;    0.000
460.775; 2704.650;  278.475;    0.000
460.819; 2655.650;  268.475;    0.000
460.863; 2764.650;  257.475;    0.000
460.907; 2657.650;  213.475;    0.000
460.951; 2636.650;  274.475;    0.000
460.995; 2682.650;  258.475;    0.000
461.038; 2691.650;  219.475;    0.000
461.082; 2748.650;  253.475;    0.000
461.126; 2626.650;  281.475;    0.000
461.170; 2630.650;  244.475;    0.000
461.214; 2767.650;  262.475;    0.000
461.257; 2749.650;  284.475;    0.000
461.301; 2788.650;  275.475;    0.000
461.345; 2771.650;  267.475;    0.000
461.389; 2719.650;  255.475;    0.000
461.432; 2687.650;  282.475;    0.000
461.476; 2754.650;  263.475;    0.000
461.520; 2772.650;  260.475;    0.000
461.563; 2781.650;  278.475;    0.000
461.607; 2709.650;  236.475;    0.000
461.651; 2685.650;  262.475;    0.000
461.694; 2749.650;  236.475;    0.000
461.738; 2746.650;  295.475;    0.000
461.782; 2662.650;  252.475;    0.000
461.825; 2754.650;  271.475;    0.000
461.869; 2790.650;  278.475;    0.000
461.913; 2768.650;  255.475;    0.000
461.956; 2861.650;  254.475;    0.000
462.000; 2821.650;  299.475;    0.000
462.043; 2767.650;  282.475;    0.000
462.087; 2815.650;  274.475;    0.000
462.130; 2870.650;  270.475;    0.000
462.174; 2836.650;  274.475;    0.000
462.217; 2776.650;  272.475;    0.000
462.261; 2753.650;  286.475;    0.000
462.304; 2803.650;  236.475;    0.000
462.348; 2845.650;  262.475;    0.000
462.391; 2844.650;  244.475;    0.000
462.435; 2790.650;  321.475;    0.000
462.478; 2820.650;  230.475;    0.000
462.522; 2845.650;  245.475;    0.000
462.565; 2896.650;  278.475;    0.000
462.608; 2938.650;  303.475;    0.000
462.652; 2939.650;  275.475;    0.000
462.695; 3020.650;  314.475;    0.000
462.739; 2908.650;  307.475;    0.000
462.782; 3024.650;  286.475;    0.000
462.825; 2963.650;  312.475;    0.000
462.869; 3113.650;  338.475;    0.000
462.912; 3024.650;  304.475;    0.000
462.955; 3096.650;  288.475;    0.000
462.998; 2968.650;  292.475;    0.000
463.042; 3049.650;  309.475;    0.000
463.085; 3100.650;  292.475;    0.000
463.128; 3056.650;  317.475;    0.000
463.172; 2928.650;  287.475;    0.000
463.215;  372.650;  313.475;    0.000
463.258;  324.650;  295.475;    0.000
463.301;  286.650;  275.475;    0.000
463.344;  302.650;  311.475;    0.000
463.388;  306.650;  296.475;    0.000
463.431;  290.650;  277.475;    0.000
463.474;  330.650;  364.475;    0.000
463.517;  305.650;  306.475;    0.000
463.560;  333.650;  308.475;    0.000
463.603;  333.650;  343.475;    0.000
463.646;  331.650;  309.475;    0.000
463.690;  333.650;  309.475;    0.000
463.733;  320.650;  320.475;    0.000
463.776;  300.650;  299.475;    0.000
463.819;  346.650;  320.475;    0.000
463.862;  303.650;  283.475;    0.000

