
Integration time [ms]:   1.000
Averaging Nr. [scans]: 1
Smoothing Nr. [pixels]: 0
Data measured with spectrometer [name]: VIS
Wave   ;Sample   ;Dark     ;Reference
[nm]   ;[counts] ;[counts] ;[counts] 

450.961;  208.450;  200.375;    0.000
451.100;  194.450;  241.375;    0.000
451.239;  182.450;  201.375;    0.000
451.377;  240.450;  262.375;    0.000
451.516;  214.450;  229.375;    0.000
451.655;  226.450;  211.375;    0.000
451.794;  213.450;  225.375;    0.000
451.932;  221.450;  247.375;    0.000
452.071;  220.450;  260.375;    0.000
452.210;  219.450;  235.375;    0.000
452.348;  209.450;  276.375;    0.000
452.487;  273.450;  259.375;    0.000
452.626;  199.450;  254.375;    0.000
452.764;  230.450;  233.375;    0.000
452.903;  182.450;  202.375;    0.000
453.042;  297.450;  211.375;    0.000
453.180; 3737.450;  240.375;    0.000
453.319; 3840.450;  238.375;    0.000
453.458; 3819.450;  215.375;    0.000
453.596; 3787.450;  252.375;    0.000
453.735; 3879.450;  240.375;    0.000
453.873; 3899.450;  257.375;    0.000
454.012; 3924.450;  228.375;    0.000
454.150; 3998.450;  270.375;    0.000
454.289; 4122.450;  233.375;    0.000
454.427; 4048.450;  243.375;    0.000
454.566; 4144.450;  257.375;    0.000
454.704; 4148.450;  243.375;    0.000
454.843; 4189.450;  190.375;    0.000
454.981; 4191.450;  271.375;    0.000
455.120; 4194.450;  210.375;    0.000
455.258; 4286.450;  235.375;    0.000
455.397; 4312.450;  214.375;    0.000
455.535; 4305.450;  214.375;    0.000
455.674; 4380.450;  184.375;    0.000
455.812; 4375.450;  228.375;    0.000
455.951; 4431.450;  204.375;    0.000
456.089; 4566.450;  220.375;    0.000
456.227; 4583.450;  196.375;    0.000
456.366; 4610.450;  261.375;    0.000
456.504; 4594.450;  249.375;    0.000
456.642; 4702.450;  245.375;    0.000
456.781; 4699.450;  183.375;    0.000
456.919; 4804.450;  203.375;    0.000
457.057; 4835.450;  177.375;    0.000
457.196; 4957.450;  191.375;    0.000
457.334; 5009.450;  233.375;    0.000
457.472; 4900.450;  214.375;    0.000
457.610; 5054.450;  230.375;    0.000
457.749; 5066.450;  247.375;    0.000
457.887; 5181.450;  220.375;    0.000
458.025; 5119.450;  195.375;    0.000
458.163; 5342.450;  224.375;    0.000
458.301; 5335.450;  228.375;    0.000
458.440; 5479.450;  200.375;    0.000
458.578; 5551.450;  233.375;    0.000
458.716; 5606.450;  182.375;    0.000
458.854; 5751.450;  251.375;    0.000
458.992; 5754.450;  187.375;    0.000
459.130; 5714.450;  229.375;    0.000
459.269; 5748.450;  237.375;    0.000
459.407; 5825.450;  228.375;    0.000
459.545; 5900.450;  216.375;    0.000
459.683; 5989.450;  204.375;    0.000
459.821; 6121.450;  191.375;    0.000
459.959; 6054.450;  227.375;    0.000
460.097; 6213.450;  221.375;    0.000
460.235; 6166.450;  241.375;    0.000
460.373; 6265.450;  231.375;    0.000
460.511; 6275.450;  214.375;    0.000
460.649; 6351.450;  172.375;    0.000
460.787; 6395.450;  275.375;    0.000
460.925; 6297.450;  175.375;    0.000
461.063; 6453.450;  252.375;    0.000
461.201; 6376.450;  210.375;    0.000
461.339; 6522.450;  237.375;    0.000
461.477; 6408.450;  210.375;    0.000
461.615; 6657.450;  236.375;    0.000
461.753; 6581.450;  215.375;    0.000
461.891; 6672.450;  222.375;    0.000
462.029; 6945.450;  227.375;    0.000
462.166; 6932.450;  202.375;    0.000
462.304; 6963.450;  191.375;    0.000
462.442; 7059.450;  210.375;    0.000
462.580; 7130.450;  184.375;    0.000
462.718; 7077.450;  220.375;    0.000
462.856; 7076.450;  226.375;    0.000
462.993; 7066.450;  254.375;    0.000
463.131; 6944.450;  200.375;    0.000
463.269; 7071.450;  215.375;    0.000
463.407; 6871.450;  213.375;    0.000
463.545; 6802.450;  242.375;    0.000
463.682; 6817.450;  212.375;    0.000
463.820; 7130.450;  185.375;    0.000
463.958; 7558.450;  212.375;    0.000
464.095; 7606.450;  181.375;    0.000
464.233; 7607.450;  192.375;    0.000
464.371; 7643.450;  247.375;    0.000
464.509; 7457.450;  151.375;    0.000
464.646; 7593.450;  207.375;    0.000
464.784; 7539.450;  199.375;    0.000
464.921; 7284.450;  253.375;    0.000
465.059; 7356.450;  214.375;    0.000
465.197; 7253.450;  200.375;    0.000
465.334; 7183.450;  180.375;    0.000
465.472; 7002.450;  204.375;    0.000
465.609; 7126.450;  203.375;    0.000
465.747; 6946.450;  214.375;    0.000
465.885; 7035.450;  233.375;    0.000
466.022; 6892.450;  215.375;    0.000
466.160; 6921.450;  201.375;    0.000
466.297; 6827.450;  196.375;    0.000
466.435; 6745.450;  230.375;    0.000
466.572; 6794.450;  227.375;    0.000
466.710; 6894.450;  218.375;    0.000
466.847; 6809.450;  245.375;    0.000
466.985; 6680.450;  223.375;    0.000
467.122; 6691.450;  168.375;    0.000
467.260; 6733.450;  196.375;    0.000
467.397; 6713.450;  198.375;    0.000
467.534; 6711.450;  219.375;    0.000
467.672; 6742.450;  214.375;    0.000
467.809; 6732.450;  185.375;    0.000
467.947; 6693.450;  247.375;    0.000
468.084; 6613.450;  196.375;    0.000
468.221; 6846.450;  238.375;    0.000
468.359; 6675.450;  236.375;    0.000
468.496; 6722.450;  235.375;    0.000
468.633; 6659.450;  218.375;    0.000
468.771; 6653.450;  223.375;    0.000
468.908; 6685.450;  208.375;    0.000
469.045; 6894.450;  249.375;    0.000
469.183; 6987.450;  222.375;    0.000
469.320; 6932.450;  216.375;    0.000
469.457; 6909.450;  224.375;    0.000
469.594; 6911.450;  259.375;    0.000
469.732; 7093.450;  223.375;    0.000
469.869; 6956.450;  234.375;    0.000
470.006; 7114.450;  225.375;    0.000
470.143; 7181.450;  243.375;    0.000
470.280; 7220.450;  208.375;    0.000
470.417; 7373.450;  232.375;    0.000
470.555; 7192.450;  218.375;    0.000
470.692; 7167.450;  223.375;    0.000
470.829; 7213.450;  238.375;    0.000
470.966; 7206.450;  205.375;    0.000
471.103; 7211.450;  259.375;    0.000
471.240; 7234.450;  214.375;    0.000
471.377; 7074.450;  226.375;    0.000
471.514; 7127.450;  250.375;    0.000
471.651; 7065.450;  221.375;    0.000
471.789; 7110.450;  242.375;    0.000
471.926; 7011.450;  190.375;    0.000
472.063; 7049.450;  234.375;    0.000
472.200; 6990.450;  252.375;    0.000
472.337; 6985.450;  241.375;    0.000
472.474; 6927.450;  244.375;    0.000
472.611; 6876.450;  268.375;    0.000
472.748; 6877.450;  222.375;    0.000
472.884; 7001.450;  271.375;    0.000
473.021; 6805.450;  195.375;    0.000
473.158; 6964.450;  205.375;    0.000
473.295; 6968.450;  223.375;    0.000
473.432; 6879.450;  216.375;    0.000
473.569; 6905.450;  196.375;    0.000
473.706; 6871.450;  190.375;    0.000
473.843; 6924.450;  211.375;    0.000
473.980; 6822.450;  254.375;    0.000
474.117; 6840.450;  185.375;    0.000
474.253; 7051.450;  229.375;    0.000
474.390; 6816.450;  238.375;    0.000
474.527; 6824.450;  220.375;    0.000
474.664; 7003.450;  242.375;    0.000
474.801; 6956.450;  229.375;    0.000
474.937; 6848.450;  229.375;    0.000
475.074; 6984.450;  210.375;    0.000
475.211; 6884.450;  219.375;    0.000
475.348; 6986.450;  226.375;    0.000
475.484; 7146.450;  207.375;    0.000
475.621; 6954.450;  233.375;    0.000
475.758; 6956.450;  230.375;    0.000
475.894; 7118.450;  234.375;    0.000
476.031; 6949.450;  202.375;    0.000
476.168; 7009.450;  222.375;    0.000
476.304; 6921.450;  237.375;    0.000
476.441; 7086.450;  238.375;    0.000
476.578; 7117.450;  216.375;    0.000
476.714; 7047.450;  212.375;    0.000
476.851; 7143.450;  210.375;    0.000
476.987; 7175.450;  239.375;    0.000
477.124; 7315.450;  250.375;    0.000
477.261; 7259.450;  227.375;    0.000
477.397; 7194.450;  189.375;    0.000
477.534; 7452.450;  204.375;    0.000
477.670; 7328.450;  190.375;    0.000
477.807; 7456.450;  198.375;    0.000
477.943; 7440.450;  216.375;    0.000
478.080; 7483.450;  213.375;    0.000
478.216; 7572.450;  239.375;    0.000
478.353; 7638.450;  218.375;    0.000
478.489; 7538.450;  184.375;    0.000
478.626; 7662.450;  223.375;    0.000
478.762; 7650.450;  213.375;    0.000
478.898; 7624.450;  216.375;    0.000
479.035; 7711.450;  250.375;    0.000
479.171; 7625.450;  201.375;    0.000
479.308; 7631.450;  242.375;    0.000
479.444; 7691.450;  205.375;    0.000
479.580; 7680.450;  203.375;    0.000
479.717; 7806.450;  260.375;    0.000
479.853; 7689.450;  225.375;    0.000
479.989; 7878.450;  226.375;    0.000
480.126; 7828.450;  211.375;    0.000
480.262; 7968.450;  220.375;    0.000
480.398; 7989.450;  207.375;    0.000
480.535; 7859.450;  179.375;    0.000
480.671; 7991.450;  200.375;    0.000
480.807; 7794.450;  190.375;    0.000
480.943; 7880.450;  165.375;    0.000
481.080; 7851.450;  210.375;    0.000
481.216; 7640.450;  232.375;    0.000
481.352; 7694.450;  235.375;    0.000
481.488; 7773.450;  208.375;    0.000
481.624; 7734.450;  245.375;    0.000
481.760; 7784.450;  210.375;    0.000
481.897; 7698.450;  189.375;    0.000
482.033; 7797.450;  256.375;    0.000
482.169; 7699.450;  257.375;    0.000
482.305; 7727.450;  199.375;    0.000
482.441; 7640.450;  182.375;    0.000
482.577; 7641.450;  223.375;    0.000
482.713; 7837.450;  243.375;    0.000
482.849; 7654.450;  197.375;    0.000
482.985; 7718.450;  240.375;    0.000
483.121; 7742.450;  210.375;    0.000
483.258; 7753.450;  248.375;    0.000
483.394; 7659.450;  224.375;    0.000
483.530; 7635.450;  209.375;    0.000
483.665; 7639.450;  225.375;    0.000
483.801; 7631.450;  216.375;    0.000
483.937; 7599.450;  211.375;    0.000
484.073; 7684.450;  259.375;    0.000
484.209; 7782.450;  191.375;    0.000
484.345; 7826.450;  239.375;    0.000
484.481; 7986.450;  231.375;    0.000
484.617; 7758.450;  216.375;    0.000
484.753; 7750.450;  180.375;    0.000
484.889; 7883.450;  252.375;    0.000
485.025; 7779.450;  244.375;    0.000
485.161; 7723.450;  242.375;    0.000
485.296; 7905.450;  235.375;    0.000
485.432; 7941.450;  247.375;    0.000
485.568; 7786.450;  203.375;    0.000
485.704; 7858.450;  229.375;    0.000
485.840; 7974.450;  230.375;    0.000
485.975; 7939.450;  266.375;    0.000
486.111; 7787.450;  220.375;    0.000
486.247; 8103.450;  264.375;    0.000
486.383; 7885.450;  213.375;    0.000
486.518; 7961.450;  222.375;    0.000
486.654; 7970.450;  244.375;    0.000
486.790; 7948.450;  273.375;    0.000
486.926; 7868.450;  203.375;    0.000
487.061; 7891.450;  227.375;    0.000
487.197; 7773.450;  210.375;    0.000
487.333; 7981.450;  209.375;    0.000
487.468; 7770.450;  197.375;    0.000
487.604; 7808.450;  230.375;    0.000
487.740; 7860.450;  254.375;    0.000
487.875; 7841.450;  286.375;    0.000
488.011; 7989.450;  225.375;    0.000
488.146; 7841.450;  251.375;    0.000
488.282; 7946.450;  242.375;    0.000
488.417; 7934.450;  230.375;    0.000
488.553; 8025.450;  260.375;    0.000
488.688; 7879.450;  207.375;    0.000
488.824; 7935.450;  204.375;    0.000
488.960; 7901.450;  248.375;    0.000
489.095; 8121.450;  204.375;    0.000
489.230; 8093.450;  227.375;    0.000
489.366; 8038.450;  226.375;    0.000
489.501; 7878.450;  199.375;    0.000
489.637; 8109.450;  233.375;    0.000
489.772; 7913.450;  249.375;    0.000
489.908; 7909.450;  200.375;    0.000
490.043; 8193.450;  246.375;    0.000
490.178; 8153.450;  222.375;    0.000
490.314; 8093.450;  219.375;    0.000
490.449; 8025.450;  227.375;    0.000
490.585; 8053.450;  209.375;    0.000
490.720; 7977.450;  238.375;    0.000
490.855; 8035.450;  222.375;    0.000
490.991; 8029.450;  202.375;    0.000
491.126; 8049.450;  272.375;    0.000
491.261; 8055.450;  261.375;    0.000
491.396; 7999.450;  190.375;    0.000
491.532; 8100.450;  202.375;    0.000
491.667; 8189.450;  208.375;    0.000
491.802; 8105.450;  203.375;    0.000
491.937; 8148.450;  253.375;    0.000
492.073; 8026.450;  242.375;    0.000
492.208; 8226.450;  230.375;    0.000
492.343; 8247.450;  183.375;    0.000
492.478; 8171.450;  246.375;    0.000
492.613; 8172.450;  223.375;    0.000
492.749; 8211.450;  230.375;    0.000
492.884; 7983.450;  190.375;    0.000
493.019; 8112.450;  234.375;    0.000
493.154; 8184.450;  218.375;    0.000
493.289; 8160.450;  222.375;    0.000
493.424; 8280.450;  196.375;    0.000
493.559; 8164.450;  202.375;    0.000
493.694; 8044.450;  180.375;    0.000
493.829; 8202.450;  224.375;    0.000
493.964; 8168.450;  218.375;    0.000
494.099; 8208.450;  275.375;    0.000
494.234; 8208.450;  226.375;    0.000
494.369; 8398.450;  225.375;    0.000
494.504; 8057.450;  219.375;    0.000
494.639; 8134.450;  296.375;    0.000
494.774; 8126.450;  228.375;    0.000
494.909; 8012.450;  222.375;    0.000
495.044; 8175.450;  215.375;    0.000
495.179; 8151.450;  200.375;    0.000
495.314; 8143.450;  235.375;    0.000
495.449; 8081.450;  249.375;    0.000
495.584; 7998.450;  228.375;    0.000
495.719; 8280.450;  212.375;    0.000
495.854; 8224.450;  201.375;    0.000
495.988; 8148.450;  248.375;    0.000
496.123; 8107.450;  209.375;    0.000
496.258; 8339.450;  249.375;    0.000
496.393; 8216.450;  223.375;    0.000
496.528; 8376.450;  209.375;    0.000
496.663; 8324.450;  207.375;    0.000
496.797; 8510.450;  229.375;    0.000
496.932; 8532.450;  225.375;    0.000
497.067; 8712.450;  218.375;    0.000
497.202; 8702.450;  163.375;    0.000
497.336; 8758.450;  246.375;    0.000
497.471; 8953.450;  229.375;    0.000
497.606; 9042.450;  251.375;    0.000
497.740; 9096.450;  220.375;    0.000
497.875; 9293.450;  216.375;    0.000
498.010; 9505.450;  226.375;    0.000
498.144; 9673.450;  237.375;    0.000
498.279; 9787.450;  196.375;    0.000
498.414;10038.450;  219.375;    0.000
498.548;10041.450;  205.375;    0.000
498.683;10163.450;  206.375;    0.000
498.817;10085.450;  225.375;    0.000
498.952;10398.450;  221.375;    0.000
499.087;10583.450;  220.375;    0.000
499.221;10659.450;  233.375;    0.000
499.356;10808.450;  230.375;    0.000
499.490;11107.450;  229.375;    0.000
499.625;11411.450;  231.375;    0.000
499.759;11570.450;  243.375;    0.000
499.894;12000.450;  241.375;    0.000
500.028;12352.450;  264.375;    0.000
500.162;12612.450;  287.375;    0.000
500.297;12614.450;  234.375;    0.000
500.431;12841.450;  230.375;    0.000
500.566;12704.450;  213.375;    0.000
500.700;12594.450;  243.375;    0.000
500.835;12396.450;  272.375;    0.000
500.969;12071.450;  188.375;    0.000
501.103;12025.450;  200.375;    0.000
501.238;11534.450;  257.375;    0.000
501.372;11231.450;  224.375;    0.000
501.506;10952.450;  225.375;    0.000
501.641;10608.450;  271.375;    0.000
501.775;10259.450;  199.375;    0.000
501.909; 9887.450;  249.375;    0.000
502.043; 9900.450;  211.375;    0.000
502.178; 9858.450;  269.375;    0.000
502.312; 9510.450;  198.375;    0.000
502.446; 9592.450;  256.375;    0.000
502.580; 9188.450;  195.375;    0.000
502.715; 9218.450;  224.375;    0.000
502.849; 8979.450;  245.375;    0.000
502.983; 9015.450;  250.375;    0.000
503.117; 8802.450;  193.375;    0.000
503.251; 8770.450;  242.375;    0.000
503.385; 8641.450;  227.375;    0.000
503.520; 8584.450;  235.375;    0.000
503.654; 8336.450;  220.375;    0.000
503.788; 8377.450;  267.375;    0.000
503.922; 8119.450;  220.375;    0.000
504.056; 8259.450;  238.375;    0.000
504.190; 8086.450;  212.375;    0.000
504.324; 8128.450;  265.375;    0.000
504.458; 8077.450;  228.375;    0.000
504.592; 7918.450;  231.375;    0.000
504.726; 7932.450;  218.375;    0.000
504.860; 7787.450;  253.375;    0.000
504.994; 7600.450;  217.375;    0.000
505.128; 7701.450;  243.375;    0.000
505.262; 7581.450;  194.375;    0.000
505.396; 7292.450;  210.375;    0.000
505.530; 7262.450;  211.375;    0.000
505.664; 7232.450;  219.375;    0.000
505.798; 7151.450;  240.375;    0.000
505.932; 7111.450;  240.375;    0.000
506.066; 7076.450;  252.375;    0.000
506.199; 7025.450;  242.375;    0.000
506.333; 6998.450;  244.375;    0.000
506.467; 6818.450;  223.375;    0.000
506.601; 6806.450;  183.375;    0.000
506.735; 6636.450;  249.375;    0.000
506.869; 6895.450;  270.375;    0.000
507.002; 6739.450;  207.375;    0.000
507.136; 6795.450;  242.375;    0.000
507.270; 6747.450;  232.375;    0.000
507.404; 6670.450;  195.375;    0.000
507.537; 6532.450;  218.375;    0.000
507.671; 6480.450;  246.375;    0.000
507.805; 6498.450;  244.375;    0.000
507.939; 6594.450;  251.375;    0.000
508.072; 6497.450;  212.375;    0.000
508.206; 6386.450;  198.375;    0.000
508.340; 6496.450;  234.375;    0.000
508.473; 6367.450;  217.375;    0.000
508.607; 6381.450;  224.375;    0.000
508.740; 6311.450;  207.375;    0.000
508.874; 6385.450;  230.375;    0.000
509.008; 6288.450;  246.375;    0.000
509.141; 6314.450;  239.375;    0.000
509.275; 6393.450;  229.375;    0.000
509.408; 6386.450;  234.375;    0.000
509.542; 6311.450;  212.375;    0.000
509.675; 6330.450;  256.375;    0.000
509.809; 6161.450;  232.375;    0.000
509.942; 6205.450;  237.375;    0.000
510.076; 6127.450;  226.375;    0.000
510.209; 6260.450;  251.375;    0.000
510.343; 6141.450;  229.375;    0.000
510.476; 6135.450;  285.375;    0.000
510.610; 6151.450;  211.375;    0.000
510.743; 6152.450;  258.375;    0.000
510.877; 5998.450;  244.375;    0.000
511.010; 6005.450;  235.375;    0.000
511.143; 6128.450;  251.375;    0.000
511.277; 5974.450;  228.375;    0.000
511.410; 6030.450;  216.375;    0.000
511.543; 5899.450;  231.375;    0.000
511.677; 5899.450;  244.375;    0.000
511.810; 5934.450;  186.375;    0.000
511.943; 6057.450;  211.375;    0.000
512.077; 5989.450;  201.375;    0.000
512.210; 5932.450;  194.375;    0.000
512.343; 6134.450;  233.375;    0.000
512.476; 5913.450;  234.375;    0.000
512.610; 6007.450;  224.375;    0.000
512.743; 6007.450;  255.375;    0.000
512.876; 6002.450;  264.375;    0.000
513.009; 6033.450;  283.375;    0.000
513.142; 6037.450;  246.375;    0.000
513.276; 5920.450;  217.375;    0.000
513.409; 5940.450;  222.375;    0.000
513.542; 5979.450;  237.375;    0.000
513.675; 5953.450;  238.375;    0.000
513.808; 5921.450;  220.375;    0.000
513.941; 5962.450;  233.375;    0.000
514.074; 5952.450;  248.375;    0.000
514.207; 5992.450;  233.375;    0.000
514.340; 5975.450;  190.375;    0.000
514.474; 6047.450;  221.375;    0.000
514.607; 6009.450;  213.375;    0.000
514.740; 6080.450;  251.375;    0.000
514.873; 6222.450;  257.375;    0.000
515.006; 6246.450;  268.375;    0.000
515.139; 6134.450;  257.375;    0.000
515.272; 6203.450;  227.375;    0.000
515.404; 6220.450;  238.375;    0.000
515.537; 6459.450;  275.375;    0.000
515.670; 6433.450;  239.375;    0.000
515.803; 6331.450;  223.375;    0.000
515.936; 6258.450;  202.375;    0.000
516.069; 6486.450;  188.375;    0.000
516.202; 6574.450;  240.375;    0.000
516.335; 6673.450;  252.375;    0.000
516.468; 7102.450;  254.375;    0.000
516.600; 8845.450;  254.375;    0.000
516.733;11529.450;  255.375;    0.000
516.866;11465.450;  265.375;    0.000
516.999; 9949.450;  251.375;    0.000
517.132;12669.450;  256.375;    0.000
517.264;18609.449;  202.375;    0.000
517.397;17727.449;  248.375;    0.000
517.530;12585.450;  221.375;    0.000
517.663;10347.450;  244.375;    0.000
517.795; 9453.450;  245.375;    0.000
517.928; 9063.450;  236.375;    0.000
518.061; 9526.450;  219.375;    0.000
518.193;12737.450;  251.375;    0.000
518.326;21306.449;  271.375;    0.000
518.459;22857.449;  207.375;    0.000
518.591;16210.450;  217.375;    0.000
518.724;11991.450;  200.375;    0.000
518.857;10069.450;  204.375;    0.000
518.989; 9239.450;  242.375;    0.000
519.122; 8469.450;  254.375;    0.000
519.254; 7979.450;  239.375;    0.000
519.387; 7572.450;  235.375;    0.000
519.519; 7295.450;  227.375;    0.000
519.652; 7140.450;  178.375;    0.000
519.784; 6983.450;  226.375;    0.000
519.917; 6668.450;  256.375;    0.000
520.049; 6764.450;  234.375;    0.000
520.182; 6480.450;  258.375;    0.000
520.314; 6410.450;  298.375;    0.000
520.447; 6272.450;  204.375;    0.000
520.579; 6326.450;  235.375;    0.000
520.712; 6158.450;  208.375;    0.000
520.844; 6194.450;  272.375;    0.000
520.976; 6021.450;  234.375;    0.000
521.109; 6044.450;  235.375;    0.000
521.241; 5877.450;  250.375;    0.000
521.373; 5831.450;  233.375;    0.000
521.506; 5823.450;  231.375;    0.000
521.638; 5749.450;  258.375;    0.000
521.770; 5736.450;  226.375;    0.000
521.903; 5665.450;  258.375;    0.000
522.035; 5622.450;  263.375;    0.000
522.167; 5710.450;  214.375;    0.000
522.300; 5599.450;  212.375;    0.000
522.432; 5590.450;  220.375;    0.000
522.564; 5467.450;  228.375;    0.000
522.696; 5483.450;  272.375;    0.000
522.828; 5303.450;  222.375;    0.000
522.961; 5476.450;  205.375;    0.000
523.093; 5431.450;  253.375;    0.000
523.225; 5406.450;  239.375;    0.000
523.357; 5432.450;  263.375;    0.000
523.489; 5250.450;  264.375;    0.000
523.621; 5336.450;  259.375;    0.000
523.753; 5290.450;  233.375;    0.000
523.885; 5155.450;  232.375;    0.000
524.018; 5198.450;  214.375;    0.000
524.150; 5231.450;  235.375;    0.000
524.282; 5314.450;  242.375;    0.000
524.414; 5083.450;  261.375;    0.000
524.546; 5224.450;  233.375;    0.000
524.678; 5163.450;  242.375;    0.000
524.810; 5206.450;  216.375;    0.000
524.942; 5035.450;  220.375;    0.000
525.074; 5094.450;  249.375;    0.000
525.206; 5054.450;  227.375;    0.000
525.338; 5044.450;  250.375;    0.000
525.469; 5013.450;  231.375;    0.000
525.601; 5040.450;  245.375;    0.000
525.733; 4993.450;  187.375;    0.000
525.865; 4927.450;  280.375;    0.000
525.997; 5048.450;  216.375;    0.000
526.129; 4937.450;  228.375;    0.000
526.261; 4848.450;  187.375;    0.000
526.393; 4789.450;  228.375;    0.000
526.524; 4874.450;  201.375;    0.000
526.656; 4974.450;  199.375;    0.000
526.788; 4829.450;  233.375;    0.000
526.920; 4794.450;  256.375;    0.000
527.052; 4877.450;  219.375;    0.000
527.183; 4821.450;  227.375;    0.000
527.315; 4773.450;  266.375;    0.000
527.447; 4903.450;  239.375;    0.000
527.578; 4749.450;  213.375;    0.000
527.710; 4809.450;  216.375;    0.000
527.842; 4763.450;  240.375;    0.000
527.973; 4885.450;  286.375;    0.000
528.105; 4824.450;  222.375;    0.000
528.237; 4795.450;  223.375;    0.000
528.368; 4763.450;  211.375;    0.000
528.500; 4798.450;  215.375;    0.000
528.632; 4809.450;  216.375;    0.000
528.763; 4770.450;  234.375;    0.000
528.895; 4696.450;  196.375;    0.000
529.026; 4724.450;  202.375;    0.000
529.158; 4687.450;  226.375;    0.000
529.289; 4845.450;  229.375;    0.000
529.421; 4767.450;  264.375;    0.000
529.552; 4814.450;  265.375;    0.000
529.684; 4776.450;  260.375;    0.000
529.815; 4820.450;  284.375;    0.000
529.947; 4679.450;  237.375;    0.000
530.078; 4808.450;  223.375;    0.000
530.210; 4751.450;  223.375;    0.000
530.341; 4662.450;  209.375;    0.000
530.472; 4716.450;  203.375;    0.000
530.604; 4844.450;  223.375;    0.000
530.735; 4760.450;  218.375;    0.000
530.867; 4800.450;  222.375;    0.000
530.998; 4785.450;  239.375;    0.000
531.129; 4820.450;  250.375;    0.000
531.260; 4742.450;  224.375;    0.000
531.392; 4722.450;  216.375;    0.000
531.523; 4786.450;  234.375;    0.000
531.654; 4833.450;  256.375;    0.000
531.786; 4874.450;  226.375;    0.000
531.917; 4989.450;  239.375;    0.000
532.048; 4977.450;  205.375;    0.000
532.179; 4845.450;  244.375;    0.000
532.311; 4847.450;  235.375;    0.000
532.442; 4793.450;  258.375;    0.000
532.573; 4713.450;  220.375;    0.000
532.704; 4691.450;  213.375;    0.000
532.835; 4773.450;  249.375;    0.000
532.966; 4728.450;  226.375;    0.000
533.097; 4687.450;  246.375;    0.000
533.229; 4637.450;  237.375;    0.000
533.360; 4796.450;  225.375;    0.000
533.491; 4731.450;  241.375;    0.000
533.622; 4718.450;  242.375;    0.000
533.753; 4696.450;  264.375;    0.000
533.884; 4761.450;  245.375;    0.000
534.015; 4736.450;  269.375;    0.000
534.146; 4694.450;  267.375;    0.000
534.277; 4855.450;  282.375;    0.000
534.408; 4834.450;  229.375;    0.000
534.539; 4871.450;  269.375;    0.000
534.670; 4700.450;  231.375;    0.000
534.801; 4687.450;  260.375;    0.000
534.932; 4656.450;  232.375;    0.000
535.063; 4619.450;  227.375;    0.000
535.194; 4706.450;  281.375;    0.000
535.324; 4704.450;  206.375;    0.000
535.455; 4640.450;  257.375;    0.000
535.586; 4700.450;  275.375;    0.000
535.717; 4632.450;  206.375;    0.000
535.848; 4741.450;  271.375;    0.000
535.979; 4552.450;  250.375;    0.000
536.109; 4644.450;  253.375;    0.000
536.240; 4620.450;  234.375;    0.000
536.371; 4700.450;  230.375;    0.000
536.502; 4511.450;  270.375;    0.000
536.632; 4644.450;  228.375;    0.000
536.763; 4642.450;  249.375;    0.000
536.894; 4566.450;  262.375;    0.000
537.025; 4514.450;  258.375;    0.000
537.155; 4574.450;  278.375;    0.000
537.286; 4570.450;  209.375;    0.000
537.417; 4637.450;  255.375;    0.000
537.547; 4483.450;  208.375;    0.000
537.678; 4577.450;  224.375;    0.000
537.808; 4579.450;  224.375;    0.000
537.939; 4583.450;  257.375;    0.000
538.070; 4549.450;  240.375;    0.000
538.200; 4600.450;  259.375;    0.000
538.331; 4523.450;  235.375;    0.000
538.461; 4490.450;  251.375;    0.000
538.592; 4608.450;  245.375;    0.000
538.722; 4525.450;  239.375;    0.000
538.853; 4480.450;  216.375;    0.000
538.983; 4488.450;  226.375;    0.000
539.114; 4529.450;  240.375;    0.000
539.244; 4588.450;  237.375;    0.000
539.375; 4447.450;  198.375;    0.000
539.505; 4560.450;  263.375;    0.000
539.636; 4502.450;  226.375;    0.000
539.766; 4481.450;  229.375;    0.000
539.896; 4598.450;  219.375;    0.000
540.027; 4516.450;  246.375;    0.000
540.157; 4504.450;  218.375;    0.000
540.287; 4531.450;  216.375;    0.000
540.418; 4581.450;  267.375;    0.000
540.548; 4587.450;  260.375;    0.000
540.678; 4562.450;  242.375;    0.000
540.809; 4528.450;  260.375;    0.000
540.939; 4556.450;  257.375;    0.000
541.069; 4499.450;  226.375;    0.000
541.200; 4592.450;  227.375;    0.000
541.330; 4595.450;  218.375;    0.000
541.460; 4624.450;  223.375;    0.000
541.590; 4642.450;  237.375;    0.000
541.720; 4498.450;  222.375;    0.000
541.851; 4600.450;  250.375;    0.000
541.981; 4516.450;  222.375;    0.000
542.111; 4748.450;  212.375;    0.000
542.241; 4691.450;  205.375;    0.000
542.371; 4705.450;  202.375;    0.000
542.501; 4814.450;  218.375;    0.000
542.631; 4714.450;  222.375;    0.000
542.761; 4886.450;  249.375;    0.000
542.891; 4830.450;  173.375;    0.000
543.021; 4821.450;  218.375;    0.000
543.151; 4809.450;  222.375;    0.000
543.281; 4737.450;  188.375;    0.000
543.411; 4675.450;  239.375;    0.000
543.542; 4665.450;  215.375;    0.000
543.671; 4765.450;  250.375;    0.000
543.801; 4707.450;  212.375;    0.000
543.931; 4785.450;  233.375;    0.000
544.061; 4760.450;  194.375;    0.000
544.191; 4755.450;  218.375;    0.000
544.321; 4779.450;  220.375;    0.000
544.451; 4806.450;  183.375;    0.000
544.581; 4693.450;  221.375;    0.000
544.711; 4916.450;  224.375;    0.000
544.841; 4838.450;  214.375;    0.000
544.970; 4854.450;  227.375;    0.000
545.100; 4951.450;  186.375;    0.000
545.230; 4985.450;  205.375;    0.000
545.360; 4966.450;  211.375;    0.000
545.490; 5065.450;  202.375;    0.000
545.619; 4767.450;  182.375;    0.000
545.749; 4760.450;  174.375;    0.000
545.879; 4707.450;  169.375;    0.000
546.009; 4795.450;  182.375;    0.000
546.138; 4775.450;  200.375;    0.000
546.268; 4610.450;  204.375;    0.000
546.398; 4728.450;  200.375;    0.000
546.527; 4664.450;  179.375;    0.000
546.657; 4760.450;  162.375;    0.000
546.786; 4784.450;  179.375;    0.000
546.916; 4765.450;  221.375;    0.000
547.046; 4812.450;  179.375;    0.000
547.175; 4778.450;  168.375;    0.000
547.305; 4754.450;  200.375;    0.000
547.434; 4638.450;  166.375;    0.000
547.564; 4747.450;  177.375;    0.000
547.693; 4624.450;  152.375;    0.000
547.823; 4703.450;  171.375;    0.000
547.953; 4727.450;  195.375;    0.000
548.082; 4775.450;  214.375;    0.000
548.211; 4696.450;  177.375;    0.000
548.341; 4730.450;  189.375;    0.000
548.470; 4630.450;  194.375;    0.000
548.600; 4726.450;  172.375;    0.000
548.729; 4698.450;  158.375;    0.000
548.859; 4692.450;  193.375;    0.000
548.988; 4691.450;  131.375;    0.000
549.117; 4645.450;  204.375;    0.000
549.247; 4715.450;  191.375;    0.000
549.376; 4731.450;  202.375;    0.000
549.505; 4650.450;  187.375;    0.000
549.635; 4780.450;  198.375;    0.000
549.764; 4697.450;  155.375;    0.000
549.893; 4784.450;  176.375;    0.000
550.023; 4870.450;  202.375;    0.000
550.152; 4807.450;  168.375;    0.000
550.281; 4906.450;  180.375;    0.000
550.410; 4901.450;  180.375;    0.000
550.539; 4894.450;  181.375;    0.000
550.669; 4729.450;  168.375;    0.000
550.798; 4876.450;  223.375;    0.000
550.927; 4763.450;  179.375;    0.000
551.056; 4751.450;  159.375;    0.000
551.185; 4825.450;  199.375;    0.000
551.314; 4785.450;  185.375;    0.000
551.443; 4742.450;  172.375;    0.000
551.573; 4708.450;  158.375;    0.000
551.702; 4782.450;  210.375;    0.000
551.831; 4885.450;  238.375;    0.000
551.960; 4871.450;  191.375;    0.000
552.089; 4991.450;  195.375;    0.000
552.218; 4904.450;  196.375;    0.000
552.347; 4895.450;  194.375;    0.000
552.476; 5051.450;  192.375;    0.000
552.605; 5118.450;  172.375;    0.000
552.734; 5250.450;  214.375;    0.000
552.863; 5382.450;  177.375;    0.000
552.992; 5438.450;  190.375;    0.000
553.121; 5398.450;  185.375;    0.000
553.249; 5179.450;  175.375;    0.000
553.378; 5097.450;  192.375;    0.000
553.507; 5063.450;  193.375;    0.000
553.636; 5189.450;  182.375;    0.000
553.765; 4901.450;  187.375;    0.000
553.894; 4978.450;  214.375;    0.000
554.023; 4993.450;  217.375;    0.000
554.151; 4906.450;  223.375;    0.000
554.280; 4845.450;  170.375;    0.000
554.409; 5001.450;  172.375;    0.000
554.538; 4939.450;  182.375;    0.000
554.666; 4827.450;  195.375;    0.000
554.795; 4711.450;  176.375;    0.000
554.924; 4805.450;  164.375;    0.000
555.052; 4749.450;  171.375;    0.000
555.181; 4836.450;  208.375;    0.000
555.310; 4824.450;  214.375;    0.000
555.439; 4806.450;  193.375;    0.000
555.567; 4817.450;  189.375;    0.000
555.696; 4789.450;  196.375;    0.000
555.824; 4728.450;  183.375;    0.000
555.953; 4868.450;  234.375;    0.000
556.082; 4685.450;  183.375;    0.000
556.210; 4755.450;  199.375;    0.000
556.339; 4741.450;  201.375;    0.000
556.467; 4666.450;  208.375;    0.000
556.596; 4716.450;  194.375;    0.000
556.724; 4617.450;  170.375;    0.000
556.853; 4680.450;  166.375;    0.000
556.981; 4699.450;  185.375;    0.000
557.110; 4683.450;  213.375;    0.000
557.238; 4660.450;  188.375;    0.000
557.367; 4545.450;  176.375;    0.000
557.495; 4678.450;  180.375;    0.000
557.623; 4658.450;  193.375;    0.000
557.752; 4686.450;  207.375;    0.000
557.880; 4666.450;  189.375;    0.000
558.008; 4583.450;  169.375;    0.000
558.137; 4637.450;  203.375;    0.000
558.265; 4703.450;  167.375;    0.000
558.393; 4657.450;  204.375;    0.000
558.522; 4537.450;  203.375;    0.000
558.650; 4662.450;  215.375;    0.000
558.778; 4589.450;  190.375;    0.000
558.906; 4728.450;  186.375;    0.000
559.035; 4643.450;  193.375;    0.000
559.163; 4733.450;  198.375;    0.000
559.291; 4667.450;  222.375;    0.000
559.419; 4675.450;  192.375;    0.000
559.548; 4644.450;  186.375;    0.000
559.676; 4734.450;  199.375;    0.000
559.804; 4659.450;  186.375;    0.000
559.932; 4642.450;  202.375;    0.000
560.060; 4820.450;  183.375;    0.000
560.188; 4778.450;  212.375;    0.000
560.316; 4721.450;  192.375;    0.000
560.444; 4690.450;  180.375;    0.000
560.572; 4795.450;  206.375;    0.000
560.700; 4844.450;  184.375;    0.000
560.828; 4865.450;  177.375;    0.000
560.956; 4823.450;  221.375;    0.000
561.085; 4869.450;  227.375;    0.000
561.212; 4866.450;  208.375;    0.000
561.340; 4848.450;  189.375;    0.000
561.468; 4909.450;  189.375;    0.000
561.596; 4784.450;  183.375;    0.000
561.724; 4885.450;  188.375;    0.000
561.852; 4905.450;  183.375;    0.000
561.980; 4964.450;  209.375;    0.000
562.108; 4975.450;  165.375;    0.000
562.236; 5056.450;  188.375;    0.000
562.364; 5037.450;  177.375;    0.000
562.492; 5049.450;  192.375;    0.000
562.619; 5040.450;  187.375;    0.000
562.747; 4978.450;  217.375;    0.000
562.875; 5014.450;  221.375;    0.000
563.003; 5021.450;  199.375;    0.000
563.130; 5099.450;  191.375;    0.000
563.258; 5190.450;  186.375;    0.000
563.386; 5257.450;  191.375;    0.000
563.514; 5233.450;  217.375;    0.000
563.641; 5351.450;  220.375;    0.000
563.769; 5392.450;  186.375;    0.000
563.897; 5437.450;  158.375;    0.000
564.024; 5443.450;  192.375;    0.000
564.152; 5415.450;  217.375;    0.000
564.280; 5512.450;  203.375;    0.000
564.407; 5594.450;  190.375;    0.000
564.535; 5549.450;  188.375;    0.000
564.662; 5564.450;  199.375;    0.000
564.790; 5612.450;  227.375;    0.000
564.917; 5562.450;  160.375;    0.000
565.045; 5753.450;  222.375;    0.000
565.173; 5761.450;  169.375;    0.000
565.300; 5734.450;  208.375;    0.000
565.428; 5796.450;  174.375;    0.000
565.555; 5791.450;  201.375;    0.000
565.682; 5927.450;  180.375;    0.000
565.810; 5973.450;  165.375;    0.000
565.937; 5969.450;  167.375;    0.000
566.065; 6224.450;  190.375;    0.000
566.192; 6316.450;  169.375;    0.000
566.320; 6370.450;  167.375;    0.000
566.447; 6557.450;  151.375;    0.000
566.574; 6669.450;  176.375;    0.000
566.702; 6696.450;  198.375;    0.000
566.829; 6788.450;  209.375;    0.000
566.956; 6707.450;  186.375;    0.000
567.083; 6797.450;  188.375;    0.000
567.211; 6801.450;  159.375;    0.000
567.338; 6934.450;  204.375;    0.000
567.465; 6888.450;  141.375;    0.000
567.593; 7046.450;  168.375;    0.000
567.720; 7071.450;  177.375;    0.000
567.847; 7117.450;  160.375;    0.000
567.974; 7073.450;  139.375;    0.000
568.101; 7204.450;  153.375;    0.000
568.228; 8173.450;  173.375;    0.000
568.356; 8398.450;  149.375;    0.000
568.483; 7889.450;  185.375;    0.000
568.610; 7765.450;  170.375;    0.000
568.737; 8834.450;  223.375;    0.000
568.864;10011.450;  167.375;    0.000
568.991; 9165.450;  177.375;    0.000
569.118; 7915.450;  169.375;    0.000
569.245; 7265.450;  128.375;    0.000
569.372; 6985.450;  160.375;    0.000
569.499; 6654.450;  156.375;    0.000
569.626; 6369.450;  191.375;    0.000
569.753; 6214.450;  163.375;    0.000
569.880; 6281.450;  167.375;    0.000
570.007; 5969.450;  143.375;    0.000
570.134; 5901.450;  191.375;    0.000
570.261; 5761.450;  164.375;    0.000
570.388; 5847.450;  162.375;    0.000
570.515; 5825.450;  220.375;    0.000
570.642; 5757.450;  184.375;    0.000
570.768; 5683.450;  174.375;    0.000
570.895; 5519.450;  177.375;    0.000
571.022; 5544.450;  152.375;    0.000
571.149; 5515.450;  183.375;    0.000
571.276; 5449.450;  153.375;    0.000
571.402; 5524.450;  190.375;    0.000
571.529; 5436.450;  187.375;    0.000
571.656; 5342.450;  167.375;    0.000
571.783; 5256.450;  186.375;    0.000
571.909; 5185.450;  183.375;    0.000
572.036; 5190.450;  162.375;    0.000
572.163; 5240.450;  196.375;    0.000
572.289; 5085.450;  180.375;    0.000
572.416; 5096.450;  190.375;    0.000
572.543; 5135.450;  174.375;    0.000
572.669; 5007.450;  186.375;    0.000
572.796; 5148.450;  205.375;    0.000
572.922; 5183.450;  185.375;    0.000
573.049; 5008.450;  178.375;    0.000
573.176; 5050.450;  196.375;    0.000
573.302; 5000.450;  202.375;    0.000
573.429; 5040.450;  189.375;    0.000
573.555; 4956.450;  145.375;    0.000
573.682; 4986.450;  228.375;    0.000
573.808; 4973.450;  197.375;    0.000
573.935; 4888.450;  216.375;    0.000
574.061; 4954.450;  173.375;    0.000
574.188; 4808.450;  151.375;    0.000
574.314; 4851.450;  181.375;    0.000
574.440; 4971.450;  167.375;    0.000
574.567; 4912.450;  185.375;    0.000
574.693; 4833.450;  173.375;    0.000
574.820; 4896.450;  164.375;    0.000
574.946; 4888.450;  199.375;    0.000
575.072; 4796.450;  162.375;    0.000
575.198; 4998.450;  225.375;    0.000
575.325; 4911.450;  171.375;    0.000
575.451; 4770.450;  183.375;    0.000
575.577; 4860.450;  190.375;    0.000
575.704; 4928.450;  210.375;    0.000
575.830; 4919.450;  185.375;    0.000
575.956; 4918.450;  168.375;    0.000
576.082; 4847.450;  158.375;    0.000
576.208; 4728.450;  158.375;    0.000
576.335; 4766.450;  196.375;    0.000
576.461; 4794.450;  187.375;    0.000
576.587; 4821.450;  157.375;    0.000
576.713; 4836.450;  156.375;    0.000
576.839; 4812.450;  196.375;    0.000
576.965; 4781.450;  187.375;    0.000
577.091; 4679.450;  204.375;    0.000
577.217; 4857.450;  207.375;    0.000
577.343; 4880.450;  175.375;    0.000
577.469; 4750.450;  197.375;    0.000
577.596; 4827.450;  182.375;    0.000
577.722; 4776.450;  159.375;    0.000
577.848; 4709.450;  162.375;    0.000
577.974; 4826.450;  180.375;    0.000
578.099; 4723.450;  161.375;    0.000
578.225; 4730.450;  180.375;    0.000
578.351; 4758.450;  190.375;    0.000
578.477; 4767.450;  212.375;    0.000
578.603; 4893.450;  179.375;    0.000
578.729; 4802.450;  195.375;    0.000
578.855; 4803.450;  153.375;    0.000
578.981; 4723.450;  162.375;    0.000
579.107; 4740.450;  149.375;    0.000
579.232; 4913.450;  164.375;    0.000
579.358; 4821.450;  162.375;    0.000
579.484; 4890.450;  181.375;    0.000
579.610; 4854.450;  190.375;    0.000
579.735; 4872.450;  191.375;    0.000
579.861; 4795.450;  189.375;    0.000
579.987; 4737.450;  202.375;    0.000
580.113; 4837.450;  197.375;    0.000
580.238; 4909.450;  228.375;    0.000
580.364; 4922.450;  212.375;    0.000
580.490; 4944.450;  225.375;    0.000
580.615; 4967.450;  218.375;    0.000
580.741; 4881.450;  167.375;    0.000
580.867; 4831.450;  215.375;    0.000
580.992; 5007.450;  191.375;    0.000
581.118; 4876.450;  171.375;    0.000
581.243; 5076.450;  204.375;    0.000
581.369; 5027.450;  186.375;    0.000
581.494; 4980.450;  184.375;    0.000
581.620; 5016.450;  212.375;    0.000
581.745; 5082.450;  192.375;    0.000
581.871; 5102.450;  195.375;    0.000
581.996; 5066.450;  160.375;    0.000
582.122; 5090.450;  217.375;    0.000
582.247; 5158.450;  213.375;    0.000
582.373; 5187.450;  187.375;    0.000
582.498; 5269.450;  208.375;    0.000
582.624; 5129.450;  189.375;    0.000
582.749; 5251.450;  185.375;    0.000
582.874; 5245.450;  195.375;    0.000
583.000; 5218.450;  208.375;    0.000
583.125; 5315.450;  147.375;    0.000
583.250; 5297.450;  201.375;    0.000
583.376; 5362.450;  191.375;    0.000
583.501; 5355.450;  206.375;    0.000
583.626; 5367.450;  167.375;    0.000
583.751; 5612.450;  180.375;    0.000
583.877; 5437.450;  185.375;    0.000
584.002; 5647.450;  186.375;    0.000
584.127; 5616.450;  176.375;    0.000
584.252; 5592.450;  214.375;    0.000
584.377; 5628.450;  225.375;    0.000
584.503; 5781.450;  195.375;    0.000
584.628; 5722.450;  206.375;    0.000
584.753; 5842.450;  181.375;    0.000
584.878; 5816.450;  136.375;    0.000
585.003; 6024.450;  215.375;    0.000
585.128; 6157.450;  206.375;    0.000
585.253; 6243.450;  200.375;    0.000
585.378; 6323.450;  169.375;    0.000
585.503; 6360.450;  191.375;    0.000
585.628; 6396.450;  182.375;    0.000
585.753; 6575.450;  164.375;    0.000
585.878; 6632.450;  123.375;    0.000
586.003; 6804.450;  187.375;    0.000
586.128; 7052.450;  198.375;    0.000
586.253; 7220.450;  172.375;    0.000
586.378; 7378.450;  191.375;    0.000
586.503; 7474.450;  190.375;    0.000
586.628; 7726.450;  178.375;    0.000
586.753; 7952.450;  184.375;    0.000
586.878; 8152.450;  169.375;    0.000
587.003; 8517.450;  186.375;    0.000
587.127; 8931.450;  170.375;    0.000
587.252; 9221.450;  170.375;    0.000
587.377; 9602.450;  181.375;    0.000
587.502;10434.450;  209.375;    0.000
587.627;10969.450;  210.375;    0.000
587.751;11878.450;  212.375;    0.000
587.876;12735.450;  198.375;    0.000
588.001;13707.450;  161.375;    0.000
588.125;15255.450;  191.375;    0.000
588.250;17225.449;  132.375;    0.000
588.375;20327.449;  183.375;    0.000
588.499;24060.449;  176.375;    0.000
588.624;29564.449;  173.375;    0.000
588.749;38384.449;  204.375;    0.000
588.873;48423.449;  179.375;    0.000
588.998;55512.449;  182.375;    0.000
589.122;55678.449;  165.375;    0.000
589.247;50158.449;  185.375;    0.000
589.372;46210.449;  199.375;    0.000
589.496;49502.449;  182.375;    0.000
589.621;52930.449;  158.375;    0.000
589.745;48791.449;  213.375;    0.000
589.870;38935.449;  175.375;    0.000
589.994;30513.449;  194.375;    0.000
590.118;25263.449;  218.375;    0.000
590.243;21309.449;  170.375;    0.000
590.367;18592.449;  189.375;    0.000
590.492;16668.449;  196.375;    0.000
590.616;15233.450;  182.375;    0.000
590.740;14026.450;  210.375;    0.000
590.865;12965.450;  242.375;    0.000
590.989;12158.450;  191.375;    0.000
591.114;11512.450;  167.375;    0.000
591.238;11015.450;  194.375;    0.000
591.362;10481.450;  236.375;    0.000
591.486; 9855.450;  194.375;    0.000
591.611; 9535.450;  154.375;    0.000
591.735; 9256.450;  186.375;    0.000
591.859; 8858.450;  148.375;    0.000
591.983; 8729.450;  211.375;    0.000
592.107; 8446.450;  204.375;    0.000
592.232; 8180.450;  194.375;    0.000
592.356; 8092.450;  238.375;    0.000
592.480; 7957.450;  179.375;    0.000
592.604; 7777.450;  192.375;    0.000
592.728; 7727.450;  201.375;    0.000
592.852; 7472.450;  158.375;    0.000
592.976; 7354.450;  152.375;    0.000
593.100; 7313.450;  194.375;    0.000
593.224; 7007.450;  235.375;    0.000
593.349; 6972.450;  233.375;    0.000
593.473; 6954.450;  194.375;    0.000
593.597; 6829.450;  215.375;    0.000
593.721; 6883.450;  212.375;    0.000
593.844; 6570.450;  220.375;    0.000
593.968; 6666.450;  221.375;    0.000
594.092; 6503.450;  150.375;    0.000
594.216; 6531.450;  212.375;    0.000
594.340; 6356.450;  209.375;    0.000
594.464; 6409.450;  207.375;    0.000
594.588; 6233.450;  195.375;    0.000
594.712; 6118.450;  176.375;    0.000
594.836; 5926.450;  219.375;    0.000
594.959; 5926.450;  215.375;    0.000
595.083; 5869.450;  200.375;    0.000
595.207; 5863.450;  206.375;    0.000
595.331; 5793.450;  207.375;    0.000
595.455; 5643.450;  206.375;    0.000
595.578; 5593.450;  204.375;    0.000
595.702; 5615.450;  225.375;    0.000
595.826; 5618.450;  186.375;    0.000
595.949; 5427.450;  196.375;    0.000
596.073; 5362.450;  188.375;    0.000
596.197; 5367.450;  217.375;    0.000
596.320; 5414.450;  225.375;    0.000
596.444; 5295.450;  220.375;    0.000
596.568; 5272.450;  155.375;    0.000
596.691; 5127.450;  195.375;    0.000
596.815; 5112.450;  163.375;    0.000
596.938; 5213.450;  181.375;    0.000
597.062; 5098.450;  201.375;    0.000
597.186; 5142.450;  200.375;    0.000
597.309; 5158.450;  214.375;    0.000
597.433; 5054.450;  176.375;    0.000
597.556; 5059.450;  193.375;    0.000
597.680; 5051.450;  241.375;    0.000
597.803; 4919.450;  185.375;    0.000
597.926; 4821.450;  200.375;    0.000
598.050; 4819.450;  193.375;    0.000
598.173; 4850.450;  219.375;    0.000
598.297; 4862.450;  223.375;    0.000
598.420; 4818.450;  187.375;    0.000
598.543; 4733.450;  205.375;    0.000
598.667; 4770.450;  177.375;    0.000
598.790; 4705.450;  208.375;    0.000
598.913; 4769.450;  170.375;    0.000
599.037; 4769.450;  212.375;    0.000
599.160; 4669.450;  165.375;    0.000
599.283; 4715.450;  211.375;    0.000
599.406; 4521.450;  207.375;    0.000
599.530; 4807.450;  182.375;    0.000
599.653; 4617.450;  215.375;    0.000
599.776; 4605.450;  167.375;    0.000
599.899; 4602.450;  190.375;    0.000
600.022; 4515.450;  182.375;    0.000
600.145; 4592.450;  180.375;    0.000
600.269; 4573.450;  208.375;    0.000
600.392; 4569.450;  214.375;    0.000
600.515; 4429.450;  196.375;    0.000
600.638; 4494.450;  204.375;    0.000
600.761; 4532.450;  209.375;    0.000
600.884; 4457.450;  207.375;    0.000
601.007; 4443.450;  234.375;    0.000
601.130; 4429.450;  183.375;    0.000
601.253; 4511.450;  211.375;    0.000
601.376; 4556.450;  199.375;    0.000
601.499; 4375.450;  190.375;    0.000
601.622; 4380.450;  210.375;    0.000
601.745; 4435.450;  180.375;    0.000
601.868; 4476.450;  204.375;    0.000
601.991; 4522.450;  188.375;    0.000
602.113; 4424.450;  210.375;    0.000
602.236; 4406.450;  194.375;    0.000
602.359; 4322.450;  213.375;    0.000
602.482; 4428.450;  169.375;    0.000
602.605; 4309.450;  189.375;    0.000
602.728; 4290.450;  236.375;    0.000
602.850; 4413.450;  230.375;    0.000
602.973; 4419.450;  187.375;    0.000
603.096; 4242.450;  201.375;    0.000
603.219; 4457.450;  209.375;    0.000
603.341; 4339.450;  209.375;    0.000
603.464; 4405.450;  194.375;    0.000
603.587; 4312.450;  166.375;    0.000
603.709; 4337.450;  175.375;    0.000
603.832; 4357.450;  239.375;    0.000
603.955; 4270.450;  205.375;    0.000
604.077; 4191.450;  196.375;    0.000
604.200; 4214.450;  188.375;    0.000
604.323; 4203.450;  224.375;    0.000
604.445; 4099.450;  182.375;    0.000
604.568; 4235.450;  199.375;    0.000
604.690; 4146.450;  175.375;    0.000
604.813; 4263.450;  211.375;    0.000
604.935; 4170.450;  171.375;    0.000
605.058; 4176.450;  196.375;    0.000
605.180; 4156.450;  194.375;    0.000
605.303; 4263.450;  198.375;    0.000
605.425; 4200.450;  212.375;    0.000
605.547; 4233.450;  238.375;    0.000
605.670; 4214.450;  207.375;    0.000
605.792; 4132.450;  204.375;    0.000
605.915; 4064.450;  198.375;    0.000
606.037; 4252.450;  215.375;    0.000
606.159; 4151.450;  170.375;    0.000
606.282; 4089.450;  194.375;    0.000
606.404; 4118.450;  207.375;    0.000
606.526; 4176.450;  208.375;    0.000
606.648; 4094.450;  174.375;    0.000
606.771; 4150.450;  170.375;    0.000
606.893; 4119.450;  182.375;    0.000
607.015; 4185.450;  180.375;    0.000
607.137; 4096.450;  187.375;    0.000
607.260; 4165.450;  202.375;    0.000
607.382; 4137.450;  226.375;    0.000
607.504; 4116.450;  208.375;    0.000
607.626; 4233.450;  229.375;    0.000
607.748; 4190.450;  170.375;    0.000
607.870; 3999.450;  208.375;    0.000
607.992; 4041.450;  184.375;    0.000
608.114; 4148.450;  213.375;    0.000
608.237; 4053.450;  237.375;    0.000
608.359; 3941.450;  176.375;    0.000
608.481; 4024.450;  173.375;    0.000
608.603; 3945.450;  189.375;    0.000
608.725; 4094.450;  185.375;    0.000
608.847; 4163.450;  239.375;    0.000
608.969; 4133.450;  237.375;    0.000
609.090; 4090.450;  189.375;    0.000
609.212; 4107.450;  147.375;    0.000
609.334; 4095.450;  177.375;    0.000
609.456; 4120.450;  196.375;    0.000
609.578; 4043.450;  199.375;    0.000
609.700; 4055.450;  167.375;    0.000
609.822; 3926.450;  140.375;    0.000
609.944; 4038.450;  225.375;    0.000
610.065; 3968.450;  183.375;    0.000
610.187; 4052.450;  170.375;    0.000
610.309; 3964.450;  210.375;    0.000
610.431; 3959.450;  185.375;    0.000
610.552; 4003.450;  197.375;    0.000
610.674; 4048.450;  188.375;    0.000
610.796; 4110.450;  162.375;    0.000
610.918; 4022.450;  200.375;    0.000
611.039; 3980.450;  209.375;    0.000
611.161; 4012.450;  201.375;    0.000
611.282; 3956.450;  197.375;    0.000
611.404; 4035.450;  220.375;    0.000
611.526; 4035.450;  159.375;    0.000
611.647; 4056.450;  205.375;    0.000
611.769; 3972.450;  161.375;    0.000
611.890; 3964.450;  173.375;    0.000
612.012; 3938.450;  225.375;    0.000
612.133; 3874.450;  188.375;    0.000
612.255; 3992.450;  217.375;    0.000
612.377; 3992.450;  219.375;    0.000
612.498; 3918.450;  177.375;    0.000
612.619; 3933.450;  211.375;    0.000
612.741; 3987.450;  185.375;    0.000
612.862; 3950.450;  191.375;    0.000
612.984; 3918.450;  190.375;    0.000
613.105; 3971.450;  211.375;    0.000
613.226; 3871.450;  174.375;    0.000
613.348; 3996.450;  235.375;    0.000
613.469; 4001.450;  230.375;    0.000
613.590; 3865.450;  208.375;    0.000
613.712; 3928.450;  244.375;    0.000
613.833; 3946.450;  202.375;    0.000
613.954; 3970.450;  228.375;    0.000
614.076; 3947.450;  220.375;    0.000
614.197; 3971.450;  191.375;    0.000
614.318; 3976.450;  201.375;    0.000
614.439; 4019.450;  212.375;    0.000
614.560; 3927.450;  219.375;    0.000
614.682; 3982.450;  189.375;    0.000
614.803; 3970.450;  188.375;    0.000
614.924; 3924.450;  225.375;    0.000
615.045; 3950.450;  227.375;    0.000
615.166; 3988.450;  200.375;    0.000
615.287; 4157.450;  195.375;    0.000
615.408; 4475.450;  199.375;    0.000
615.529; 4556.450;  227.375;    0.000
615.650; 4195.450;  176.375;    0.000
615.771; 4152.450;  211.375;    0.000
615.892; 4261.450;  212.375;    0.000
616.013; 4970.450;  172.375;    0.000
616.134; 5326.450;  220.375;    0.000
616.255; 4918.450;  251.375;    0.000
616.376; 4436.450;  186.375;    0.000
616.497; 4239.450;  201.375;    0.000
616.618; 4143.450;  149.375;    0.000
616.739; 4083.450;  213.375;    0.000
616.860; 4077.450;  224.375;    0.000
616.981; 4002.450;  224.375;    0.000
617.102; 3960.450;  217.375;    0.000
617.222; 4012.450;  237.375;    0.000
617.343; 3938.450;  205.375;    0.000
617.464; 3973.450;  229.375;    0.000
617.585; 3919.450;  227.375;    0.000
617.705; 4012.450;  191.375;    0.000
617.826; 3906.450;  237.375;    0.000
617.947; 3969.450;  223.375;    0.000
618.068; 3837.450;  189.375;    0.000
618.188; 4004.450;  194.375;    0.000
618.309; 3978.450;  206.375;    0.000
618.430; 3999.450;  229.375;    0.000
618.550; 3781.450;  250.375;    0.000
618.671; 3829.450;  201.375;    0.000
618.791; 3890.450;  226.375;    0.000
618.912; 3899.450;  246.375;    0.000
619.033; 3826.450;  243.375;    0.000
619.153; 3945.450;  208.375;    0.000
619.274; 3933.450;  223.375;    0.000
619.394; 3819.450;  226.375;    0.000
619.515; 3754.450;  188.375;    0.000
619.635; 3853.450;  216.375;    0.000
619.756; 3907.450;  229.375;    0.000
619.876; 3825.450;  216.375;    0.000
619.996; 3808.450;  244.375;    0.000
620.117; 3829.450;  225.375;    0.000
620.237; 3851.450;  207.375;    0.000
620.358; 3846.450;  239.375;    0.000
620.478; 3791.450;  237.375;    0.000
620.598; 3886.450;  237.375;    0.000
620.719; 3905.450;  223.375;    0.000
620.839; 3786.450;  254.375;    0.000
620.959; 3807.450;  244.375;    0.000
621.079; 3814.450;  193.375;    0.000
621.200; 3653.450;  233.375;    0.000
621.320; 3783.450;  270.375;    0.000
621.440; 3773.450;  206.375;    0.000
621.560; 3846.450;  241.375;    0.000
621.681; 3651.450;  231.375;    0.000
621.801; 3803.450;  235.375;    0.000
621.921; 3782.450;  240.375;    0.000
622.041; 3725.450;  244.375;    0.000
622.161; 3743.450;  225.375;    0.000
622.281; 3740.450;  222.375;    0.000
622.401; 3688.450;  238.375;    0.000
622.521; 3811.450;  233.375;    0.000
622.641; 3665.450;  241.375;    0.000
622.761; 3782.450;  233.375;    0.000
622.882; 3666.450;  230.375;    0.000
623.002; 3802.450;  206.375;    0.000
623.121; 3658.450;  217.375;    0.000
623.241; 3709.450;  263.375;    0.000
623.361; 3671.450;  245.375;    0.000
623.481; 3609.450;  194.375;    0.000
623.601; 3817.450;  228.375;    0.000
623.721; 3747.450;  219.375;    0.000
623.841; 3623.450;  234.375;    0.000
623.961; 3772.450;  235.375;    0.000
624.081; 3579.450;  166.375;    0.000
624.201; 3735.450;  229.375;    0.000
624.320; 3672.450;  224.375;    0.000
624.440; 3678.450;  200.375;    0.000
624.560; 3640.450;  220.375;    0.000
624.680; 3610.450;  214.375;    0.000
624.799; 3612.450;  179.375;    0.000
624.919; 3798.450;  199.375;    0.000
625.039; 3621.450;  211.375;    0.000
625.159; 3540.450;  213.375;    0.000
625.278; 3641.450;  178.375;    0.000
625.398; 3622.450;  206.375;    0.000
625.518; 3709.450;  182.375;    0.000
625.637; 3627.450;  206.375;    0.000
625.757; 3592.450;  197.375;    0.000
625.876; 3547.450;  204.375;    0.000
625.996; 3585.450;  222.375;    0.000
626.115; 3615.450;  222.375;    0.000
626.235; 3604.450;  222.375;    0.000
626.354; 3620.450;  211.375;    0.000
626.474; 3618.450;  217.375;    0.000
626.594; 3557.450;  190.375;    0.000
626.713; 3524.450;  200.375;    0.000
626.832; 3692.450;  234.375;    0.000
626.952; 3552.450;  214.375;    0.000
627.071; 3617.450;  243.375;    0.000
627.191; 3615.450;  192.375;    0.000
627.310; 3594.450;  211.375;    0.000
627.429; 3514.450;  218.375;    0.000
627.549; 3482.450;  214.375;    0.000
627.668; 3503.450;  208.375;    0.000
627.787; 3556.450;  199.375;    0.000
627.907; 3567.450;  208.375;    0.000
628.026; 3623.450;  216.375;    0.000
628.145; 3637.450;  170.375;    0.000
628.264; 3510.450;  217.375;    0.000
628.384; 3598.450;  190.375;    0.000
628.503; 3554.450;  203.375;    0.000
628.622; 3606.450;  197.375;    0.000
628.741; 3539.450;  186.375;    0.000
628.860; 3583.450;  191.375;    0.000
628.980; 3565.450;  196.375;    0.000
629.099; 3585.450;  190.375;    0.000
629.218; 3565.450;  165.375;    0.000
629.337; 3640.450;  190.375;    0.000
629.456; 3614.450;  222.375;    0.000
629.575; 3525.450;  197.375;    0.000
629.694; 3481.450;  210.375;    0.000
629.813; 3495.450;  187.375;    0.000
629.932; 3518.450;  224.375;    0.000
630.051; 3491.450;  216.375;    0.000
630.170; 3529.450;  203.375;    0.000
630.289; 3445.450;  178.375;    0.000
630.408; 3502.450;  192.375;    0.000
630.527; 3633.450;  223.375;    0.000
630.646; 3504.450;  177.375;    0.000
630.764; 3497.450;  224.375;    0.000
630.883; 3469.450;  220.375;    0.000
631.002; 3493.450;  187.375;    0.000
631.121; 3491.450;  208.375;    0.000
631.240; 3508.450;  217.375;    0.000
631.359; 3561.450;  241.375;    0.000
631.477; 3493.450;  189.375;    0.000
631.596; 3499.450;  244.375;    0.000
631.715; 3494.450;  241.375;    0.000
631.834; 3538.450;  219.375;    0.000
631.952; 3489.450;  231.375;    0.000
632.071; 3495.450;  197.375;    0.000
632.190; 3484.450;  193.375;    0.000
632.308; 3481.450;  185.375;    0.000
632.427; 3393.450;  188.375;    0.000
632.546; 3471.450;  208.375;    0.000
632.664; 3390.450;  191.375;    0.000
632.783; 3546.450;  201.375;    0.000
632.901; 3435.450;  239.375;    0.000
633.020; 3441.450;  197.375;    0.000
633.138; 3476.450;  189.375;    0.000
633.257; 3437.450;  210.375;    0.000
633.375; 3399.450;  213.375;    0.000
633.494; 3384.450;  206.375;    0.000
633.612; 3453.450;  231.375;    0.000
633.731; 3458.450;  213.375;    0.000
633.849; 3441.450;  244.375;    0.000
633.968; 3356.450;  251.375;    0.000
634.086; 3462.450;  224.375;    0.000
634.204; 3455.450;  212.375;    0.000
634.323; 3423.450;  213.375;    0.000
634.441; 3431.450;  219.375;    0.000
634.559; 3430.450;  198.375;    0.000
634.678; 3425.450;  201.375;    0.000
634.796; 3318.450;  179.375;    0.000
634.914; 3408.450;  255.375;    0.000
635.032; 3426.450;  264.375;    0.000
635.151; 3451.450;  228.375;    0.000
635.269; 3339.450;  223.375;    0.000
635.387; 3523.450;  228.375;    0.000
635.505; 3332.450;  214.375;    0.000
635.623; 3495.450;  279.375;    0.000
635.742; 3410.450;  237.375;    0.000
635.860; 3490.450;  244.375;    0.000
635.978; 3550.450;  213.375;    0.000
636.096; 3372.450;  230.375;    0.000
636.214; 3288.450;  252.375;    0.000
636.332; 3317.450;  221.375;    0.000
636.450; 3365.450;  227.375;    0.000
636.568; 3345.450;  193.375;    0.000
636.686; 3472.450;  208.375;    0.000
636.804; 3470.450;  213.375;    0.000
636.922; 3403.450;  199.375;    0.000
637.040; 3409.450;  202.375;    0.000
637.158; 3321.450;  239.375;    0.000
637.276; 3406.450;  225.375;    0.000
637.394; 3369.450;  217.375;    0.000
637.512; 3398.450;  192.375;    0.000
637.629; 3371.450;  216.375;    0.000
637.747; 3345.450;  198.375;    0.000
637.865; 3339.450;  265.375;    0.000
637.983; 3357.450;  245.375;    0.000
638.101; 3347.450;  199.375;    0.000
638.218; 3292.450;  197.375;    0.000
638.336; 3305.450;  212.375;    0.000
638.454; 3414.450;  227.375;    0.000
638.572; 3345.450;  215.375;    0.000
638.689; 3366.450;  214.375;    0.000
638.807; 3294.450;  233.375;    0.000
638.925; 3383.450;  217.375;    0.000
639.042; 3361.450;  180.375;    0.000
639.160; 3369.450;  220.375;    0.000
639.278; 3313.450;  180.375;    0.000
639.395; 3419.450;  243.375;    0.000
639.513; 3390.450;  207.375;    0.000
639.630; 3321.450;  183.375;    0.000
639.748; 3371.450;  231.375;    0.000
639.865; 3381.450;  215.375;    0.000
639.983; 3424.450;  182.375;    0.000
640.100; 3347.450;  190.375;    0.000
640.218; 3377.450;  224.375;    0.000
640.335; 3376.450;  214.375;    0.000
640.453; 3417.450;  212.375;    0.000
640.570; 3274.450;  224.375;    0.000
640.688; 3294.450;  220.375;    0.000
640.805; 3299.450;  189.375;    0.000
640.922; 3296.450;  256.375;    0.000
641.040; 3337.450;  209.375;    0.000
641.157; 3281.450;  195.375;    0.000
641.274; 3379.450;  195.375;    0.000
641.391; 3412.450;  231.375;    0.000
641.509; 3330.450;  207.375;    0.000
641.626; 3447.450;  227.375;    0.000
641.743; 3315.450;  188.375;    0.000
641.860; 3342.450;  208.375;    0.000
641.978; 3362.450;  222.375;    0.000
642.095; 3371.450;  194.375;    0.000
642.212; 3444.450;  202.375;    0.000
642.329; 3316.450;  241.375;    0.000
642.446; 3311.450;  261.375;    0.000
642.563; 3333.450;  236.375;    0.000
642.681; 3272.450;  228.375;    0.000
642.798; 3340.450;  242.375;    0.000
642.915; 3428.450;  197.375;    0.000
643.032; 3342.450;  239.375;    0.000
643.149; 3319.450;  241.375;    0.000
643.266; 3366.450;  199.375;    0.000
643.383; 3314.450;  200.375;    0.000
643.500; 3354.450;  221.375;    0.000
643.617; 3411.450;  196.375;    0.000
643.734; 3382.450;  207.375;    0.000
643.850; 3383.450;  222.375;    0.000
643.967; 3421.450;  235.375;    0.000
644.084; 3359.450;  233.375;    0.000
644.201; 3368.450;  229.375;    0.000
644.318; 3299.450;  210.375;    0.000
644.435; 3348.450;  234.375;    0.000
644.552; 3361.450;  220.375;    0.000
644.668; 3460.450;  231.375;    0.000
644.785; 3426.450;  231.375;    0.000
644.902; 3502.450;  238.375;    0.000
645.019; 3396.450;  226.375;    0.000
645.135; 3421.450;  179.375;    0.000
645.252; 3416.450;  224.375;    0.000
645.369; 3375.450;  206.375;    0.000
645.485; 3421.450;  200.375;    0.000
645.602; 3438.450;  210.375;    0.000
645.719; 3471.450;  206.375;    0.000
645.835; 3490.450;  247.375;    0.000
645.952; 3404.450;  222.375;    0.000
646.068; 3597.450;  205.375;    0.000
646.185; 3505.450;  230.375;    0.000
646.302; 3500.450;  254.375;    0.000
646.418; 3581.450;  230.375;    0.000
646.535; 3582.450;  214.375;    0.000
646.651; 3581.450;  179.375;    0.000
646.768; 3603.450;  190.375;    0.000
646.884; 3502.450;  208.375;    0.000
647.000; 3655.450;  262.375;    0.000
647.117; 3561.450;  212.375;    0.000
647.233; 3599.450;  228.375;    0.000
647.350; 3642.450;  208.375;    0.000
647.466; 3635.450;  211.375;    0.000
647.582; 3576.450;  196.375;    0.000
647.699; 3651.450;  217.375;    0.000
647.815; 3618.450;  203.375;    0.000
647.931; 3655.450;  201.375;    0.000
648.047; 3740.450;  182.375;    0.000
648.164; 3686.450;  219.375;    0.000
648.280; 3708.450;  213.375;    0.000
648.396; 3663.450;  202.375;    0.000
648.512; 3706.450;  233.375;    0.000
648.629; 3694.450;  206.375;    0.000
648.745; 3719.450;  188.375;    0.000
648.861; 3688.450;  209.375;    0.000
648.977; 3692.450;  218.375;    0.000
649.093; 3751.450;  225.375;    0.000
649.209; 3761.450;  240.375;    0.000
649.325; 3754.450;  253.375;    0.000
649.441; 3680.450;  263.375;    0.000
649.557; 3762.450;  256.375;    0.000
649.673; 3730.450;  211.375;    0.000
649.789; 3721.450;  237.375;    0.000
649.905; 3769.450;  183.375;    0.000
650.021; 3842.450;  238.375;    0.000
650.137; 3743.450;  241.375;    0.000
650.253; 3881.450;  228.375;    0.000
650.369; 3813.450;  221.375;    0.000
650.485; 3847.450;  240.375;    0.000
650.601; 3807.450;  254.375;    0.000
650.717; 3816.450;  201.375;    0.000
650.833; 3863.450;  257.375;    0.000
650.948; 3847.450;  213.375;    0.000
651.064; 3824.450;  223.375;    0.000
651.180; 3894.450;  230.375;    0.000
651.296; 3868.450;  235.375;    0.000
651.411; 3874.450;  221.375;    0.000
651.527; 3954.450;  233.375;    0.000
651.643; 4084.450;  236.375;    0.000
651.759; 3977.450;  268.375;    0.000
651.874; 3946.450;  214.375;    0.000
651.990; 4087.450;  251.375;    0.000
652.105; 3947.450;  217.375;    0.000
652.221; 4088.450;  243.375;    0.000
652.337; 4137.450;  231.375;    0.000
652.452; 4123.450;  238.375;    0.000
652.568; 4040.450;  188.375;    0.000
652.683; 4082.450;  197.375;    0.000
652.799; 4148.450;  194.375;    0.000
652.914; 4219.450;  222.375;    0.000
653.030; 4280.450;  200.375;    0.000
653.145; 4406.450;  235.375;    0.000
653.261; 4345.450;  261.375;    0.000
653.376; 4424.450;  228.375;    0.000
653.492; 4428.450;  222.375;    0.000
653.607; 4428.450;  227.375;    0.000
653.722; 4553.450;  250.375;    0.000
653.838; 4623.450;  255.375;    0.000
653.953; 4502.450;  235.375;    0.000
654.068; 4744.450;  266.375;    0.000
654.184; 4768.450;  210.375;    0.000
654.299; 4879.450;  240.375;    0.000
654.414; 4924.450;  222.375;    0.000
654.530; 5059.450;  222.375;    0.000
654.645; 5034.450;  256.375;    0.000
654.760; 5146.450;  244.375;    0.000
654.875; 5206.450;  229.375;    0.000
654.990; 5456.450;  226.375;    0.000
655.106; 5532.450;  254.375;    0.000
655.221; 5623.450;  251.375;    0.000
655.336; 5683.450;  245.375;    0.000
655.451; 5975.450;  199.375;    0.000
655.566; 6030.450;  228.375;    0.000
655.681; 6270.450;  208.375;    0.000
655.796; 6262.450;  218.375;    0.000
655.911; 6628.450;  233.375;    0.000
656.026; 6862.450;  232.375;    0.000
656.141; 7077.450;  223.375;    0.000
656.256; 7161.450;  247.375;    0.000
656.371; 7119.450;  220.375;    0.000
656.486; 7130.450;  225.375;    0.000
656.601; 7065.450;  257.375;    0.000
656.716; 7091.450;  248.375;    0.000
656.831; 7025.450;  262.375;    0.000
656.946; 6608.450;  249.375;    0.000
657.060; 6687.450;  245.375;    0.000
657.175; 6517.450;  245.375;    0.000
657.290; 6498.450;  219.375;    0.000
657.405; 6353.450;  286.375;    0.000
657.520; 6078.450;  259.375;    0.000
657.634; 5962.450;  239.375;    0.000
657.749; 5857.450;  227.375;    0.000
657.864; 5839.450;  210.375;    0.000
657.979; 5791.450;  236.375;    0.000
658.093; 5633.450;  210.375;    0.000
658.208; 5641.450;  248.375;    0.000
658.323; 5389.450;  216.375;    0.000
658.437; 5326.450;  248.375;    0.000
658.552; 5172.450;  249.375;    0.000
658.666; 5231.450;  256.375;    0.000
658.781; 5137.450;  247.375;    0.000
658.895; 5033.450;  209.375;    0.000
659.010; 4955.450;  219.375;    0.000
659.125; 4972.450;  215.375;    0.000
659.239; 4916.450;  205.375;    0.000
659.353; 4767.450;  246.375;    0.000
659.468; 4801.450;  245.375;    0.000
659.582; 4644.450;  244.375;    0.000
659.697; 4596.450;  242.375;    0.000
659.811; 4654.450;  239.375;    0.000
659.926; 4566.450;  226.375;    0.000
660.040; 4387.450;  255.375;    0.000
660.154; 4448.450;  225.375;    0.000
660.269; 4456.450;  200.375;    0.000
660.383; 4381.450;  192.375;    0.000
660.497; 4273.450;  218.375;    0.000
660.612; 4380.450;  236.375;    0.000
660.726; 4366.450;  263.375;    0.000
660.840; 4170.450;  205.375;    0.000
660.954; 4143.450;  219.375;    0.000
661.068; 4209.450;  240.375;    0.000
661.183; 4102.450;  221.375;    0.000
661.297; 4199.450;  194.375;    0.000
661.411; 4005.450;  253.375;    0.000
661.525; 4092.450;  246.375;    0.000
661.639; 4017.450;  217.375;    0.000
661.753; 3869.450;  241.375;    0.000
661.867; 3904.450;  276.375;    0.000
661.981; 3749.450;  203.375;    0.000
662.095; 3788.450;  224.375;    0.000
662.209; 3867.450;  217.375;    0.000
662.323; 3763.450;  251.375;    0.000
662.437; 3678.450;  243.375;    0.000
662.551; 3735.450;  244.375;    0.000
662.665; 3630.450;  247.375;    0.000
662.779; 3742.450;  251.375;    0.000
662.893; 3698.450;  254.375;    0.000
663.007; 3673.450;  222.375;    0.000
663.121; 3564.450;  253.375;    0.000
663.235; 3567.450;  270.375;    0.000
663.349; 3467.450;  242.375;    0.000
663.462; 3531.450;  230.375;    0.000
663.576; 3431.450;  230.375;    0.000
663.690; 3476.450;  249.375;    0.000
663.804; 3348.450;  200.375;    0.000
663.917; 3404.450;  204.375;    0.000
664.031; 3394.450;  206.375;    0.000
664.145; 3354.450;  202.375;    0.000
664.258; 3396.450;  221.375;    0.000
664.372; 3304.450;  215.375;    0.000
664.486; 3380.450;  179.375;    0.000
664.599; 3357.450;  208.375;    0.000
664.713; 3431.450;  268.375;    0.000
664.827; 3170.450;  225.375;    0.000
664.940; 3274.450;  222.375;    0.000
665.054; 3312.450;  208.375;    0.000
665.167; 3253.450;  253.375;    0.000
665.281; 3216.450;  237.375;    0.000
665.394; 3169.450;  227.375;    0.000
665.508; 3207.450;  192.375;    0.000
665.621; 3226.450;  175.375;    0.000
665.735; 3225.450;  249.375;    0.000
665.848; 3226.450;  197.375;    0.000
665.961; 3211.450;  206.375;    0.000
666.075; 3240.450;  245.375;    0.000
666.188; 3127.450;  230.375;    0.000
666.301; 3107.450;  219.375;    0.000
666.415; 3071.450;  231.375;    0.000
666.528; 3186.450;  258.375;    0.000
666.641; 3126.450;  243.375;    0.000
666.755; 3048.450;  208.375;    0.000
666.868; 3102.450;  228.375;    0.000
666.981; 3114.450;  244.375;    0.000
667.094; 3029.450;  244.375;    0.000
667.207; 2963.450;  226.375;    0.000
667.321; 3122.450;  175.375;    0.000
667.434; 2999.450;  211.375;    0.000
667.547; 3099.450;  249.375;    0.000
667.660; 2999.450;  225.375;    0.000
667.773; 2938.450;  242.375;    0.000
667.886; 2957.450;  246.375;    0.000
667.999; 2966.450;  244.375;    0.000
668.112; 2854.450;  227.375;    0.000
668.225; 2908.450;  231.375;    0.000
668.338; 2945.450;  256.375;    0.000
668.451; 2909.450;  216.375;    0.000
668.564; 2969.450;  261.375;    0.000
668.677; 2877.450;  230.375;    0.000
668.790; 2888.450;  192.375;    0.000
668.903; 2875.450;  243.375;    0.000
669.016; 2905.450;  201.375;    0.000
669.129; 2837.450;  249.375;    0.000
669.242; 2847.450;  190.375;    0.000
669.354; 2868.450;  219.375;    0.000
669.467; 2888.450;  242.375;    0.000
669.580; 2961.450;  237.375;    0.000
669.693; 2781.450;  243.375;    0.000
669.806; 2844.450;  234.375;    0.000
669.918; 2858.450;  206.375;    0.000
670.031; 2816.450;  258.375;    0.000
670.144; 2901.450;  231.375;    0.000
670.256; 2781.450;  244.375;    0.000
670.369; 2850.450;  262.375;    0.000
670.482; 2829.450;  264.375;    0.000
670.594; 2792.450;  256.375;    0.000
670.707; 2681.450;  224.375;    0.000
670.820; 2691.450;  261.375;    0.000
670.932; 2787.450;  226.375;    0.000
671.045; 2785.450;  243.375;    0.000
671.157; 2776.450;  235.375;    0.000
671.270; 2725.450;  217.375;    0.000
671.382; 2710.450;  267.375;    0.000
671.495; 2764.450;  258.375;    0.000
671.607; 2737.450;  236.375;    0.000
671.720; 2676.450;  200.375;    0.000
671.832; 2661.450;  219.375;    0.000
671.944; 2693.450;  234.375;    0.000
672.057; 2626.450;  226.375;    0.000
672.169; 2701.450;  225.375;    0.000
672.281; 2668.450;  253.375;    0.000
672.394; 2687.450;  238.375;    0.000
672.506; 2693.450;  244.375;    0.000
672.618; 2697.450;  272.375;    0.000
672.731; 2735.450;  247.375;    0.000
672.843; 2662.450;  261.375;    0.000
672.955; 2700.450;  262.375;    0.000
673.067; 2693.450;  253.375;    0.000
673.180; 2591.450;  239.375;    0.000
673.292; 2578.450;  240.375;    0.000
673.404; 2643.450;  243.375;    0.000
673.516; 2704.450;  258.375;    0.000
673.628; 2579.450;  263.375;    0.000
673.740; 2630.450;  250.375;    0.000
673.852; 2623.450;  285.375;    0.000
673.964; 2688.450;  264.375;    0.000
674.076; 2608.450;  260.375;    0.000
674.188; 2606.450;  226.375;    0.000
674.300; 2589.450;  272.375;    0.000
674.412; 2588.450;  259.375;    0.000
674.524; 2674.450;  283.375;    0.000
674.636; 2600.450;  259.375;    0.000
674.748; 2505.450;  238.375;    0.000
674.860; 2533.450;  277.375;    0.000
674.972; 2612.450;  272.375;    0.000
675.084; 2637.450;  244.375;    0.000
675.196; 2536.450;  272.375;    0.000
675.307; 2551.450;  244.375;    0.000
675.419; 2553.450;  219.375;    0.000
675.531; 2574.450;  275.375;    0.000
675.643; 2525.450;  215.375;    0.000
675.755; 2546.450;  243.375;    0.000
675.866; 2494.450;  223.375;    0.000
675.978; 2579.450;  216.375;    0.000
676.090; 2529.450;  242.375;    0.000
676.201; 2577.450;  276.375;    0.000
676.313; 2495.450;  226.375;    0.000
676.425; 2515.450;  234.375;    0.000
676.536; 2462.450;  231.375;    0.000
676.648; 2545.450;  254.375;    0.000
676.759; 2537.450;  273.375;    0.000
676.871; 2480.450;  250.375;    0.000
676.983; 2580.450;  256.375;    0.000
677.094; 2457.450;  210.375;    0.000
677.206; 2465.450;  248.375;    0.000
677.317; 2427.450;  263.375;    0.000
677.429; 2436.450;  238.375;    0.000
677.540; 2500.450;  247.375;    0.000
677.651; 2469.450;  224.375;    0.000
677.763; 2431.450;  217.375;    0.000
677.874; 2420.450;  234.375;    0.000
677.986; 2350.450;  238.375;    0.000
678.097; 2490.450;  226.375;    0.000
678.208; 2523.450;  253.375;    0.000
678.320; 2416.450;  217.375;    0.000
678.431; 2390.450;  238.375;    0.000
678.542; 2423.450;  236.375;    0.000
678.653; 2367.450;  218.375;    0.000
678.765; 2408.450;  275.375;    0.000
678.876; 2486.450;  213.375;    0.000
678.987; 2359.450;  182.375;    0.000
679.098; 2390.450;  221.375;    0.000
679.209; 2358.450;  238.375;    0.000
679.320; 2426.450;  212.375;    0.000
679.432; 2405.450;  231.375;    0.000
679.543; 2376.450;  198.375;    0.000
679.654; 2361.450;  191.375;    0.000
679.765; 2375.450;  214.375;    0.000
679.876; 2357.450;  221.375;    0.000
679.987; 2353.450;  162.375;    0.000
680.098; 2486.450;  230.375;    0.000
680.209; 2387.450;  206.375;    0.000
680.320; 2416.450;  196.375;    0.000
680.431; 2411.450;  191.375;    0.000
680.542; 2337.450;  214.375;    0.000
680.653; 2375.450;  238.375;    0.000
680.763; 2334.450;  182.375;    0.000
680.874; 2344.450;  213.375;    0.000
680.985; 2320.450;  224.375;    0.000
681.096; 2331.450;  222.375;    0.000
681.207; 2370.450;  220.375;    0.000
681.318; 2373.450;  216.375;    0.000
681.428; 2340.450;  229.375;    0.000
681.539; 2362.450;  183.375;    0.000
681.650; 2288.450;  202.375;    0.000
681.760; 2313.450;  223.375;    0.000
681.871; 2307.450;  211.375;    0.000
681.982; 2342.450;  189.375;    0.000
682.093; 2283.450;  222.375;    0.000
682.203; 2278.450;  220.375;    0.000
682.314; 2321.450;  214.375;    0.000
682.424; 2348.450;  208.375;    0.000
682.535; 2361.450;  213.375;    0.000
682.646; 2346.450;  302.375;    0.000
682.756; 2305.450;  255.375;    0.000
682.867; 2329.450;  244.375;    0.000
682.977; 2346.450;  221.375;    0.000
683.088; 2299.450;  259.375;    0.000
683.198; 2301.450;  212.375;    0.000
683.308; 2273.450;  202.375;    0.000
683.419; 2275.450;  255.375;    0.000
683.529; 2237.450;  217.375;    0.000
683.640; 2258.450;  240.375;    0.000
683.750; 2257.450;  181.375;    0.000
683.860; 2331.450;  246.375;    0.000
683.971; 2300.450;  254.375;    0.000
684.081; 2325.450;  235.375;    0.000
684.191; 2257.450;  251.375;    0.000
684.301; 2269.450;  233.375;    0.000
684.412; 2314.450;  202.375;    0.000
684.522; 2310.450;  232.375;    0.000
684.632; 2293.450;  202.375;    0.000
684.742; 2355.450;  254.375;    0.000
684.852; 2287.450;  219.375;    0.000
684.963; 2291.450;  256.375;    0.000
685.073; 2251.450;  253.375;    0.000
685.183; 2377.450;  254.375;    0.000
685.293; 2364.450;  232.375;    0.000
685.403; 2296.450;  242.375;    0.000
685.513; 2362.450;  261.375;    0.000
685.623; 2308.450;  245.375;    0.000
685.733; 2323.450;  254.375;    0.000
685.843; 2264.450;  249.375;    0.000
685.953; 2348.450;  252.375;    0.000
686.063; 2303.450;  227.375;    0.000
686.173; 2302.450;  223.375;    0.000
686.283; 2314.450;  234.375;    0.000
686.393; 2218.450;  239.375;    0.000
686.503; 2308.450;  231.375;    0.000
686.612; 2254.450;  232.375;    0.000
686.722; 2357.450;  258.375;    0.000
686.832; 2311.450;  256.375;    0.000
686.942; 2399.450;  230.375;    0.000
687.052; 2272.450;  274.375;    0.000
687.161; 2273.450;  269.375;    0.000
687.271; 2289.450;  218.375;    0.000
687.381; 2310.450;  235.375;    0.000
687.491; 2272.450;  262.375;    0.000
687.600; 2214.450;  256.375;    0.000
687.710; 2243.450;  225.375;    0.000
687.820; 2199.450;  230.375;    0.000
687.929; 2243.450;  226.375;    0.000
688.039; 2264.450;  228.375;    0.000
688.148; 2239.450;  249.375;    0.000
688.258; 2226.450;  237.375;    0.000
688.367; 2208.450;  260.375;    0.000
688.477; 2228.450;  200.375;    0.000
688.586; 2222.450;  223.375;    0.000
688.696; 2246.450;  223.375;    0.000
688.805; 2221.450;  257.375;    0.000
688.915; 2210.450;  185.375;    0.000
689.024; 2164.450;  227.375;    0.000
689.134; 2179.450;  224.375;    0.000
689.243; 2115.450;  206.375;    0.000
689.352; 2249.450;  275.375;    0.000
689.462; 2185.450;  233.375;    0.000
689.571; 2218.450;  244.375;    0.000
689.680; 2270.450;  261.375;    0.000
689.790; 2234.450;  192.375;    0.000
689.899; 2257.450;  214.375;    0.000
690.008; 2231.450;  255.375;    0.000
690.117; 2181.450;  219.375;    0.000
690.227; 2203.450;  241.375;    0.000
690.336; 2237.450;  231.375;    0.000
690.445; 2147.450;  212.375;    0.000
690.554; 2208.450;  234.375;    0.000
690.663; 2185.450;  210.375;    0.000
690.772; 2212.450;  221.375;    0.000
690.881; 2175.450;  244.375;    0.000
690.990; 2228.450;  247.375;    0.000
691.099; 2154.450;  222.375;    0.000
691.209; 2113.450;  240.375;    0.000
691.318; 2200.450;  223.375;    0.000
691.427; 2198.450;  217.375;    0.000
691.536; 2198.450;  216.375;    0.000
691.644; 2085.450;  194.375;    0.000
691.753; 2225.450;  221.375;    0.000
691.862; 2194.450;  224.375;    0.000
691.971; 2065.450;  191.375;    0.000
692.080; 2207.450;  247.375;    0.000
692.189; 2187.450;  208.375;    0.000
692.298; 2191.450;  203.375;    0.000
692.406; 2201.450;  239.375;    0.000
692.515; 2155.450;  250.375;    0.000
692.624; 2238.450;  226.375;    0.000
692.733; 2230.450;  229.375;    0.000
692.842; 2146.450;  254.375;    0.000
692.950; 2199.450;  242.375;    0.000
693.059; 2176.450;  204.375;    0.000
693.168; 2163.450;  252.375;    0.000
693.276; 2155.450;  195.375;    0.000
693.385; 2165.450;  228.375;    0.000
693.494; 2242.450;  282.375;    0.000
693.602; 2146.450;  221.375;    0.000
693.711; 2128.450;  225.375;    0.000
693.819; 2192.450;  234.375;    0.000
693.928; 2143.450;  229.375;    0.000
694.036; 2177.450;  192.375;    0.000
694.145; 2215.450;  233.375;    0.000
694.253; 2144.450;  277.375;    0.000
694.362; 2112.450;  188.375;    0.000
694.470; 2186.450;  263.375;    0.000
694.579; 2157.450;  253.375;    0.000
694.687; 2246.450;  281.375;    0.000
694.795; 2210.450;  233.375;    0.000
694.904; 2192.450;  223.375;    0.000
695.012; 2257.450;  296.375;    0.000
695.120; 2175.450;  227.375;    0.000
695.229; 2221.450;  269.375;    0.000
695.337; 2205.450;  229.375;    0.000
695.445; 2130.450;  244.375;    0.000
695.553; 2125.450;  259.375;    0.000
695.662; 2152.450;  208.375;    0.000
695.770; 2189.450;  241.375;    0.000
695.878; 2129.450;  239.375;    0.000
695.986; 2177.450;  247.375;    0.000
696.094; 2185.450;  224.375;    0.000
696.202; 2098.450;  205.375;    0.000
696.310; 2145.450;  217.375;    0.000
696.419; 2149.450;  228.375;    0.000
696.527; 2183.450;  246.375;    0.000
696.635; 2167.450;  245.375;    0.000
696.743; 2097.450;  233.375;    0.000
696.851; 2205.450;  251.375;    0.000
696.959; 2149.450;  257.375;    0.000
697.067; 2230.450;  260.375;    0.000
697.174; 2132.450;  223.375;    0.000
697.282; 2109.450;  239.375;    0.000
697.390; 2155.450;  264.375;    0.000
697.498; 2101.450;  227.375;    0.000
697.606; 2085.450;  243.375;    0.000
697.714; 2232.450;  256.375;    0.000
697.822; 2185.450;  278.375;    0.000
697.929; 2128.450;  227.375;    0.000
698.037; 2201.450;  232.375;    0.000
698.145; 2123.450;  256.375;    0.000
698.253; 2116.450;  245.375;    0.000
698.360; 2169.450;  282.375;    0.000
698.468; 2128.450;  244.375;    0.000
698.576; 2215.450;  279.375;    0.000
698.683; 2124.450;  259.375;    0.000
698.791; 2148.450;  265.375;    0.000
698.899; 2137.450;  250.375;    0.000
699.006; 2186.450;  245.375;    0.000
699.114; 2132.450;  280.375;    0.000
699.221; 2178.450;  240.375;    0.000
699.329; 2206.450;  293.375;    0.000
699.436; 2023.450;  216.375;    0.000
699.544; 2213.450;  269.375;    0.000
699.651; 2184.450;  219.375;    0.000
699.759; 2145.450;  245.375;    0.000
699.866; 2161.450;  261.375;    0.000
699.974; 2096.450;  245.375;    0.000
700.081; 2207.450;  257.375;    0.000
700.188; 2156.450;  268.375;    0.000
700.296; 2141.450;  225.375;    0.000
700.403; 2129.450;  257.375;    0.000
700.510; 2058.450;  267.375;    0.000
700.618; 2156.450;  299.375;    0.000
700.725; 2100.450;  223.375;    0.000
700.832; 2151.450;  233.375;    0.000
700.940; 2127.450;  255.375;    0.000
701.047; 2073.450;  244.375;    0.000
701.154; 2124.450;  248.375;    0.000
701.261; 2082.450;  264.375;    0.000
701.368; 2154.450;  299.375;    0.000
701.475; 2164.450;  264.375;    0.000
701.582; 2103.450;  275.375;    0.000
701.690; 2088.450;  261.375;    0.000
701.797; 2111.450;  273.375;    0.000
701.904; 2195.450;  320.375;    0.000
702.011; 2118.450;  299.375;    0.000
702.118; 2094.450;  292.375;    0.000
702.225; 2188.450;  317.375;    0.000
702.332; 2164.450;  307.375;    0.000
702.439; 2106.450;  313.375;    0.000
702.546; 2117.450;  312.375;    0.000
702.652; 2181.450;  297.375;    0.000
702.759; 2230.450;  345.375;    0.000
702.866; 2158.450;  330.375;    0.000
702.973; 2133.450;  303.375;    0.000
703.080; 2105.450;  303.375;    0.000
703.187; 2181.450;  327.375;    0.000
703.294; 2207.450;  325.375;    0.000
703.400; 2013.450;  302.375;    0.000
703.507;  487.450;  344.375;    0.000
703.614;  325.450;  294.375;    0.000
703.720;  315.450;  322.375;    0.000
703.827;  336.450;  329.375;    0.000
703.934;  301.450;  318.375;    0.000
704.040;  274.450;  299.375;    0.000
704.147;  331.450;  352.375;    0.000
704.254;  356.450;  350.375;    0.000
704.360;  318.450;  347.375;    0.000
704.467;  341.450;  336.375;    0.000
704.573;  343.450;  344.375;    0.000
704.680;  342.450;  365.375;    0.000
704.786;  344.450;  332.375;    0.000
704.893;  325.450;  304.375;    0.000
704.999;  305.450;  299.375;    0.000
705.106;  340.450;  365.375;    0.000

