
Integration time [ms]:   1.000
Averaging Nr. [scans]: 1
Smoothing Nr. [pixels]: 0
Data measured with spectrometer [name]: UV1
Wave   ;Sample   ;Dark     ;Reference
[nm]   ;[counts] ;[counts] ;[counts] 

236.381;  138.950;  175.825;    0.000
236.451;  192.950;  220.825;    0.000
236.520;  135.950;  178.825;    0.000
236.590;  167.950;  182.825;    0.000
236.660;  173.950;  180.825;    0.000
236.730;  191.950;  201.825;    0.000
236.799;  200.950;  168.825;    0.000
236.869;  180.950;  205.825;    0.000
236.939;  174.950;  175.825;    0.000
237.009;  191.950;  186.825;    0.000
237.078;  168.950;  200.825;    0.000
237.148;  156.950;  156.825;    0.000
237.218;  178.950;  190.825;    0.000
237.287;  175.950;  167.825;    0.000
237.357;  180.950;  213.825;    0.000
237.427;  196.950;  164.825;    0.000
237.496; 1150.950;  210.825;    0.000
237.566; 1075.950;  193.825;    0.000
237.636; 1126.950;  179.825;    0.000
237.705; 1080.950;  218.825;    0.000
237.775; 1074.950;  160.825;    0.000
237.845; 1121.950;  207.825;    0.000
237.914; 1068.950;  180.825;    0.000
237.984; 1149.950;  207.825;    0.000
238.054; 1070.950;  149.825;    0.000
238.123; 1105.950;  190.825;    0.000
238.193; 1097.950;  167.825;    0.000
238.263; 1128.950;  172.825;    0.000
238.332; 1111.950;  173.825;    0.000
238.402; 1117.950;  214.825;    0.000
238.471; 1113.950;  181.825;    0.000
238.541; 1103.950;  177.825;    0.000
238.611; 1136.950;  138.825;    0.000
238.680; 1082.950;  168.825;    0.000
238.750; 1105.950;  171.825;    0.000
238.819; 1095.950;  156.825;    0.000
238.889; 1104.950;  194.825;    0.000
238.958; 1078.950;  185.825;    0.000
239.028; 1117.950;  170.825;    0.000
239.097; 1075.950;  159.825;    0.000
239.167; 1122.950;  208.825;    0.000
239.237; 1118.950;  167.825;    0.000
239.306; 1037.950;  154.825;    0.000
239.376; 1171.950;  183.825;    0.000
239.445; 1112.950;  221.825;    0.000
239.515; 1119.950;  208.825;    0.000
239.584; 1139.950;  177.825;    0.000
239.654; 1017.950;  133.825;    0.000
239.723; 1104.950;  167.825;    0.000
239.793; 1078.950;  190.825;    0.000
239.862; 1102.950;  192.825;    0.000
239.932; 1064.950;  174.825;    0.000
240.001; 1073.950;  166.825;    0.000
240.070; 1124.950;  179.825;    0.000
240.140; 1117.950;  191.825;    0.000
240.209; 1035.950;  134.825;    0.000
240.279; 1014.950;  185.825;    0.000
240.348; 1123.950;  193.825;    0.000
240.418; 1042.950;  149.825;    0.000
240.487; 1075.950;  197.825;    0.000
240.556; 1098.950;  193.825;    0.000
240.626; 1047.950;  178.825;    0.000
240.695; 1048.950;  194.825;    0.000
240.765; 1071.950;  178.825;    0.000
240.834; 1018.950;  190.825;    0.000
240.903; 1057.950;  212.825;    0.000
240.973; 1062.950;  153.825;    0.000
241.042; 1066.950;  177.825;    0.000
241.112; 1092.950;  193.825;    0.000
241.181; 1077.950;  171.825;    0.000
241.250; 1035.950;  152.825;    0.000
241.320; 1089.950;  176.825;    0.000
241.389; 1047.950;  186.825;    0.000
241.458; 1152.950;  182.825;    0.000
241.528; 1087.950;  175.825;    0.000
241.597; 1146.950;  180.825;    0.000
241.666; 1073.950;  162.825;    0.000
241.736; 1074.950;  187.825;    0.000
241.805; 1050.950;  173.825;    0.000
241.874; 1050.950;  177.825;    0.000
241.943; 1089.950;  208.825;    0.000
242.013; 1089.950;  183.825;    0.000
242.082; 1065.950;  171.825;    0.000
242.151; 1041.950;  208.825;    0.000
242.221; 1067.950;  160.825;    0.000
242.290; 1041.950;  200.825;    0.000
242.359; 1057.950;  167.825;    0.000
242.428; 1001.950;  213.825;    0.000
242.498; 1029.950;  156.825;    0.000
242.567; 1108.950;  200.825;    0.000
242.636; 1053.950;  178.825;    0.000
242.705; 1075.950;  185.825;    0.000
242.774; 1073.950;  190.825;    0.000
242.844; 1025.950;  194.825;    0.000
242.913; 1074.950;  162.825;    0.000
242.982; 1015.950;  189.825;    0.000
243.051; 1058.950;  176.825;    0.000
243.120; 1033.950;  213.825;    0.000
243.190; 1025.950;  155.825;    0.000
243.259; 1037.950;  183.825;    0.000
243.328; 1028.950;  170.825;    0.000
243.397; 1015.950;  224.825;    0.000
243.466; 1059.950;  172.825;    0.000
243.535; 1111.950;  145.825;    0.000
243.605; 1027.950;  157.825;    0.000
243.674; 1004.950;  199.825;    0.000
243.743; 1022.950;  196.825;    0.000
243.812;  948.950;  152.825;    0.000
243.881; 1020.950;  188.825;    0.000
243.950; 1002.950;  154.825;    0.000
244.019; 1076.950;  195.825;    0.000
244.088; 1097.950;  164.825;    0.000
244.158; 1064.950;  220.825;    0.000
244.227;  978.950;  150.825;    0.000
244.296; 1033.950;  153.825;    0.000
244.365; 1052.950;  195.825;    0.000
244.434;  977.950;  136.825;    0.000
244.503; 1046.950;  172.825;    0.000
244.572;  979.950;  129.825;    0.000
244.641;  995.950;  132.825;    0.000
244.710;  974.950;  185.825;    0.000
244.779; 1019.950;  164.825;    0.000
244.848;  921.950;  132.825;    0.000
244.917; 1018.950;  196.825;    0.000
244.986;  934.950;  148.825;    0.000
245.055; 1039.950;  192.825;    0.000
245.124;  972.950;  170.825;    0.000
245.193;  971.950;  172.825;    0.000
245.262;  889.950;  146.825;    0.000
245.331;  959.950;  178.825;    0.000
245.400;  932.950;  108.825;    0.000
245.469;  964.950;  173.825;    0.000
245.538;  936.950;  180.825;    0.000
245.607;  981.950;  171.825;    0.000
245.676;  978.950;  149.825;    0.000
245.745;  934.950;  194.825;    0.000
245.814;  888.950;  186.825;    0.000
245.883;  920.950;  192.825;    0.000
245.952;  899.950;  169.825;    0.000
246.021;  863.950;  190.825;    0.000
246.090;  875.950;  181.825;    0.000
246.159;  954.950;  179.825;    0.000
246.227;  848.950;  182.825;    0.000
246.296;  936.950;  182.825;    0.000
246.365;  866.950;  171.825;    0.000
246.434;  928.950;  218.825;    0.000
246.503;  869.950;  147.825;    0.000
246.572;  922.950;  227.825;    0.000
246.641;  906.950;  193.825;    0.000
246.710;  885.950;  207.825;    0.000
246.779;  914.950;  181.825;    0.000
246.847;  879.950;  179.825;    0.000
246.916;  867.950;  155.825;    0.000
246.985;  913.950;  168.825;    0.000
247.054;  823.950;  137.825;    0.000
247.123;  865.950;  128.825;    0.000
247.192;  866.950;  163.825;    0.000
247.260;  858.950;  173.825;    0.000
247.329;  849.950;  174.825;    0.000
247.398;  890.950;  238.825;    0.000
247.467;  837.950;  168.825;    0.000
247.536;  891.950;  203.825;    0.000
247.604;  895.950;  194.825;    0.000
247.673;  893.950;  145.825;    0.000
247.742;  863.950;  167.825;    0.000
247.811;  903.950;  180.825;    0.000
247.879;  872.950;  187.825;    0.000
247.948;  812.950;  187.825;    0.000
248.017;  841.950;  170.825;    0.000
248.086;  872.950;  223.825;    0.000
248.154;  814.950;  160.825;    0.000
248.223;  840.950;  163.825;    0.000
248.292;  856.950;  201.825;    0.000
248.361;  849.950;  205.825;    0.000
248.429;  838.950;  191.825;    0.000
248.498;  879.950;  194.825;    0.000
248.567;  876.950;  217.825;    0.000
248.635;  850.950;  224.825;    0.000
248.704;  887.950;  204.825;    0.000
248.773;  853.950;  175.825;    0.000
248.841;  864.950;  157.825;    0.000
248.910;  856.950;  206.825;    0.000
248.979;  843.950;  170.825;    0.000
249.047;  814.950;  178.825;    0.000
249.116;  813.950;  183.825;    0.000
249.185;  852.950;  202.825;    0.000
249.253;  852.950;  159.825;    0.000
249.322;  860.950;  177.825;    0.000
249.390;  809.950;  157.825;    0.000
249.459;  863.950;  211.825;    0.000
249.528;  810.950;  181.825;    0.000
249.596;  844.950;  179.825;    0.000
249.665;  790.950;  176.825;    0.000
249.733;  805.950;  186.825;    0.000
249.802;  864.950;  185.825;    0.000
249.871;  883.950;  166.825;    0.000
249.939;  834.950;  163.825;    0.000
250.008;  847.950;  212.825;    0.000
250.076;  877.950;  227.825;    0.000
250.145;  808.950;  172.825;    0.000
250.213;  804.950;  173.825;    0.000
250.282;  789.950;  189.825;    0.000
250.350;  802.950;  166.825;    0.000
250.419;  899.950;  161.825;    0.000
250.487;  798.950;  178.825;    0.000
250.556;  806.950;  208.825;    0.000
250.624;  797.950;  190.825;    0.000
250.693;  751.950;  163.825;    0.000
250.761;  794.950;  194.825;    0.000
250.830;  853.950;  225.825;    0.000
250.898;  853.950;  140.825;    0.000
250.967;  767.950;  167.825;    0.000
251.035;  806.950;  155.825;    0.000
251.104;  769.950;  189.825;    0.000
251.172;  805.950;  136.825;    0.000
251.241;  727.950;  148.825;    0.000
251.309;  812.950;  201.825;    0.000
251.378;  777.950;  169.825;    0.000
251.446;  775.950;  178.825;    0.000
251.514;  795.950;  206.825;    0.000
251.583;  830.950;  178.825;    0.000
251.651;  734.950;  168.825;    0.000
251.720;  771.950;  190.825;    0.000
251.788;  820.950;  209.825;    0.000
251.856;  770.950;  173.825;    0.000
251.925;  739.950;  171.825;    0.000
251.993;  771.950;  188.825;    0.000
252.062;  800.950;  169.825;    0.000
252.130;  758.950;  196.825;    0.000
252.198;  797.950;  210.825;    0.000
252.267;  764.950;  181.825;    0.000
252.335;  792.950;  164.825;    0.000
252.403;  786.950;  152.825;    0.000
252.472;  749.950;  166.825;    0.000
252.540;  743.950;  189.825;    0.000
252.608;  816.950;  198.825;    0.000
252.677;  718.950;  156.825;    0.000
252.745;  745.950;  184.825;    0.000
252.813;  713.950;  163.825;    0.000
252.881;  712.950;  130.825;    0.000
252.950;  768.950;  189.825;    0.000
253.018;  739.950;  164.825;    0.000
253.086;  679.950;  172.825;    0.000
253.155;  645.950;  205.825;    0.000
253.223;  696.950;  175.825;    0.000
253.291;  638.950;  176.825;    0.000
253.359;  632.950;  182.825;    0.000
253.428;  672.950;  222.825;    0.000
253.496;  595.950;  166.825;    0.000
253.564;  570.950;  135.825;    0.000
253.632;  629.950;  184.825;    0.000
253.700;  614.950;  173.825;    0.000
253.769;  608.950;  163.825;    0.000
253.837;  638.950;  179.825;    0.000
253.905;  555.950;  157.825;    0.000
253.973;  597.950;  164.825;    0.000
254.041;  619.950;  170.825;    0.000
254.110;  558.950;  169.825;    0.000
254.178;  631.950;  165.825;    0.000
254.246;  602.950;  126.825;    0.000
254.314;  589.950;  166.825;    0.000
254.382;  606.950;  169.825;    0.000
254.450;  621.950;  170.825;    0.000
254.518;  598.950;  196.825;    0.000
254.587;  567.950;  161.825;    0.000
254.655;  597.950;  187.825;    0.000
254.723;  555.950;  144.825;    0.000
254.791;  609.950;  175.825;    0.000
254.859;  593.950;  168.825;    0.000
254.927;  640.950;  198.825;    0.000
254.995;  589.950;  165.825;    0.000
255.063;  598.950;  150.825;    0.000
255.131;  621.950;  181.825;    0.000
255.199;  605.950;  160.825;    0.000
255.267;  558.950;  131.825;    0.000
255.336;  635.950;  188.825;    0.000
255.404;  601.950;  163.825;    0.000
255.472;  593.950;  192.825;    0.000
255.540;  697.950;  158.825;    0.000
255.608;  565.950;  147.825;    0.000
255.676;  630.950;  166.825;    0.000
255.744;  597.950;  159.825;    0.000
255.812;  615.950;  164.825;    0.000
255.880;  653.950;  195.825;    0.000
255.948;  687.950;  167.825;    0.000
256.016;  663.950;  185.825;    0.000
256.084;  661.950;  191.825;    0.000
256.152;  632.950;  214.825;    0.000
256.220;  633.950;  195.825;    0.000
256.288;  678.950;  185.825;    0.000
256.356;  640.950;  168.825;    0.000
256.424;  671.950;  161.825;    0.000
256.491;  696.950;  161.825;    0.000
256.559;  667.950;  157.825;    0.000
256.627;  705.950;  164.825;    0.000
256.695;  676.950;  146.825;    0.000
256.763;  692.950;  194.825;    0.000
256.831;  686.950;  182.825;    0.000
256.899;  748.950;  192.825;    0.000
256.967;  683.950;  172.825;    0.000
257.035;  714.950;  169.825;    0.000
257.103;  764.950;  223.825;    0.000
257.171;  731.950;  141.825;    0.000
257.238;  724.950;  146.825;    0.000
257.306;  730.950;  180.825;    0.000
257.374;  743.950;  138.825;    0.000
257.442;  694.950;  135.825;    0.000
257.510;  764.950;  130.825;    0.000
257.578;  760.950;  123.825;    0.000
257.646;  795.950;  162.825;    0.000
257.713;  790.950;  149.825;    0.000
257.781;  787.950;  125.825;    0.000
257.849;  848.950;  149.825;    0.000
257.917;  862.950;  177.825;    0.000
257.985;  818.950;  143.825;    0.000
258.052;  823.950;  154.825;    0.000
258.120;  826.950;  162.825;    0.000
258.188;  812.950;  172.825;    0.000
258.256;  875.950;  160.825;    0.000
258.324;  883.950;  209.825;    0.000
258.391;  832.950;  153.825;    0.000
258.459;  899.950;  133.825;    0.000
258.527;  896.950;  160.825;    0.000
258.595;  884.950;  128.825;    0.000
258.662;  820.950;  114.825;    0.000
258.730;  966.950;  192.825;    0.000
258.798;  934.950;  144.825;    0.000
258.865;  932.950;  140.825;    0.000
258.933;  958.950;  150.825;    0.000
259.001;  930.950;  149.825;    0.000
259.069;  911.950;  110.825;    0.000
259.136;  937.950;  150.825;    0.000
259.204;  994.950;  156.825;    0.000
259.272; 1055.950;  185.825;    0.000
259.339; 1063.950;  148.825;    0.000
259.407; 1012.950;  163.825;    0.000
259.475; 1013.950;  129.825;    0.000
259.542; 1027.950;  144.825;    0.000
259.610; 1100.950;  164.825;    0.000
259.677; 1106.950;  188.825;    0.000
259.745; 1084.950;  113.825;    0.000
259.813; 1137.950;  188.825;    0.000
259.880; 1108.950;  174.825;    0.000
259.948; 1100.950;  166.825;    0.000
260.016; 1139.950;  150.825;    0.000
260.083; 1148.950;  178.825;    0.000
260.151; 1203.950;  120.825;    0.000
260.218; 1102.950;  175.825;    0.000
260.286; 1178.950;  155.825;    0.000
260.353; 1172.950;  165.825;    0.000
260.421; 1196.950;  169.825;    0.000
260.489; 1280.950;  194.825;    0.000
260.556; 1263.950;  161.825;    0.000
260.624; 1207.950;  179.825;    0.000
260.691; 1236.950;  174.825;    0.000
260.759; 1332.950;  164.825;    0.000
260.826; 1238.950;  125.825;    0.000
260.894; 1266.950;  164.825;    0.000
260.961; 1242.950;  147.825;    0.000
261.029; 1324.950;  167.825;    0.000
261.096; 1368.950;  136.825;    0.000
261.164; 1283.950;  146.825;    0.000
261.231; 1391.950;  190.825;    0.000
261.299; 1341.950;  171.825;    0.000
261.366; 1378.950;  165.825;    0.000
261.434; 1360.950;  160.825;    0.000
261.501; 1302.950;  149.825;    0.000
261.568; 1440.950;  155.825;    0.000
261.636; 1447.950;  137.825;    0.000
261.703; 1497.950;  186.825;    0.000
261.771; 1450.950;  162.825;    0.000
261.838; 1439.950;  190.825;    0.000
261.906; 1462.950;  133.825;    0.000
261.973; 1446.950;  202.825;    0.000
262.040; 1507.950;  179.825;    0.000
262.108; 1523.950;  161.825;    0.000
262.175; 1496.950;  155.825;    0.000
262.243; 1519.950;  158.825;    0.000
262.310; 1521.950;  129.825;    0.000
262.377; 1586.950;  157.825;    0.000
262.445; 1558.950;  132.825;    0.000
262.512; 1570.950;  161.825;    0.000
262.579; 1642.950;  151.825;    0.000
262.647; 1569.950;  174.825;    0.000
262.714; 1599.950;  174.825;    0.000
262.781; 1609.950;  164.825;    0.000
262.849; 1557.950;  168.825;    0.000
262.916; 1683.950;  153.825;    0.000
262.983; 1703.950;  201.825;    0.000
263.051; 1642.950;  117.825;    0.000
263.118; 1731.950;  150.825;    0.000
263.185; 1755.950;  172.825;    0.000
263.252; 1790.950;  154.825;    0.000
263.320; 1768.950;  152.825;    0.000
263.387; 1759.950;  136.825;    0.000
263.454; 1708.950;  167.825;    0.000
263.522; 1824.950;  122.825;    0.000
263.589; 1873.950;  147.825;    0.000
263.656; 1742.950;  130.825;    0.000
263.723; 1740.950;  182.825;    0.000
263.790; 1782.950;  163.825;    0.000
263.858; 1866.950;  161.825;    0.000
263.925; 1841.950;  153.825;    0.000
263.992; 1887.950;  139.825;    0.000
264.059; 1888.950;  141.825;    0.000
264.126; 1831.950;  153.825;    0.000
264.194; 1837.950;  144.825;    0.000
264.261; 1927.950;  188.825;    0.000
264.328; 1884.950;  161.825;    0.000
264.395; 1972.950;  184.825;    0.000
264.462; 1906.950;  162.825;    0.000
264.529; 1979.950;  178.825;    0.000
264.597; 2028.950;  160.825;    0.000
264.664; 1908.950;  158.825;    0.000
264.731; 2004.950;  176.825;    0.000
264.798; 1927.950;  137.825;    0.000
264.865; 2048.950;  175.825;    0.000
264.932; 2050.950;  162.825;    0.000
264.999; 1984.950;  153.825;    0.000
265.066; 2018.950;  168.825;    0.000
265.133; 2030.950;  142.825;    0.000
265.201; 2024.950;  163.825;    0.000
265.268; 2063.950;  143.825;    0.000
265.335; 2084.950;  156.825;    0.000
265.402; 2061.950;  136.825;    0.000
265.469; 2173.950;  127.825;    0.000
265.536; 2146.950;  159.825;    0.000
265.603; 2158.950;  191.825;    0.000
265.670; 2182.950;  136.825;    0.000
265.737; 2119.950;  186.825;    0.000
265.804; 2043.950;  147.825;    0.000
265.871; 2177.950;  147.825;    0.000
265.938; 2269.950;  153.825;    0.000
266.005; 2319.950;  172.825;    0.000
266.072; 2152.950;  151.825;    0.000
266.139; 2206.950;  175.825;    0.000
266.206; 2299.950;  165.825;    0.000
266.273; 2215.950;  162.825;    0.000
266.340; 2184.950;  150.825;    0.000
266.407; 2226.950;  169.825;    0.000
266.474; 2283.950;  151.825;    0.000
266.541; 2250.950;  164.825;    0.000
266.608; 2192.950;  111.825;    0.000
266.675; 2204.950;  173.825;    0.000
266.742; 2305.950;  148.825;    0.000
266.808; 2310.950;  185.825;    0.000
266.875; 2313.950;  188.825;    0.000
266.942; 2270.950;  131.825;    0.000
267.009; 2326.950;  184.825;    0.000
267.076; 2291.950;  200.825;    0.000
267.143; 2259.950;  216.825;    0.000
267.210; 2349.950;  138.825;    0.000
267.277; 2305.950;  143.825;    0.000
267.344; 2399.950;  172.825;    0.000
267.410; 2406.950;  172.825;    0.000
267.477; 2456.950;  160.825;    0.000
267.544; 2345.950;  175.825;    0.000
267.611; 2411.950;  189.825;    0.000
267.678; 2428.950;  162.825;    0.000
267.745; 2439.950;  206.825;    0.000
267.811; 2354.950;  146.825;    0.000
267.878; 2373.950;  147.825;    0.000
267.945; 2432.950;  170.825;    0.000
268.012; 2394.950;  153.825;    0.000
268.079; 2374.950;  185.825;    0.000
268.145; 2479.950;  197.825;    0.000
268.212; 2503.950;  167.825;    0.000
268.279; 2390.950;  145.825;    0.000
268.346; 2373.950;  182.825;    0.000
268.412; 2339.950;  144.825;    0.000
268.479; 2484.950;  186.825;    0.000
268.546; 2506.950;  147.825;    0.000
268.613; 2429.950;  188.825;    0.000
268.679; 2443.950;  173.825;    0.000
268.746; 2398.950;  204.825;    0.000
268.813; 2440.950;  199.825;    0.000
268.879; 2387.950;  157.825;    0.000
268.946; 2409.950;  192.825;    0.000
269.013; 2386.950;  136.825;    0.000
269.079; 2429.950;  166.825;    0.000
269.146; 2400.950;  129.825;    0.000
269.213; 2454.950;  178.825;    0.000
269.280; 2473.950;  148.825;    0.000
269.346; 2373.950;  194.825;    0.000
269.413; 2383.950;  135.825;    0.000
269.479; 2356.950;  180.825;    0.000
269.546; 2483.950;  169.825;    0.000
269.613; 2319.950;  160.825;    0.000
269.679; 2421.950;  161.825;    0.000
269.746; 2372.950;  143.825;    0.000
269.813; 2358.950;  172.825;    0.000
269.879; 2400.950;  152.825;    0.000
269.946; 2434.950;  156.825;    0.000
270.012; 2487.950;  190.825;    0.000
270.079; 2470.950;  143.825;    0.000
270.145; 2355.950;  148.825;    0.000
270.212; 2396.950;  176.825;    0.000
270.279; 2497.950;  168.825;    0.000
270.345; 2436.950;  143.825;    0.000
270.412; 2395.950;  155.825;    0.000
270.478; 2422.950;  176.825;    0.000
270.545; 2442.950;  112.825;    0.000
270.611; 2477.950;  186.825;    0.000
270.678; 2384.950;  141.825;    0.000
270.744; 2380.950;  145.825;    0.000
270.811; 2421.950;  120.825;    0.000
270.877; 2373.950;  118.825;    0.000
270.944; 2429.950;  135.825;    0.000
271.010; 2478.950;  128.825;    0.000
271.077; 2376.950;  176.825;    0.000
271.143; 2405.950;  162.825;    0.000
271.210; 2471.950;  133.825;    0.000
271.276; 2433.950;  107.825;    0.000
271.342; 2409.950;  202.825;    0.000
271.409; 2450.950;  160.825;    0.000
271.475; 2265.950;  165.825;    0.000
271.542; 2454.950;  152.825;    0.000
271.608; 2437.950;  163.825;    0.000
271.675; 2419.950;  149.825;    0.000
271.741; 2371.950;  164.825;    0.000
271.807; 2335.950;  128.825;    0.000
271.874; 2351.950;  148.825;    0.000
271.940; 2539.950;  179.825;    0.000
272.007; 2418.950;  148.825;    0.000
272.073; 2370.950;  146.825;    0.000
272.139; 2458.950;  166.825;    0.000
272.206; 2518.950;  198.825;    0.000
272.272; 2428.950;  201.825;    0.000
272.338; 2409.950;  208.825;    0.000
272.405; 2513.950;  181.825;    0.000
272.471; 2423.950;  167.825;    0.000
272.537; 2521.950;  189.825;    0.000
272.604; 2464.950;  162.825;    0.000
272.670; 2461.950;  194.825;    0.000
272.736; 2485.950;  176.825;    0.000
272.802; 2440.950;  163.825;    0.000
272.869; 2489.950;  170.825;    0.000
272.935; 2504.950;  145.825;    0.000
273.001; 2463.950;  149.825;    0.000
273.068; 2591.950;  172.825;    0.000
273.134; 2502.950;  155.825;    0.000
273.200; 2605.950;  183.825;    0.000
273.266; 2530.950;  160.825;    0.000
273.333; 2552.950;  190.825;    0.000
273.399; 2540.950;  132.825;    0.000
273.465; 2613.950;  179.825;    0.000
273.531; 2517.950;  161.825;    0.000
273.597; 2549.950;  194.825;    0.000
273.664; 2532.950;  193.825;    0.000
273.730; 2562.950;  180.825;    0.000
273.796; 2535.950;  145.825;    0.000
273.862; 2603.950;  176.825;    0.000
273.928; 2619.950;  169.825;    0.000
273.995; 2700.950;  202.825;    0.000
274.061; 2569.950;  176.825;    0.000
274.127; 2678.950;  178.825;    0.000
274.193; 2612.950;  106.825;    0.000
274.259; 2652.950;  186.825;    0.000
274.325; 2664.950;  163.825;    0.000
274.391; 2717.950;  162.825;    0.000
274.457; 2763.950;  145.825;    0.000
274.524; 2810.950;  189.825;    0.000
274.590; 2674.950;  161.825;    0.000
274.656; 2730.950;  157.825;    0.000
274.722; 2769.950;  143.825;    0.000
274.788; 2750.950;  166.825;    0.000
274.854; 2789.950;  200.825;    0.000
274.920; 2747.950;  132.825;    0.000
274.986; 2749.950;  184.825;    0.000
275.052; 2829.950;  169.825;    0.000
275.118; 2865.950;  153.825;    0.000
275.184; 2943.950;  182.825;    0.000
275.250; 2926.950;  124.825;    0.000
275.316; 2971.950;  154.825;    0.000
275.382; 2921.950;  150.825;    0.000
275.448; 3011.950;  180.825;    0.000
275.514; 3010.950;  143.825;    0.000
275.580; 3025.950;  120.825;    0.000
275.646; 3060.950;  127.825;    0.000
275.712; 3129.950;  109.825;    0.000
275.778; 3218.950;  126.825;    0.000
275.844; 3113.950;  155.825;    0.000
275.910; 3247.950;  164.825;    0.000
275.976; 3350.950;  161.825;    0.000
276.042; 3295.950;  152.825;    0.000
276.108; 3489.950;  159.825;    0.000
276.174; 3403.950;  149.825;    0.000
276.240; 3468.950;  112.825;    0.000
276.306; 3511.950;  142.825;    0.000
276.372; 3550.950;  136.825;    0.000
276.437; 3643.950;  141.825;    0.000
276.503; 3716.950;  150.825;    0.000
276.569; 3830.950;  178.825;    0.000
276.635; 3766.950;  117.825;    0.000
276.701; 3999.950;  174.825;    0.000
276.767; 3970.950;  136.825;    0.000
276.833; 3966.950;  119.825;    0.000
276.899; 4009.950;  171.825;    0.000
276.964; 4233.950;  146.825;    0.000
277.030; 4376.950;  157.825;    0.000
277.096; 4467.950;  124.825;    0.000
277.162; 4647.950;  185.825;    0.000
277.228; 4791.950;  125.825;    0.000
277.293; 4869.950;  159.825;    0.000
277.359; 5182.950;  186.825;    0.000
277.425; 5352.950;  176.825;    0.000
277.491; 5642.950;  140.825;    0.000
277.557; 6778.950;  172.825;    0.000
277.622; 8825.950;  187.825;    0.000
277.688; 8715.950;  203.825;    0.000
277.754; 8910.950;  170.825;    0.000
277.820; 9685.950;  142.825;    0.000
277.885;11211.950;  182.825;    0.000
277.951;13287.950;  171.825;    0.000
278.017;11920.950;  173.825;    0.000
278.083;10661.950;  151.825;    0.000
278.148;10495.950;  159.825;    0.000
278.214;10580.950;  173.825;    0.000
278.280;11028.950;  137.825;    0.000
278.345;10198.950;  190.825;    0.000
278.411; 9659.950;  149.825;    0.000
278.477;10150.950;  157.825;    0.000
278.542;10826.950;  136.825;    0.000
278.608;11394.950;  144.825;    0.000
278.674;12559.950;  215.825;    0.000
278.739;13926.950;  148.825;    0.000
278.805;15805.950;  152.825;    0.000
278.871;18131.949;  170.825;    0.000
278.936;22159.949;  180.825;    0.000
279.002;29988.949;  177.825;    0.000
279.067;37597.949;  172.825;    0.000
279.133;36973.949;  160.825;    0.000
279.199;34748.949;  165.825;    0.000
279.264;36032.949;  130.825;    0.000
279.330;40508.949;  154.825;    0.000
279.395;48509.949;  170.825;    0.000
279.461;55369.949;  136.825;    0.000
279.527;58310.949;  174.825;    0.000
279.592;57860.949;  179.825;    0.000
279.658;53508.949;  187.825;    0.000
279.723;52881.949;  201.825;    0.000
279.789;53929.949;  194.825;    0.000
279.854;49703.949;  171.825;    0.000
279.920;43386.949;  183.825;    0.000
279.985;40472.949;  173.825;    0.000
280.051;41089.949;  194.825;    0.000
280.116;45749.949;  197.825;    0.000
280.182;54056.949;  171.825;    0.000
280.247;58039.949;  131.825;    0.000
280.313;52864.949;  166.825;    0.000
280.378;42997.949;  159.825;    0.000
280.444;33973.949;  190.825;    0.000
280.509;28314.949;  189.825;    0.000
280.574;24046.949;  171.825;    0.000
280.640;21256.949;  167.825;    0.000
280.705;18921.949;  129.825;    0.000
280.771;17109.949;  193.825;    0.000
280.836;15937.950;  172.825;    0.000
280.902;15033.950;  189.825;    0.000
280.967;13826.950;  143.825;    0.000
281.032;13441.950;  182.825;    0.000
281.098;12493.950;  172.825;    0.000
281.163;11931.950;  184.825;    0.000
281.229;11145.950;  210.825;    0.000
281.294;10587.950;  223.825;    0.000
281.359;10183.950;  197.825;    0.000
281.425;10017.950;  192.825;    0.000
281.490; 9434.950;  162.825;    0.000
281.555; 8999.950;  193.825;    0.000
281.621; 8800.950;  141.825;    0.000
281.686; 8494.950;  166.825;    0.000
281.751; 8177.950;  204.825;    0.000
281.816; 7937.950;  159.825;    0.000
281.882; 7562.950;  146.825;    0.000
281.947; 7714.950;  176.825;    0.000
282.012; 7319.950;  139.825;    0.000
282.078; 7073.950;  186.825;    0.000
282.143; 6851.950;  151.825;    0.000
282.208; 6883.950;  213.825;    0.000
282.273; 6685.950;  160.825;    0.000
282.339; 6512.950;  175.825;    0.000
282.404; 6383.950;  157.825;    0.000
282.469; 6168.950;  185.825;    0.000
282.534; 6132.950;  166.825;    0.000
282.600; 6117.950;  168.825;    0.000
282.665; 6036.950;  167.825;    0.000
282.730; 5966.950;  148.825;    0.000
282.795; 5724.950;  186.825;    0.000
282.860; 5860.950;  161.825;    0.000
282.926; 5861.950;  178.825;    0.000
282.991; 5516.950;  139.825;    0.000
283.056; 5489.950;  158.825;    0.000
283.121; 5492.950;  191.825;    0.000
283.186; 5358.950;  182.825;    0.000
283.251; 5489.950;  181.825;    0.000
283.316; 5304.950;  187.825;    0.000
283.382; 5363.950;  175.825;    0.000
283.447; 5262.950;  183.825;    0.000
283.512; 5279.950;  175.825;    0.000
283.577; 5237.950;  180.825;    0.000
283.642; 5196.950;  193.825;    0.000
283.707; 5096.950;  145.825;    0.000
283.772; 5099.950;  143.825;    0.000
283.837; 5072.950;  143.825;    0.000
283.902; 5049.950;  150.825;    0.000
283.967; 5004.950;  166.825;    0.000
284.032; 4970.950;  126.825;    0.000
284.097; 5108.950;  201.825;    0.000
284.163; 5042.950;  133.825;    0.000
284.228; 5181.950;  193.825;    0.000
284.293; 5168.950;  157.825;    0.000
284.358; 5199.950;  185.825;    0.000
284.423; 5072.950;  142.825;    0.000
284.488; 5289.950;  192.825;    0.000
284.553; 5385.950;  146.825;    0.000
284.618; 5578.950;  154.825;    0.000
284.683; 5680.950;  172.825;    0.000
284.748; 5880.950;  195.825;    0.000
284.812; 6349.950;  190.825;    0.000
284.877; 7015.950;  169.825;    0.000
284.942; 8027.950;  195.825;    0.000
285.007; 9290.950;  204.825;    0.000
285.072;12050.950;  189.825;    0.000
285.137;16407.949;  149.825;    0.000
285.202;20458.949;  164.825;    0.000
285.267;19416.949;  161.825;    0.000
285.332;14789.950;  140.825;    0.000
285.397;11839.950;  142.825;    0.000
285.462; 9718.950;  146.825;    0.000
285.527; 8361.950;  132.825;    0.000
285.591; 7618.950;  160.825;    0.000
285.656; 6999.950;  136.825;    0.000
285.721; 6416.950;  135.825;    0.000
285.786; 6229.950;  171.825;    0.000
285.851; 5865.950;  168.825;    0.000
285.916; 5737.950;  178.825;    0.000
285.981; 5510.950;  152.825;    0.000
286.045; 5406.950;  167.825;    0.000
286.110; 5173.950;  187.825;    0.000
286.175; 4969.950;  162.825;    0.000
286.240; 5023.950;  163.825;    0.000
286.305; 4907.950;  190.825;    0.000
286.369; 4851.950;  143.825;    0.000
286.434; 4903.950;  185.825;    0.000
286.499; 4757.950;  195.825;    0.000
286.564; 4696.950;  173.825;    0.000
286.628; 4628.950;  159.825;    0.000
286.693; 4686.950;  175.825;    0.000
286.758; 4650.950;  170.825;    0.000
286.823; 4497.950;  129.825;    0.000
286.887; 4354.950;  172.825;    0.000
286.952; 4464.950;  163.825;    0.000
287.017; 4501.950;  217.825;    0.000
287.082; 4437.950;  165.825;    0.000
287.146; 4341.950;  176.825;    0.000
287.211; 4311.950;  192.825;    0.000
287.276; 4238.950;  147.825;    0.000
287.340; 4225.950;  162.825;    0.000
287.405; 4307.950;  196.825;    0.000
287.470; 4235.950;  148.825;    0.000
287.534; 4276.950;  166.825;    0.000
287.599; 4267.950;  193.825;    0.000
287.663; 4145.950;  191.825;    0.000
287.728; 4214.950;  146.825;    0.000
287.793; 4150.950;  234.825;    0.000
287.857; 4272.950;  177.825;    0.000
287.922; 4218.950;  166.825;    0.000
287.987; 4151.950;  169.825;    0.000
288.051; 4083.950;  169.825;    0.000
288.116; 4103.950;  187.825;    0.000
288.180; 4010.950;  200.825;    0.000
288.245; 4157.950;  201.825;    0.000
288.309; 4136.950;  176.825;    0.000
288.374; 4062.950;  162.825;    0.000
288.439; 4196.950;  195.825;    0.000
288.503; 4139.950;  162.825;    0.000
288.568; 4105.950;  228.825;    0.000
288.632; 4074.950;  194.825;    0.000
288.697; 4067.950;  173.825;    0.000
288.761; 3968.950;  153.825;    0.000
288.826; 3896.950;  151.825;    0.000
288.890; 4093.950;  208.825;    0.000
288.955; 4041.950;  159.825;    0.000
289.019; 4016.950;  198.825;    0.000
289.084; 4030.950;  152.825;    0.000
289.148; 4010.950;  171.825;    0.000
289.212; 3889.950;  184.825;    0.000
289.277; 3941.950;  165.825;    0.000
289.341; 3992.950;  207.825;    0.000
289.406; 3905.950;  156.825;    0.000
289.470; 3915.950;  191.825;    0.000
289.535; 3861.950;  222.825;    0.000
289.599; 3925.950;  214.825;    0.000
289.663; 3950.950;  183.825;    0.000
289.728; 3975.950;  192.825;    0.000
289.792; 3996.950;  197.825;    0.000
289.857; 3933.950;  221.825;    0.000
289.921; 3807.950;  177.825;    0.000
289.985; 3975.950;  177.825;    0.000
290.050; 3970.950;  178.825;    0.000
290.114; 3756.950;  112.825;    0.000
290.178; 3889.950;  170.825;    0.000
290.243; 3910.950;  162.825;    0.000
290.307; 3914.950;  178.825;    0.000
290.371; 3961.950;  141.825;    0.000
290.436; 3932.950;  178.825;    0.000
290.500; 3935.950;  135.825;    0.000
290.564; 4027.950;  199.825;    0.000
290.629; 3953.950;  165.825;    0.000
290.693; 3855.950;  154.825;    0.000
290.757; 3990.950;  159.825;    0.000
290.821; 3960.950;  179.825;    0.000
290.886; 3970.950;  141.825;    0.000
290.950; 4009.950;  166.825;    0.000
291.014; 3944.950;  169.825;    0.000
291.078; 4017.950;  191.825;    0.000
291.143; 4038.950;  169.825;    0.000
291.207; 4085.950;  164.825;    0.000
291.271; 4083.950;  193.825;    0.000
291.335; 4212.950;  150.825;    0.000
291.399; 4199.950;  175.825;    0.000
291.464; 4575.950;  128.825;    0.000
291.528; 4635.950;  162.825;    0.000
291.592; 4546.950;  152.825;    0.000
291.656; 4320.950;  175.825;    0.000
291.720; 4382.950;  173.825;    0.000
291.784; 4428.950;  192.825;    0.000
291.849; 4366.950;  159.825;    0.000
291.913; 4233.950;  174.825;    0.000
291.977; 4262.950;  177.825;    0.000
292.041; 4301.950;  188.825;    0.000
292.105; 4520.950;  174.825;    0.000
292.169; 4333.950;  143.825;    0.000
292.233; 4469.950;  149.825;    0.000
292.297; 4517.950;  176.825;    0.000
292.361; 4679.950;  178.825;    0.000
292.425; 4672.950;  153.825;    0.000
292.490; 5015.950;  185.825;    0.000
292.554; 4991.950;  144.825;    0.000
292.618; 5445.950;  166.825;    0.000
292.682; 5778.950;  181.825;    0.000
292.746; 6510.950;  152.825;    0.000
292.810; 8562.950;  208.825;    0.000
292.874;10228.950;  142.825;    0.000
292.938;10699.950;  195.825;    0.000
293.002; 9893.950;  156.825;    0.000
293.066; 9163.950;  108.825;    0.000
293.130; 8337.950;  136.825;    0.000
293.194; 8002.950;  135.825;    0.000
293.258; 7862.950;  187.825;    0.000
293.322; 7587.950;  148.825;    0.000
293.386; 7854.950;  186.825;    0.000
293.450; 8047.950;  196.825;    0.000
293.514; 9137.950;  175.825;    0.000
293.577;11611.950;  137.825;    0.000
293.641;15364.950;  142.825;    0.000
293.705;16525.949;  201.825;    0.000
293.769;15030.950;  150.825;    0.000
293.833;13381.950;  147.825;    0.000
293.897;11990.950;  170.825;    0.000
293.961;10864.950;  121.825;    0.000
294.025; 9845.950;  172.825;    0.000
294.089; 9065.950;  167.825;    0.000
294.152; 8537.950;  167.825;    0.000
294.216; 7975.950;  165.825;    0.000
294.280; 7346.950;  168.825;    0.000
294.344; 6925.950;  160.825;    0.000
294.408; 6763.950;  187.825;    0.000
294.472; 6343.950;  141.825;    0.000
294.536; 6234.950;  184.825;    0.000
294.599; 6019.950;  176.825;    0.000
294.663; 5617.950;  120.825;    0.000
294.727; 5658.950;  159.825;    0.000
294.791; 5376.950;  190.825;    0.000
294.855; 5261.950;  148.825;    0.000
294.918; 5274.950;  160.825;    0.000
294.982; 5125.950;  156.825;    0.000
295.046; 4947.950;  177.825;    0.000
295.110; 4960.950;  149.825;    0.000
295.173; 4681.950;  156.825;    0.000
295.237; 4705.950;  174.825;    0.000
295.301; 4607.950;  152.825;    0.000
295.364; 4542.950;  204.825;    0.000
295.428; 4584.950;  196.825;    0.000
295.492; 4523.950;  178.825;    0.000
295.556; 4365.950;  161.825;    0.000
295.619; 4474.950;  178.825;    0.000
295.683; 4219.950;  152.825;    0.000
295.747; 4192.950;  148.825;    0.000
295.810; 4268.950;  177.825;    0.000
295.874; 4153.950;  146.825;    0.000
295.938; 4103.950;  115.825;    0.000
296.001; 4156.950;  172.825;    0.000
296.065; 4010.950;  146.825;    0.000
296.128; 3960.950;  164.825;    0.000
296.192; 3959.950;  137.825;    0.000
296.256; 3892.950;  143.825;    0.000
296.319; 3964.950;  156.825;    0.000
296.383; 3897.950;  165.825;    0.000
296.447; 3934.950;  170.825;    0.000
296.510; 3886.950;  174.825;    0.000
296.574; 3740.950;  127.825;    0.000
296.637; 3798.950;  132.825;    0.000
296.701; 3663.950;  206.825;    0.000
296.764; 3675.950;  179.825;    0.000
296.828; 3893.950;  213.825;    0.000
296.891; 3712.950;  149.825;    0.000
296.955; 3663.950;  170.825;    0.000
297.018; 3654.950;  185.825;    0.000
297.082; 3664.950;  205.825;    0.000
297.145; 3585.950;  154.825;    0.000
297.209; 3598.950;  200.825;    0.000
297.272; 3542.950;  157.825;    0.000
297.336; 3615.950;  164.825;    0.000
297.399; 3592.950;  166.825;    0.000
297.463; 3663.950;  195.825;    0.000
297.526; 3615.950;  176.825;    0.000
297.590; 3539.950;  198.825;    0.000
297.653; 3418.950;  146.825;    0.000
297.717; 3496.950;  175.825;    0.000
297.780; 3514.950;  139.825;    0.000
297.843; 3466.950;  174.825;    0.000
297.907; 3566.950;  149.825;    0.000
297.970; 3517.950;  161.825;    0.000
298.034; 3476.950;  185.825;    0.000
298.097; 3485.950;  167.825;    0.000
298.160; 3391.950;  195.825;    0.000
298.224; 3407.950;  178.825;    0.000
298.287; 3415.950;  164.825;    0.000
298.350; 3464.950;  194.825;    0.000
298.414; 3431.950;  191.825;    0.000
298.477; 3372.950;  155.825;    0.000
298.540; 3274.950;  139.825;    0.000
298.604; 3376.950;  198.825;    0.000
298.667; 3274.950;  183.825;    0.000
298.730; 3266.950;  185.825;    0.000
298.794; 3366.950;  153.825;    0.000
298.857; 3197.950;  169.825;    0.000
298.920; 3268.950;  159.825;    0.000
298.984; 3311.950;  179.825;    0.000
299.047; 3261.950;  174.825;    0.000
299.110; 3311.950;  144.825;    0.000
299.173; 3177.950;  190.825;    0.000
299.237; 3248.950;  163.825;    0.000
299.300; 3194.950;  153.825;    0.000
299.363; 3107.950;  145.825;    0.000
299.426; 3222.950;  160.825;    0.000
299.489; 3235.950;  173.825;    0.000
299.553; 3158.950;  209.825;    0.000
299.616; 3071.950;  172.825;    0.000
299.679; 3154.950;  204.825;    0.000
299.742; 3143.950;  162.825;    0.000
299.805; 3164.950;  198.825;    0.000
299.868; 3195.950;  176.825;    0.000
299.932; 3142.950;  166.825;    0.000
299.995; 3243.950;  162.825;    0.000
300.058; 3074.950;  175.825;    0.000
300.121; 3108.950;  197.825;    0.000
300.184; 3122.950;  188.825;    0.000
300.247; 3095.950;  181.825;    0.000
300.310; 3114.950;  161.825;    0.000
300.374; 3081.950;  201.825;    0.000
300.437; 3032.950;  156.825;    0.000
300.500; 3063.950;  180.825;    0.000
300.563; 3086.950;  174.825;    0.000
300.626; 3041.950;  206.825;    0.000
300.689; 3137.950;  218.825;    0.000
300.752; 2994.950;  192.825;    0.000
300.815; 2898.950;  172.825;    0.000
300.878; 3033.950;  207.825;    0.000
300.941; 2997.950;  163.825;    0.000
301.004; 3053.950;  171.825;    0.000
301.067; 2949.950;  198.825;    0.000
301.130; 3037.950;  156.825;    0.000
301.193; 2987.950;  173.825;    0.000
301.256; 2993.950;  167.825;    0.000
301.319; 2969.950;  211.825;    0.000
301.382; 2895.950;  167.825;    0.000
301.445; 3121.950;  224.825;    0.000
301.508; 2838.950;  168.825;    0.000
301.571; 2945.950;  161.825;    0.000
301.634; 2989.950;  177.825;    0.000
301.697; 2890.950;  203.825;    0.000
301.760; 3143.950;  190.825;    0.000
301.823; 3027.950;  182.825;    0.000
301.885; 3033.950;  202.825;    0.000
301.948; 3023.950;  200.825;    0.000
302.011; 2993.950;  157.825;    0.000
302.074; 3022.950;  205.825;    0.000
302.137; 2932.950;  149.825;    0.000
302.200; 2919.950;  201.825;    0.000
302.263; 2936.950;  178.825;    0.000
302.326; 2939.950;  184.825;    0.000
302.388; 2911.950;  176.825;    0.000
302.451; 2896.950;  146.825;    0.000
302.514; 2888.950;  192.825;    0.000
302.577; 3002.950;  181.825;    0.000
302.640; 2940.950;  186.825;    0.000
302.703; 2816.950;  164.825;    0.000
302.765; 2876.950;  197.825;    0.000
302.828; 3008.950;  208.825;    0.000
302.891; 2847.950;  168.825;    0.000
302.954; 2894.950;  177.825;    0.000
303.016; 2920.950;  190.825;    0.000
303.079; 2908.950;  216.825;    0.000
303.142; 2866.950;  228.825;    0.000
303.205; 2922.950;  192.825;    0.000
303.267; 2871.950;  182.825;    0.000
303.330; 2912.950;  201.825;    0.000
303.393; 2946.950;  196.825;    0.000
303.456; 2883.950;  184.825;    0.000
303.518; 2867.950;  194.825;    0.000
303.581; 2934.950;  195.825;    0.000
303.644; 2910.950;  184.825;    0.000
303.706; 2803.950;  150.825;    0.000
303.769; 2904.950;  182.825;    0.000
303.832; 2860.950;  143.825;    0.000
303.894; 2919.950;  207.825;    0.000
303.957; 2845.950;  178.825;    0.000
304.020; 2856.950;  203.825;    0.000
304.082; 2908.950;  175.825;    0.000
304.145; 2962.950;  171.825;    0.000
304.207; 2940.950;  157.825;    0.000
304.270; 2919.950;  195.825;    0.000
304.333; 2918.950;  195.825;    0.000
304.395; 2864.950;  197.825;    0.000
304.458; 2835.950;  231.825;    0.000
304.520; 2972.950;  218.825;    0.000
304.583; 2890.950;  177.825;    0.000
304.646; 2839.950;  177.825;    0.000
304.708; 2866.950;  178.825;    0.000
304.771; 2840.950;  143.825;    0.000
304.833; 2928.950;  241.825;    0.000
304.896; 2911.950;  200.825;    0.000
304.958; 2916.950;  176.825;    0.000
305.021; 2881.950;  159.825;    0.000
305.083; 2872.950;  159.825;    0.000
305.146; 2842.950;  190.825;    0.000
305.208; 2882.950;  152.825;    0.000
305.271; 2828.950;  162.825;    0.000
305.333; 2973.950;  219.825;    0.000
305.396; 2904.950;  163.825;    0.000
305.458; 2895.950;  215.825;    0.000
305.520; 2903.950;  174.825;    0.000
305.583; 2852.950;  161.825;    0.000
305.645; 2907.950;  203.825;    0.000
305.708; 2812.950;  163.825;    0.000
305.770; 3012.950;  215.825;    0.000
305.833; 2952.950;  207.825;    0.000
305.895; 2914.950;  166.825;    0.000
305.957; 2942.950;  175.825;    0.000
306.020; 2848.950;  169.825;    0.000
306.082; 2830.950;  203.825;    0.000
306.144; 2838.950;  181.825;    0.000
306.207; 2895.950;  199.825;    0.000
306.269; 2889.950;  177.825;    0.000
306.331; 2944.950;  160.825;    0.000
306.394; 3001.950;  193.825;    0.000
306.456; 2843.950;  136.825;    0.000
306.518; 2954.950;  189.825;    0.000
306.581; 2919.950;  156.825;    0.000
306.643; 2952.950;  190.825;    0.000
306.705; 2971.950;  190.825;    0.000
306.768; 2938.950;  172.825;    0.000
306.830; 2903.950;  214.825;    0.000
306.892; 2966.950;  198.825;    0.000
306.954; 2944.950;  177.825;    0.000
307.017; 2944.950;  183.825;    0.000
307.079; 2967.950;  170.825;    0.000
307.141; 3008.950;  173.825;    0.000
307.203; 2987.950;  171.825;    0.000
307.266; 3042.950;  166.825;    0.000
307.328; 3054.950;  207.825;    0.000
307.390; 3132.950;  201.825;    0.000
307.452; 3020.950;  182.825;    0.000
307.514; 3120.950;  213.825;    0.000
307.577; 3079.950;  213.825;    0.000
307.639; 2971.950;  197.825;    0.000
307.701; 3010.950;  174.825;    0.000
307.763; 3106.950;  181.825;    0.000
307.825; 3082.950;  186.825;    0.000
307.887; 3130.950;  198.825;    0.000
307.949; 3118.950;  158.825;    0.000
308.012; 3175.950;  209.825;    0.000
308.074; 3109.950;  176.825;    0.000
308.136; 3045.950;  227.825;    0.000
308.198; 3047.950;  187.825;    0.000
308.260; 3137.950;  211.825;    0.000
308.322; 3086.950;  206.825;    0.000
308.384; 3179.950;  186.825;    0.000
308.446; 3105.950;  175.825;    0.000
308.508; 3108.950;  211.825;    0.000
308.570; 3191.950;  191.825;    0.000
308.632; 3225.950;  195.825;    0.000
308.694; 3146.950;  173.825;    0.000
308.756; 3219.950;  185.825;    0.000
308.818; 3174.950;  195.825;    0.000
308.880; 3262.950;  189.825;    0.000
308.942; 3339.950;  231.825;    0.000
309.004; 3447.950;  188.825;    0.000
309.066; 3410.950;  196.825;    0.000
309.128; 3413.950;  155.825;    0.000
309.190; 3497.950;  176.825;    0.000
309.252; 3708.950;  191.825;    0.000
309.314; 3712.950;  236.825;    0.000
309.376; 3681.950;  212.825;    0.000
309.438; 3559.950;  201.825;    0.000
309.500; 3607.950;  206.825;    0.000
309.562; 3672.950;  213.825;    0.000
309.624; 3792.950;  196.825;    0.000
309.686; 3895.950;  198.825;    0.000
309.747; 3708.950;  186.825;    0.000
309.809; 3692.950;  215.825;    0.000
309.871; 3702.950;  242.825;    0.000
309.933; 3472.950;  162.825;    0.000
309.995; 3576.950;  163.825;    0.000
310.057; 3506.950;  145.825;    0.000
310.119; 3352.950;  205.825;    0.000
310.180; 3415.950;  195.825;    0.000
310.242; 3380.950;  167.825;    0.000
310.304; 3428.950;  213.825;    0.000
310.366; 3465.950;  224.825;    0.000
310.428; 3288.950;  170.825;    0.000
310.489; 3358.950;  195.825;    0.000
310.551; 3330.950;  207.825;    0.000
310.613; 3282.950;  168.825;    0.000
310.675; 3421.950;  188.825;    0.000
310.737; 3332.950;  211.825;    0.000
310.798; 3299.950;  221.825;    0.000
310.860; 3347.950;  201.825;    0.000
310.922; 3209.950;  206.825;    0.000
310.983; 3247.950;  222.825;    0.000
311.045; 3288.950;  235.825;    0.000
311.107; 3296.950;  184.825;    0.000
311.169; 3252.950;  148.825;    0.000
311.230; 3241.950;  211.825;    0.000
311.292; 3260.950;  235.825;    0.000
311.354; 3172.950;  183.825;    0.000
311.415; 3204.950;  196.825;    0.000
311.477; 3164.950;  200.825;    0.000
311.539; 3215.950;  171.825;    0.000
311.600; 3202.950;  169.825;    0.000
311.662; 3340.950;  231.825;    0.000
311.724; 3250.950;  204.825;    0.000
311.785; 3168.950;  214.825;    0.000
311.847; 3098.950;  193.825;    0.000
311.908; 3155.950;  180.825;    0.000
311.970; 3238.950;  233.825;    0.000
312.032; 3199.950;  192.825;    0.000
312.093; 3198.950;  195.825;    0.000
312.155; 3225.950;  194.825;    0.000
312.216; 3242.950;  238.825;    0.000
312.278; 3129.950;  146.825;    0.000
312.339; 3128.950;  184.825;    0.000
312.401; 3131.950;  201.825;    0.000
312.462; 3161.950;  173.825;    0.000
312.524; 3235.950;  205.825;    0.000
312.585; 3093.950;  199.825;    0.000
312.647; 3288.950;  168.825;    0.000
312.708; 3192.950;  180.825;    0.000
312.770; 3277.950;  180.825;    0.000
312.831; 3292.950;  176.825;    0.000
312.893; 3183.950;  211.825;    0.000
312.954; 3262.950;  178.825;    0.000
313.016; 3260.950;  204.825;    0.000
313.077; 3221.950;  216.825;    0.000
313.139; 3186.950;  172.825;    0.000
313.200; 3254.950;  197.825;    0.000
313.261; 3265.950;  227.825;    0.000
313.323; 3174.950;  204.825;    0.000
313.384; 3193.950;  182.825;    0.000
313.446; 3241.950;  204.825;    0.000
313.507; 3059.950;  164.825;    0.000
313.568; 3161.950;  197.825;    0.000
313.630; 3183.950;  190.825;    0.000
313.691; 3157.950;  185.825;    0.000
313.752; 3133.950;  192.825;    0.000
313.814; 3260.950;  176.825;    0.000
313.875; 3195.950;  210.825;    0.000
313.936; 3162.950;  165.825;    0.000
313.998; 3209.950;  162.825;    0.000
314.059; 3203.950;  178.825;    0.000
314.120; 3116.950;  176.825;    0.000
314.182; 3136.950;  167.825;    0.000
314.243; 3095.950;  204.825;    0.000
314.304; 3223.950;  197.825;    0.000
314.365; 3196.950;  183.825;    0.000
314.427; 3242.950;  176.825;    0.000
314.488; 3084.950;  149.825;    0.000
314.549; 3150.950;  218.825;    0.000
314.610; 3144.950;  160.825;    0.000
314.672; 3132.950;  187.825;    0.000
314.733; 3063.950;  184.825;    0.000
314.794; 3148.950;  164.825;    0.000
314.855; 3121.950;  191.825;    0.000
314.917; 3204.950;  172.825;    0.000
314.978; 3158.950;  185.825;    0.000
315.039; 3254.950;  194.825;    0.000
315.100; 3216.950;  190.825;    0.000
315.161; 3199.950;  185.825;    0.000
315.222; 3226.950;  204.825;    0.000
315.283; 3123.950;  166.825;    0.000
315.345; 3189.950;  133.825;    0.000
315.406; 3068.950;  191.825;    0.000
315.467; 3142.950;  166.825;    0.000
315.528; 3073.950;  194.825;    0.000
315.589; 3220.950;  193.825;    0.000
315.650; 3219.950;  190.825;    0.000
315.711; 3116.950;  219.825;    0.000
315.772; 3189.950;  159.825;    0.000
315.833; 3051.950;  191.825;    0.000
315.894; 3190.950;  202.825;    0.000
315.955; 3182.950;  167.825;    0.000
316.016; 3160.950;  177.825;    0.000
316.078; 3129.950;  185.825;    0.000
316.139; 3192.950;  219.825;    0.000
316.200; 3149.950;  163.825;    0.000
316.261; 3059.950;  183.825;    0.000
316.322; 3134.950;  230.825;    0.000
316.383; 3095.950;  198.825;    0.000
316.444; 3168.950;  209.825;    0.000
316.504; 3065.950;  179.825;    0.000
316.565; 3032.950;  185.825;    0.000
316.626; 3143.950;  155.825;    0.000
316.687; 3058.950;  211.825;    0.000
316.748; 3122.950;  192.825;    0.000
316.809; 3041.950;  183.825;    0.000
316.870; 3140.950;  196.825;    0.000
316.931; 3112.950;  173.825;    0.000
316.992; 3157.950;  179.825;    0.000
317.053; 3149.950;  186.825;    0.000
317.114; 3121.950;  189.825;    0.000
317.175; 3176.950;  226.825;    0.000
317.235; 3094.950;  206.825;    0.000
317.296; 3071.950;  191.825;    0.000
317.357; 3151.950;  173.825;    0.000
317.418; 3103.950;  212.825;    0.000
317.479; 3090.950;  247.825;    0.000
317.540; 3029.950;  205.825;    0.000
317.601; 3062.950;  205.825;    0.000
317.661; 3038.950;  150.825;    0.000
317.722; 3030.950;  198.825;    0.000
317.783; 2999.950;  153.825;    0.000
317.844; 3127.950;  202.825;    0.000
317.904; 3031.950;  180.825;    0.000
317.965; 3075.950;  205.825;    0.000
318.026; 3047.950;  223.825;    0.000
318.087; 3106.950;  218.825;    0.000
318.148; 2994.950;  207.825;    0.000
318.208; 2974.950;  212.825;    0.000
318.269; 3006.950;  174.825;    0.000
318.330; 3064.950;  191.825;    0.000
318.390; 3069.950;  197.825;    0.000
318.451; 3001.950;  167.825;    0.000
318.512; 3021.950;  174.825;    0.000
318.572; 3087.950;  199.825;    0.000
318.633; 3082.950;  233.825;    0.000
318.694; 2975.950;  232.825;    0.000
318.754; 3009.950;  181.825;    0.000
318.815; 3001.950;  199.825;    0.000
318.876; 3082.950;  207.825;    0.000
318.936; 3117.950;  202.825;    0.000
318.997; 3040.950;  182.825;    0.000
319.058; 3027.950;  180.825;    0.000
319.118; 2985.950;  199.825;    0.000
319.179; 3029.950;  199.825;    0.000
319.239; 3089.950;  229.825;    0.000
319.300; 3060.950;  223.825;    0.000
319.361; 3012.950;  210.825;    0.000
319.421; 3041.950;  205.825;    0.000
319.482; 3045.950;  205.825;    0.000
319.542; 2973.950;  176.825;    0.000
319.603; 3040.950;  191.825;    0.000
319.663; 3074.950;  183.825;    0.000
319.724; 3075.950;  174.825;    0.000
319.784; 3047.950;  198.825;    0.000
319.845; 3109.950;  218.825;    0.000
319.905; 3018.950;  217.825;    0.000
319.966; 3031.950;  197.825;    0.000
320.026; 3026.950;  209.825;    0.000
320.087; 3046.950;  225.825;    0.000
320.147; 2983.950;  201.825;    0.000
320.208; 2977.950;  176.825;    0.000
320.268; 3052.950;  168.825;    0.000
320.329; 3065.950;  238.825;    0.000
320.389; 3053.950;  220.825;    0.000
320.449; 3092.950;  230.825;    0.000
320.510; 2969.950;  234.825;    0.000
320.570; 2966.950;  210.825;    0.000
320.631; 2969.950;  207.825;    0.000
320.691; 2989.950;  222.825;    0.000
320.751; 2960.950;  195.825;    0.000
320.812; 2993.950;  193.825;    0.000
320.872; 3077.950;  237.825;    0.000
320.932; 2921.950;  213.825;    0.000
320.993; 2923.950;  185.825;    0.000
321.053; 3014.950;  245.825;    0.000
321.113; 3075.950;  206.825;    0.000
321.174; 2971.950;  202.825;    0.000
321.234; 3065.950;  244.825;    0.000
321.294; 2936.950;  228.825;    0.000
321.355; 2971.950;  208.825;    0.000
321.415; 3024.950;  223.825;    0.000
321.475; 3060.950;  203.825;    0.000
321.535; 3015.950;  230.825;    0.000
321.596; 2910.950;  186.825;    0.000
321.656; 2970.950;  216.825;    0.000
321.716; 3072.950;  207.825;    0.000
321.776; 2984.950;  181.825;    0.000
321.837; 2992.950;  207.825;    0.000
321.897; 3055.950;  225.825;    0.000
321.957; 2953.950;  222.825;    0.000
322.017; 2964.950;  215.825;    0.000
322.077; 2946.950;  250.825;    0.000
322.138; 2968.950;  189.825;    0.000
322.198; 2924.950;  200.825;    0.000
322.258; 2945.950;  217.825;    0.000
322.318; 2942.950;  183.825;    0.000
322.378; 2923.950;  231.825;    0.000
322.438; 2934.950;  228.825;    0.000
322.499; 2996.950;  248.825;    0.000
322.559; 2919.950;  198.825;    0.000
322.619; 2835.950;  221.825;    0.000
322.679; 2896.950;  217.825;    0.000
322.739; 2897.950;  204.825;    0.000
322.799; 2984.950;  236.825;    0.000
322.859; 2892.950;  213.825;    0.000
322.919; 2914.950;  210.825;    0.000
322.979; 2930.950;  244.825;    0.000
323.039; 3011.950;  218.825;    0.000
323.099; 2842.950;  232.825;    0.000
323.159; 2862.950;  216.825;    0.000
323.219; 2883.950;  169.825;    0.000
323.279; 2969.950;  236.825;    0.000
323.339; 2944.950;  243.825;    0.000
323.399; 2961.950;  208.825;    0.000
323.459; 2969.950;  220.825;    0.000
323.519; 2944.950;  228.825;    0.000
323.579; 2895.950;  164.825;    0.000
323.639; 3030.950;  209.825;    0.000
323.699; 2883.950;  188.825;    0.000
323.759; 2899.950;  206.825;    0.000
323.819; 2926.950;  204.825;    0.000
323.879; 2876.950;  222.825;    0.000
323.939; 2941.950;  206.825;    0.000
323.999; 2880.950;  202.825;    0.000
324.059; 2878.950;  245.825;    0.000
324.119; 2863.950;  214.825;    0.000
324.178; 2872.950;  183.825;    0.000
324.238; 2931.950;  193.825;    0.000
324.298; 2794.950;  207.825;    0.000
324.358; 2911.950;  196.825;    0.000
324.418; 2936.950;  193.825;    0.000
324.478; 2936.950;  191.825;    0.000
324.538; 2908.950;  224.825;    0.000
324.597; 2835.950;  187.825;    0.000
324.657; 2830.950;  208.825;    0.000
324.717; 2894.950;  198.825;    0.000
324.777; 2860.950;  159.825;    0.000
324.837; 2800.950;  180.825;    0.000
324.896; 2858.950;  215.825;    0.000
324.956; 2895.950;  210.825;    0.000
325.016; 2935.950;  187.825;    0.000
325.076; 2948.950;  197.825;    0.000
325.135; 2916.950;  226.825;    0.000
325.195; 2839.950;  201.825;    0.000
325.255; 2826.950;  167.825;    0.000
325.315; 2894.950;  217.825;    0.000
325.374; 2806.950;  196.825;    0.000
325.434; 2818.950;  167.825;    0.000
325.494; 2900.950;  214.825;    0.000
325.553; 2873.950;  203.825;    0.000
325.613; 2901.950;  206.825;    0.000
325.673; 2895.950;  148.825;    0.000
325.732; 2887.950;  207.825;    0.000
325.792; 2834.950;  151.825;    0.000
325.852; 2831.950;  195.825;    0.000
325.911; 2907.950;  201.825;    0.000
325.971; 2854.950;  224.825;    0.000
326.031; 2862.950;  201.825;    0.000
326.090; 2827.950;  203.825;    0.000
326.150; 2778.950;  183.825;    0.000
326.209; 2860.950;  226.825;    0.000
326.269; 2823.950;  194.825;    0.000
326.328; 2783.950;  200.825;    0.000
326.388; 2834.950;  177.825;    0.000
326.448; 2879.950;  239.825;    0.000
326.507; 2832.950;  197.825;    0.000
326.567; 2834.950;  161.825;    0.000
326.626; 2794.950;  220.825;    0.000
326.686; 2765.950;  178.825;    0.000
326.745; 2852.950;  167.825;    0.000
326.805; 2878.950;  176.825;    0.000
326.864; 2799.950;  204.825;    0.000
326.924; 2867.950;  218.825;    0.000
326.983; 2839.950;  201.825;    0.000
327.043; 2818.950;  219.825;    0.000
327.102; 2771.950;  202.825;    0.000
327.161; 2800.950;  228.825;    0.000
327.221; 2716.950;  217.825;    0.000
327.280; 2740.950;  188.825;    0.000
327.340; 2749.950;  209.825;    0.000
327.399; 2816.950;  189.825;    0.000
327.459; 2820.950;  216.825;    0.000
327.518; 2694.950;  200.825;    0.000
327.577; 2736.950;  194.825;    0.000
327.637; 2661.950;  180.825;    0.000
327.696; 2758.950;  208.825;    0.000
327.755; 2776.950;  218.825;    0.000
327.815; 2791.950;  234.825;    0.000
327.874; 2784.950;  259.825;    0.000
327.933; 2769.950;  192.825;    0.000
327.993; 2661.950;  208.825;    0.000
328.052; 2754.950;  221.825;    0.000
328.111; 2708.950;  203.825;    0.000
328.171; 2730.950;  221.825;    0.000
328.230; 2775.950;  222.825;    0.000
328.289; 2677.950;  254.825;    0.000
328.349; 2729.950;  232.825;    0.000
328.408; 2760.950;  223.825;    0.000
328.467; 2787.950;  198.825;    0.000
328.526; 2730.950;  217.825;    0.000
328.586; 2731.950;  185.825;    0.000
328.645; 2729.950;  210.825;    0.000
328.704; 2732.950;  211.825;    0.000
328.763; 2760.950;  231.825;    0.000
328.822; 2707.950;  254.825;    0.000
328.882; 2884.950;  216.825;    0.000
328.941; 2781.950;  239.825;    0.000
329.000; 2748.950;  251.825;    0.000
329.059; 2640.950;  227.825;    0.000
329.118; 2694.950;  233.825;    0.000
329.177; 2770.950;  188.825;    0.000
329.237; 2717.950;  257.825;    0.000
329.296; 2794.950;  265.825;    0.000
329.355; 2790.950;  245.825;    0.000
329.414; 2757.950;  236.825;    0.000
329.473; 2751.950;  242.825;    0.000
329.532; 2821.950;  228.825;    0.000
329.591; 2757.950;  206.825;    0.000
329.650; 2755.950;  250.825;    0.000
329.709; 2747.950;  278.825;    0.000
329.768; 2814.950;  219.825;    0.000
329.827; 2787.950;  254.825;    0.000
329.886; 2867.950;  221.825;    0.000
329.945; 2858.950;  239.825;    0.000
330.004; 2950.950;  245.825;    0.000
330.063; 2963.950;  201.825;    0.000
330.122; 3154.950;  227.825;    0.000
330.181; 3464.950;  196.825;    0.000
330.240; 3505.950;  203.825;    0.000
330.299; 3247.950;  214.825;    0.000
330.358; 2924.950;  196.825;    0.000
330.417; 2823.950;  201.825;    0.000
330.476; 2882.950;  248.825;    0.000
330.535; 2661.950;  253.825;    0.000
330.594; 2648.950;  231.825;    0.000
330.653; 2684.950;  210.825;    0.000
330.712; 2680.950;  242.825;    0.000
330.771; 2625.950;  240.825;    0.000
330.830; 2655.950;  230.825;    0.000
330.889; 2620.950;  217.825;    0.000
330.948; 2636.950;  211.825;    0.000
331.006; 2682.950;  217.825;    0.000
331.065; 2635.950;  170.825;    0.000
331.124; 2764.950;  211.825;    0.000
331.183; 2676.950;  192.825;    0.000
331.242; 2588.950;  227.825;    0.000
331.301; 2633.950;  240.825;    0.000
331.359; 2632.950;  223.825;    0.000
331.418; 2556.950;  215.825;    0.000
331.477; 2598.950;  230.825;    0.000
331.536; 2618.950;  221.825;    0.000
331.595; 2565.950;  198.825;    0.000
331.653; 2604.950;  207.825;    0.000
331.712; 2574.950;  217.825;    0.000
331.771; 2605.950;  221.825;    0.000
331.830; 2577.950;  222.825;    0.000
331.888; 2655.950;  213.825;    0.000
331.947; 2614.950;  233.825;    0.000
332.006; 2753.950;  212.825;    0.000
332.065; 2629.950;  200.825;    0.000
332.123; 2531.950;  223.825;    0.000
332.182; 2524.950;  180.825;    0.000
332.241; 2561.950;  192.825;    0.000
332.299; 2629.950;  172.825;    0.000
332.358; 2551.950;  216.825;    0.000
332.417; 2660.950;  211.825;    0.000
332.475; 2642.950;  222.825;    0.000
332.534; 2679.950;  238.825;    0.000
332.592; 2625.950;  216.825;    0.000
332.651; 2552.950;  196.825;    0.000
332.710; 2640.950;  215.825;    0.000
332.768; 2523.950;  193.825;    0.000
332.827; 2526.950;  201.825;    0.000
332.885; 2701.950;  226.825;    0.000
332.944; 2586.950;  174.825;    0.000
333.003; 2692.950;  187.825;    0.000
333.061; 2640.950;  208.825;    0.000
333.120; 2737.950;  202.825;    0.000
333.178; 2805.950;  227.825;    0.000
333.237; 2839.950;  215.825;    0.000
333.295; 2816.950;  245.825;    0.000
333.354; 2754.950;  194.825;    0.000
333.412; 2749.950;  165.825;    0.000
333.471; 2761.950;  219.825;    0.000
333.529; 2728.950;  255.825;    0.000
333.588; 2914.950;  264.825;    0.000
333.646; 2983.950;  231.825;    0.000
333.705; 3009.950;  232.825;    0.000
333.763; 2959.950;  233.825;    0.000
333.822; 2784.950;  221.825;    0.000
333.880; 2753.950;  180.825;    0.000
333.938; 2814.950;  229.825;    0.000
333.997; 2755.950;  194.825;    0.000
334.055; 2706.950;  230.825;    0.000
334.114; 2778.950;  230.825;    0.000
334.172; 2637.950;  170.825;    0.000
334.230; 2773.950;  192.825;    0.000
334.289; 2642.950;  225.825;    0.000
334.347; 2657.950;  233.825;    0.000
334.405; 2671.950;  207.825;    0.000
334.464; 2693.950;  175.825;    0.000
334.522; 2711.950;  180.825;    0.000
334.580; 2645.950;  172.825;    0.000
334.639; 2655.950;  230.825;    0.000
334.697; 2610.950;  217.825;    0.000
334.755; 2649.950;  217.825;    0.000
334.814; 2718.950;  210.825;    0.000
334.872; 2615.950;  170.825;    0.000
334.930; 2678.950;  167.825;    0.000
334.988; 2593.950;  244.825;    0.000
335.047; 2637.950;  202.825;    0.000
335.105; 2639.950;  181.825;    0.000
335.163; 2704.950;  195.825;    0.000
335.221; 2713.950;  203.825;    0.000
335.280; 2647.950;  216.825;    0.000
335.338; 2639.950;  197.825;    0.000
335.396; 2672.950;  232.825;    0.000
335.454; 2626.950;  211.825;    0.000
335.512; 2695.950;  221.825;    0.000
335.570; 2708.950;  216.825;    0.000
335.629; 2700.950;  244.825;    0.000
335.687; 2742.950;  244.825;    0.000
335.745; 2715.950;  189.825;    0.000
335.803; 2682.950;  198.825;    0.000
335.861; 2718.950;  236.825;    0.000
335.919; 2754.950;  234.825;    0.000
335.977; 2705.950;  214.825;    0.000
336.035; 2688.950;  242.825;    0.000
336.094; 2613.950;  219.825;    0.000
336.152; 2705.950;  196.825;    0.000
336.210; 2711.950;  221.825;    0.000
336.268; 2759.950;  257.825;    0.000
336.326; 2674.950;  211.825;    0.000
336.384; 2673.950;  217.825;    0.000
336.442; 2641.950;  176.825;    0.000
336.500; 2684.950;  242.825;    0.000
336.558; 2640.950;  238.825;    0.000
336.616; 2651.950;  261.825;    0.000
336.674; 2577.950;  200.825;    0.000
336.732; 2553.950;  208.825;    0.000
336.790; 2676.950;  183.825;    0.000
336.848; 2664.950;  199.825;    0.000
336.906; 2674.950;  240.825;    0.000
336.964; 2617.950;  234.825;    0.000
337.022; 2719.950;  282.825;    0.000
337.080; 2742.950;  265.825;    0.000
337.138; 2660.950;  255.825;    0.000
337.195; 2669.950;  200.825;    0.000
337.253; 2667.950;  199.825;    0.000
337.311; 2618.950;  233.825;    0.000
337.369; 2683.950;  250.825;    0.000
337.427; 2656.950;  201.825;    0.000
337.485; 2611.950;  228.825;    0.000
337.543; 2554.950;  221.825;    0.000
337.601; 2523.950;  232.825;    0.000
337.658; 2602.950;  215.825;    0.000
337.716; 2478.950;  198.825;    0.000
337.774; 2578.950;  262.825;    0.000
337.832; 2597.950;  220.825;    0.000
337.890; 2606.950;  194.825;    0.000
337.947; 2593.950;  205.825;    0.000
338.005; 2581.950;  229.825;    0.000
338.063; 2555.950;  237.825;    0.000
338.121; 2577.950;  220.825;    0.000
338.178; 2623.950;  227.825;    0.000
338.236; 2553.950;  238.825;    0.000
338.294; 2583.950;  242.825;    0.000
338.352; 2504.950;  230.825;    0.000
338.409; 2585.950;  222.825;    0.000
338.467; 2594.950;  233.825;    0.000
338.525; 2493.950;  253.825;    0.000
338.583; 2518.950;  221.825;    0.000
338.640; 2458.950;  225.825;    0.000
338.698; 2523.950;  229.825;    0.000
338.756; 2513.950;  238.825;    0.000
338.813; 2637.950;  260.825;    0.000
338.871; 2579.950;  246.825;    0.000
338.928; 2621.950;  240.825;    0.000
338.986; 2588.950;  228.825;    0.000
339.044; 2593.950;  265.825;    0.000
339.101; 2511.950;  224.825;    0.000
339.159; 2556.950;  235.825;    0.000
339.216; 2623.950;  244.825;    0.000
339.274; 2500.950;  266.825;    0.000
339.332; 2593.950;  248.825;    0.000
339.389; 2572.950;  246.825;    0.000
339.447; 2578.950;  237.825;    0.000
339.504; 2618.950;  244.825;    0.000
339.562; 2578.950;  249.825;    0.000
339.619; 2515.950;  266.825;    0.000
339.677; 2652.950;  263.825;    0.000
339.734; 2565.950;  216.825;    0.000
339.792; 2541.950;  276.825;    0.000
339.849; 2571.950;  240.825;    0.000
339.907; 2572.950;  275.825;    0.000
339.964; 2594.950;  243.825;    0.000
340.022; 2523.950;  224.825;    0.000
340.079; 2491.950;  230.825;    0.000
340.137; 2520.950;  232.825;    0.000
340.194; 2600.950;  261.825;    0.000
340.252; 2609.950;  219.825;    0.000
340.309; 2518.950;  212.825;    0.000
340.366; 2506.950;  231.825;    0.000
340.424; 2572.950;  244.825;    0.000
340.481; 2522.950;  238.825;    0.000
340.538; 2479.950;  217.825;    0.000
340.596; 2649.950;  224.825;    0.000
340.653; 2543.950;  225.825;    0.000
340.711; 2534.950;  276.825;    0.000
340.768; 2579.950;  239.825;    0.000
340.825; 2558.950;  216.825;    0.000
340.883; 2569.950;  264.825;    0.000
340.940; 2530.950;  256.825;    0.000
340.997; 2551.950;  230.825;    0.000
341.054; 2466.950;  229.825;    0.000
341.112; 2523.950;  220.825;    0.000
341.169; 2677.950;  276.825;    0.000
341.226; 2519.950;  224.825;    0.000
341.284; 2604.950;  235.825;    0.000
341.341; 2543.950;  226.825;    0.000
341.398; 2566.950;  200.825;    0.000
341.455; 2559.950;  242.825;    0.000
341.512; 2622.950;  226.825;    0.000
341.570; 2614.950;  299.825;    0.000
341.627; 2658.950;  221.825;    0.000
341.684; 2549.950;  204.825;    0.000
341.741; 2648.950;  285.825;    0.000
341.798; 2533.950;  237.825;    0.000
341.856; 2565.950;  223.825;    0.000
341.913; 2573.950;  232.825;    0.000
341.970; 2597.950;  250.825;    0.000
342.027; 2606.950;  272.825;    0.000
342.084; 2637.950;  242.825;    0.000
342.141; 2643.950;  207.825;    0.000
342.198; 2649.950;  252.825;    0.000
342.255; 2577.950;  189.825;    0.000
342.313; 2603.950;  222.825;    0.000
342.370; 2649.950;  203.825;    0.000
342.427; 2490.950;  261.825;    0.000
342.484; 2513.950;  230.825;    0.000
342.541; 2567.950;  224.825;    0.000
342.598; 2578.950;  245.825;    0.000
342.655; 2525.950;  235.825;    0.000
342.712; 2643.950;  238.825;    0.000
342.769; 2633.950;  235.825;    0.000
342.826; 2532.950;  232.825;    0.000
342.883; 2633.950;  212.825;    0.000
342.940; 2503.950;  189.825;    0.000
342.997; 2526.950;  241.825;    0.000
343.054; 2607.950;  235.825;    0.000
343.111; 2504.950;  216.825;    0.000
343.168; 2649.950;  202.825;    0.000
343.225; 2680.950;  228.825;    0.000
343.282; 2647.950;  208.825;    0.000
343.339; 2628.950;  241.825;    0.000
343.395; 2658.950;  206.825;    0.000
343.452; 2643.950;  227.825;    0.000
343.509; 2656.950;  212.825;    0.000
343.566; 2712.950;  266.825;    0.000
343.623; 2656.950;  240.825;    0.000
343.680; 2663.950;  215.825;    0.000
343.737; 2670.950;  231.825;    0.000
343.794; 2734.950;  256.825;    0.000
343.850; 2684.950;  235.825;    0.000
343.907; 2724.950;  246.825;    0.000
343.964; 2808.950;  241.825;    0.000
344.021; 2771.950;  237.825;    0.000
344.078; 2797.950;  248.825;    0.000
344.134; 2774.950;  225.825;    0.000
344.191; 2638.950;  209.825;    0.000
344.248; 2786.950;  234.825;    0.000
344.305; 2778.950;  224.825;    0.000
344.361; 2755.950;  194.825;    0.000
344.418; 2779.950;  240.825;    0.000
344.475; 2691.950;  252.825;    0.000
344.532; 2783.950;  251.825;    0.000
344.588; 2765.950;  240.825;    0.000
344.645; 2754.950;  253.825;    0.000
344.702; 2740.950;  216.825;    0.000
344.758; 2816.950;  258.825;    0.000
344.815; 2718.950;  239.825;    0.000
344.872; 2719.950;  216.825;    0.000
344.928; 2699.950;  236.825;    0.000
344.985; 2786.950;  238.825;    0.000
345.042; 2778.950;  211.825;    0.000
345.098; 2707.950;  223.825;    0.000
345.155; 2646.950;  266.825;    0.000
345.212; 2718.950;  266.825;    0.000
345.268; 2719.950;  245.825;    0.000
345.325; 2709.950;  225.825;    0.000
345.381; 2730.950;  223.825;    0.000
345.438; 2725.950;  259.825;    0.000
345.495; 2751.950;  233.825;    0.000
345.551; 2816.950;  254.825;    0.000
345.608; 2717.950;  212.825;    0.000
345.664; 2725.950;  225.825;    0.000
345.721; 2753.950;  223.825;    0.000
345.777; 2644.950;  226.825;    0.000
345.834; 2622.950;  215.825;    0.000
345.890; 2665.950;  230.825;    0.000
345.947; 2743.950;  232.825;    0.000
346.003; 2697.950;  241.825;    0.000
346.060; 2664.950;  241.825;    0.000
346.116; 2751.950;  231.825;    0.000
346.173; 2683.950;  229.825;    0.000
346.229; 2788.950;  262.825;    0.000
346.285; 2697.950;  232.825;    0.000
346.342; 2828.950;  228.825;    0.000
346.398; 2724.950;  203.825;    0.000
346.455; 2804.950;  214.825;    0.000
346.511; 2748.950;  245.825;    0.000
346.567; 2887.950;  192.825;    0.000
346.624; 2796.950;  206.825;    0.000
346.680; 2846.950;  209.825;    0.000
346.737; 2794.950;  239.825;    0.000
346.793; 2758.950;  234.825;    0.000
346.849; 2772.950;  252.825;    0.000
346.906; 2802.950;  247.825;    0.000
346.962; 2817.950;  274.825;    0.000
347.018; 2885.950;  225.825;    0.000
347.074; 2855.950;  261.825;    0.000
347.131; 2784.950;  230.825;    0.000
347.187; 2715.950;  269.825;    0.000
347.243; 2759.950;  261.825;    0.000
347.300; 2849.950;  236.825;    0.000
347.356; 2756.950;  284.825;    0.000
347.412; 2794.950;  243.825;    0.000
347.468; 2756.950;  276.825;    0.000
347.524; 2754.950;  232.825;    0.000
347.581; 2815.950;  242.825;    0.000
347.637; 2860.950;  270.825;    0.000
347.693; 2737.950;  269.825;    0.000
347.749; 2828.950;  278.825;    0.000
347.805; 2747.950;  224.825;    0.000
347.862; 2856.950;  207.825;    0.000
347.918; 2726.950;  259.825;    0.000
347.974; 2785.950;  244.825;    0.000
348.030; 2814.950;  219.825;    0.000
348.086; 2806.950;  250.825;    0.000
348.142; 2792.950;  251.825;    0.000
348.198; 2899.950;  267.825;    0.000
348.254; 2817.950;  230.825;    0.000
348.311; 2769.950;  261.825;    0.000
348.367; 2817.950;  259.825;    0.000
348.423; 2778.950;  251.825;    0.000
348.479; 2736.950;  251.825;    0.000
348.535; 2853.950;  269.825;    0.000
348.591; 2855.950;  238.825;    0.000
348.647; 2797.950;  273.825;    0.000
348.703; 2857.950;  291.825;    0.000
348.759; 2826.950;  231.825;    0.000
348.815; 2825.950;  286.825;    0.000
348.871; 2796.950;  265.825;    0.000
348.927; 2807.950;  234.825;    0.000
348.983; 2751.950;  267.825;    0.000
349.039; 2855.950;  233.825;    0.000
349.095; 2769.950;  225.825;    0.000
349.151; 2782.950;  242.825;    0.000
349.207; 2882.950;  223.825;    0.000
349.263; 2886.950;  219.825;    0.000
349.319; 2824.950;  226.825;    0.000
349.374; 2861.950;  232.825;    0.000
349.430; 2857.950;  235.825;    0.000
349.486; 3011.950;  227.825;    0.000
349.542; 2921.950;  253.825;    0.000
349.598; 2898.950;  227.825;    0.000
349.654; 2847.950;  270.825;    0.000
349.710; 2897.950;  233.825;    0.000
349.766; 2828.950;  245.825;    0.000
349.821; 2853.950;  242.825;    0.000
349.877; 2861.950;  229.825;    0.000
349.933; 2852.950;  229.825;    0.000
349.989; 2877.950;  230.825;    0.000
350.045; 2864.950;  236.825;    0.000
350.100; 2877.950;  237.825;    0.000
350.156; 2769.950;  230.825;    0.000
350.212; 2890.950;  254.825;    0.000
350.268; 2791.950;  239.825;    0.000
350.323; 2862.950;  204.825;    0.000
350.379; 2849.950;  246.825;    0.000
350.435; 2797.950;  249.825;    0.000
350.491; 2783.950;  217.825;    0.000
350.546; 2826.950;  231.825;    0.000
350.602; 2855.950;  240.825;    0.000
350.658; 2927.950;  235.825;    0.000
350.713; 2743.950;  234.825;    0.000
350.769; 2812.950;  218.825;    0.000
350.825; 2859.950;  227.825;    0.000
350.880; 2864.950;  226.825;    0.000
350.936; 2824.950;  247.825;    0.000
350.992; 2846.950;  213.825;    0.000
351.047; 2894.950;  207.825;    0.000
351.103; 2860.950;  271.825;    0.000
351.158; 2856.950;  251.825;    0.000
351.214; 2820.950;  199.825;    0.000
351.270; 2841.950;  214.825;    0.000
351.325; 2893.950;  235.825;    0.000
351.381; 2844.950;  223.825;    0.000
351.436; 2898.950;  237.825;    0.000
351.492; 2878.950;  221.825;    0.000
351.547; 2967.950;  237.825;    0.000
351.603; 3019.950;  239.825;    0.000
351.658; 2994.950;  209.825;    0.000
351.714; 2853.950;  226.825;    0.000
351.769; 2943.950;  238.825;    0.000
351.825; 2926.950;  226.825;    0.000
351.880; 2856.950;  217.825;    0.000
351.936; 2917.950;  246.825;    0.000
351.991; 2935.950;  233.825;    0.000
352.047; 2856.950;  215.825;    0.000
352.102; 2851.950;  243.825;    0.000
352.158; 2928.950;  234.825;    0.000
352.213; 2777.950;  201.825;    0.000
352.268; 2854.950;  234.825;    0.000
352.324; 2752.950;  211.825;    0.000
352.379; 2986.950;  221.825;    0.000
352.434; 2942.950;  259.825;    0.000
352.490; 2997.950;  250.825;    0.000
352.545; 2885.950;  251.825;    0.000
352.601; 2908.950;  283.825;    0.000
352.656; 2835.950;  236.825;    0.000
352.711; 2907.950;  237.825;    0.000
352.767; 2823.950;  201.825;    0.000
352.822; 2889.950;  209.825;    0.000
352.877; 2896.950;  239.825;    0.000
352.932; 2966.950;  228.825;    0.000
352.988; 2908.950;  202.825;    0.000
353.043; 2948.950;  268.825;    0.000
353.098; 2937.950;  208.825;    0.000
353.153; 2958.950;  219.825;    0.000
353.209; 2897.950;  252.825;    0.000
353.264; 2812.950;  225.825;    0.000
353.319; 2830.950;  234.825;    0.000
353.374; 2835.950;  236.825;    0.000
353.430; 2897.950;  245.825;    0.000
353.485; 2921.950;  238.825;    0.000
353.540; 2964.950;  238.825;    0.000
353.595; 2859.950;  215.825;    0.000
353.650; 2928.950;  238.825;    0.000
353.705; 3001.950;  274.825;    0.000
353.761; 2899.950;  229.825;    0.000
353.816; 2922.950;  275.825;    0.000
353.871; 2910.950;  245.825;    0.000
353.926; 2942.950;  253.825;    0.000
353.981; 2911.950;  269.825;    0.000
354.036; 2882.950;  246.825;    0.000
354.091; 2915.950;  257.825;    0.000
354.146; 2893.950;  278.825;    0.000
354.201; 2961.950;  276.825;    0.000
354.256; 2836.950;  224.825;    0.000
354.311; 2979.950;  287.825;    0.000
354.367; 2822.950;  210.825;    0.000
354.422; 2977.950;  231.825;    0.000
354.477; 2845.950;  226.825;    0.000
354.532; 2928.950;  262.825;    0.000
354.587; 2934.950;  275.825;    0.000
354.642; 2937.950;  247.825;    0.000
354.697; 2967.950;  251.825;    0.000
354.751; 2979.950;  249.825;    0.000
354.806; 2910.950;  217.825;    0.000
354.861; 2921.950;  247.825;    0.000
354.916; 2921.950;  259.825;    0.000
354.971; 2904.950;  241.825;    0.000
355.026; 2946.950;  250.825;    0.000
355.081; 2871.950;  244.825;    0.000
355.136; 2885.950;  203.825;    0.000
355.191; 2913.950;  241.825;    0.000
355.246; 2940.950;  248.825;    0.000
355.301; 2861.950;  259.825;    0.000
355.355; 2894.950;  236.825;    0.000
355.410; 2935.950;  221.825;    0.000
355.465; 2971.950;  206.825;    0.000
355.520; 2998.950;  258.825;    0.000
355.575; 2859.950;  273.825;    0.000
355.630; 2977.950;  252.825;    0.000
355.684; 2962.950;  246.825;    0.000
355.739; 2998.950;  251.825;    0.000
355.794; 2887.950;  247.825;    0.000
355.849; 2924.950;  246.825;    0.000
355.904; 2995.950;  262.825;    0.000
355.958; 2937.950;  249.825;    0.000
356.013; 2955.950;  213.825;    0.000
356.068; 2942.950;  255.825;    0.000
356.123; 2994.950;  205.825;    0.000
356.177; 2954.950;  239.825;    0.000
356.232; 2959.950;  258.825;    0.000
356.287; 3066.950;  248.825;    0.000
356.341; 2961.950;  221.825;    0.000
356.396; 2963.950;  220.825;    0.000
356.451; 2907.950;  231.825;    0.000
356.505; 2964.950;  231.825;    0.000
356.560; 2899.950;  254.825;    0.000
356.615; 2923.950;  234.825;    0.000
356.669; 2942.950;  250.825;    0.000
356.724; 2884.950;  261.825;    0.000
356.778; 2900.950;  207.825;    0.000
356.833; 2950.950;  205.825;    0.000
356.888; 2992.950;  235.825;    0.000
356.942; 2981.950;  205.825;    0.000
356.997; 2938.950;  276.825;    0.000
357.051; 2906.950;  243.825;    0.000
357.106; 2997.950;  242.825;    0.000
357.160; 2918.950;  241.825;    0.000
357.215; 2951.950;  212.825;    0.000
357.269; 2969.950;  238.825;    0.000
357.324; 2967.950;  223.825;    0.000
357.378; 2897.950;  221.825;    0.000
357.433; 2941.950;  262.825;    0.000
357.487; 2996.950;  246.825;    0.000
357.542; 2883.950;  221.825;    0.000
357.596; 2896.950;  225.825;    0.000
357.651; 3089.950;  244.825;    0.000
357.705; 2985.950;  269.825;    0.000
357.760; 2988.950;  209.825;    0.000
357.814; 2872.950;  250.825;    0.000
357.868; 2930.950;  266.825;    0.000
357.923; 2843.950;  248.825;    0.000
357.977; 2895.950;  262.825;    0.000
358.032; 2908.950;  228.825;    0.000
358.086; 2948.950;  257.825;    0.000
358.140; 2965.950;  217.825;    0.000
358.195; 2920.950;  246.825;    0.000
358.249; 2934.950;  255.825;    0.000
358.303; 2960.950;  252.825;    0.000
358.358; 2836.950;  278.825;    0.000
358.412; 2917.950;  276.825;    0.000
358.466; 2964.950;  275.825;    0.000
358.521; 2873.950;  229.825;    0.000
358.575; 3026.950;  270.825;    0.000
358.629; 2924.950;  239.825;    0.000
358.683; 2823.950;  254.825;    0.000
358.738; 2850.950;  239.825;    0.000
358.792; 2921.950;  272.825;    0.000
358.846; 2937.950;  289.825;    0.000
358.900; 2994.950;  299.825;    0.000
358.954; 2968.950;  247.825;    0.000
359.009; 2877.950;  245.825;    0.000
359.063; 2899.950;  272.825;    0.000
359.117; 2943.950;  242.825;    0.000
359.171; 2987.950;  279.825;    0.000
359.225; 3030.950;  221.825;    0.000
359.280; 2867.950;  238.825;    0.000
359.334; 2870.950;  264.825;    0.000
359.388; 2948.950;  273.825;    0.000
359.442; 2942.950;  233.825;    0.000
359.496; 2937.950;  226.825;    0.000
359.550; 2992.950;  271.825;    0.000
359.604; 2999.950;  296.825;    0.000
359.658; 2904.950;  252.825;    0.000
359.712; 2957.950;  256.825;    0.000
359.766; 2879.950;  257.825;    0.000
359.820; 2928.950;  239.825;    0.000
359.875; 2950.950;  252.825;    0.000
359.929; 2896.950;  258.825;    0.000
359.983; 2885.950;  232.825;    0.000
360.037; 3066.950;  268.825;    0.000
360.091; 2896.950;  303.825;    0.000
360.145; 2929.950;  232.825;    0.000
360.199; 2940.950;  255.825;    0.000
360.253; 2901.950;  252.825;    0.000
360.306; 2987.950;  278.825;    0.000
360.360; 2878.950;  249.825;    0.000
360.414; 2969.950;  274.825;    0.000
360.468; 3020.950;  247.825;    0.000
360.522; 2921.950;  268.825;    0.000
360.576; 2858.950;  263.825;    0.000
360.630; 2941.950;  296.825;    0.000
360.684; 3055.950;  253.825;    0.000
360.738; 2880.950;  301.825;    0.000
360.792; 2905.950;  282.825;    0.000
360.846; 2885.950;  277.825;    0.000
360.899; 2969.950;  292.825;    0.000
360.953; 2964.950;  266.825;    0.000
361.007; 2972.950;  240.825;    0.000
361.061; 2955.950;  247.825;    0.000
361.115; 2907.950;  276.825;    0.000
361.168; 2929.950;  288.825;    0.000
361.222; 2900.950;  271.825;    0.000
361.276; 2972.950;  270.825;    0.000
361.330; 2932.950;  295.825;    0.000
361.384; 2834.950;  276.825;    0.000
361.437; 2841.950;  280.825;    0.000
361.491; 2914.950;  261.825;    0.000
361.545; 2910.950;  273.825;    0.000
361.599; 3028.950;  269.825;    0.000
361.652; 2943.950;  258.825;    0.000
361.706; 2875.950;  270.825;    0.000
361.760; 2939.950;  294.825;    0.000
361.813; 2965.950;  244.825;    0.000
361.867; 2914.950;  294.825;    0.000
361.921; 2958.950;  285.825;    0.000
361.974; 2928.950;  269.825;    0.000
362.028; 2886.950;  275.825;    0.000
362.082; 2929.950;  270.825;    0.000
362.135; 2905.950;  259.825;    0.000
362.189; 2965.950;  302.825;    0.000
362.242; 2946.950;  296.825;    0.000
362.296; 2999.950;  285.825;    0.000
362.350; 2905.950;  303.825;    0.000
362.403; 2963.950;  271.825;    0.000
362.457; 2903.950;  285.825;    0.000
362.510; 2877.950;  288.825;    0.000
362.564; 2846.950;  268.825;    0.000
362.617; 2841.950;  285.825;    0.000
362.671; 2774.950;  277.825;    0.000
362.724; 2916.950;  242.825;    0.000
362.778; 2913.950;  274.825;    0.000
362.831; 2941.950;  280.825;    0.000
362.885; 2781.950;  284.825;    0.000
362.938; 2811.950;  276.825;    0.000
362.992;  338.950;  289.825;    0.000
363.045;  273.950;  247.825;    0.000
363.099;  293.950;  260.825;    0.000
363.152;  289.950;  258.825;    0.000
363.205;  280.950;  286.825;    0.000
363.259;  287.950;  236.825;    0.000
363.312;  297.950;  297.825;    0.000
363.366;  283.950;  266.825;    0.000
363.419;  283.950;  309.825;    0.000
363.472;  302.950;  293.825;    0.000
363.526;  308.950;  270.825;    0.000
363.579;  285.950;  276.825;    0.000
363.632;  304.950;  279.825;    0.000
363.686;  280.950;  292.825;    0.000
363.739;  237.950;  248.825;    0.000
363.792;  262.950;  287.825;    0.000

