
Integration time [ms]:   1.000
Averaging Nr. [scans]: 1
Smoothing Nr. [pixels]: 0
Data measured with spectrometer [name]: UV2
Wave   ;Sample   ;Dark     ;Reference
[nm]   ;[counts] ;[counts] ;[counts] 

353.533;  211.775;  216.475;    0.000
353.597;  239.775;  244.475;    0.000
353.660;  189.775;  181.475;    0.000
353.723;  195.775;  203.475;    0.000
353.786;  187.775;  180.475;    0.000
353.850;  184.775;  213.475;    0.000
353.913;  186.775;  191.475;    0.000
353.976;  211.775;  195.475;    0.000
354.039;  196.775;  158.475;    0.000
354.102;  210.775;  199.475;    0.000
354.166;  192.775;  185.475;    0.000
354.229;  215.775;  188.475;    0.000
354.292;  186.775;  188.475;    0.000
354.355;  160.775;  226.475;    0.000
354.418;  155.775;  158.475;    0.000
354.481;  214.775;  185.475;    0.000
354.545;  722.775;  191.475;    0.000
354.608;  727.775;  247.475;    0.000
354.671;  720.775;  176.475;    0.000
354.734;  716.775;  198.475;    0.000
354.797;  751.775;  195.475;    0.000
354.860;  735.775;  212.475;    0.000
354.923;  738.775;  184.475;    0.000
354.986;  746.775;  169.475;    0.000
355.050;  764.775;  206.475;    0.000
355.113;  804.775;  210.475;    0.000
355.176;  820.775;  217.475;    0.000
355.239;  817.775;  201.475;    0.000
355.302;  829.775;  193.475;    0.000
355.365;  864.775;  234.475;    0.000
355.428;  836.775;  182.475;    0.000
355.491;  864.775;  233.475;    0.000
355.554;  879.775;  167.475;    0.000
355.617;  911.775;  195.475;    0.000
355.680;  884.775;  198.475;    0.000
355.743;  916.775;  186.475;    0.000
355.806;  920.775;  171.475;    0.000
355.869;  936.775;  244.475;    0.000
355.932;  878.775;  164.475;    0.000
355.995;  980.775;  220.475;    0.000
356.058;  942.775;  172.475;    0.000
356.121;  970.775;  228.475;    0.000
356.184;  992.775;  225.475;    0.000
356.247;  891.775;  161.475;    0.000
356.310;  958.775;  195.475;    0.000
356.373;  933.775;  191.475;    0.000
356.436; 1003.775;  147.475;    0.000
356.498; 1026.775;  183.475;    0.000
356.561;  986.775;  137.475;    0.000
356.624; 1057.775;  186.475;    0.000
356.687;  981.775;  158.475;    0.000
356.750; 1016.775;  194.475;    0.000
356.813;  981.775;  186.475;    0.000
356.876; 1037.775;  161.475;    0.000
356.939;  995.775;  188.475;    0.000
357.001; 1071.775;  200.475;    0.000
357.064; 1112.775;  182.475;    0.000
357.127; 1007.775;  168.475;    0.000
357.190;  995.775;  157.475;    0.000
357.253; 1076.775;  199.475;    0.000
357.316; 1014.775;  187.475;    0.000
357.378; 1016.775;  174.475;    0.000
357.441; 1022.775;  165.475;    0.000
357.504; 1044.775;  189.475;    0.000
357.567; 1016.775;  116.475;    0.000
357.629; 1069.775;  176.475;    0.000
357.692;  968.775;  134.475;    0.000
357.755; 1045.775;  175.475;    0.000
357.818;  996.775;  159.475;    0.000
357.880; 1072.775;  185.475;    0.000
357.943; 1027.775;  159.475;    0.000
358.006; 1058.775;  176.475;    0.000
358.069; 1051.775;  156.475;    0.000
358.131; 1054.775;  170.475;    0.000
358.194; 1012.775;  125.475;    0.000
358.257; 1036.775;  186.475;    0.000
358.319; 1039.775;  139.475;    0.000
358.382; 1118.775;  175.475;    0.000
358.445; 1041.775;  170.475;    0.000
358.507; 1072.775;  129.475;    0.000
358.570; 1084.775;  168.475;    0.000
358.633; 1128.775;  152.475;    0.000
358.695; 1077.775;  194.475;    0.000
358.758; 1051.775;  154.475;    0.000
358.821; 1078.775;  147.475;    0.000
358.883; 1134.775;  163.475;    0.000
358.946; 1084.775;  155.475;    0.000
359.008; 1135.775;  208.475;    0.000
359.071; 1092.775;  182.475;    0.000
359.134; 1105.775;  126.475;    0.000
359.196; 1073.775;  142.475;    0.000
359.259; 1072.775;  138.475;    0.000
359.321; 1182.775;  153.475;    0.000
359.384; 1154.775;  186.475;    0.000
359.446; 1079.775;  152.475;    0.000
359.509; 1129.775;  144.475;    0.000
359.571; 1106.775;  164.475;    0.000
359.634; 1095.775;  171.475;    0.000
359.696; 1121.775;  144.475;    0.000
359.759; 1134.775;  171.475;    0.000
359.821; 1089.775;  161.475;    0.000
359.884; 1119.775;  159.475;    0.000
359.946; 1110.775;  186.475;    0.000
360.009; 1145.775;  171.475;    0.000
360.071; 1129.775;  166.475;    0.000
360.134; 1147.775;  215.475;    0.000
360.196; 1174.775;  138.475;    0.000
360.259; 1151.775;  196.475;    0.000
360.321; 1155.775;  148.475;    0.000
360.384; 1117.775;  150.475;    0.000
360.446; 1090.775;  148.475;    0.000
360.508; 1157.775;  172.475;    0.000
360.571; 1146.775;  155.475;    0.000
360.633; 1148.775;  153.475;    0.000
360.696; 1187.775;  142.475;    0.000
360.758; 1219.775;  165.475;    0.000
360.820; 1179.775;  155.475;    0.000
360.883; 1119.775;  156.475;    0.000
360.945; 1280.775;  171.475;    0.000
361.007; 1152.775;  138.475;    0.000
361.070; 1152.775;  129.475;    0.000
361.132; 1208.775;  166.475;    0.000
361.194; 1166.775;  143.475;    0.000
361.257; 1158.775;  154.475;    0.000
361.319; 1176.775;  176.475;    0.000
361.381; 1176.775;  143.475;    0.000
361.443; 1170.775;  136.475;    0.000
361.506; 1265.775;  160.475;    0.000
361.568; 1215.775;  140.475;    0.000
361.630; 1226.775;  159.475;    0.000
361.693; 1192.775;  162.475;    0.000
361.755; 1239.775;  185.475;    0.000
361.817; 1253.775;  209.475;    0.000
361.879; 1282.775;  161.475;    0.000
361.941; 1199.775;  152.475;    0.000
362.004; 1186.775;  132.475;    0.000
362.066; 1170.775;  159.475;    0.000
362.128; 1217.775;  143.475;    0.000
362.190; 1255.775;  131.475;    0.000
362.252; 1224.775;  131.475;    0.000
362.315; 1235.775;  175.475;    0.000
362.377; 1259.775;  140.475;    0.000
362.439; 1219.775;  140.475;    0.000
362.501; 1236.775;  140.475;    0.000
362.563; 1222.775;  152.475;    0.000
362.625; 1262.775;  174.475;    0.000
362.688; 1260.775;  195.475;    0.000
362.750; 1302.775;  221.475;    0.000
362.812; 1264.775;  171.475;    0.000
362.874; 1229.775;  117.475;    0.000
362.936; 1279.775;  162.475;    0.000
362.998; 1248.775;  142.475;    0.000
363.060; 1261.775;  143.475;    0.000
363.122; 1248.775;  148.475;    0.000
363.184; 1239.775;  179.475;    0.000
363.246; 1294.775;  186.475;    0.000
363.308; 1236.775;  180.475;    0.000
363.370; 1351.775;  200.475;    0.000
363.432; 1316.775;  139.475;    0.000
363.494; 1206.775;  138.475;    0.000
363.556; 1281.775;  114.475;    0.000
363.618; 1274.775;  153.475;    0.000
363.680; 1306.775;  153.475;    0.000
363.742; 1324.775;  178.475;    0.000
363.804; 1271.775;  214.475;    0.000
363.866; 1351.775;  170.475;    0.000
363.928; 1277.775;  145.475;    0.000
363.990; 1273.775;  215.475;    0.000
364.052; 1316.775;  166.475;    0.000
364.114; 1252.775;  168.475;    0.000
364.176; 1306.775;  176.475;    0.000
364.238; 1305.775;  203.475;    0.000
364.300; 1285.775;  158.475;    0.000
364.362; 1336.775;  152.475;    0.000
364.424; 1256.775;  119.475;    0.000
364.486; 1283.775;  187.475;    0.000
364.548; 1307.775;  180.475;    0.000
364.609; 1343.775;  212.475;    0.000
364.671; 1336.775;  165.475;    0.000
364.733; 1276.775;  190.475;    0.000
364.795; 1294.775;  148.475;    0.000
364.857; 1286.775;  159.475;    0.000
364.919; 1286.775;  159.475;    0.000
364.981; 1274.775;  191.475;    0.000
365.042; 1388.775;  170.475;    0.000
365.104; 1349.775;  145.475;    0.000
365.166; 1269.775;  134.475;    0.000
365.228; 1321.775;  150.475;    0.000
365.290; 1289.775;  158.475;    0.000
365.351; 1290.775;  168.475;    0.000
365.413; 1327.775;  173.475;    0.000
365.475; 1357.775;  172.475;    0.000
365.537; 1355.775;  126.475;    0.000
365.598; 1361.775;  160.475;    0.000
365.660; 1293.775;  127.475;    0.000
365.722; 1362.775;  189.475;    0.000
365.784; 1325.775;  161.475;    0.000
365.845; 1330.775;  152.475;    0.000
365.907; 1275.775;  117.475;    0.000
365.969; 1367.775;  146.475;    0.000
366.030; 1375.775;  171.475;    0.000
366.092; 1367.775;  155.475;    0.000
366.154; 1397.775;  137.475;    0.000
366.215; 1306.775;  147.475;    0.000
366.277; 1398.775;  148.475;    0.000
366.339; 1416.775;  158.475;    0.000
366.400; 1346.775;  140.475;    0.000
366.462; 1307.775;  159.475;    0.000
366.524; 1299.775;  160.475;    0.000
366.585; 1321.775;  157.475;    0.000
366.647; 1396.775;  170.475;    0.000
366.708; 1315.775;  123.475;    0.000
366.770; 1406.775;  194.475;    0.000
366.832; 1360.775;  191.475;    0.000
366.893; 1353.775;  155.475;    0.000
366.955; 1374.775;  132.475;    0.000
367.016; 1368.775;  126.475;    0.000
367.078; 1329.775;  202.475;    0.000
367.139; 1328.775;  116.475;    0.000
367.201; 1319.775;  134.475;    0.000
367.262; 1377.775;  157.475;    0.000
367.324; 1378.775;  202.475;    0.000
367.385; 1329.775;  118.475;    0.000
367.447; 1412.775;  155.475;    0.000
367.508; 1414.775;  134.475;    0.000
367.570; 1377.775;  165.475;    0.000
367.631; 1297.775;  118.475;    0.000
367.693; 1393.775;  170.475;    0.000
367.754; 1388.775;  154.475;    0.000
367.816; 1389.775;  146.475;    0.000
367.877; 1411.775;  175.475;    0.000
367.939; 1419.775;  200.475;    0.000
368.000; 1363.775;  168.475;    0.000
368.062; 1324.775;  138.475;    0.000
368.123; 1423.775;  170.475;    0.000
368.184; 1404.775;  188.475;    0.000
368.246; 1386.775;  145.475;    0.000
368.307; 1368.775;  163.475;    0.000
368.369; 1376.775;  144.475;    0.000
368.430; 1404.775;  140.475;    0.000
368.491; 1414.775;  133.475;    0.000
368.553; 1423.775;  145.475;    0.000
368.614; 1404.775;  158.475;    0.000
368.675; 1394.775;  147.475;    0.000
368.737; 1378.775;  157.475;    0.000
368.798; 1393.775;  163.475;    0.000
368.859; 1476.775;  173.475;    0.000
368.921; 1480.775;  122.475;    0.000
368.982; 1397.775;  184.475;    0.000
369.043; 1399.775;  169.475;    0.000
369.104; 1393.775;  142.475;    0.000
369.166; 1408.775;  169.475;    0.000
369.227; 1410.775;  156.475;    0.000
369.288; 1371.775;  151.475;    0.000
369.349; 1446.775;  191.475;    0.000
369.411; 1447.775;  168.475;    0.000
369.472; 1456.775;  155.475;    0.000
369.533; 1407.775;  149.475;    0.000
369.594; 1406.775;  174.475;    0.000
369.656; 1463.775;  188.475;    0.000
369.717; 1364.775;  113.475;    0.000
369.778; 1402.775;  184.475;    0.000
369.839; 1454.775;  151.475;    0.000
369.900; 1507.775;  180.475;    0.000
369.961; 1392.775;  171.475;    0.000
370.023; 1472.775;  143.475;    0.000
370.084; 1401.775;  137.475;    0.000
370.145; 1465.775;  152.475;    0.000
370.206; 1442.775;  151.475;    0.000
370.267; 1470.775;  134.475;    0.000
370.328; 1512.775;  178.475;    0.000
370.389; 1451.775;  181.475;    0.000
370.451; 1433.775;  169.475;    0.000
370.512; 1477.775;  172.475;    0.000
370.573; 1421.775;  148.475;    0.000
370.634; 1486.775;  156.475;    0.000
370.695; 1366.775;  151.475;    0.000
370.756; 1505.775;  185.475;    0.000
370.817; 1499.775;  185.475;    0.000
370.878; 1473.775;  191.475;    0.000
370.939; 1425.775;  147.475;    0.000
371.000; 1507.775;  162.475;    0.000
371.061; 1471.775;  145.475;    0.000
371.122; 1540.775;  179.475;    0.000
371.183; 1477.775;  114.475;    0.000
371.244; 1491.775;  180.475;    0.000
371.305; 1462.775;  138.475;    0.000
371.366; 1494.775;  157.475;    0.000
371.427; 1438.775;  148.475;    0.000
371.488; 1501.775;  138.475;    0.000
371.549; 1478.775;  193.475;    0.000
371.610; 1479.775;  158.475;    0.000
371.671; 1461.775;  119.475;    0.000
371.732; 1521.775;  159.475;    0.000
371.793; 1515.775;  178.475;    0.000
371.853; 1425.775;  155.475;    0.000
371.914; 1506.775;  148.475;    0.000
371.975; 1487.775;  124.475;    0.000
372.036; 1451.775;  158.475;    0.000
372.097; 1460.775;  136.475;    0.000
372.158; 1497.775;  116.475;    0.000
372.219; 1499.775;  157.475;    0.000
372.280; 1540.775;  151.475;    0.000
372.340; 1544.775;  190.475;    0.000
372.401; 1534.775;  151.475;    0.000
372.462; 1521.775;  129.475;    0.000
372.523; 1542.775;  121.475;    0.000
372.584; 1496.775;  152.475;    0.000
372.645; 1482.775;  132.475;    0.000
372.705; 1523.775;  190.475;    0.000
372.766; 1521.775;  153.475;    0.000
372.827; 1471.775;  133.475;    0.000
372.888; 1508.775;  161.475;    0.000
372.948; 1465.775;  159.475;    0.000
373.009; 1532.775;  164.475;    0.000
373.070; 1507.775;  139.475;    0.000
373.131; 1488.775;  137.475;    0.000
373.191; 1552.775;  181.475;    0.000
373.252; 1451.775;  154.475;    0.000
373.313; 1540.775;  179.475;    0.000
373.373; 1526.775;  136.475;    0.000
373.434; 1526.775;  169.475;    0.000
373.495; 1494.775;   97.475;    0.000
373.555; 1560.775;  142.475;    0.000
373.616; 1492.775;  178.475;    0.000
373.677; 1513.775;  167.475;    0.000
373.737; 1589.775;  139.475;    0.000
373.798; 1589.775;  155.475;    0.000
373.859; 1638.775;  162.475;    0.000
373.919; 1570.775;  174.475;    0.000
373.980; 1515.775;  172.475;    0.000
374.041; 1565.775;  166.475;    0.000
374.101; 1589.775;  172.475;    0.000
374.162; 1553.775;  188.475;    0.000
374.222; 1551.775;  186.475;    0.000
374.283; 1504.775;  195.475;    0.000
374.343; 1515.775;  204.475;    0.000
374.404; 1603.775;  187.475;    0.000
374.465; 1605.775;  183.475;    0.000
374.525; 1580.775;  136.475;    0.000
374.586; 1596.775;  140.475;    0.000
374.646; 1620.775;  191.475;    0.000
374.707; 1682.775;  208.475;    0.000
374.767; 1677.775;  178.475;    0.000
374.828; 1574.775;  159.475;    0.000
374.888; 1578.775;  143.475;    0.000
374.949; 1642.775;  202.475;    0.000
375.009; 1575.775;  151.475;    0.000
375.070; 1557.775;  160.475;    0.000
375.130; 1597.775;  160.475;    0.000
375.190; 1619.775;  164.475;    0.000
375.251; 1607.775;  196.475;    0.000
375.311; 1586.775;  154.475;    0.000
375.372; 1575.775;  197.475;    0.000
375.432; 1683.775;  159.475;    0.000
375.493; 1682.775;  197.475;    0.000
375.553; 1590.775;  165.475;    0.000
375.613; 1573.775;  174.475;    0.000
375.674; 1582.775;  165.475;    0.000
375.734; 1628.775;  128.475;    0.000
375.794; 1581.775;  169.475;    0.000
375.855; 1691.775;  193.475;    0.000
375.915; 1615.775;  162.475;    0.000
375.975; 1581.775;  181.475;    0.000
376.036; 1598.775;  161.475;    0.000
376.096; 1601.775;  131.475;    0.000
376.156; 1646.775;  165.475;    0.000
376.217; 1604.775;  182.475;    0.000
376.277; 1671.775;  185.475;    0.000
376.337; 1629.775;  177.475;    0.000
376.398; 1587.775;  162.475;    0.000
376.458; 1599.775;  179.475;    0.000
376.518; 1572.775;  150.475;    0.000
376.578; 1626.775;  165.475;    0.000
376.639; 1715.775;  159.475;    0.000
376.699; 1640.775;  180.475;    0.000
376.759; 1676.775;  206.475;    0.000
376.819; 1652.775;  146.475;    0.000
376.880; 1669.775;  177.475;    0.000
376.940; 1642.775;  160.475;    0.000
377.000; 1620.775;  149.475;    0.000
377.060; 1666.775;  180.475;    0.000
377.120; 1640.775;  146.475;    0.000
377.180; 1657.775;  137.475;    0.000
377.241; 1651.775;  163.475;    0.000
377.301; 1712.775;  169.475;    0.000
377.361; 1665.775;  137.475;    0.000
377.421; 1682.775;  184.475;    0.000
377.481; 1635.775;  185.475;    0.000
377.541; 1686.775;  146.475;    0.000
377.601; 1670.775;  179.475;    0.000
377.661; 1707.775;  181.475;    0.000
377.722; 1751.775;  185.475;    0.000
377.782; 1768.775;  147.475;    0.000
377.842; 1701.775;  190.475;    0.000
377.902; 1661.775;  166.475;    0.000
377.962; 1696.775;  153.475;    0.000
378.022; 1684.775;  163.475;    0.000
378.082; 1770.775;  146.475;    0.000
378.142; 1715.775;  152.475;    0.000
378.202; 1741.775;  164.475;    0.000
378.262; 1838.775;  195.475;    0.000
378.322; 1800.775;  190.475;    0.000
378.382; 1699.775;  152.475;    0.000
378.442; 1778.775;  175.475;    0.000
378.502; 1697.775;  153.475;    0.000
378.562; 1737.775;  142.475;    0.000
378.622; 1800.775;  166.475;    0.000
378.682; 1736.775;  173.475;    0.000
378.742; 1753.775;  182.475;    0.000
378.802; 1735.775;  145.475;    0.000
378.862; 1823.775;  210.475;    0.000
378.921; 1856.775;  182.475;    0.000
378.981; 1904.775;  185.475;    0.000
379.041; 1841.775;  130.475;    0.000
379.101; 1922.775;  177.475;    0.000
379.161; 1898.775;  166.475;    0.000
379.221; 1862.775;  162.475;    0.000
379.281; 1872.775;  167.475;    0.000
379.341; 1861.775;  136.475;    0.000
379.401; 1847.775;  145.475;    0.000
379.460; 1919.775;  176.475;    0.000
379.520; 1945.775;  162.475;    0.000
379.580; 1856.775;  144.475;    0.000
379.640; 1879.775;  163.475;    0.000
379.700; 1938.775;  157.475;    0.000
379.759; 1980.775;  165.475;    0.000
379.819; 1893.775;  190.475;    0.000
379.879; 1922.775;  143.475;    0.000
379.939; 1970.775;  188.475;    0.000
379.999; 1941.775;  141.475;    0.000
380.058; 1968.775;  169.475;    0.000
380.118; 2003.775;  158.475;    0.000
380.178; 1999.775;  114.475;    0.000
380.237; 1985.775;  157.475;    0.000
380.297; 1979.775;  177.475;    0.000
380.357; 1954.775;  189.475;    0.000
380.417; 1970.775;  182.475;    0.000
380.476; 1934.775;  178.475;    0.000
380.536; 1999.775;  189.475;    0.000
380.596; 2058.775;  183.475;    0.000
380.655; 2027.775;  195.475;    0.000
380.715; 2017.775;  170.475;    0.000
380.775; 2083.775;  170.475;    0.000
380.834; 2032.775;  179.475;    0.000
380.894; 2083.775;  188.475;    0.000
380.954; 2012.775;  142.475;    0.000
381.013; 2067.775;  178.475;    0.000
381.073; 2056.775;  164.475;    0.000
381.132; 2046.775;  192.475;    0.000
381.192; 2100.775;  187.475;    0.000
381.252; 2074.775;  176.475;    0.000
381.311; 2024.775;  206.475;    0.000
381.371; 2046.775;  167.475;    0.000
381.430; 2065.775;  131.475;    0.000
381.490; 2082.775;  150.475;    0.000
381.549; 2149.775;  129.475;    0.000
381.609; 2160.775;  178.475;    0.000
381.668; 2177.775;  194.475;    0.000
381.728; 2223.775;  210.475;    0.000
381.787; 2221.775;  190.475;    0.000
381.847; 2285.775;  181.475;    0.000
381.906; 2264.775;  156.475;    0.000
381.966; 2261.775;  176.475;    0.000
382.025; 2270.775;  186.475;    0.000
382.085; 2249.775;  192.475;    0.000
382.144; 2415.775;  173.475;    0.000
382.204; 2382.775;  207.475;    0.000
382.263; 2419.775;  193.475;    0.000
382.323; 2391.775;  164.475;    0.000
382.382; 2443.775;  161.475;    0.000
382.441; 2490.775;  199.475;    0.000
382.501; 2539.775;  208.475;    0.000
382.560; 2718.775;  173.475;    0.000
382.619; 2714.775;  179.475;    0.000
382.679; 2826.775;  177.475;    0.000
382.738; 2859.775;  190.475;    0.000
382.798; 3082.775;  213.475;    0.000
382.857; 3363.775;  195.475;    0.000
382.916; 3613.775;  184.475;    0.000
382.976; 3843.775;  169.475;    0.000
383.035; 3694.775;  194.475;    0.000
383.094; 3625.775;  185.475;    0.000
383.154; 4100.775;  198.475;    0.000
383.213; 4611.775;  147.475;    0.000
383.272; 4536.775;  175.475;    0.000
383.331; 3755.775;  122.475;    0.000
383.391; 3349.775;  185.475;    0.000
383.450; 3370.775;  160.475;    0.000
383.509; 3440.775;  168.475;    0.000
383.568; 3562.775;  196.475;    0.000
383.628; 3672.775;  156.475;    0.000
383.687; 4017.775;  171.475;    0.000
383.746; 4505.775;  155.475;    0.000
383.805; 5304.775;  201.475;    0.000
383.864; 5209.775;  125.475;    0.000
383.924; 4072.775;  213.475;    0.000
383.983; 3501.775;  188.475;    0.000
384.042; 3081.775;  162.475;    0.000
384.101; 2976.775;  183.475;    0.000
384.160; 2833.775;  155.475;    0.000
384.219; 2802.775;  155.475;    0.000
384.279; 2729.775;  189.475;    0.000
384.338; 2557.775;  156.475;    0.000
384.397; 2596.775;  148.475;    0.000
384.456; 2551.775;  154.475;    0.000
384.515; 2497.775;  160.475;    0.000
384.574; 2521.775;  223.475;    0.000
384.633; 2391.775;  133.475;    0.000
384.692; 2378.775;  163.475;    0.000
384.751; 2354.775;  186.475;    0.000
384.810; 2463.775;  187.475;    0.000
384.869; 2395.775;  172.475;    0.000
384.929; 2350.775;  153.475;    0.000
384.988; 2293.775;  174.475;    0.000
385.047; 2291.775;  154.475;    0.000
385.106; 2344.775;  164.475;    0.000
385.165; 2316.775;  151.475;    0.000
385.224; 2389.775;  147.475;    0.000
385.283; 2373.775;  176.475;    0.000
385.342; 2360.775;  142.475;    0.000
385.401; 2404.775;  175.475;    0.000
385.459; 2336.775;  150.475;    0.000
385.518; 2343.775;  124.475;    0.000
385.577; 2265.775;  115.475;    0.000
385.636; 2316.775;  174.475;    0.000
385.695; 2274.775;  158.475;    0.000
385.754; 2290.775;  150.475;    0.000
385.813; 2260.775;  129.475;    0.000
385.872; 2337.775;  146.475;    0.000
385.931; 2344.775;  194.475;    0.000
385.990; 2291.775;  174.475;    0.000
386.049; 2275.775;  176.475;    0.000
386.107; 2348.775;  151.475;    0.000
386.166; 2261.775;  178.475;    0.000
386.225; 2276.775;  162.475;    0.000
386.284; 2258.775;  180.475;    0.000
386.343; 2260.775;  171.475;    0.000
386.402; 2306.775;  176.475;    0.000
386.460; 2277.775;  144.475;    0.000
386.519; 2230.775;  140.475;    0.000
386.578; 2261.775;  145.475;    0.000
386.637; 2248.775;  164.475;    0.000
386.696; 2237.775;  189.475;    0.000
386.754; 2273.775;  135.475;    0.000
386.813; 2223.775;  139.475;    0.000
386.872; 2213.775;  121.475;    0.000
386.931; 2292.775;  153.475;    0.000
386.989; 2297.775;  211.475;    0.000
387.048; 2263.775;  156.475;    0.000
387.107; 2304.775;  210.475;    0.000
387.165; 2211.775;  129.475;    0.000
387.224; 2266.775;  205.475;    0.000
387.283; 2251.775;  130.475;    0.000
387.342; 2330.775;  171.475;    0.000
387.400; 2288.775;  156.475;    0.000
387.459; 2202.775;  141.475;    0.000
387.517; 2243.775;  219.475;    0.000
387.576; 2250.775;  166.475;    0.000
387.635; 2245.775;  136.475;    0.000
387.693; 2286.775;  191.475;    0.000
387.752; 2283.775;  165.475;    0.000
387.811; 2230.775;  158.475;    0.000
387.869; 2159.775;  204.475;    0.000
387.928; 2229.775;  149.475;    0.000
387.986; 2279.775;  156.475;    0.000
388.045; 2188.775;  123.475;    0.000
388.103; 2151.775;  150.475;    0.000
388.162; 2196.775;  173.475;    0.000
388.221; 2181.775;  143.475;    0.000
388.279; 2154.775;  129.475;    0.000
388.338; 2310.775;  212.475;    0.000
388.396; 2256.775;  150.475;    0.000
388.455; 2230.775;  167.475;    0.000
388.513; 2109.775;  116.475;    0.000
388.572; 2179.775;  181.475;    0.000
388.630; 2157.775;  187.475;    0.000
388.689; 2198.775;  180.475;    0.000
388.747; 2173.775;  154.475;    0.000
388.806; 2145.775;  161.475;    0.000
388.864; 2198.775;  167.475;    0.000
388.922; 2187.775;  184.475;    0.000
388.981; 2105.775;  169.475;    0.000
389.039; 2173.775;  102.475;    0.000
389.098; 2227.775;  183.475;    0.000
389.156; 2133.775;  182.475;    0.000
389.214; 2154.775;  173.475;    0.000
389.273; 2209.775;  167.475;    0.000
389.331; 2207.775;  170.475;    0.000
389.390; 2166.775;  150.475;    0.000
389.448; 2183.775;  156.475;    0.000
389.506; 2225.775;  149.475;    0.000
389.565; 2185.775;  162.475;    0.000
389.623; 2202.775;  188.475;    0.000
389.681; 2117.775;  204.475;    0.000
389.740; 2252.775;  187.475;    0.000
389.798; 2163.775;  153.475;    0.000
389.856; 2155.775;  214.475;    0.000
389.914; 2131.775;  177.475;    0.000
389.973; 2175.775;  189.475;    0.000
390.031; 2234.775;  178.475;    0.000
390.089; 2248.775;  163.475;    0.000
390.147; 2164.775;  170.475;    0.000
390.206; 2218.775;  183.475;    0.000
390.264; 2208.775;  161.475;    0.000
390.322; 2191.775;  148.475;    0.000
390.380; 2096.775;  138.475;    0.000
390.439; 2160.775;  194.475;    0.000
390.497; 2159.775;  170.475;    0.000
390.555; 2170.775;  165.475;    0.000
390.613; 2118.775;  177.475;    0.000
390.671; 2236.775;  170.475;    0.000
390.729; 2190.775;  158.475;    0.000
390.788; 2154.775;  162.475;    0.000
390.846; 2191.775;  161.475;    0.000
390.904; 2125.775;  197.475;    0.000
390.962; 2144.775;  212.475;    0.000
391.020; 2149.775;  224.475;    0.000
391.078; 2137.775;  184.475;    0.000
391.136; 2258.775;  191.475;    0.000
391.194; 2239.775;  187.475;    0.000
391.253; 2148.775;  197.475;    0.000
391.311; 2161.775;  185.475;    0.000
391.369; 2247.775;  207.475;    0.000
391.427; 2235.775;  222.475;    0.000
391.485; 2140.775;  184.475;    0.000
391.543; 2256.775;  203.475;    0.000
391.601; 2255.775;  151.475;    0.000
391.659; 2214.775;  176.475;    0.000
391.717; 2228.775;  190.475;    0.000
391.775; 2200.775;  159.475;    0.000
391.833; 2226.775;  186.475;    0.000
391.891; 2234.775;  154.475;    0.000
391.949; 2275.775;  181.475;    0.000
392.007; 2248.775;  190.475;    0.000
392.065; 2248.775;  182.475;    0.000
392.123; 2187.775;  158.475;    0.000
392.180; 2251.775;  198.475;    0.000
392.238; 2242.775;  191.475;    0.000
392.296; 2246.775;  164.475;    0.000
392.354; 2232.775;  172.475;    0.000
392.412; 2218.775;  194.475;    0.000
392.470; 2298.775;  154.475;    0.000
392.528; 2225.775;  172.475;    0.000
392.586; 2151.775;  179.475;    0.000
392.644; 2280.775;  173.475;    0.000
392.701; 2247.775;  202.475;    0.000
392.759; 2265.775;  180.475;    0.000
392.817; 2247.775;  181.475;    0.000
392.875; 2256.775;  168.475;    0.000
392.933; 2274.775;  161.475;    0.000
392.991; 2204.775;  216.475;    0.000
393.048; 2215.775;  197.475;    0.000
393.106; 2276.775;  199.475;    0.000
393.164; 2190.775;  173.475;    0.000
393.222; 2215.775;  179.475;    0.000
393.279; 2286.775;  209.475;    0.000
393.337; 2306.775;  185.475;    0.000
393.395; 2308.775;  174.475;    0.000
393.453; 2279.775;  181.475;    0.000
393.510; 2318.775;  188.475;    0.000
393.568; 2317.775;  191.475;    0.000
393.626; 2223.775;  151.475;    0.000
393.684; 2280.775;  208.475;    0.000
393.741; 2248.775;  179.475;    0.000
393.799; 2249.775;  149.475;    0.000
393.857; 2201.775;  136.475;    0.000
393.914; 2314.775;  190.475;    0.000
393.972; 2334.775;  155.475;    0.000
394.030; 2306.775;  170.475;    0.000
394.087; 2359.775;  213.475;    0.000
394.145; 2275.775;  191.475;    0.000
394.202; 2307.775;  188.475;    0.000
394.260; 2323.775;  168.475;    0.000
394.318; 2327.775;  176.475;    0.000
394.375; 2330.775;  159.475;    0.000
394.433; 2298.775;  168.475;    0.000
394.490; 2304.775;  163.475;    0.000
394.548; 2310.775;  163.475;    0.000
394.605; 2324.775;  181.475;    0.000
394.663; 2295.775;  180.475;    0.000
394.720; 2313.775;  193.475;    0.000
394.778; 2388.775;  168.475;    0.000
394.836; 2401.775;  128.475;    0.000
394.893; 2260.775;  151.475;    0.000
394.951; 2314.775;  173.475;    0.000
395.008; 2421.775;  201.475;    0.000
395.065; 2314.775;  139.475;    0.000
395.123; 2373.775;  173.475;    0.000
395.180; 2286.775;  144.475;    0.000
395.238; 2379.775;  135.475;    0.000
395.295; 2311.775;  167.475;    0.000
395.353; 2369.775;  150.475;    0.000
395.410; 2421.775;  165.475;    0.000
395.468; 2409.775;  223.475;    0.000
395.525; 2456.775;  156.475;    0.000
395.582; 2396.775;  178.475;    0.000
395.640; 2453.775;  178.475;    0.000
395.697; 2393.775;  173.475;    0.000
395.754; 2451.775;  154.475;    0.000
395.812; 2324.775;  169.475;    0.000
395.869; 2494.775;  196.475;    0.000
395.927; 2443.775;  190.475;    0.000
395.984; 2463.775;  195.475;    0.000
396.041; 2440.775;  160.475;    0.000
396.098; 2398.775;  161.475;    0.000
396.156; 2469.775;  187.475;    0.000
396.213; 2466.775;  200.475;    0.000
396.270; 2372.775;  160.475;    0.000
396.328; 2446.775;  113.475;    0.000
396.385; 2455.775;  165.475;    0.000
396.442; 2499.775;  168.475;    0.000
396.499; 2445.775;  117.475;    0.000
396.557; 2470.775;  203.475;    0.000
396.614; 2459.775;  155.475;    0.000
396.671; 2382.775;  187.475;    0.000
396.728; 2506.775;  169.475;    0.000
396.785; 2369.775;  167.475;    0.000
396.843; 2505.775;  154.475;    0.000
396.900; 2428.775;  172.475;    0.000
396.957; 2501.775;  176.475;    0.000
397.014; 2451.775;  193.475;    0.000
397.071; 2525.775;  170.475;    0.000
397.128; 2507.775;  172.475;    0.000
397.186; 2540.775;  205.475;    0.000
397.243; 2491.775;  163.475;    0.000
397.300; 2510.775;  193.475;    0.000
397.357; 2493.775;  166.475;    0.000
397.414; 2454.775;  149.475;    0.000
397.471; 2554.775;  157.475;    0.000
397.528; 2542.775;  180.475;    0.000
397.585; 2483.775;  203.475;    0.000
397.642; 2557.775;  156.475;    0.000
397.699; 2567.775;  229.475;    0.000
397.756; 2599.775;  185.475;    0.000
397.814; 2613.775;  191.475;    0.000
397.871; 2596.775;  170.475;    0.000
397.928; 2559.775;  191.475;    0.000
397.985; 2516.775;  183.475;    0.000
398.042; 2518.775;  161.475;    0.000
398.099; 2623.775;  192.475;    0.000
398.156; 2534.775;  176.475;    0.000
398.212; 2556.775;  170.475;    0.000
398.269; 2654.775;  158.475;    0.000
398.326; 2669.775;  175.475;    0.000
398.383; 2606.775;  177.475;    0.000
398.440; 2551.775;  169.475;    0.000
398.497; 2702.775;  184.475;    0.000
398.554; 2665.775;  196.475;    0.000
398.611; 2681.775;  198.475;    0.000
398.668; 2657.775;  135.475;    0.000
398.725; 2644.775;  181.475;    0.000
398.782; 2683.775;  195.475;    0.000
398.839; 2737.775;  179.475;    0.000
398.895; 2659.775;  188.475;    0.000
398.952; 2633.775;  176.475;    0.000
399.009; 2724.775;  183.475;    0.000
399.066; 2668.775;  190.475;    0.000
399.123; 2703.775;  174.475;    0.000
399.180; 2852.775;  191.475;    0.000
399.236; 2813.775;  217.475;    0.000
399.293; 2850.775;  154.475;    0.000
399.350; 2812.775;  210.475;    0.000
399.407; 2906.775;  202.475;    0.000
399.463; 2954.775;  162.475;    0.000
399.520; 2913.775;  207.475;    0.000
399.577; 2943.775;  174.475;    0.000
399.634; 3022.775;  170.475;    0.000
399.690; 2977.775;  186.475;    0.000
399.747; 2971.775;  218.475;    0.000
399.804; 3043.775;  200.475;    0.000
399.861; 2954.775;  190.475;    0.000
399.917; 3019.775;  218.475;    0.000
399.974; 2945.775;  200.475;    0.000
400.031; 2958.775;  200.475;    0.000
400.087; 2904.775;  153.475;    0.000
400.144; 2963.775;  188.475;    0.000
400.201; 2910.775;  198.475;    0.000
400.257; 2845.775;  205.475;    0.000
400.314; 2911.775;  183.475;    0.000
400.370; 2902.775;  227.475;    0.000
400.427; 2904.775;  177.475;    0.000
400.484; 2725.775;  202.475;    0.000
400.540; 2893.775;  173.475;    0.000
400.597; 2812.775;  212.475;    0.000
400.653; 2803.775;  182.475;    0.000
400.710; 2804.775;  201.475;    0.000
400.766; 2841.775;  188.475;    0.000
400.823; 2841.775;  205.475;    0.000
400.879; 2904.775;  165.475;    0.000
400.936; 2812.775;  180.475;    0.000
400.993; 2800.775;  181.475;    0.000
401.049; 2897.775;  147.475;    0.000
401.105; 2827.775;  205.475;    0.000
401.162; 2808.775;  197.475;    0.000
401.218; 2734.775;  177.475;    0.000
401.275; 2820.775;  183.475;    0.000
401.331; 2839.775;  198.475;    0.000
401.388; 2826.775;  209.475;    0.000
401.444; 2800.775;  211.475;    0.000
401.501; 2773.775;  185.475;    0.000
401.557; 2816.775;  190.475;    0.000
401.614; 2736.775;  172.475;    0.000
401.670; 2773.775;  185.475;    0.000
401.726; 2830.775;  196.475;    0.000
401.783; 2823.775;  187.475;    0.000
401.839; 2824.775;  192.475;    0.000
401.895; 2786.775;  173.475;    0.000
401.952; 2677.775;  145.475;    0.000
402.008; 2793.775;  197.475;    0.000
402.064; 2770.775;  146.475;    0.000
402.121; 2944.775;  197.475;    0.000
402.177; 2841.775;  173.475;    0.000
402.233; 2889.775;  185.475;    0.000
402.290; 2797.775;  175.475;    0.000
402.346; 2867.775;  164.475;    0.000
402.402; 2716.775;  173.475;    0.000
402.458; 2787.775;  183.475;    0.000
402.515; 2839.775;  147.475;    0.000
402.571; 2855.775;  210.475;    0.000
402.627; 2736.775;  181.475;    0.000
402.683; 2912.775;  177.475;    0.000
402.740; 2750.775;  162.475;    0.000
402.796; 2810.775;  178.475;    0.000
402.852; 2872.775;  138.475;    0.000
402.908; 2840.775;  181.475;    0.000
402.964; 2926.775;  151.475;    0.000
403.021; 2947.775;  170.475;    0.000
403.077; 2841.775;  204.475;    0.000
403.133; 2948.775;  144.475;    0.000
403.189; 2898.775;  207.475;    0.000
403.245; 2869.775;  184.475;    0.000
403.301; 2936.775;  170.475;    0.000
403.357; 2993.775;  201.475;    0.000
403.414; 2916.775;  205.475;    0.000
403.470; 2983.775;  170.475;    0.000
403.526; 2925.775;  135.475;    0.000
403.582; 2866.775;  180.475;    0.000
403.638; 2881.775;  185.475;    0.000
403.694; 3038.775;  169.475;    0.000
403.750; 2884.775;  210.475;    0.000
403.806; 2939.775;  210.475;    0.000
403.862; 3031.775;  219.475;    0.000
403.918; 2891.775;  191.475;    0.000
403.974; 2913.775;  193.475;    0.000
404.030; 3006.775;  154.475;    0.000
404.086; 2928.775;  170.475;    0.000
404.142; 2946.775;  194.475;    0.000
404.198; 3096.775;  224.475;    0.000
404.254; 3055.775;  177.475;    0.000
404.310; 2901.775;  204.475;    0.000
404.366; 3018.775;  170.475;    0.000
404.422; 3001.775;  172.475;    0.000
404.478; 3004.775;  153.475;    0.000
404.534; 2972.775;  159.475;    0.000
404.590; 2975.775;  203.475;    0.000
404.646; 2985.775;  164.475;    0.000
404.701; 2891.775;  141.475;    0.000
404.757; 2996.775;  195.475;    0.000
404.813; 2958.775;  152.475;    0.000
404.869; 2946.775;  174.475;    0.000
404.925; 3035.775;  167.475;    0.000
404.981; 2994.775;  175.475;    0.000
405.037; 3002.775;  170.475;    0.000
405.092; 2993.775;  155.475;    0.000
405.148; 2987.775;  160.475;    0.000
405.204; 3058.775;  158.475;    0.000
405.260; 2997.775;  128.475;    0.000
405.316; 2999.775;  168.475;    0.000
405.371; 2971.775;  162.475;    0.000
405.427; 3118.775;  187.475;    0.000
405.483; 3095.775;  214.475;    0.000
405.539; 3019.775;  163.475;    0.000
405.594; 3030.775;  191.475;    0.000
405.650; 3166.775;  124.475;    0.000
405.706; 3029.775;  188.475;    0.000
405.761; 3054.775;  204.475;    0.000
405.817; 3066.775;  150.475;    0.000
405.873; 2993.775;  152.475;    0.000
405.928; 3011.775;  135.475;    0.000
405.984; 3099.775;  209.475;    0.000
406.040; 3087.775;  165.475;    0.000
406.095; 3069.775;  146.475;    0.000
406.151; 3099.775;  169.475;    0.000
406.207; 3180.775;  174.475;    0.000
406.262; 3084.775;  189.475;    0.000
406.318; 3066.775;  141.475;    0.000
406.374; 3081.775;  178.475;    0.000
406.429; 3208.775;  197.475;    0.000
406.485; 3244.775;  194.475;    0.000
406.540; 3120.775;  149.475;    0.000
406.596; 3137.775;  173.475;    0.000
406.651; 3287.775;  154.475;    0.000
406.707; 3264.775;  183.475;    0.000
406.763; 3220.775;  156.475;    0.000
406.818; 3220.775;  181.475;    0.000
406.874; 3285.775;  135.475;    0.000
406.929; 3334.775;  194.475;    0.000
406.985; 3312.775;  166.475;    0.000
407.040; 3272.775;  207.475;    0.000
407.095; 3336.775;  213.475;    0.000
407.151; 3329.775;  198.475;    0.000
407.206; 3305.775;  186.475;    0.000
407.262; 3410.775;  148.475;    0.000
407.317; 3386.775;  212.475;    0.000
407.373; 3452.775;  209.475;    0.000
407.428; 3439.775;  218.475;    0.000
407.484; 3441.775;  158.475;    0.000
407.539; 3425.775;  165.475;    0.000
407.594; 3453.775;  197.475;    0.000
407.650; 3436.775;  177.475;    0.000
407.705; 3442.775;  154.475;    0.000
407.760; 3405.775;  198.475;    0.000
407.816; 3389.775;  181.475;    0.000
407.871; 3427.775;  185.475;    0.000
407.926; 3400.775;  167.475;    0.000
407.982; 3389.775;  172.475;    0.000
408.037; 3435.775;  202.475;    0.000
408.092; 3269.775;  201.475;    0.000
408.148; 3518.775;  199.475;    0.000
408.203; 3368.775;  174.475;    0.000
408.258; 3305.775;  157.475;    0.000
408.314; 3390.775;  194.475;    0.000
408.369; 3329.775;  189.475;    0.000
408.424; 3401.775;  204.475;    0.000
408.479; 3350.775;  192.475;    0.000
408.534; 3407.775;  215.475;    0.000
408.590; 3413.775;  190.475;    0.000
408.645; 3329.775;  159.475;    0.000
408.700; 3375.775;  191.475;    0.000
408.755; 3337.775;  217.475;    0.000
408.810; 3246.775;  158.475;    0.000
408.866; 3305.775;  166.475;    0.000
408.921; 3383.775;  214.475;    0.000
408.976; 3312.775;  158.475;    0.000
409.031; 3241.775;  185.475;    0.000
409.086; 3325.775;  158.475;    0.000
409.141; 3377.775;  180.475;    0.000
409.196; 3416.775;  188.475;    0.000
409.252; 3280.775;  186.475;    0.000
409.307; 3237.775;  135.475;    0.000
409.362; 3291.775;  162.475;    0.000
409.417; 3295.775;  149.475;    0.000
409.472; 3356.775;  205.475;    0.000
409.527; 3332.775;  184.475;    0.000
409.582; 3357.775;  174.475;    0.000
409.637; 3356.775;  188.475;    0.000
409.692; 3340.775;  211.475;    0.000
409.747; 3286.775;  159.475;    0.000
409.802; 3344.775;  199.475;    0.000
409.857; 3375.775;  118.475;    0.000
409.912; 3260.775;  177.475;    0.000
409.967; 3320.775;  182.475;    0.000
410.022; 3355.775;  188.475;    0.000
410.077; 3350.775;  204.475;    0.000
410.132; 3394.775;  174.475;    0.000
410.187; 3306.775;  169.475;    0.000
410.242; 3292.775;  178.475;    0.000
410.297; 3298.775;  185.475;    0.000
410.351; 3369.775;  203.475;    0.000
410.406; 3321.775;  180.475;    0.000
410.461; 3309.775;  213.475;    0.000
410.516; 3304.775;  198.475;    0.000
410.571; 3375.775;  171.475;    0.000
410.626; 3339.775;  186.475;    0.000
410.681; 3289.775;  187.475;    0.000
410.736; 3287.775;  147.475;    0.000
410.790; 3350.775;  186.475;    0.000
410.845; 3316.775;  152.475;    0.000
410.900; 3324.775;  202.475;    0.000
410.955; 3303.775;  196.475;    0.000
411.010; 3348.775;  150.475;    0.000
411.064; 3367.775;  200.475;    0.000
411.119; 3390.775;  203.475;    0.000
411.174; 3392.775;  176.475;    0.000
411.229; 3368.775;  203.475;    0.000
411.283; 3302.775;  176.475;    0.000
411.338; 3314.775;  153.475;    0.000
411.393; 3333.775;  168.475;    0.000
411.447; 3298.775;  223.475;    0.000
411.502; 3348.775;  238.475;    0.000
411.557; 3271.775;  179.475;    0.000
411.612; 3381.775;  159.475;    0.000
411.666; 3375.775;  189.475;    0.000
411.721; 3413.775;  212.475;    0.000
411.776; 3338.775;  242.475;    0.000
411.830; 3386.775;  194.475;    0.000
411.885; 3289.775;  188.475;    0.000
411.939; 3364.775;  245.475;    0.000
411.994; 3393.775;  177.475;    0.000
412.049; 3353.775;  170.475;    0.000
412.103; 3455.775;  196.475;    0.000
412.158; 3289.775;  215.475;    0.000
412.212; 3396.775;  199.475;    0.000
412.267; 3291.775;  191.475;    0.000
412.322; 3469.775;  238.475;    0.000
412.376; 3388.775;  243.475;    0.000
412.431; 3471.775;  214.475;    0.000
412.485; 3320.775;  210.475;    0.000
412.540; 3326.775;  200.475;    0.000
412.594; 3337.775;  174.475;    0.000
412.649; 3280.775;  246.475;    0.000
412.703; 3454.775;  182.475;    0.000
412.758; 3318.775;  222.475;    0.000
412.812; 3339.775;  201.475;    0.000
412.866; 3395.775;  162.475;    0.000
412.921; 3274.775;  202.475;    0.000
412.975; 3391.775;  212.475;    0.000
413.030; 3361.775;  238.475;    0.000
413.084; 3300.775;  201.475;    0.000
413.139; 3318.775;  210.475;    0.000
413.193; 3323.775;  218.475;    0.000
413.247; 3316.775;  203.475;    0.000
413.302; 3395.775;  176.475;    0.000
413.356; 3288.775;  215.475;    0.000
413.410; 3477.775;  204.475;    0.000
413.465; 3332.775;  186.475;    0.000
413.519; 3304.775;  196.475;    0.000
413.573; 3288.775;  181.475;    0.000
413.628; 3356.775;  200.475;    0.000
413.682; 3265.775;  157.475;    0.000
413.736; 3362.775;  194.475;    0.000
413.791; 3326.775;  193.475;    0.000
413.845; 3496.775;  225.475;    0.000
413.899; 3320.775;  195.475;    0.000
413.953; 3319.775;  173.475;    0.000
414.008; 3271.775;  186.475;    0.000
414.062; 3309.775;  217.475;    0.000
414.116; 3340.775;  169.475;    0.000
414.170; 3420.775;  228.475;    0.000
414.225; 3306.775;  177.475;    0.000
414.279; 3390.775;  210.475;    0.000
414.333; 3377.775;  207.475;    0.000
414.387; 3278.775;  217.475;    0.000
414.441; 3276.775;  187.475;    0.000
414.496; 3217.775;  215.475;    0.000
414.550; 3363.775;  204.475;    0.000
414.604; 3329.775;  206.475;    0.000
414.658; 3247.775;  139.475;    0.000
414.712; 3360.775;  198.475;    0.000
414.766; 3321.775;  208.475;    0.000
414.820; 3376.775;  199.475;    0.000
414.874; 3425.775;  216.475;    0.000
414.928; 3350.775;  186.475;    0.000
414.982; 3302.775;  176.475;    0.000
415.037; 3321.775;  181.475;    0.000
415.091; 3434.775;  208.475;    0.000
415.145; 3305.775;  209.475;    0.000
415.199; 3283.775;  186.475;    0.000
415.253; 3349.775;  203.475;    0.000
415.307; 3303.775;  197.475;    0.000
415.361; 3311.775;  223.475;    0.000
415.415; 3347.775;  213.475;    0.000
415.469; 3378.775;  226.475;    0.000
415.523; 3341.775;  222.475;    0.000
415.577; 3316.775;  205.475;    0.000
415.631; 3294.775;  224.475;    0.000
415.684; 3364.775;  193.475;    0.000
415.738; 3385.775;  224.475;    0.000
415.792; 3341.775;  204.475;    0.000
415.846; 3334.775;  189.475;    0.000
415.900; 3275.775;  223.475;    0.000
415.954; 3312.775;  187.475;    0.000
416.008; 3355.775;  237.475;    0.000
416.062; 3413.775;  195.475;    0.000
416.116; 3231.775;  223.475;    0.000
416.169; 3242.775;  210.475;    0.000
416.223; 3364.775;  232.475;    0.000
416.277; 3400.775;  227.475;    0.000
416.331; 3355.775;  216.475;    0.000
416.385; 3298.775;  186.475;    0.000
416.439; 3355.775;  226.475;    0.000
416.492; 3270.775;  229.475;    0.000
416.546; 3364.775;  216.475;    0.000
416.600; 3246.775;  211.475;    0.000
416.654; 3241.775;  226.475;    0.000
416.707; 3334.775;  248.475;    0.000
416.761; 3331.775;  217.475;    0.000
416.815; 3276.775;  207.475;    0.000
416.869; 3329.775;  226.475;    0.000
416.922; 3353.775;  192.475;    0.000
416.976; 3215.775;  205.475;    0.000
417.030; 3338.775;  233.475;    0.000
417.083; 3310.775;  226.475;    0.000
417.137; 3241.775;  222.475;    0.000
417.191; 3309.775;  217.475;    0.000
417.244; 3302.775;  221.475;    0.000
417.298; 3291.775;  201.475;    0.000
417.352; 3381.775;  170.475;    0.000
417.405; 3289.775;  234.475;    0.000
417.459; 3287.775;  241.475;    0.000
417.512; 3313.775;  247.475;    0.000
417.566; 3270.775;  219.475;    0.000
417.620; 3267.775;  228.475;    0.000
417.673; 3309.775;  192.475;    0.000
417.727; 3326.775;  203.475;    0.000
417.780; 3253.775;  204.475;    0.000
417.834; 3411.775;  234.475;    0.000
417.887; 3306.775;  245.475;    0.000
417.941; 3321.775;  211.475;    0.000
417.994; 3229.775;  244.475;    0.000
418.048; 3295.775;  203.475;    0.000
418.101; 3226.775;  212.475;    0.000
418.155; 3271.775;  251.475;    0.000
418.208; 3355.775;  286.475;    0.000
418.262; 3347.775;  243.475;    0.000
418.315; 3238.775;  214.475;    0.000
418.369; 3379.775;  269.475;    0.000
418.422; 3304.775;  222.475;    0.000
418.476; 3318.775;  226.475;    0.000
418.529; 3224.775;  238.475;    0.000
418.582; 3291.775;  210.475;    0.000
418.636; 3368.775;  221.475;    0.000
418.689; 3260.775;  224.475;    0.000
418.743; 3283.775;  228.475;    0.000
418.796; 3288.775;  192.475;    0.000
418.849; 3280.775;  230.475;    0.000
418.903; 3380.775;  257.475;    0.000
418.956; 3274.775;  241.475;    0.000
419.009; 3298.775;  247.475;    0.000
419.063; 3412.775;  235.475;    0.000
419.116; 3316.775;  218.475;    0.000
419.169; 3346.775;  219.475;    0.000
419.222; 3261.775;  215.475;    0.000
419.276; 3307.775;  202.475;    0.000
419.329; 3318.775;  210.475;    0.000
419.382; 3196.775;  188.475;    0.000
419.435; 3189.775;  222.475;    0.000
419.489; 3229.775;  232.475;    0.000
419.542; 3216.775;  250.475;    0.000
419.595; 3227.775;  240.475;    0.000
419.648; 3260.775;  261.475;    0.000
419.701; 3199.775;  222.475;    0.000
419.755; 3187.775;  233.475;    0.000
419.808; 3222.775;  178.475;    0.000
419.861; 3284.775;  207.475;    0.000
419.914; 3264.775;  223.475;    0.000
419.967; 3180.775;  216.475;    0.000
420.020; 3244.775;  211.475;    0.000
420.073; 3259.775;  200.475;    0.000
420.127; 3194.775;  248.475;    0.000
420.180; 3222.775;  220.475;    0.000
420.233; 3148.775;  215.475;    0.000
420.286; 3182.775;  222.475;    0.000
420.339; 3256.775;  229.475;    0.000
420.392; 3253.775;  245.475;    0.000
420.445; 3211.775;  221.475;    0.000
420.498; 3140.775;  224.475;    0.000
420.551; 3173.775;  170.475;    0.000
420.604; 3234.775;  237.475;    0.000
420.657; 3055.775;  235.475;    0.000
420.710; 3208.775;  223.475;    0.000
420.763; 3222.775;  219.475;    0.000
420.816; 3109.775;  200.475;    0.000
420.869; 3095.775;  197.475;    0.000
420.922; 3140.775;  212.475;    0.000
420.975; 3206.775;  274.475;    0.000
421.028; 3059.775;  228.475;    0.000
421.081; 3175.775;  243.475;    0.000
421.134; 3154.775;  227.475;    0.000
421.187; 3044.775;  245.475;    0.000
421.239; 3027.775;  210.475;    0.000
421.292; 3122.775;  193.475;    0.000
421.345; 3090.775;  226.475;    0.000
421.398; 3127.775;  226.475;    0.000
421.451; 3108.775;  259.475;    0.000
421.504; 3158.775;  204.475;    0.000
421.557; 3097.775;  215.475;    0.000
421.609; 3053.775;  194.475;    0.000
421.662; 3136.775;  216.475;    0.000
421.715; 3116.775;  226.475;    0.000
421.768; 3041.775;  177.475;    0.000
421.821; 3087.775;  210.475;    0.000
421.873; 3085.775;  208.475;    0.000
421.926; 3080.775;  223.475;    0.000
421.979; 3150.775;  230.475;    0.000
422.032; 3155.775;  227.475;    0.000
422.084; 3086.775;  234.475;    0.000
422.137; 2987.775;  207.475;    0.000
422.190; 2996.775;  228.475;    0.000
422.243; 3103.775;  206.475;    0.000
422.295; 3068.775;  236.475;    0.000
422.348; 3159.775;  232.475;    0.000
422.401; 3124.775;  228.475;    0.000
422.453; 3108.775;  239.475;    0.000
422.506; 3078.775;  226.475;    0.000
422.559; 3000.775;  205.475;    0.000
422.611; 3138.775;  235.475;    0.000
422.664; 3060.775;  231.475;    0.000
422.716; 3106.775;  228.475;    0.000
422.769; 3173.775;  204.475;    0.000
422.822; 3054.775;  205.475;    0.000
422.874; 3085.775;  228.475;    0.000
422.927; 3124.775;  266.475;    0.000
422.979; 2995.775;  223.475;    0.000
423.032; 3073.775;  207.475;    0.000
423.084; 3121.775;  211.475;    0.000
423.137; 3005.775;  205.475;    0.000
423.189; 2986.775;  254.475;    0.000
423.242; 3058.775;  208.475;    0.000
423.294; 3121.775;  240.475;    0.000
423.347; 3003.775;  218.475;    0.000
423.399; 2957.775;  237.475;    0.000
423.452; 3111.775;  242.475;    0.000
423.504; 3107.775;  225.475;    0.000
423.557; 2947.775;  195.475;    0.000
423.609; 2984.775;  206.475;    0.000
423.662; 2917.775;  211.475;    0.000
423.714; 3036.775;  252.475;    0.000
423.766; 2950.775;  181.475;    0.000
423.819; 2926.775;  216.475;    0.000
423.871; 2970.775;  216.475;    0.000
423.923; 3039.775;  222.475;    0.000
423.976; 2974.775;  223.475;    0.000
424.028; 2975.775;  229.475;    0.000
424.081; 2977.775;  267.475;    0.000
424.133; 2965.775;  251.475;    0.000
424.185; 2916.775;  238.475;    0.000
424.238; 2881.775;  220.475;    0.000
424.290; 3034.775;  259.475;    0.000
424.342; 2959.775;  248.475;    0.000
424.394; 3007.775;  234.475;    0.000
424.447; 2992.775;  248.475;    0.000
424.499; 2969.775;  233.475;    0.000
424.551; 2951.775;  236.475;    0.000
424.603; 3006.775;  207.475;    0.000
424.656; 3012.775;  210.475;    0.000
424.708; 2906.775;  251.475;    0.000
424.760; 2995.775;  221.475;    0.000
424.812; 3022.775;  275.475;    0.000
424.864; 2891.775;  206.475;    0.000
424.917; 2918.775;  198.475;    0.000
424.969; 2959.775;  246.475;    0.000
425.021; 2934.775;  209.475;    0.000
425.073; 2953.775;  242.475;    0.000
425.125; 2892.775;  254.475;    0.000
425.177; 2905.775;  224.475;    0.000
425.229; 2958.775;  256.475;    0.000
425.282; 2971.775;  265.475;    0.000
425.334; 2971.775;  266.475;    0.000
425.386; 2888.775;  242.475;    0.000
425.438; 2931.775;  205.475;    0.000
425.490; 2839.775;  227.475;    0.000
425.542; 2978.775;  235.475;    0.000
425.594; 2914.775;  210.475;    0.000
425.646; 2830.775;  232.475;    0.000
425.698; 2788.775;  243.475;    0.000
425.750; 2950.775;  230.475;    0.000
425.802; 2921.775;  218.475;    0.000
425.854; 2977.775;  222.475;    0.000
425.906; 2853.775;  235.475;    0.000
425.958; 2966.775;  220.475;    0.000
426.010; 2825.775;  236.475;    0.000
426.062; 2889.775;  230.475;    0.000
426.114; 2961.775;  216.475;    0.000
426.166; 2969.775;  230.475;    0.000
426.218; 2875.775;  237.475;    0.000
426.270; 2899.775;  217.475;    0.000
426.321; 2883.775;  224.475;    0.000
426.373; 2907.775;  207.475;    0.000
426.425; 2923.775;  278.475;    0.000
426.477; 2894.775;  243.475;    0.000
426.529; 2914.775;  247.475;    0.000
426.581; 2940.775;  229.475;    0.000
426.633; 2808.775;  212.475;    0.000
426.684; 2938.775;  244.475;    0.000
426.736; 2801.775;  250.475;    0.000
426.788; 2793.775;  210.475;    0.000
426.840; 2754.775;  201.475;    0.000
426.892; 2884.775;  225.475;    0.000
426.943; 2863.775;  215.475;    0.000
426.995; 2857.775;  216.475;    0.000
427.047; 2795.775;  216.475;    0.000
427.099; 2803.775;  203.475;    0.000
427.150; 2880.775;  195.475;    0.000
427.202; 2792.775;  212.475;    0.000
427.254; 2723.775;  233.475;    0.000
427.306; 2712.775;  211.475;    0.000
427.357; 2878.775;  210.475;    0.000
427.409; 2826.775;  244.475;    0.000
427.461; 2734.775;  187.475;    0.000
427.512; 2824.775;  227.475;    0.000
427.564; 2708.775;  210.475;    0.000
427.616; 2785.775;  202.475;    0.000
427.667; 2773.775;  185.475;    0.000
427.719; 2771.775;  222.475;    0.000
427.770; 2746.775;  230.475;    0.000
427.822; 2872.775;  254.475;    0.000
427.874; 2753.775;  222.475;    0.000
427.925; 2781.775;  199.475;    0.000
427.977; 2808.775;  228.475;    0.000
428.028; 2745.775;  226.475;    0.000
428.080; 2742.775;  236.475;    0.000
428.131; 2775.775;  220.475;    0.000
428.183; 2759.775;  256.475;    0.000
428.234; 2756.775;  217.475;    0.000
428.286; 2749.775;  234.475;    0.000
428.337; 2791.775;  209.475;    0.000
428.389; 2764.775;  219.475;    0.000
428.440; 2800.775;  249.475;    0.000
428.492; 2846.775;  255.475;    0.000
428.543; 2693.775;  224.475;    0.000
428.595; 2726.775;  225.475;    0.000
428.646; 2694.775;  240.475;    0.000
428.697; 2742.775;  211.475;    0.000
428.749; 2723.775;  200.475;    0.000
428.800; 2733.775;  235.475;    0.000
428.852; 2711.775;  265.475;    0.000
428.903; 2695.775;  201.475;    0.000
428.954; 2657.775;  242.475;    0.000
429.006; 2670.775;  245.475;    0.000
429.057; 2623.775;  252.475;    0.000
429.108; 2716.775;  211.475;    0.000
429.160; 2696.775;  217.475;    0.000
429.211; 2699.775;  234.475;    0.000
429.262; 2691.775;  205.475;    0.000
429.314; 2746.775;  211.475;    0.000
429.365; 2646.775;  240.475;    0.000
429.416; 2710.775;  263.475;    0.000
429.467; 2712.775;  244.475;    0.000
429.519; 2732.775;  223.475;    0.000
429.570; 2641.775;  214.475;    0.000
429.621; 2709.775;  235.475;    0.000
429.672; 2733.775;  202.475;    0.000
429.724; 2666.775;  189.475;    0.000
429.775; 2712.775;  214.475;    0.000
429.826; 2643.775;  178.475;    0.000
429.877; 2593.775;  224.475;    0.000
429.928; 2659.775;  230.475;    0.000
429.980; 2645.775;  199.475;    0.000
430.031; 2652.775;  208.475;    0.000
430.082; 2672.775;  224.475;    0.000
430.133; 2625.775;  193.475;    0.000
430.184; 2604.775;  220.475;    0.000
430.235; 2641.775;  184.475;    0.000
430.286; 2726.775;  197.475;    0.000
430.337; 2680.775;  199.475;    0.000
430.388; 2623.775;  207.475;    0.000
430.439; 2646.775;  227.475;    0.000
430.490; 2657.775;  215.475;    0.000
430.542; 2713.775;  211.475;    0.000
430.593; 2670.775;  230.475;    0.000
430.644; 2646.775;  186.475;    0.000
430.695; 2631.775;  232.475;    0.000
430.746; 2673.775;  214.475;    0.000
430.797; 2629.775;  260.475;    0.000
430.848; 2699.775;  214.475;    0.000
430.898; 2625.775;  204.475;    0.000
430.949; 2658.775;  189.475;    0.000
431.000; 2679.775;  240.475;    0.000
431.051; 2699.775;  201.475;    0.000
431.102; 2666.775;  188.475;    0.000
431.153; 2641.775;  209.475;    0.000
431.204; 2555.775;  187.475;    0.000
431.255; 2624.775;  171.475;    0.000
431.306; 2696.775;  181.475;    0.000
431.357; 2657.775;  221.475;    0.000
431.408; 2603.775;  217.475;    0.000
431.458; 2680.775;  206.475;    0.000
431.509; 2582.775;  194.475;    0.000
431.560; 2684.775;  235.475;    0.000
431.611; 2713.775;  213.475;    0.000
431.662; 2738.775;  237.475;    0.000
431.713; 2612.775;  220.475;    0.000
431.763; 2651.775;  212.475;    0.000
431.814; 2602.775;  238.475;    0.000
431.865; 2635.775;  213.475;    0.000
431.916; 2671.775;  191.475;    0.000
431.966; 2672.775;  171.475;    0.000
432.017; 2652.775;  263.475;    0.000
432.068; 2571.775;  240.475;    0.000
432.118; 2604.775;  235.475;    0.000
432.169; 2582.775;  212.475;    0.000
432.220; 2640.775;  188.475;    0.000
432.271; 2662.775;  216.475;    0.000
432.321; 2636.775;  223.475;    0.000
432.372; 2654.775;  254.475;    0.000
432.423; 2593.775;  193.475;    0.000
432.473; 2542.775;  219.475;    0.000
432.524; 2619.775;  215.475;    0.000
432.574; 2608.775;  234.475;    0.000
432.625; 2611.775;  226.475;    0.000
432.676; 2547.775;  219.475;    0.000
432.726; 2621.775;  254.475;    0.000
432.777; 2608.775;  210.475;    0.000
432.827; 2616.775;  234.475;    0.000
432.878; 2598.775;  212.475;    0.000
432.928; 2544.775;  238.475;    0.000
432.979; 2639.775;  252.475;    0.000
433.029; 2668.775;  222.475;    0.000
433.080; 2602.775;  188.475;    0.000
433.130; 2603.775;  223.475;    0.000
433.181; 2640.775;  254.475;    0.000
433.231; 2628.775;  237.475;    0.000
433.282; 2582.775;  242.475;    0.000
433.332; 2655.775;  261.475;    0.000
433.383; 2670.775;  266.475;    0.000
433.433; 2626.775;  286.475;    0.000
433.484; 2630.775;  231.475;    0.000
433.534; 2623.775;  256.475;    0.000
433.585; 2666.775;  253.475;    0.000
433.635; 2609.775;  228.475;    0.000
433.685; 2573.775;  226.475;    0.000
433.736; 2633.775;  276.475;    0.000
433.786; 2684.775;  253.475;    0.000
433.836; 2565.775;  289.475;    0.000
433.887; 2611.775;  241.475;    0.000
433.937; 2643.775;  252.475;    0.000
433.987; 2639.775;  223.475;    0.000
434.038; 2616.775;  241.475;    0.000
434.088; 2575.775;  231.475;    0.000
434.138; 2670.775;  259.475;    0.000
434.189; 2606.775;  263.475;    0.000
434.239; 2688.775;  194.475;    0.000
434.289; 2636.775;  273.475;    0.000
434.339; 2654.775;  212.475;    0.000
434.389; 2685.775;  248.475;    0.000
434.440; 2663.775;  250.475;    0.000
434.490; 2786.775;  278.475;    0.000
434.540; 2652.775;  241.475;    0.000
434.590; 2673.775;  251.475;    0.000
434.640; 2709.775;  207.475;    0.000
434.691; 2652.775;  242.475;    0.000
434.741; 2667.775;  218.475;    0.000
434.791; 2718.775;  267.475;    0.000
434.841; 2719.775;  272.475;    0.000
434.891; 2757.775;  260.475;    0.000
434.941; 2752.775;  258.475;    0.000
434.991; 2742.775;  264.475;    0.000
435.042; 2695.775;  264.475;    0.000
435.092; 2738.775;  271.475;    0.000
435.142; 2659.775;  229.475;    0.000
435.192; 2604.775;  226.475;    0.000
435.242; 2585.775;  253.475;    0.000
435.292; 2594.775;  215.475;    0.000
435.342; 2715.775;  240.475;    0.000
435.392; 2582.775;  235.475;    0.000
435.442; 2616.775;  230.475;    0.000
435.492; 2621.775;  235.475;    0.000
435.542; 2631.775;  230.475;    0.000
435.592; 2544.775;  239.475;    0.000
435.642; 2561.775;  244.475;    0.000
435.692; 2598.775;  236.475;    0.000
435.742; 2655.775;  236.475;    0.000
435.792; 2588.775;  230.475;    0.000
435.842; 2618.775;  248.475;    0.000
435.891; 2571.775;  233.475;    0.000
435.941; 2623.775;  243.475;    0.000
435.991; 2594.775;  279.475;    0.000
436.041; 2542.775;  204.475;    0.000
436.091; 2505.775;  217.475;    0.000
436.141; 2438.775;  205.475;    0.000
436.191; 2566.775;  220.475;    0.000
436.241; 2585.775;  248.475;    0.000
436.290; 2563.775;  255.475;    0.000
436.340; 2487.775;  235.475;    0.000
436.390; 2501.775;  207.475;    0.000
436.440; 2455.775;  207.475;    0.000
436.490; 2447.775;  251.475;    0.000
436.539; 2502.775;  240.475;    0.000
436.589; 2566.775;  198.475;    0.000
436.639; 2541.775;  240.475;    0.000
436.689; 2532.775;  216.475;    0.000
436.738; 2504.775;  246.475;    0.000
436.788; 2473.775;  203.475;    0.000
436.838; 2471.775;  230.475;    0.000
436.887; 2505.775;  235.475;    0.000
436.937; 2480.775;  249.475;    0.000
436.987; 2528.775;  208.475;    0.000
437.036; 2551.775;  232.475;    0.000
437.086; 2444.775;  238.475;    0.000
437.136; 2433.775;  228.475;    0.000
437.185; 2454.775;  219.475;    0.000
437.235; 2512.775;  227.475;    0.000
437.285; 2368.775;  241.475;    0.000
437.334; 2480.775;  216.475;    0.000
437.384; 2465.775;  243.475;    0.000
437.433; 2393.775;  214.475;    0.000
437.483; 2468.775;  246.475;    0.000
437.532; 2412.775;  261.475;    0.000
437.582; 2448.775;  205.475;    0.000
437.631; 2511.775;  218.475;    0.000
437.681; 2341.775;  240.475;    0.000
437.730; 2546.775;  258.475;    0.000
437.780; 2482.775;  237.475;    0.000
437.829; 2410.775;  209.475;    0.000
437.879; 2412.775;  214.475;    0.000
437.928; 2419.775;  223.475;    0.000
437.978; 2409.775;  220.475;    0.000
438.027; 2505.775;  239.475;    0.000
438.077; 2387.775;  231.475;    0.000
438.126; 2402.775;  266.475;    0.000
438.176; 2408.775;  234.475;    0.000
438.225; 2389.775;  237.475;    0.000
438.274; 2325.775;  234.475;    0.000
438.324; 2536.775;  244.475;    0.000
438.373; 2457.775;  232.475;    0.000
438.422; 2454.775;  218.475;    0.000
438.472; 2361.775;  221.475;    0.000
438.521; 2417.775;  190.475;    0.000
438.570; 2472.775;  243.475;    0.000
438.620; 2409.775;  255.475;    0.000
438.669; 2389.775;  210.475;    0.000
438.718; 2463.775;  237.475;    0.000
438.768; 2369.775;  220.475;    0.000
438.817; 2438.775;  218.475;    0.000
438.866; 2409.775;  198.475;    0.000
438.915; 2519.775;  256.475;    0.000
438.965; 2378.775;  221.475;    0.000
439.014; 2405.775;  255.475;    0.000
439.063; 2495.775;  276.475;    0.000
439.112; 2381.775;  220.475;    0.000
439.162; 2440.775;  253.475;    0.000
439.211; 2427.775;  247.475;    0.000
439.260; 2409.775;  220.475;    0.000
439.309; 2398.775;  235.475;    0.000
439.358; 2387.775;  205.475;    0.000
439.407; 2320.775;  207.475;    0.000
439.456; 2428.775;  216.475;    0.000
439.506; 2483.775;  245.475;    0.000
439.555; 2433.775;  264.475;    0.000
439.604; 2392.775;  227.475;    0.000
439.653; 2482.775;  220.475;    0.000
439.702; 2468.775;  223.475;    0.000
439.751; 2364.775;  197.475;    0.000
439.800; 2455.775;  207.475;    0.000
439.849; 2452.775;  238.475;    0.000
439.898; 2399.775;  209.475;    0.000
439.947; 2334.775;  170.475;    0.000
439.996; 2502.775;  233.475;    0.000
440.045; 2440.775;  222.475;    0.000
440.094; 2440.775;  240.475;    0.000
440.143; 2500.775;  249.475;    0.000
440.192; 2535.775;  252.475;    0.000
440.241; 2429.775;  239.475;    0.000
440.290; 2468.775;  234.475;    0.000
440.339; 2460.775;  241.475;    0.000
440.388; 2422.775;  239.475;    0.000
440.437; 2468.775;  231.475;    0.000
440.486; 2449.775;  254.475;    0.000
440.535; 2490.775;  266.475;    0.000
440.583; 2452.775;  205.475;    0.000
440.632; 2409.775;  234.475;    0.000
440.681; 2404.775;  218.475;    0.000
440.730; 2461.775;  248.475;    0.000
440.779; 2465.775;  246.475;    0.000
440.828; 2404.775;  235.475;    0.000
440.876; 2517.775;  218.475;    0.000
440.925; 2496.775;  228.475;    0.000
440.974; 2531.775;  249.475;    0.000
441.023; 2429.775;  192.475;    0.000
441.072; 2506.775;  226.475;    0.000
441.120; 2511.775;  238.475;    0.000
441.169; 2554.775;  255.475;    0.000
441.218; 2466.775;  233.475;    0.000
441.267; 2507.775;  231.475;    0.000
441.315; 2533.775;  214.475;    0.000
441.364; 2516.775;  250.475;    0.000
441.413; 2523.775;  228.475;    0.000
441.461; 2571.775;  209.475;    0.000
441.510; 2600.775;  260.475;    0.000
441.559; 2633.775;  230.475;    0.000
441.607; 2528.775;  220.475;    0.000
441.656; 2556.775;  251.475;    0.000
441.705; 2592.775;  237.475;    0.000
441.753; 2566.775;  257.475;    0.000
441.802; 2565.775;  256.475;    0.000
441.850; 2444.775;  253.475;    0.000
441.899; 2568.775;  212.475;    0.000
441.948; 2544.775;  251.475;    0.000
441.996; 2597.775;  239.475;    0.000
442.045; 2627.775;  223.475;    0.000
442.093; 2536.775;  211.475;    0.000
442.142; 2486.775;  235.475;    0.000
442.190; 2632.775;  254.475;    0.000
442.239; 2571.775;  226.475;    0.000
442.287; 2540.775;  242.475;    0.000
442.336; 2604.775;  256.475;    0.000
442.384; 2623.775;  252.475;    0.000
442.433; 2574.775;  262.475;    0.000
442.481; 2564.775;  246.475;    0.000
442.529; 2578.775;  290.475;    0.000
442.578; 2544.775;  247.475;    0.000
442.626; 2530.775;  247.475;    0.000
442.675; 2639.775;  272.475;    0.000
442.723; 2520.775;  230.475;    0.000
442.771; 2545.775;  234.475;    0.000
442.820; 2546.775;  224.475;    0.000
442.868; 2625.775;  246.475;    0.000
442.917; 2572.775;  249.475;    0.000
442.965; 2650.775;  260.475;    0.000
443.013; 2549.775;  258.475;    0.000
443.062; 2617.775;  259.475;    0.000
443.110; 2571.775;  226.475;    0.000
443.158; 2656.775;  213.475;    0.000
443.206; 2587.775;  201.475;    0.000
443.255; 2655.775;  280.475;    0.000
443.303; 2607.775;  292.475;    0.000
443.351; 2606.775;  256.475;    0.000
443.399; 2616.775;  215.475;    0.000
443.448; 2644.775;  243.475;    0.000
443.496; 2606.775;  249.475;    0.000
443.544; 2556.775;  231.475;    0.000
443.592; 2593.775;  243.475;    0.000
443.640; 2590.775;  252.475;    0.000
443.689; 2678.775;  220.475;    0.000
443.737; 2749.775;  231.475;    0.000
443.785; 2632.775;  256.475;    0.000
443.833; 2671.775;  268.475;    0.000
443.881; 2573.775;  181.475;    0.000
443.929; 2701.775;  245.475;    0.000
443.977; 2725.775;  278.475;    0.000
444.025; 2720.775;  245.475;    0.000
444.074; 2684.775;  233.475;    0.000
444.122; 2713.775;  267.475;    0.000
444.170; 2741.775;  247.475;    0.000
444.218; 2681.775;  246.475;    0.000
444.266; 2642.775;  275.475;    0.000
444.314; 2700.775;  263.475;    0.000
444.362; 2639.775;  240.475;    0.000
444.410; 2677.775;  220.475;    0.000
444.458; 2755.775;  258.475;    0.000
444.506; 2775.775;  258.475;    0.000
444.554; 2740.775;  224.475;    0.000
444.602; 2828.775;  245.475;    0.000
444.650; 2849.775;  261.475;    0.000
444.698; 2772.775;  232.475;    0.000
444.746; 2734.775;  206.475;    0.000
444.793; 2840.775;  249.475;    0.000
444.841; 2778.775;  261.475;    0.000
444.889; 2769.775;  221.475;    0.000
444.937; 2684.775;  215.475;    0.000
444.985; 2745.775;  244.475;    0.000
445.033; 2806.775;  211.475;    0.000
445.081; 2765.775;  225.475;    0.000
445.129; 2813.775;  217.475;    0.000
445.176; 2736.775;  196.475;    0.000
445.224; 2717.775;  211.475;    0.000
445.272; 2793.775;  242.475;    0.000
445.320; 2863.775;  225.475;    0.000
445.368; 2813.775;  249.475;    0.000
445.415; 2826.775;  243.475;    0.000
445.463; 2799.775;  242.475;    0.000
445.511; 2827.775;  248.475;    0.000
445.559; 2772.775;  219.475;    0.000
445.606; 2837.775;  221.475;    0.000
445.654; 2703.775;  202.475;    0.000
445.702; 2790.775;  210.475;    0.000
445.749; 2840.775;  249.475;    0.000
445.797; 2866.775;  206.475;    0.000
445.845; 2741.775;  213.475;    0.000
445.892; 2790.775;  224.475;    0.000
445.940; 2799.775;  214.475;    0.000
445.988; 2856.775;  247.475;    0.000
446.035; 2803.775;  204.475;    0.000
446.083; 2839.775;  235.475;    0.000
446.130; 2793.775;  195.475;    0.000
446.178; 2864.775;  236.475;    0.000
446.226; 2858.775;  218.475;    0.000
446.273; 2892.775;  215.475;    0.000
446.321; 2828.775;  222.475;    0.000
446.368; 2875.775;  228.475;    0.000
446.416; 2832.775;  223.475;    0.000
446.463; 2795.775;  220.475;    0.000
446.511; 2876.775;  198.475;    0.000
446.558; 2882.775;  208.475;    0.000
446.606; 2998.775;  253.475;    0.000
446.653; 2974.775;  198.475;    0.000
446.701; 3016.775;  231.475;    0.000
446.748; 2902.775;  224.475;    0.000
446.796; 3013.775;  201.475;    0.000
446.843; 3053.775;  257.475;    0.000
446.891; 3011.775;  218.475;    0.000
446.938; 2954.775;  232.475;    0.000
446.985; 3001.775;  229.475;    0.000
447.033; 3105.775;  251.475;    0.000
447.080; 3045.775;  257.475;    0.000
447.128; 3128.775;  232.475;    0.000
447.175; 3101.775;  269.475;    0.000
447.222; 3139.775;  185.475;    0.000
447.270; 3193.775;  264.475;    0.000
447.317; 3197.775;  225.475;    0.000
447.364; 3308.775;  243.475;    0.000
447.411; 3269.775;  263.475;    0.000
447.459; 3328.775;  257.475;    0.000
447.506; 3355.775;  175.475;    0.000
447.553; 3331.775;  203.475;    0.000
447.601; 3362.775;  238.475;    0.000
447.648; 3461.775;  244.475;    0.000
447.695; 3446.775;  249.475;    0.000
447.742; 3382.775;  234.475;    0.000
447.789; 3560.775;  228.475;    0.000
447.837; 3635.775;  258.475;    0.000
447.884; 3681.775;  243.475;    0.000
447.931; 3753.775;  235.475;    0.000
447.978; 3755.775;  224.475;    0.000
448.025; 3772.775;  245.475;    0.000
448.072; 3798.775;  212.475;    0.000
448.120; 3843.775;  256.475;    0.000
448.167; 3837.775;  240.475;    0.000
448.214; 3728.775;  247.475;    0.000
448.261; 3586.775;  245.475;    0.000
448.308; 3717.775;  273.475;    0.000
448.355; 3624.775;  257.475;    0.000
448.402; 3587.775;  259.475;    0.000
448.449; 3416.775;  238.475;    0.000
448.496; 3417.775;  245.475;    0.000
448.543; 3435.775;  217.475;    0.000
448.590; 3358.775;  269.475;    0.000
448.637; 3282.775;  250.475;    0.000
448.684; 3310.775;  250.475;    0.000
448.731; 3193.775;  235.475;    0.000
448.778; 3180.775;  265.475;    0.000
448.825; 3153.775;  257.475;    0.000
448.872; 3145.775;  234.475;    0.000
448.919; 3031.775;  216.475;    0.000
448.966; 3109.775;  274.475;    0.000
449.013; 3104.775;  263.475;    0.000
449.060; 3005.775;  247.475;    0.000
449.107; 2979.775;  218.475;    0.000
449.154; 3012.775;  225.475;    0.000
449.200; 2965.775;  212.475;    0.000
449.247; 2854.775;  242.475;    0.000
449.294; 2917.775;  228.475;    0.000
449.341; 2868.775;  232.475;    0.000
449.388; 2876.775;  247.475;    0.000
449.435; 2829.775;  227.475;    0.000
449.481; 2753.775;  270.475;    0.000
449.528; 2801.775;  265.475;    0.000
449.575; 2796.775;  255.475;    0.000
449.622; 2802.775;  210.475;    0.000
449.668; 2835.775;  234.475;    0.000
449.715; 2797.775;  262.475;    0.000
449.762; 2795.775;  247.475;    0.000
449.809; 2782.775;  286.475;    0.000
449.855; 2699.775;  246.475;    0.000
449.902; 2680.775;  224.475;    0.000
449.949; 2755.775;  244.475;    0.000
449.995; 2756.775;  274.475;    0.000
450.042; 2729.775;  272.475;    0.000
450.089; 2686.775;  274.475;    0.000
450.135; 2778.775;  285.475;    0.000
450.182; 2588.775;  251.475;    0.000
450.229; 2720.775;  242.475;    0.000
450.275; 2717.775;  277.475;    0.000
450.322; 2629.775;  260.475;    0.000
450.368; 2789.775;  257.475;    0.000
450.415; 2654.775;  276.475;    0.000
450.462; 2616.775;  298.475;    0.000
450.508; 2677.775;  255.475;    0.000
450.555; 2633.775;  271.475;    0.000
450.601; 2693.775;  281.475;    0.000
450.648; 2543.775;  249.475;    0.000
450.694; 2546.775;  270.475;    0.000
450.741; 2553.775;  256.475;    0.000
450.787; 2545.775;  292.475;    0.000
450.834; 2605.775;  221.475;    0.000
450.880; 2590.775;  265.475;    0.000
450.927; 2563.775;  242.475;    0.000
450.973; 2593.775;  259.475;    0.000
451.019; 2487.775;  221.475;    0.000
451.066; 2529.775;  257.475;    0.000
451.112; 2617.775;  251.475;    0.000
451.159; 2498.775;  278.475;    0.000
451.205; 2585.775;  274.475;    0.000
451.251; 2642.775;  281.475;    0.000
451.298; 2475.775;  273.475;    0.000
451.344; 2525.775;  246.475;    0.000
451.390; 2517.775;  286.475;    0.000
451.437; 2531.775;  268.475;    0.000
451.483; 2529.775;  315.475;    0.000
451.529; 2504.775;  251.475;    0.000
451.576; 2479.775;  306.475;    0.000
451.622; 2437.775;  234.475;    0.000
451.668; 2478.775;  243.475;    0.000
451.714; 2475.775;  256.475;    0.000
451.761; 2452.775;  264.475;    0.000
451.807; 2450.775;  284.475;    0.000
451.853; 2463.775;  282.475;    0.000
451.899; 2423.775;  240.475;    0.000
451.945; 2470.775;  263.475;    0.000
451.992; 2484.775;  255.475;    0.000
452.038; 2433.775;  273.475;    0.000
452.084; 2442.775;  274.475;    0.000
452.130; 2476.775;  261.475;    0.000
452.176; 2449.775;  246.475;    0.000
452.222; 2396.775;  238.475;    0.000
452.268; 2419.775;  267.475;    0.000
452.315; 2353.775;  274.475;    0.000
452.361; 2436.775;  241.475;    0.000
452.407; 2475.775;  274.475;    0.000
452.453; 2436.775;  260.475;    0.000
452.499; 2452.775;  232.475;    0.000
452.545; 2413.775;  252.475;    0.000
452.591; 2424.775;  263.475;    0.000
452.637; 2420.775;  208.475;    0.000
452.683; 2346.775;  237.475;    0.000
452.729; 2324.775;  263.475;    0.000
452.775; 2397.775;  291.475;    0.000
452.821; 2380.775;  238.475;    0.000
452.867; 2468.775;  223.475;    0.000
452.913; 2367.775;  257.475;    0.000
452.959; 2348.775;  238.475;    0.000
453.005; 2387.775;  252.475;    0.000
453.051; 2334.775;  260.475;    0.000
453.097; 2332.775;  268.475;    0.000
453.142; 2316.775;  231.475;    0.000
453.188; 2380.775;  266.475;    0.000
453.234; 2386.775;  233.475;    0.000
453.280; 2359.775;  219.475;    0.000
453.326; 2376.775;  265.475;    0.000
453.372; 2284.775;  238.475;    0.000
453.418; 2336.775;  240.475;    0.000
453.463; 2337.775;  219.475;    0.000
453.509; 2312.775;  264.475;    0.000
453.555; 2266.775;  247.475;    0.000
453.601; 2352.775;  230.475;    0.000
453.647; 2304.775;  285.475;    0.000
453.692; 2299.775;  240.475;    0.000
453.738; 2320.775;  233.475;    0.000
453.784; 2325.775;  230.475;    0.000
453.829; 2218.775;  246.475;    0.000
453.875; 2284.775;  261.475;    0.000
453.921; 2314.775;  203.475;    0.000
453.967; 2300.775;  241.475;    0.000
454.012; 2287.775;  250.475;    0.000
454.058; 2325.775;  252.475;    0.000
454.104; 2336.775;  239.475;    0.000
454.149; 2311.775;  250.475;    0.000
454.195; 2222.775;  243.475;    0.000
454.240; 2358.775;  252.475;    0.000
454.286; 2335.775;  245.475;    0.000
454.332; 2372.775;  286.475;    0.000
454.377; 2274.775;  254.475;    0.000
454.423; 2179.775;  246.475;    0.000
454.468; 2265.775;  235.475;    0.000
454.514; 2320.775;  231.475;    0.000
454.559; 2322.775;  246.475;    0.000
454.605; 2217.775;  204.475;    0.000
454.650; 2288.775;  272.475;    0.000
454.696; 2289.775;  222.475;    0.000
454.741; 2316.775;  290.475;    0.000
454.787; 2337.775;  262.475;    0.000
454.832; 2205.775;  227.475;    0.000
454.878; 2340.775;  241.475;    0.000
454.923; 2323.775;  272.475;    0.000
454.969; 2314.775;  290.475;    0.000
455.014; 2275.775;  278.475;    0.000
455.060; 2191.775;  246.475;    0.000
455.105; 2212.775;  231.475;    0.000
455.150; 2240.775;  265.475;    0.000
455.196; 2283.775;  266.475;    0.000
455.241; 2278.775;  258.475;    0.000
455.286; 2308.775;  266.475;    0.000
455.332; 2258.775;  252.475;    0.000
455.377; 2288.775;  219.475;    0.000
455.422; 2288.775;  262.475;    0.000
455.468; 2289.775;  260.475;    0.000
455.513; 2234.775;  212.475;    0.000
455.558; 2225.775;  197.475;    0.000
455.604; 2280.775;  262.475;    0.000
455.649; 2272.775;  238.475;    0.000
455.694; 2299.775;  221.475;    0.000
455.739; 2249.775;  251.475;    0.000
455.785; 2265.775;  287.475;    0.000
455.830; 2264.775;  284.475;    0.000
455.875; 2312.775;  234.475;    0.000
455.920; 2246.775;  215.475;    0.000
455.965; 2307.775;  256.475;    0.000
456.010; 2351.775;  266.475;    0.000
456.056; 2264.775;  263.475;    0.000
456.101; 2322.775;  240.475;    0.000
456.146; 2323.775;  258.475;    0.000
456.191; 2256.775;  241.475;    0.000
456.236; 2190.775;  252.475;    0.000
456.281; 2208.775;  218.475;    0.000
456.326; 2217.775;  251.475;    0.000
456.371; 2198.775;  256.475;    0.000
456.416; 2204.775;  301.475;    0.000
456.461; 2159.775;  233.475;    0.000
456.507; 2234.775;  218.475;    0.000
456.552; 2289.775;  278.475;    0.000
456.597; 2317.775;  223.475;    0.000
456.642; 2274.775;  203.475;    0.000
456.687; 2198.775;  245.475;    0.000
456.732; 2281.775;  256.475;    0.000
456.776; 2301.775;  244.475;    0.000
456.821; 2327.775;  276.475;    0.000
456.866; 2281.775;  232.475;    0.000
456.911; 2243.775;  225.475;    0.000
456.956; 2251.775;  237.475;    0.000
457.001; 2219.775;  261.475;    0.000
457.046; 2246.775;  205.475;    0.000
457.091; 2281.775;  241.475;    0.000
457.136; 2220.775;  217.475;    0.000
457.181; 2316.775;  251.475;    0.000
457.225; 2228.775;  241.475;    0.000
457.270; 2255.775;  237.475;    0.000
457.315; 2297.775;  279.475;    0.000
457.360; 2248.775;  245.475;    0.000
457.405; 2284.775;  202.475;    0.000
457.450; 2298.775;  247.475;    0.000
457.494; 2308.775;  243.475;    0.000
457.539; 2245.775;  222.475;    0.000
457.584; 2350.775;  239.475;    0.000
457.629; 2308.775;  236.475;    0.000
457.673; 2307.775;  234.475;    0.000
457.718; 2284.775;  202.475;    0.000
457.763; 2335.775;  274.475;    0.000
457.807; 2317.775;  236.475;    0.000
457.852; 2360.775;  265.475;    0.000
457.897; 2322.775;  252.475;    0.000
457.941; 2324.775;  264.475;    0.000
457.986; 2350.775;  280.475;    0.000
458.031; 2361.775;  217.475;    0.000
458.075; 2310.775;  249.475;    0.000
458.120; 2383.775;  257.475;    0.000
458.165; 2382.775;  183.475;    0.000
458.209; 2373.775;  245.475;    0.000
458.254; 2375.775;  245.475;    0.000
458.298; 2449.775;  265.475;    0.000
458.343; 2340.775;  241.475;    0.000
458.387; 2379.775;  262.475;    0.000
458.432; 2291.775;  245.475;    0.000
458.476; 2360.775;  255.475;    0.000
458.521; 2373.775;  269.475;    0.000
458.565; 2336.775;  265.475;    0.000
458.610; 2344.775;  222.475;    0.000
458.654; 2370.775;  257.475;    0.000
458.699; 2426.775;  296.475;    0.000
458.743; 2375.775;  203.475;    0.000
458.788; 2538.775;  267.475;    0.000
458.832; 2452.775;  274.475;    0.000
458.877; 2569.775;  251.475;    0.000
458.921; 2457.775;  237.475;    0.000
458.965; 2422.775;  264.475;    0.000
459.010; 2435.775;  256.475;    0.000
459.054; 2486.775;  280.475;    0.000
459.099; 2437.775;  240.475;    0.000
459.143; 2483.775;  287.475;    0.000
459.187; 2459.775;  257.475;    0.000
459.231; 2416.775;  273.475;    0.000
459.276; 2411.775;  231.475;    0.000
459.320; 2553.775;  261.475;    0.000
459.364; 2304.775;  278.475;    0.000
459.409; 2430.775;  249.475;    0.000
459.453; 2524.775;  235.475;    0.000
459.497; 2458.775;  262.475;    0.000
459.541; 2463.775;  269.475;    0.000
459.586; 2456.775;  240.475;    0.000
459.630; 2523.775;  261.475;    0.000
459.674; 2542.775;  276.475;    0.000
459.718; 2527.775;  236.475;    0.000
459.762; 2380.775;  263.475;    0.000
459.807; 2562.775;  263.475;    0.000
459.851; 2466.775;  225.475;    0.000
459.895; 2539.775;  247.475;    0.000
459.939; 2490.775;  231.475;    0.000
459.983; 2438.775;  242.475;    0.000
460.027; 2463.775;  248.475;    0.000
460.071; 2579.775;  273.475;    0.000
460.115; 2472.775;  282.475;    0.000
460.159; 2605.775;  264.475;    0.000
460.204; 2477.775;  288.475;    0.000
460.248; 2596.775;  293.475;    0.000
460.292; 2582.775;  277.475;    0.000
460.336; 2480.775;  250.475;    0.000
460.380; 2577.775;  275.475;    0.000
460.424; 2485.775;  243.475;    0.000
460.468; 2586.775;  277.475;    0.000
460.512; 2569.775;  261.475;    0.000
460.556; 2580.775;  266.475;    0.000
460.599; 2613.775;  246.475;    0.000
460.643; 2593.775;  256.475;    0.000
460.687; 2599.775;  257.475;    0.000
460.731; 2427.775;  235.475;    0.000
460.775; 2532.775;  278.475;    0.000
460.819; 2597.775;  268.475;    0.000
460.863; 2575.775;  257.475;    0.000
460.907; 2512.775;  213.475;    0.000
460.951; 2532.775;  274.475;    0.000
460.995; 2552.775;  258.475;    0.000
461.038; 2585.775;  219.475;    0.000
461.082; 2642.775;  253.475;    0.000
461.126; 2550.775;  281.475;    0.000
461.170; 2486.775;  244.475;    0.000
461.214; 2552.775;  262.475;    0.000
461.257; 2575.775;  284.475;    0.000
461.301; 2597.775;  275.475;    0.000
461.345; 2573.775;  267.475;    0.000
461.389; 2519.775;  255.475;    0.000
461.432; 2562.775;  282.475;    0.000
461.476; 2540.775;  263.475;    0.000
461.520; 2537.775;  260.475;    0.000
461.563; 2499.775;  278.475;    0.000
461.607; 2560.775;  236.475;    0.000
461.651; 2595.775;  262.475;    0.000
461.694; 2570.775;  236.475;    0.000
461.738; 2529.775;  295.475;    0.000
461.782; 2618.775;  252.475;    0.000
461.825; 2592.775;  271.475;    0.000
461.869; 2708.775;  278.475;    0.000
461.913; 2669.775;  255.475;    0.000
461.956; 2675.775;  254.475;    0.000
462.000; 2645.775;  299.475;    0.000
462.043; 2738.775;  282.475;    0.000
462.087; 2702.775;  274.475;    0.000
462.130; 2599.775;  270.475;    0.000
462.174; 2718.775;  274.475;    0.000
462.217; 2657.775;  272.475;    0.000
462.261; 2703.775;  286.475;    0.000
462.304; 2669.775;  236.475;    0.000
462.348; 2640.775;  262.475;    0.000
462.391; 2779.775;  244.475;    0.000
462.435; 2681.775;  321.475;    0.000
462.478; 2606.775;  230.475;    0.000
462.522; 2729.775;  245.475;    0.000
462.565; 2840.775;  278.475;    0.000
462.608; 2706.775;  303.475;    0.000
462.652; 2733.775;  275.475;    0.000
462.695; 2805.775;  314.475;    0.000
462.739; 2725.775;  307.475;    0.000
462.782; 2730.775;  286.475;    0.000
462.825; 2853.775;  312.475;    0.000
462.869; 2879.775;  338.475;    0.000
462.912; 2763.775;  304.475;    0.000
462.955; 2817.775;  288.475;    0.000
462.998; 2855.775;  292.475;    0.000
463.042; 2825.775;  309.475;    0.000
463.085; 2806.775;  292.475;    0.000
463.128; 2820.775;  317.475;    0.000
463.172; 2759.775;  287.475;    0.000
463.215;  392.775;  313.475;    0.000
463.258;  295.775;  295.475;    0.000
463.301;  317.775;  275.475;    0.000
463.344;  316.775;  311.475;    0.000
463.388;  320.775;  296.475;    0.000
463.431;  302.775;  277.475;    0.000
463.474;  362.775;  364.475;    0.000
463.517;  305.775;  306.475;    0.000
463.560;  320.775;  308.475;    0.000
463.603;  312.775;  343.475;    0.000
463.646;  325.775;  309.475;    0.000
463.690;  327.775;  309.475;    0.000
463.733;  315.775;  320.475;    0.000
463.776;  296.775;  299.475;    0.000
463.819;  322.775;  320.475;    0.000
463.862;  337.775;  283.475;    0.000

