
Integration time [ms]:   1.000
Averaging Nr. [scans]: 1
Smoothing Nr. [pixels]: 0
Data measured with spectrometer [name]: VIS
Wave   ;Sample   ;Dark     ;Reference
[nm]   ;[counts] ;[counts] ;[counts] 

450.961;  206.225;  200.375;    0.000
451.100;  222.225;  241.375;    0.000
451.239;  231.225;  201.375;    0.000
451.377;  245.225;  262.375;    0.000
451.516;  202.225;  229.375;    0.000
451.655;  224.225;  211.375;    0.000
451.794;  230.225;  225.375;    0.000
451.932;  218.225;  247.375;    0.000
452.071;  237.225;  260.375;    0.000
452.210;  204.225;  235.375;    0.000
452.348;  223.225;  276.375;    0.000
452.487;  220.225;  259.375;    0.000
452.626;  230.225;  254.375;    0.000
452.764;  253.225;  233.375;    0.000
452.903;  207.225;  202.375;    0.000
453.042;  288.225;  211.375;    0.000
453.180; 3167.225;  240.375;    0.000
453.319; 3224.225;  238.375;    0.000
453.458; 3175.225;  215.375;    0.000
453.596; 3192.225;  252.375;    0.000
453.735; 3279.225;  240.375;    0.000
453.873; 3244.225;  257.375;    0.000
454.012; 3315.225;  228.375;    0.000
454.150; 3342.225;  270.375;    0.000
454.289; 3413.225;  233.375;    0.000
454.427; 3358.225;  243.375;    0.000
454.566; 3369.225;  257.375;    0.000
454.704; 3390.225;  243.375;    0.000
454.843; 3494.225;  190.375;    0.000
454.981; 3513.225;  271.375;    0.000
455.120; 3472.225;  210.375;    0.000
455.258; 3563.225;  235.375;    0.000
455.397; 3528.225;  214.375;    0.000
455.535; 3528.225;  214.375;    0.000
455.674; 3563.225;  184.375;    0.000
455.812; 3675.225;  228.375;    0.000
455.951; 3698.225;  204.375;    0.000
456.089; 3779.225;  220.375;    0.000
456.227; 3735.225;  196.375;    0.000
456.366; 3762.225;  261.375;    0.000
456.504; 3778.225;  249.375;    0.000
456.642; 3914.225;  245.375;    0.000
456.781; 3806.225;  183.375;    0.000
456.919; 3938.225;  203.375;    0.000
457.057; 3974.225;  177.375;    0.000
457.196; 4052.225;  191.375;    0.000
457.334; 4136.225;  233.375;    0.000
457.472; 4116.225;  214.375;    0.000
457.610; 4190.225;  230.375;    0.000
457.749; 4250.225;  247.375;    0.000
457.887; 4249.225;  220.375;    0.000
458.025; 4293.225;  195.375;    0.000
458.163; 4427.225;  224.375;    0.000
458.301; 4456.225;  228.375;    0.000
458.440; 4416.225;  200.375;    0.000
458.578; 4585.225;  233.375;    0.000
458.716; 4605.225;  182.375;    0.000
458.854; 4634.225;  251.375;    0.000
458.992; 4655.225;  187.375;    0.000
459.130; 4745.225;  229.375;    0.000
459.269; 4717.225;  237.375;    0.000
459.407; 4777.225;  228.375;    0.000
459.545; 4784.225;  216.375;    0.000
459.683; 4844.225;  204.375;    0.000
459.821; 4873.225;  191.375;    0.000
459.959; 5045.225;  227.375;    0.000
460.097; 4877.225;  221.375;    0.000
460.235; 5027.225;  241.375;    0.000
460.373; 5003.225;  231.375;    0.000
460.511; 5139.225;  214.375;    0.000
460.649; 5083.225;  172.375;    0.000
460.787; 5223.225;  275.375;    0.000
460.925; 5096.225;  175.375;    0.000
461.063; 5246.225;  252.375;    0.000
461.201; 5224.225;  210.375;    0.000
461.339; 5312.225;  237.375;    0.000
461.477; 5248.225;  210.375;    0.000
461.615; 5319.225;  236.375;    0.000
461.753; 5400.225;  215.375;    0.000
461.891; 5363.225;  222.375;    0.000
462.029; 5631.225;  227.375;    0.000
462.166; 5429.225;  202.375;    0.000
462.304; 5482.225;  191.375;    0.000
462.442; 5703.225;  210.375;    0.000
462.580; 5748.225;  184.375;    0.000
462.718; 5636.225;  220.375;    0.000
462.856; 5665.225;  226.375;    0.000
462.993; 5620.225;  254.375;    0.000
463.131; 5616.225;  200.375;    0.000
463.269; 5575.225;  215.375;    0.000
463.407; 5471.225;  213.375;    0.000
463.545; 5551.225;  242.375;    0.000
463.682; 5485.225;  212.375;    0.000
463.820; 5777.225;  185.375;    0.000
463.958; 6010.225;  212.375;    0.000
464.095; 6208.225;  181.375;    0.000
464.233; 6094.225;  192.375;    0.000
464.371; 6093.225;  247.375;    0.000
464.509; 6075.225;  151.375;    0.000
464.646; 6098.225;  207.375;    0.000
464.784; 6053.225;  199.375;    0.000
464.921; 5926.225;  253.375;    0.000
465.059; 5937.225;  214.375;    0.000
465.197; 5784.225;  200.375;    0.000
465.334; 5712.225;  180.375;    0.000
465.472; 5769.225;  204.375;    0.000
465.609; 5628.225;  203.375;    0.000
465.747; 5655.225;  214.375;    0.000
465.885; 5779.225;  233.375;    0.000
466.022; 5553.225;  215.375;    0.000
466.160; 5437.225;  201.375;    0.000
466.297; 5459.225;  196.375;    0.000
466.435; 5554.225;  230.375;    0.000
466.572; 5606.225;  227.375;    0.000
466.710; 5575.225;  218.375;    0.000
466.847; 5587.225;  245.375;    0.000
466.985; 5576.225;  223.375;    0.000
467.122; 5596.225;  168.375;    0.000
467.260; 5462.225;  196.375;    0.000
467.397; 5586.225;  198.375;    0.000
467.534; 5462.225;  219.375;    0.000
467.672; 5501.225;  214.375;    0.000
467.809; 5501.225;  185.375;    0.000
467.947; 5504.225;  247.375;    0.000
468.084; 5478.225;  196.375;    0.000
468.221; 5572.225;  238.375;    0.000
468.359; 5563.225;  236.375;    0.000
468.496; 5501.225;  235.375;    0.000
468.633; 5617.225;  218.375;    0.000
468.771; 5530.225;  223.375;    0.000
468.908; 5551.225;  208.375;    0.000
469.045; 5560.225;  249.375;    0.000
469.183; 5587.225;  222.375;    0.000
469.320; 5669.225;  216.375;    0.000
469.457; 5642.225;  224.375;    0.000
469.594; 5638.225;  259.375;    0.000
469.732; 5693.225;  223.375;    0.000
469.869; 5896.225;  234.375;    0.000
470.006; 5779.225;  225.375;    0.000
470.143; 5942.225;  243.375;    0.000
470.280; 5932.225;  208.375;    0.000
470.417; 6003.225;  232.375;    0.000
470.555; 5951.225;  218.375;    0.000
470.692; 5842.225;  223.375;    0.000
470.829; 5914.225;  238.375;    0.000
470.966; 5815.225;  205.375;    0.000
471.103; 5826.225;  259.375;    0.000
471.240; 5836.225;  214.375;    0.000
471.377; 5898.225;  226.375;    0.000
471.514; 5838.225;  250.375;    0.000
471.651; 5744.225;  221.375;    0.000
471.789; 5736.225;  242.375;    0.000
471.926; 5707.225;  190.375;    0.000
472.063; 5684.225;  234.375;    0.000
472.200; 5756.225;  252.375;    0.000
472.337; 5771.225;  241.375;    0.000
472.474; 5659.225;  244.375;    0.000
472.611; 5808.225;  268.375;    0.000
472.748; 5645.225;  222.375;    0.000
472.884; 5763.225;  271.375;    0.000
473.021; 5668.225;  195.375;    0.000
473.158; 5754.225;  205.375;    0.000
473.295; 5629.225;  223.375;    0.000
473.432; 5661.225;  216.375;    0.000
473.569; 5652.225;  196.375;    0.000
473.706; 5671.225;  190.375;    0.000
473.843; 5548.225;  211.375;    0.000
473.980; 5625.225;  254.375;    0.000
474.117; 5633.225;  185.375;    0.000
474.253; 5851.225;  229.375;    0.000
474.390; 5636.225;  238.375;    0.000
474.527; 5753.225;  220.375;    0.000
474.664; 5781.225;  242.375;    0.000
474.801; 5759.225;  229.375;    0.000
474.937; 5676.225;  229.375;    0.000
475.074; 5853.225;  210.375;    0.000
475.211; 5705.225;  219.375;    0.000
475.348; 5609.225;  226.375;    0.000
475.484; 5814.225;  207.375;    0.000
475.621; 5785.225;  233.375;    0.000
475.758; 5859.225;  230.375;    0.000
475.894; 5829.225;  234.375;    0.000
476.031; 5777.225;  202.375;    0.000
476.168; 5930.225;  222.375;    0.000
476.304; 5843.225;  237.375;    0.000
476.441; 5672.225;  238.375;    0.000
476.578; 5927.225;  216.375;    0.000
476.714; 5903.225;  212.375;    0.000
476.851; 5720.225;  210.375;    0.000
476.987; 5988.225;  239.375;    0.000
477.124; 5983.225;  250.375;    0.000
477.261; 5974.225;  227.375;    0.000
477.397; 6028.225;  189.375;    0.000
477.534; 6017.225;  204.375;    0.000
477.670; 6083.225;  190.375;    0.000
477.807; 5994.225;  198.375;    0.000
477.943; 6168.225;  216.375;    0.000
478.080; 6225.225;  213.375;    0.000
478.216; 6135.225;  239.375;    0.000
478.353; 6280.225;  218.375;    0.000
478.489; 6190.225;  184.375;    0.000
478.626; 6269.225;  223.375;    0.000
478.762; 6235.225;  213.375;    0.000
478.898; 6306.225;  216.375;    0.000
479.035; 6413.225;  250.375;    0.000
479.171; 6264.225;  201.375;    0.000
479.308; 6259.225;  242.375;    0.000
479.444; 6352.225;  205.375;    0.000
479.580; 6240.225;  203.375;    0.000
479.717; 6357.225;  260.375;    0.000
479.853; 6245.225;  225.375;    0.000
479.989; 6390.225;  226.375;    0.000
480.126; 6389.225;  211.375;    0.000
480.262; 6503.225;  220.375;    0.000
480.398; 6517.225;  207.375;    0.000
480.535; 6351.225;  179.375;    0.000
480.671; 6424.225;  200.375;    0.000
480.807; 6419.225;  190.375;    0.000
480.943; 6484.225;  165.375;    0.000
481.080; 6427.225;  210.375;    0.000
481.216; 6440.225;  232.375;    0.000
481.352; 6265.225;  235.375;    0.000
481.488; 6366.225;  208.375;    0.000
481.624; 6411.225;  245.375;    0.000
481.760; 6434.225;  210.375;    0.000
481.897; 6281.225;  189.375;    0.000
482.033; 6485.225;  256.375;    0.000
482.169; 6322.225;  257.375;    0.000
482.305; 6424.225;  199.375;    0.000
482.441; 6224.225;  182.375;    0.000
482.577; 6429.225;  223.375;    0.000
482.713; 6239.225;  243.375;    0.000
482.849; 6208.225;  197.375;    0.000
482.985; 6355.225;  240.375;    0.000
483.121; 6413.225;  210.375;    0.000
483.258; 6239.225;  248.375;    0.000
483.394; 6266.225;  224.375;    0.000
483.530; 6371.225;  209.375;    0.000
483.665; 6322.225;  225.375;    0.000
483.801; 6303.225;  216.375;    0.000
483.937; 6326.225;  211.375;    0.000
484.073; 6214.225;  259.375;    0.000
484.209; 6282.225;  191.375;    0.000
484.345; 6412.225;  239.375;    0.000
484.481; 6240.225;  231.375;    0.000
484.617; 6498.225;  216.375;    0.000
484.753; 6294.225;  180.375;    0.000
484.889; 6386.225;  252.375;    0.000
485.025; 6299.225;  244.375;    0.000
485.161; 6445.225;  242.375;    0.000
485.296; 6460.225;  235.375;    0.000
485.432; 6428.225;  247.375;    0.000
485.568; 6378.225;  203.375;    0.000
485.704; 6410.225;  229.375;    0.000
485.840; 6457.225;  230.375;    0.000
485.975; 6479.225;  266.375;    0.000
486.111; 6439.225;  220.375;    0.000
486.247; 6462.225;  264.375;    0.000
486.383; 6404.225;  213.375;    0.000
486.518; 6439.225;  222.375;    0.000
486.654; 6624.225;  244.375;    0.000
486.790; 6492.225;  273.375;    0.000
486.926; 6456.225;  203.375;    0.000
487.061; 6457.225;  227.375;    0.000
487.197; 6624.225;  210.375;    0.000
487.333; 6383.225;  209.375;    0.000
487.468; 6411.225;  197.375;    0.000
487.604; 6509.225;  230.375;    0.000
487.740; 6455.225;  254.375;    0.000
487.875; 6651.225;  286.375;    0.000
488.011; 6404.225;  225.375;    0.000
488.146; 6494.225;  251.375;    0.000
488.282; 6535.225;  242.375;    0.000
488.417; 6602.225;  230.375;    0.000
488.553; 6510.225;  260.375;    0.000
488.688; 6523.225;  207.375;    0.000
488.824; 6348.225;  204.375;    0.000
488.960; 6516.225;  248.375;    0.000
489.095; 6432.225;  204.375;    0.000
489.230; 6678.225;  227.375;    0.000
489.366; 6614.225;  226.375;    0.000
489.501; 6593.225;  199.375;    0.000
489.637; 6663.225;  233.375;    0.000
489.772; 6529.225;  249.375;    0.000
489.908; 6474.225;  200.375;    0.000
490.043; 6480.225;  246.375;    0.000
490.178; 6641.225;  222.375;    0.000
490.314; 6610.225;  219.375;    0.000
490.449; 6595.225;  227.375;    0.000
490.585; 6628.225;  209.375;    0.000
490.720; 6441.225;  238.375;    0.000
490.855; 6549.225;  222.375;    0.000
490.991; 6692.225;  202.375;    0.000
491.126; 6448.225;  272.375;    0.000
491.261; 6549.225;  261.375;    0.000
491.396; 6435.225;  190.375;    0.000
491.532; 6589.225;  202.375;    0.000
491.667; 6689.225;  208.375;    0.000
491.802; 6623.225;  203.375;    0.000
491.937; 6663.225;  253.375;    0.000
492.073; 6602.225;  242.375;    0.000
492.208; 6711.225;  230.375;    0.000
492.343; 6667.225;  183.375;    0.000
492.478; 6804.225;  246.375;    0.000
492.613; 6712.225;  223.375;    0.000
492.749; 6638.225;  230.375;    0.000
492.884; 6662.225;  190.375;    0.000
493.019; 6762.225;  234.375;    0.000
493.154; 6701.225;  218.375;    0.000
493.289; 6725.225;  222.375;    0.000
493.424; 6650.225;  196.375;    0.000
493.559; 6588.225;  202.375;    0.000
493.694; 6726.225;  180.375;    0.000
493.829; 6707.225;  224.375;    0.000
493.964; 6693.225;  218.375;    0.000
494.099; 6668.225;  275.375;    0.000
494.234; 6657.225;  226.375;    0.000
494.369; 6734.225;  225.375;    0.000
494.504; 6624.225;  219.375;    0.000
494.639; 6637.225;  296.375;    0.000
494.774; 6817.225;  228.375;    0.000
494.909; 6631.225;  222.375;    0.000
495.044; 6602.225;  215.375;    0.000
495.179; 6725.225;  200.375;    0.000
495.314; 6621.225;  235.375;    0.000
495.449; 6811.225;  249.375;    0.000
495.584; 6686.225;  228.375;    0.000
495.719; 6696.225;  212.375;    0.000
495.854; 6803.225;  201.375;    0.000
495.988; 6775.225;  248.375;    0.000
496.123; 6834.225;  209.375;    0.000
496.258; 6886.225;  249.375;    0.000
496.393; 6853.225;  223.375;    0.000
496.528; 6984.225;  209.375;    0.000
496.663; 6974.225;  207.375;    0.000
496.797; 6856.225;  229.375;    0.000
496.932; 6884.225;  225.375;    0.000
497.067; 7039.225;  218.375;    0.000
497.202; 7139.225;  163.375;    0.000
497.336; 7178.225;  246.375;    0.000
497.471; 7301.225;  229.375;    0.000
497.606; 7337.225;  251.375;    0.000
497.740; 7494.225;  220.375;    0.000
497.875; 7630.225;  216.375;    0.000
498.010; 7662.225;  226.375;    0.000
498.144; 7789.225;  237.375;    0.000
498.279; 7819.225;  196.375;    0.000
498.414; 8156.225;  219.375;    0.000
498.548; 8138.225;  205.375;    0.000
498.683; 8088.225;  206.375;    0.000
498.817; 8177.225;  225.375;    0.000
498.952; 8320.225;  221.375;    0.000
499.087; 8351.225;  220.375;    0.000
499.221; 8552.225;  233.375;    0.000
499.356; 8811.225;  230.375;    0.000
499.490; 8867.225;  229.375;    0.000
499.625; 9069.225;  231.375;    0.000
499.759; 9300.225;  243.375;    0.000
499.894; 9329.225;  241.375;    0.000
500.028; 9572.225;  264.375;    0.000
500.162; 9702.225;  287.375;    0.000
500.297; 9851.225;  234.375;    0.000
500.431;10055.225;  230.375;    0.000
500.566; 9883.225;  213.375;    0.000
500.700; 9853.225;  243.375;    0.000
500.835; 9806.225;  272.375;    0.000
500.969; 9438.225;  188.375;    0.000
501.103; 9314.225;  200.375;    0.000
501.238; 9236.225;  257.375;    0.000
501.372; 8923.225;  224.375;    0.000
501.506; 8818.225;  225.375;    0.000
501.641; 8538.225;  271.375;    0.000
501.775; 8196.225;  199.375;    0.000
501.909; 8143.225;  249.375;    0.000
502.043; 8050.225;  211.375;    0.000
502.178; 7880.225;  269.375;    0.000
502.312; 7846.225;  198.375;    0.000
502.446; 7693.225;  256.375;    0.000
502.580; 7460.225;  195.375;    0.000
502.715; 7418.225;  224.375;    0.000
502.849; 7251.225;  245.375;    0.000
502.983; 7336.225;  250.375;    0.000
503.117; 7259.225;  193.375;    0.000
503.251; 7211.225;  242.375;    0.000
503.385; 7138.225;  227.375;    0.000
503.520; 7020.225;  235.375;    0.000
503.654; 6871.225;  220.375;    0.000
503.788; 6732.225;  267.375;    0.000
503.922; 6672.225;  220.375;    0.000
504.056; 6718.225;  238.375;    0.000
504.190; 6655.225;  212.375;    0.000
504.324; 6520.225;  265.375;    0.000
504.458; 6541.225;  228.375;    0.000
504.592; 6467.225;  231.375;    0.000
504.726; 6422.225;  218.375;    0.000
504.860; 6412.225;  253.375;    0.000
504.994; 6345.225;  217.375;    0.000
505.128; 6309.225;  243.375;    0.000
505.262; 6124.225;  194.375;    0.000
505.396; 5970.225;  210.375;    0.000
505.530; 6009.225;  211.375;    0.000
505.664; 5985.225;  219.375;    0.000
505.798; 5883.225;  240.375;    0.000
505.932; 5797.225;  240.375;    0.000
506.066; 5844.225;  252.375;    0.000
506.199; 5781.225;  242.375;    0.000
506.333; 5807.225;  244.375;    0.000
506.467; 5738.225;  223.375;    0.000
506.601; 5557.225;  183.375;    0.000
506.735; 5635.225;  249.375;    0.000
506.869; 5613.225;  270.375;    0.000
507.002; 5548.225;  207.375;    0.000
507.136; 5486.225;  242.375;    0.000
507.270; 5573.225;  232.375;    0.000
507.404; 5606.225;  195.375;    0.000
507.537; 5497.225;  218.375;    0.000
507.671; 5415.225;  246.375;    0.000
507.805; 5320.225;  244.375;    0.000
507.939; 5355.225;  251.375;    0.000
508.072; 5386.225;  212.375;    0.000
508.206; 5369.225;  198.375;    0.000
508.340; 5370.225;  234.375;    0.000
508.473; 5429.225;  217.375;    0.000
508.607; 5320.225;  224.375;    0.000
508.740; 5332.225;  207.375;    0.000
508.874; 5325.225;  230.375;    0.000
509.008; 5232.225;  246.375;    0.000
509.141; 5247.225;  239.375;    0.000
509.275; 5335.225;  229.375;    0.000
509.408; 5143.225;  234.375;    0.000
509.542; 5281.225;  212.375;    0.000
509.675; 5377.225;  256.375;    0.000
509.809; 5174.225;  232.375;    0.000
509.942; 5172.225;  237.375;    0.000
510.076; 5204.225;  226.375;    0.000
510.209; 5265.225;  251.375;    0.000
510.343; 5031.225;  229.375;    0.000
510.476; 5146.225;  285.375;    0.000
510.610; 5051.225;  211.375;    0.000
510.743; 5059.225;  258.375;    0.000
510.877; 5083.225;  244.375;    0.000
511.010; 4980.225;  235.375;    0.000
511.143; 5036.225;  251.375;    0.000
511.277; 5008.225;  228.375;    0.000
511.410; 5006.225;  216.375;    0.000
511.543; 4996.225;  231.375;    0.000
511.677; 4943.225;  244.375;    0.000
511.810; 4977.225;  186.375;    0.000
511.943; 5109.225;  211.375;    0.000
512.077; 4954.225;  201.375;    0.000
512.210; 4843.225;  194.375;    0.000
512.343; 5038.225;  233.375;    0.000
512.476; 5055.225;  234.375;    0.000
512.610; 5067.225;  224.375;    0.000
512.743; 5004.225;  255.375;    0.000
512.876; 5084.225;  264.375;    0.000
513.009; 5080.225;  283.375;    0.000
513.142; 4990.225;  246.375;    0.000
513.276; 4970.225;  217.375;    0.000
513.409; 4971.225;  222.375;    0.000
513.542; 4959.225;  237.375;    0.000
513.675; 4977.225;  238.375;    0.000
513.808; 4888.225;  220.375;    0.000
513.941; 4994.225;  233.375;    0.000
514.074; 4942.225;  248.375;    0.000
514.207; 5010.225;  233.375;    0.000
514.340; 4899.225;  190.375;    0.000
514.474; 4977.225;  221.375;    0.000
514.607; 5042.225;  213.375;    0.000
514.740; 5030.225;  251.375;    0.000
514.873; 5200.225;  257.375;    0.000
515.006; 5204.225;  268.375;    0.000
515.139; 5199.225;  257.375;    0.000
515.272; 5226.225;  227.375;    0.000
515.404; 5292.225;  238.375;    0.000
515.537; 5357.225;  275.375;    0.000
515.670; 5211.225;  239.375;    0.000
515.803; 5202.225;  223.375;    0.000
515.936; 5218.225;  202.375;    0.000
516.069; 5315.225;  188.375;    0.000
516.202; 5487.225;  240.375;    0.000
516.335; 5630.225;  252.375;    0.000
516.468; 5876.225;  254.375;    0.000
516.600; 7346.225;  254.375;    0.000
516.733; 9550.225;  255.375;    0.000
516.866; 9396.225;  265.375;    0.000
516.999; 8350.225;  251.375;    0.000
517.132;10455.225;  256.375;    0.000
517.264;15104.225;  202.375;    0.000
517.397;14942.225;  248.375;    0.000
517.530;10993.225;  221.375;    0.000
517.663; 9000.225;  244.375;    0.000
517.795; 8084.225;  245.375;    0.000
517.928; 7879.225;  236.375;    0.000
518.061; 7948.225;  219.375;    0.000
518.193;10771.225;  251.375;    0.000
518.326;17409.225;  271.375;    0.000
518.459;18835.225;  207.375;    0.000
518.591;13952.225;  217.375;    0.000
518.724;10271.225;  200.375;    0.000
518.857; 8738.225;  204.375;    0.000
518.989; 7953.225;  242.375;    0.000
519.122; 7388.225;  254.375;    0.000
519.254; 6917.225;  239.375;    0.000
519.387; 6598.225;  235.375;    0.000
519.519; 6272.225;  227.375;    0.000
519.652; 6033.225;  178.375;    0.000
519.784; 6081.225;  226.375;    0.000
519.917; 5625.225;  256.375;    0.000
520.049; 5736.225;  234.375;    0.000
520.182; 5653.225;  258.375;    0.000
520.314; 5453.225;  298.375;    0.000
520.447; 5347.225;  204.375;    0.000
520.579; 5441.225;  235.375;    0.000
520.712; 5203.225;  208.375;    0.000
520.844; 5219.225;  272.375;    0.000
520.976; 5009.225;  234.375;    0.000
521.109; 5038.225;  235.375;    0.000
521.241; 5111.225;  250.375;    0.000
521.373; 4926.225;  233.375;    0.000
521.506; 4906.225;  231.375;    0.000
521.638; 4955.225;  258.375;    0.000
521.770; 4760.225;  226.375;    0.000
521.903; 4924.225;  258.375;    0.000
522.035; 4710.225;  263.375;    0.000
522.167; 4750.225;  214.375;    0.000
522.300; 4638.225;  212.375;    0.000
522.432; 4745.225;  220.375;    0.000
522.564; 4617.225;  228.375;    0.000
522.696; 4602.225;  272.375;    0.000
522.828; 4616.225;  222.375;    0.000
522.961; 4596.225;  205.375;    0.000
523.093; 4561.225;  253.375;    0.000
523.225; 4517.225;  239.375;    0.000
523.357; 4502.225;  263.375;    0.000
523.489; 4501.225;  264.375;    0.000
523.621; 4607.225;  259.375;    0.000
523.753; 4449.225;  233.375;    0.000
523.885; 4377.225;  232.375;    0.000
524.018; 4480.225;  214.375;    0.000
524.150; 4385.225;  235.375;    0.000
524.282; 4482.225;  242.375;    0.000
524.414; 4417.225;  261.375;    0.000
524.546; 4385.225;  233.375;    0.000
524.678; 4355.225;  242.375;    0.000
524.810; 4371.225;  216.375;    0.000
524.942; 4232.225;  220.375;    0.000
525.074; 4283.225;  249.375;    0.000
525.206; 4299.225;  227.375;    0.000
525.338; 4254.225;  250.375;    0.000
525.469; 4182.225;  231.375;    0.000
525.601; 4185.225;  245.375;    0.000
525.733; 4148.225;  187.375;    0.000
525.865; 4216.225;  280.375;    0.000
525.997; 4214.225;  216.375;    0.000
526.129; 4148.225;  228.375;    0.000
526.261; 4179.225;  187.375;    0.000
526.393; 4113.225;  228.375;    0.000
526.524; 4159.225;  201.375;    0.000
526.656; 3990.225;  199.375;    0.000
526.788; 4169.225;  233.375;    0.000
526.920; 4146.225;  256.375;    0.000
527.052; 3945.225;  219.375;    0.000
527.183; 3994.225;  227.375;    0.000
527.315; 4056.225;  266.375;    0.000
527.447; 4041.225;  239.375;    0.000
527.578; 4044.225;  213.375;    0.000
527.710; 4003.225;  216.375;    0.000
527.842; 4052.225;  240.375;    0.000
527.973; 4073.225;  286.375;    0.000
528.105; 3997.225;  222.375;    0.000
528.237; 4039.225;  223.375;    0.000
528.368; 3972.225;  211.375;    0.000
528.500; 4019.225;  215.375;    0.000
528.632; 4011.225;  216.375;    0.000
528.763; 3967.225;  234.375;    0.000
528.895; 3930.225;  196.375;    0.000
529.026; 4029.225;  202.375;    0.000
529.158; 3986.225;  226.375;    0.000
529.289; 4110.225;  229.375;    0.000
529.421; 4046.225;  264.375;    0.000
529.552; 3900.225;  265.375;    0.000
529.684; 4121.225;  260.375;    0.000
529.815; 3956.225;  284.375;    0.000
529.947; 3970.225;  237.375;    0.000
530.078; 3898.225;  223.375;    0.000
530.210; 3891.225;  223.375;    0.000
530.341; 3953.225;  209.375;    0.000
530.472; 3919.225;  203.375;    0.000
530.604; 3970.225;  223.375;    0.000
530.735; 3932.225;  218.375;    0.000
530.867; 4076.225;  222.375;    0.000
530.998; 3999.225;  239.375;    0.000
531.129; 3982.225;  250.375;    0.000
531.260; 4008.225;  224.375;    0.000
531.392; 4031.225;  216.375;    0.000
531.523; 4069.225;  234.375;    0.000
531.654; 4018.225;  256.375;    0.000
531.786; 3980.225;  226.375;    0.000
531.917; 4051.225;  239.375;    0.000
532.048; 4056.225;  205.375;    0.000
532.179; 4041.225;  244.375;    0.000
532.311; 4102.225;  235.375;    0.000
532.442; 4095.225;  258.375;    0.000
532.573; 3990.225;  220.375;    0.000
532.704; 4063.225;  213.375;    0.000
532.835; 3979.225;  249.375;    0.000
532.966; 4026.225;  226.375;    0.000
533.097; 3962.225;  246.375;    0.000
533.229; 3942.225;  237.375;    0.000
533.360; 3964.225;  225.375;    0.000
533.491; 4008.225;  241.375;    0.000
533.622; 3928.225;  242.375;    0.000
533.753; 3990.225;  264.375;    0.000
533.884; 3876.225;  245.375;    0.000
534.015; 3975.225;  269.375;    0.000
534.146; 3933.225;  267.375;    0.000
534.277; 4097.225;  282.375;    0.000
534.408; 3962.225;  229.375;    0.000
534.539; 4035.225;  269.375;    0.000
534.670; 3994.225;  231.375;    0.000
534.801; 3999.225;  260.375;    0.000
534.932; 3887.225;  232.375;    0.000
535.063; 3908.225;  227.375;    0.000
535.194; 3920.225;  281.375;    0.000
535.324; 3826.225;  206.375;    0.000
535.455; 3982.225;  257.375;    0.000
535.586; 4024.225;  275.375;    0.000
535.717; 3769.225;  206.375;    0.000
535.848; 3869.225;  271.375;    0.000
535.979; 3960.225;  250.375;    0.000
536.109; 3824.225;  253.375;    0.000
536.240; 3843.225;  234.375;    0.000
536.371; 3899.225;  230.375;    0.000
536.502; 3931.225;  270.375;    0.000
536.632; 3799.225;  228.375;    0.000
536.763; 3841.225;  249.375;    0.000
536.894; 3894.225;  262.375;    0.000
537.025; 3814.225;  258.375;    0.000
537.155; 3888.225;  278.375;    0.000
537.286; 3900.225;  209.375;    0.000
537.417; 3867.225;  255.375;    0.000
537.547; 3806.225;  208.375;    0.000
537.678; 3888.225;  224.375;    0.000
537.808; 3801.225;  224.375;    0.000
537.939; 3871.225;  257.375;    0.000
538.070; 3786.225;  240.375;    0.000
538.200; 3900.225;  259.375;    0.000
538.331; 3771.225;  235.375;    0.000
538.461; 3677.225;  251.375;    0.000
538.592; 3846.225;  245.375;    0.000
538.722; 3862.225;  239.375;    0.000
538.853; 3773.225;  216.375;    0.000
538.983; 3900.225;  226.375;    0.000
539.114; 3815.225;  240.375;    0.000
539.244; 3798.225;  237.375;    0.000
539.375; 3746.225;  198.375;    0.000
539.505; 3841.225;  263.375;    0.000
539.636; 3771.225;  226.375;    0.000
539.766; 3804.225;  229.375;    0.000
539.896; 3836.225;  219.375;    0.000
540.027; 3788.225;  246.375;    0.000
540.157; 3835.225;  218.375;    0.000
540.287; 3736.225;  216.375;    0.000
540.418; 3755.225;  267.375;    0.000
540.548; 3941.225;  260.375;    0.000
540.678; 3767.225;  242.375;    0.000
540.809; 3816.225;  260.375;    0.000
540.939; 3679.225;  257.375;    0.000
541.069; 3856.225;  226.375;    0.000
541.200; 3737.225;  227.375;    0.000
541.330; 3858.225;  218.375;    0.000
541.460; 3879.225;  223.375;    0.000
541.590; 3768.225;  237.375;    0.000
541.720; 3745.225;  222.375;    0.000
541.851; 3867.225;  250.375;    0.000
541.981; 3832.225;  222.375;    0.000
542.111; 3886.225;  212.375;    0.000
542.241; 3883.225;  205.375;    0.000
542.371; 3831.225;  202.375;    0.000
542.501; 3936.225;  218.375;    0.000
542.631; 4043.225;  222.375;    0.000
542.761; 3976.225;  249.375;    0.000
542.891; 4026.225;  173.375;    0.000
543.021; 4050.225;  218.375;    0.000
543.151; 4061.225;  222.375;    0.000
543.281; 4046.225;  188.375;    0.000
543.411; 3975.225;  239.375;    0.000
543.542; 3930.225;  215.375;    0.000
543.671; 3914.225;  250.375;    0.000
543.801; 3955.225;  212.375;    0.000
543.931; 4018.225;  233.375;    0.000
544.061; 3948.225;  194.375;    0.000
544.191; 3892.225;  218.375;    0.000
544.321; 3990.225;  220.375;    0.000
544.451; 3944.225;  183.375;    0.000
544.581; 3958.225;  221.375;    0.000
544.711; 3997.225;  224.375;    0.000
544.841; 3969.225;  214.375;    0.000
544.970; 4162.225;  227.375;    0.000
545.100; 4105.225;  186.375;    0.000
545.230; 4118.225;  205.375;    0.000
545.360; 4023.225;  211.375;    0.000
545.490; 4013.225;  202.375;    0.000
545.619; 4046.225;  182.375;    0.000
545.749; 3971.225;  174.375;    0.000
545.879; 4016.225;  169.375;    0.000
546.009; 3976.225;  182.375;    0.000
546.138; 3957.225;  200.375;    0.000
546.268; 3820.225;  204.375;    0.000
546.398; 3946.225;  200.375;    0.000
546.527; 3853.225;  179.375;    0.000
546.657; 3897.225;  162.375;    0.000
546.786; 3869.225;  179.375;    0.000
546.916; 3931.225;  221.375;    0.000
547.046; 3898.225;  179.375;    0.000
547.175; 3877.225;  168.375;    0.000
547.305; 3873.225;  200.375;    0.000
547.434; 3919.225;  166.375;    0.000
547.564; 3850.225;  177.375;    0.000
547.693; 3868.225;  152.375;    0.000
547.823; 3913.225;  171.375;    0.000
547.953; 3817.225;  195.375;    0.000
548.082; 3906.225;  214.375;    0.000
548.211; 3852.225;  177.375;    0.000
548.341; 3901.225;  189.375;    0.000
548.470; 3869.225;  194.375;    0.000
548.600; 3961.225;  172.375;    0.000
548.729; 3916.225;  158.375;    0.000
548.859; 3871.225;  193.375;    0.000
548.988; 3887.225;  131.375;    0.000
549.117; 3877.225;  204.375;    0.000
549.247; 3959.225;  191.375;    0.000
549.376; 3937.225;  202.375;    0.000
549.505; 4088.225;  187.375;    0.000
549.635; 3862.225;  198.375;    0.000
549.764; 3879.225;  155.375;    0.000
549.893; 3946.225;  176.375;    0.000
550.023; 3997.225;  202.375;    0.000
550.152; 4019.225;  168.375;    0.000
550.281; 4032.225;  180.375;    0.000
550.410; 4078.225;  180.375;    0.000
550.539; 4064.225;  181.375;    0.000
550.669; 4015.225;  168.375;    0.000
550.798; 4082.225;  223.375;    0.000
550.927; 4015.225;  179.375;    0.000
551.056; 3956.225;  159.375;    0.000
551.185; 4069.225;  199.375;    0.000
551.314; 4046.225;  185.375;    0.000
551.443; 3992.225;  172.375;    0.000
551.573; 4016.225;  158.375;    0.000
551.702; 4015.225;  210.375;    0.000
551.831; 4131.225;  238.375;    0.000
551.960; 3956.225;  191.375;    0.000
552.089; 4073.225;  195.375;    0.000
552.218; 3979.225;  196.375;    0.000
552.347; 4112.225;  194.375;    0.000
552.476; 4092.225;  192.375;    0.000
552.605; 4139.225;  172.375;    0.000
552.734; 4215.225;  214.375;    0.000
552.863; 4330.225;  177.375;    0.000
552.992; 4421.225;  190.375;    0.000
553.121; 4447.225;  185.375;    0.000
553.249; 4298.225;  175.375;    0.000
553.378; 4242.225;  192.375;    0.000
553.507; 4170.225;  193.375;    0.000
553.636; 4233.225;  182.375;    0.000
553.765; 4134.225;  187.375;    0.000
553.894; 4138.225;  214.375;    0.000
554.023; 4118.225;  217.375;    0.000
554.151; 4100.225;  223.375;    0.000
554.280; 4105.225;  170.375;    0.000
554.409; 4068.225;  172.375;    0.000
554.538; 4012.225;  182.375;    0.000
554.666; 3990.225;  195.375;    0.000
554.795; 4013.225;  176.375;    0.000
554.924; 3995.225;  164.375;    0.000
555.052; 4045.225;  171.375;    0.000
555.181; 4033.225;  208.375;    0.000
555.310; 3984.225;  214.375;    0.000
555.439; 3937.225;  193.375;    0.000
555.567; 3922.225;  189.375;    0.000
555.696; 3967.225;  196.375;    0.000
555.824; 4063.225;  183.375;    0.000
555.953; 4033.225;  234.375;    0.000
556.082; 3953.225;  183.375;    0.000
556.210; 4058.225;  199.375;    0.000
556.339; 3948.225;  201.375;    0.000
556.467; 3810.225;  208.375;    0.000
556.596; 3977.225;  194.375;    0.000
556.724; 3929.225;  170.375;    0.000
556.853; 4006.225;  166.375;    0.000
556.981; 3959.225;  185.375;    0.000
557.110; 3894.225;  213.375;    0.000
557.238; 3971.225;  188.375;    0.000
557.367; 3841.225;  176.375;    0.000
557.495; 4026.225;  180.375;    0.000
557.623; 3800.225;  193.375;    0.000
557.752; 3890.225;  207.375;    0.000
557.880; 3910.225;  189.375;    0.000
558.008; 3965.225;  169.375;    0.000
558.137; 3866.225;  203.375;    0.000
558.265; 3905.225;  167.375;    0.000
558.393; 3894.225;  204.375;    0.000
558.522; 3906.225;  203.375;    0.000
558.650; 3911.225;  215.375;    0.000
558.778; 3974.225;  190.375;    0.000
558.906; 3943.225;  186.375;    0.000
559.035; 3896.225;  193.375;    0.000
559.163; 3916.225;  198.375;    0.000
559.291; 3974.225;  222.375;    0.000
559.419; 3914.225;  192.375;    0.000
559.548; 3784.225;  186.375;    0.000
559.676; 3869.225;  199.375;    0.000
559.804; 3975.225;  186.375;    0.000
559.932; 3958.225;  202.375;    0.000
560.060; 3976.225;  183.375;    0.000
560.188; 3959.225;  212.375;    0.000
560.316; 3997.225;  192.375;    0.000
560.444; 3926.225;  180.375;    0.000
560.572; 4078.225;  206.375;    0.000
560.700; 4173.225;  184.375;    0.000
560.828; 4164.225;  177.375;    0.000
560.956; 4109.225;  221.375;    0.000
561.085; 4106.225;  227.375;    0.000
561.212; 4054.225;  208.375;    0.000
561.340; 4005.225;  189.375;    0.000
561.468; 4083.225;  189.375;    0.000
561.596; 4133.225;  183.375;    0.000
561.724; 4104.225;  188.375;    0.000
561.852; 4062.225;  183.375;    0.000
561.980; 4067.225;  209.375;    0.000
562.108; 3956.225;  165.375;    0.000
562.236; 4035.225;  188.375;    0.000
562.364; 4121.225;  177.375;    0.000
562.492; 4102.225;  192.375;    0.000
562.619; 4132.225;  187.375;    0.000
562.747; 4131.225;  217.375;    0.000
562.875; 4208.225;  221.375;    0.000
563.003; 4153.225;  199.375;    0.000
563.130; 4234.225;  191.375;    0.000
563.258; 4291.225;  186.375;    0.000
563.386; 4300.225;  191.375;    0.000
563.514; 4337.225;  217.375;    0.000
563.641; 4467.225;  220.375;    0.000
563.769; 4518.225;  186.375;    0.000
563.897; 4394.225;  158.375;    0.000
564.024; 4547.225;  192.375;    0.000
564.152; 4513.225;  217.375;    0.000
564.280; 4540.225;  203.375;    0.000
564.407; 4534.225;  190.375;    0.000
564.535; 4652.225;  188.375;    0.000
564.662; 4644.225;  199.375;    0.000
564.790; 4659.225;  227.375;    0.000
564.917; 4685.225;  160.375;    0.000
565.045; 4652.225;  222.375;    0.000
565.173; 4499.225;  169.375;    0.000
565.300; 4719.225;  208.375;    0.000
565.428; 4810.225;  174.375;    0.000
565.555; 4775.225;  201.375;    0.000
565.682; 4915.225;  180.375;    0.000
565.810; 4924.225;  165.375;    0.000
565.937; 5064.225;  167.375;    0.000
566.065; 5194.225;  190.375;    0.000
566.192; 5188.225;  169.375;    0.000
566.320; 5322.225;  167.375;    0.000
566.447; 5341.225;  151.375;    0.000
566.574; 5307.225;  176.375;    0.000
566.702; 5514.225;  198.375;    0.000
566.829; 5545.225;  209.375;    0.000
566.956; 5614.225;  186.375;    0.000
567.083; 5555.225;  188.375;    0.000
567.211; 5620.225;  159.375;    0.000
567.338; 5512.225;  204.375;    0.000
567.465; 5585.225;  141.375;    0.000
567.593; 5660.225;  168.375;    0.000
567.720; 5680.225;  177.375;    0.000
567.847; 5637.225;  160.375;    0.000
567.974; 5597.225;  139.375;    0.000
568.101; 5743.225;  153.375;    0.000
568.228; 6523.225;  173.375;    0.000
568.356; 6713.225;  149.375;    0.000
568.483; 6369.225;  185.375;    0.000
568.610; 6287.225;  170.375;    0.000
568.737; 6978.225;  223.375;    0.000
568.864; 7868.225;  167.375;    0.000
568.991; 7421.225;  177.375;    0.000
569.118; 6499.225;  169.375;    0.000
569.245; 6066.225;  128.375;    0.000
569.372; 5806.225;  160.375;    0.000
569.499; 5473.225;  156.375;    0.000
569.626; 5305.225;  191.375;    0.000
569.753; 5164.225;  163.375;    0.000
569.880; 5176.225;  167.375;    0.000
570.007; 5036.225;  143.375;    0.000
570.134; 4859.225;  191.375;    0.000
570.261; 4823.225;  164.375;    0.000
570.388; 4817.225;  162.375;    0.000
570.515; 4821.225;  220.375;    0.000
570.642; 4757.225;  184.375;    0.000
570.768; 4876.225;  174.375;    0.000
570.895; 4658.225;  177.375;    0.000
571.022; 4755.225;  152.375;    0.000
571.149; 4673.225;  183.375;    0.000
571.276; 4563.225;  153.375;    0.000
571.402; 4573.225;  190.375;    0.000
571.529; 4506.225;  187.375;    0.000
571.656; 4512.225;  167.375;    0.000
571.783; 4295.225;  186.375;    0.000
571.909; 4364.225;  183.375;    0.000
572.036; 4379.225;  162.375;    0.000
572.163; 4298.225;  196.375;    0.000
572.289; 4351.225;  180.375;    0.000
572.416; 4322.225;  190.375;    0.000
572.543; 4479.225;  174.375;    0.000
572.669; 4308.225;  186.375;    0.000
572.796; 4208.225;  205.375;    0.000
572.922; 4202.225;  185.375;    0.000
573.049; 4098.225;  178.375;    0.000
573.176; 4196.225;  196.375;    0.000
573.302; 4255.225;  202.375;    0.000
573.429; 4239.225;  189.375;    0.000
573.555; 4156.225;  145.375;    0.000
573.682; 4134.225;  228.375;    0.000
573.808; 4127.225;  197.375;    0.000
573.935; 4072.225;  216.375;    0.000
574.061; 4116.225;  173.375;    0.000
574.188; 4159.225;  151.375;    0.000
574.314; 4150.225;  181.375;    0.000
574.440; 4118.225;  167.375;    0.000
574.567; 4075.225;  185.375;    0.000
574.693; 4075.225;  173.375;    0.000
574.820; 3978.225;  164.375;    0.000
574.946; 4000.225;  199.375;    0.000
575.072; 4038.225;  162.375;    0.000
575.198; 4112.225;  225.375;    0.000
575.325; 4120.225;  171.375;    0.000
575.451; 3998.225;  183.375;    0.000
575.577; 4035.225;  190.375;    0.000
575.704; 4080.225;  210.375;    0.000
575.830; 3975.225;  185.375;    0.000
575.956; 3997.225;  168.375;    0.000
576.082; 4104.225;  158.375;    0.000
576.208; 4056.225;  158.375;    0.000
576.335; 4049.225;  196.375;    0.000
576.461; 3992.225;  187.375;    0.000
576.587; 4093.225;  157.375;    0.000
576.713; 4049.225;  156.375;    0.000
576.839; 4031.225;  196.375;    0.000
576.965; 4001.225;  187.375;    0.000
577.091; 4023.225;  204.375;    0.000
577.217; 4091.225;  207.375;    0.000
577.343; 3945.225;  175.375;    0.000
577.469; 4008.225;  197.375;    0.000
577.596; 4069.225;  182.375;    0.000
577.722; 4010.225;  159.375;    0.000
577.848; 3976.225;  162.375;    0.000
577.974; 3999.225;  180.375;    0.000
578.099; 4065.225;  161.375;    0.000
578.225; 3841.225;  180.375;    0.000
578.351; 4038.225;  190.375;    0.000
578.477; 4129.225;  212.375;    0.000
578.603; 4152.225;  179.375;    0.000
578.729; 4071.225;  195.375;    0.000
578.855; 4061.225;  153.375;    0.000
578.981; 4026.225;  162.375;    0.000
579.107; 4053.225;  149.375;    0.000
579.232; 4105.225;  164.375;    0.000
579.358; 3960.225;  162.375;    0.000
579.484; 4013.225;  181.375;    0.000
579.610; 4154.225;  190.375;    0.000
579.735; 4073.225;  191.375;    0.000
579.861; 3935.225;  189.375;    0.000
579.987; 4065.225;  202.375;    0.000
580.113; 4173.225;  197.375;    0.000
580.238; 4066.225;  228.375;    0.000
580.364; 4215.225;  212.375;    0.000
580.490; 4058.225;  225.375;    0.000
580.615; 4145.225;  218.375;    0.000
580.741; 4019.225;  167.375;    0.000
580.867; 4090.225;  215.375;    0.000
580.992; 4132.225;  191.375;    0.000
581.118; 4176.225;  171.375;    0.000
581.243; 4221.225;  204.375;    0.000
581.369; 4168.225;  186.375;    0.000
581.494; 4260.225;  184.375;    0.000
581.620; 4189.225;  212.375;    0.000
581.745; 4259.225;  192.375;    0.000
581.871; 4339.225;  195.375;    0.000
581.996; 4301.225;  160.375;    0.000
582.122; 4311.225;  217.375;    0.000
582.247; 4237.225;  213.375;    0.000
582.373; 4366.225;  187.375;    0.000
582.498; 4432.225;  208.375;    0.000
582.624; 4371.225;  189.375;    0.000
582.749; 4538.225;  185.375;    0.000
582.874; 4361.225;  195.375;    0.000
583.000; 4392.225;  208.375;    0.000
583.125; 4423.225;  147.375;    0.000
583.250; 4434.225;  201.375;    0.000
583.376; 4570.225;  191.375;    0.000
583.501; 4557.225;  206.375;    0.000
583.626; 4593.225;  167.375;    0.000
583.751; 4632.225;  180.375;    0.000
583.877; 4790.225;  185.375;    0.000
584.002; 4694.225;  186.375;    0.000
584.127; 4717.225;  176.375;    0.000
584.252; 4833.225;  214.375;    0.000
584.377; 4841.225;  225.375;    0.000
584.503; 4898.225;  195.375;    0.000
584.628; 4954.225;  206.375;    0.000
584.753; 4949.225;  181.375;    0.000
584.878; 4989.225;  136.375;    0.000
585.003; 5047.225;  215.375;    0.000
585.128; 5278.225;  206.375;    0.000
585.253; 5382.225;  200.375;    0.000
585.378; 5307.225;  169.375;    0.000
585.503; 5409.225;  191.375;    0.000
585.628; 5544.225;  182.375;    0.000
585.753; 5690.225;  164.375;    0.000
585.878; 5600.225;  123.375;    0.000
586.003; 5926.225;  187.375;    0.000
586.128; 5899.225;  198.375;    0.000
586.253; 6055.225;  172.375;    0.000
586.378; 6338.225;  191.375;    0.000
586.503; 6503.225;  190.375;    0.000
586.628; 6714.225;  178.375;    0.000
586.753; 6810.225;  184.375;    0.000
586.878; 7000.225;  169.375;    0.000
587.003; 7398.225;  186.375;    0.000
587.127; 7550.225;  170.375;    0.000
587.252; 8014.225;  170.375;    0.000
587.377; 8414.225;  181.375;    0.000
587.502; 8849.225;  209.375;    0.000
587.627; 9502.225;  210.375;    0.000
587.751; 9852.225;  212.375;    0.000
587.876;10786.225;  198.375;    0.000
588.001;11634.225;  161.375;    0.000
588.125;12781.225;  191.375;    0.000
588.250;14118.225;  132.375;    0.000
588.375;16251.225;  183.375;    0.000
588.499;19024.225;  176.375;    0.000
588.624;23004.225;  173.375;    0.000
588.749;28959.225;  204.375;    0.000
588.873;36400.227;  179.375;    0.000
588.998;40950.227;  182.375;    0.000
589.122;42009.227;  165.375;    0.000
589.247;38513.227;  185.375;    0.000
589.372;35744.227;  199.375;    0.000
589.496;37249.227;  182.375;    0.000
589.621;39630.227;  158.375;    0.000
589.745;37285.227;  213.375;    0.000
589.870;30361.225;  175.375;    0.000
589.994;24563.225;  194.375;    0.000
590.118;20489.225;  218.375;    0.000
590.243;17958.225;  170.375;    0.000
590.367;15729.225;  189.375;    0.000
590.492;14275.225;  196.375;    0.000
590.616;12946.225;  182.375;    0.000
590.740;11957.225;  210.375;    0.000
590.865;11180.225;  242.375;    0.000
590.989;10317.225;  191.375;    0.000
591.114; 9820.225;  167.375;    0.000
591.238; 9164.225;  194.375;    0.000
591.362; 8951.225;  236.375;    0.000
591.486; 8469.225;  194.375;    0.000
591.611; 8277.225;  154.375;    0.000
591.735; 7875.225;  186.375;    0.000
591.859; 7711.225;  148.375;    0.000
591.983; 7476.225;  211.375;    0.000
592.107; 7255.225;  204.375;    0.000
592.232; 7033.225;  194.375;    0.000
592.356; 7010.225;  238.375;    0.000
592.480; 6736.225;  179.375;    0.000
592.604; 6501.225;  192.375;    0.000
592.728; 6380.225;  201.375;    0.000
592.852; 6409.225;  158.375;    0.000
592.976; 6298.225;  152.375;    0.000
593.100; 6131.225;  194.375;    0.000
593.224; 6111.225;  235.375;    0.000
593.349; 5861.225;  233.375;    0.000
593.473; 5805.225;  194.375;    0.000
593.597; 5814.225;  215.375;    0.000
593.721; 5774.225;  212.375;    0.000
593.844; 5752.225;  220.375;    0.000
593.968; 5577.225;  221.375;    0.000
594.092; 5391.225;  150.375;    0.000
594.216; 5456.225;  212.375;    0.000
594.340; 5440.225;  209.375;    0.000
594.464; 5361.225;  207.375;    0.000
594.588; 5335.225;  195.375;    0.000
594.712; 5208.225;  176.375;    0.000
594.836; 5085.225;  219.375;    0.000
594.959; 5027.225;  215.375;    0.000
595.083; 4995.225;  200.375;    0.000
595.207; 4946.225;  206.375;    0.000
595.331; 4861.225;  207.375;    0.000
595.455; 4823.225;  206.375;    0.000
595.578; 4832.225;  204.375;    0.000
595.702; 4666.225;  225.375;    0.000
595.826; 4618.225;  186.375;    0.000
595.949; 4607.225;  196.375;    0.000
596.073; 4482.225;  188.375;    0.000
596.197; 4523.225;  217.375;    0.000
596.320; 4516.225;  225.375;    0.000
596.444; 4414.225;  220.375;    0.000
596.568; 4428.225;  155.375;    0.000
596.691; 4354.225;  195.375;    0.000
596.815; 4444.225;  163.375;    0.000
596.938; 4381.225;  181.375;    0.000
597.062; 4320.225;  201.375;    0.000
597.186; 4355.225;  200.375;    0.000
597.309; 4214.225;  214.375;    0.000
597.433; 4241.225;  176.375;    0.000
597.556; 4193.225;  193.375;    0.000
597.680; 4129.225;  241.375;    0.000
597.803; 4162.225;  185.375;    0.000
597.926; 4078.225;  200.375;    0.000
598.050; 4183.225;  193.375;    0.000
598.173; 4093.225;  219.375;    0.000
598.297; 4031.225;  223.375;    0.000
598.420; 4126.225;  187.375;    0.000
598.543; 4032.225;  205.375;    0.000
598.667; 4054.225;  177.375;    0.000
598.790; 4029.225;  208.375;    0.000
598.913; 4052.225;  170.375;    0.000
599.037; 3922.225;  212.375;    0.000
599.160; 3877.225;  165.375;    0.000
599.283; 3958.225;  211.375;    0.000
599.406; 3919.225;  207.375;    0.000
599.530; 3919.225;  182.375;    0.000
599.653; 3932.225;  215.375;    0.000
599.776; 3919.225;  167.375;    0.000
599.899; 3906.225;  190.375;    0.000
600.022; 3842.225;  182.375;    0.000
600.145; 3936.225;  180.375;    0.000
600.269; 3923.225;  208.375;    0.000
600.392; 3810.225;  214.375;    0.000
600.515; 3722.225;  196.375;    0.000
600.638; 3794.225;  204.375;    0.000
600.761; 3763.225;  209.375;    0.000
600.884; 3782.225;  207.375;    0.000
601.007; 3780.225;  234.375;    0.000
601.130; 3760.225;  183.375;    0.000
601.253; 3728.225;  211.375;    0.000
601.376; 3776.225;  199.375;    0.000
601.499; 3678.225;  190.375;    0.000
601.622; 3677.225;  210.375;    0.000
601.745; 3673.225;  180.375;    0.000
601.868; 3653.225;  204.375;    0.000
601.991; 3767.225;  188.375;    0.000
602.113; 3784.225;  210.375;    0.000
602.236; 3699.225;  194.375;    0.000
602.359; 3679.225;  213.375;    0.000
602.482; 3673.225;  169.375;    0.000
602.605; 3536.225;  189.375;    0.000
602.728; 3663.225;  236.375;    0.000
602.850; 3618.225;  230.375;    0.000
602.973; 3572.225;  187.375;    0.000
603.096; 3621.225;  201.375;    0.000
603.219; 3599.225;  209.375;    0.000
603.341; 3636.225;  209.375;    0.000
603.464; 3640.225;  194.375;    0.000
603.587; 3705.225;  166.375;    0.000
603.709; 3651.225;  175.375;    0.000
603.832; 3582.225;  239.375;    0.000
603.955; 3615.225;  205.375;    0.000
604.077; 3473.225;  196.375;    0.000
604.200; 3563.225;  188.375;    0.000
604.323; 3580.225;  224.375;    0.000
604.445; 3560.225;  182.375;    0.000
604.568; 3526.225;  199.375;    0.000
604.690; 3531.225;  175.375;    0.000
604.813; 3600.225;  211.375;    0.000
604.935; 3535.225;  171.375;    0.000
605.058; 3517.225;  196.375;    0.000
605.180; 3520.225;  194.375;    0.000
605.303; 3646.225;  198.375;    0.000
605.425; 3497.225;  212.375;    0.000
605.547; 3518.225;  238.375;    0.000
605.670; 3509.225;  207.375;    0.000
605.792; 3443.225;  204.375;    0.000
605.915; 3560.225;  198.375;    0.000
606.037; 3405.225;  215.375;    0.000
606.159; 3512.225;  170.375;    0.000
606.282; 3415.225;  194.375;    0.000
606.404; 3470.225;  207.375;    0.000
606.526; 3395.225;  208.375;    0.000
606.648; 3423.225;  174.375;    0.000
606.771; 3491.225;  170.375;    0.000
606.893; 3392.225;  182.375;    0.000
607.015; 3390.225;  180.375;    0.000
607.137; 3520.225;  187.375;    0.000
607.260; 3432.225;  202.375;    0.000
607.382; 3542.225;  226.375;    0.000
607.504; 3517.225;  208.375;    0.000
607.626; 3488.225;  229.375;    0.000
607.748; 3531.225;  170.375;    0.000
607.870; 3421.225;  208.375;    0.000
607.992; 3368.225;  184.375;    0.000
608.114; 3429.225;  213.375;    0.000
608.237; 3399.225;  237.375;    0.000
608.359; 3322.225;  176.375;    0.000
608.481; 3311.225;  173.375;    0.000
608.603; 3375.225;  189.375;    0.000
608.725; 3393.225;  185.375;    0.000
608.847; 3418.225;  239.375;    0.000
608.969; 3438.225;  237.375;    0.000
609.090; 3474.225;  189.375;    0.000
609.212; 3306.225;  147.375;    0.000
609.334; 3417.225;  177.375;    0.000
609.456; 3284.225;  196.375;    0.000
609.578; 3366.225;  199.375;    0.000
609.700; 3260.225;  167.375;    0.000
609.822; 3314.225;  140.375;    0.000
609.944; 3373.225;  225.375;    0.000
610.065; 3265.225;  183.375;    0.000
610.187; 3372.225;  170.375;    0.000
610.309; 3265.225;  210.375;    0.000
610.431; 3428.225;  185.375;    0.000
610.552; 3333.225;  197.375;    0.000
610.674; 3353.225;  188.375;    0.000
610.796; 3423.225;  162.375;    0.000
610.918; 3307.225;  200.375;    0.000
611.039; 3243.225;  209.375;    0.000
611.161; 3447.225;  201.375;    0.000
611.282; 3317.225;  197.375;    0.000
611.404; 3354.225;  220.375;    0.000
611.526; 3404.225;  159.375;    0.000
611.647; 3336.225;  205.375;    0.000
611.769; 3350.225;  161.375;    0.000
611.890; 3345.225;  173.375;    0.000
612.012; 3286.225;  225.375;    0.000
612.133; 3359.225;  188.375;    0.000
612.255; 3305.225;  217.375;    0.000
612.377; 3268.225;  219.375;    0.000
612.498; 3307.225;  177.375;    0.000
612.619; 3414.225;  211.375;    0.000
612.741; 3284.225;  185.375;    0.000
612.862; 3319.225;  191.375;    0.000
612.984; 3277.225;  190.375;    0.000
613.105; 3268.225;  211.375;    0.000
613.226; 3340.225;  174.375;    0.000
613.348; 3393.225;  235.375;    0.000
613.469; 3314.225;  230.375;    0.000
613.590; 3171.225;  208.375;    0.000
613.712; 3267.225;  244.375;    0.000
613.833; 3249.225;  202.375;    0.000
613.954; 3227.225;  228.375;    0.000
614.076; 3332.225;  220.375;    0.000
614.197; 3218.225;  191.375;    0.000
614.318; 3248.225;  201.375;    0.000
614.439; 3209.225;  212.375;    0.000
614.560; 3360.225;  219.375;    0.000
614.682; 3267.225;  189.375;    0.000
614.803; 3328.225;  188.375;    0.000
614.924; 3401.225;  225.375;    0.000
615.045; 3315.225;  227.375;    0.000
615.166; 3305.225;  200.375;    0.000
615.287; 3494.225;  195.375;    0.000
615.408; 3637.225;  199.375;    0.000
615.529; 3717.225;  227.375;    0.000
615.650; 3518.225;  176.375;    0.000
615.771; 3401.225;  211.375;    0.000
615.892; 3554.225;  212.375;    0.000
616.013; 3953.225;  172.375;    0.000
616.134; 4311.225;  220.375;    0.000
616.255; 4074.225;  251.375;    0.000
616.376; 3687.225;  186.375;    0.000
616.497; 3490.225;  201.375;    0.000
616.618; 3529.225;  149.375;    0.000
616.739; 3474.225;  213.375;    0.000
616.860; 3322.225;  224.375;    0.000
616.981; 3430.225;  224.375;    0.000
617.102; 3412.225;  217.375;    0.000
617.222; 3347.225;  237.375;    0.000
617.343; 3310.225;  205.375;    0.000
617.464; 3340.225;  229.375;    0.000
617.585; 3280.225;  227.375;    0.000
617.705; 3321.225;  191.375;    0.000
617.826; 3308.225;  237.375;    0.000
617.947; 3254.225;  223.375;    0.000
618.068; 3251.225;  189.375;    0.000
618.188; 3197.225;  194.375;    0.000
618.309; 3245.225;  206.375;    0.000
618.430; 3237.225;  229.375;    0.000
618.550; 3238.225;  250.375;    0.000
618.671; 3286.225;  201.375;    0.000
618.791; 3295.225;  226.375;    0.000
618.912; 3205.225;  246.375;    0.000
619.033; 3243.225;  243.375;    0.000
619.153; 3300.225;  208.375;    0.000
619.274; 3250.225;  223.375;    0.000
619.394; 3208.225;  226.375;    0.000
619.515; 3201.225;  188.375;    0.000
619.635; 3170.225;  216.375;    0.000
619.756; 3171.225;  229.375;    0.000
619.876; 3232.225;  216.375;    0.000
619.996; 3269.225;  244.375;    0.000
620.117; 3181.225;  225.375;    0.000
620.237; 3158.225;  207.375;    0.000
620.358; 3226.225;  239.375;    0.000
620.478; 3109.225;  237.375;    0.000
620.598; 3135.225;  237.375;    0.000
620.719; 3211.225;  223.375;    0.000
620.839; 3160.225;  254.375;    0.000
620.959; 3102.225;  244.375;    0.000
621.079; 3051.225;  193.375;    0.000
621.200; 3162.225;  233.375;    0.000
621.320; 3182.225;  270.375;    0.000
621.440; 3131.225;  206.375;    0.000
621.560; 3154.225;  241.375;    0.000
621.681; 3156.225;  231.375;    0.000
621.801; 3130.225;  235.375;    0.000
621.921; 3150.225;  240.375;    0.000
622.041; 3062.225;  244.375;    0.000
622.161; 3052.225;  225.375;    0.000
622.281; 3101.225;  222.375;    0.000
622.401; 3118.225;  238.375;    0.000
622.521; 3056.225;  233.375;    0.000
622.641; 3038.225;  241.375;    0.000
622.761; 3063.225;  233.375;    0.000
622.882; 3071.225;  230.375;    0.000
623.002; 3102.225;  206.375;    0.000
623.121; 3085.225;  217.375;    0.000
623.241; 3080.225;  263.375;    0.000
623.361; 2972.225;  245.375;    0.000
623.481; 3056.225;  194.375;    0.000
623.601; 3164.225;  228.375;    0.000
623.721; 3085.225;  219.375;    0.000
623.841; 3131.225;  234.375;    0.000
623.961; 3061.225;  235.375;    0.000
624.081; 3037.225;  166.375;    0.000
624.201; 3053.225;  229.375;    0.000
624.320; 3011.225;  224.375;    0.000
624.440; 3016.225;  200.375;    0.000
624.560; 3037.225;  220.375;    0.000
624.680; 3051.225;  214.375;    0.000
624.799; 3023.225;  179.375;    0.000
624.919; 2994.225;  199.375;    0.000
625.039; 2965.225;  211.375;    0.000
625.159; 2981.225;  213.375;    0.000
625.278; 2982.225;  178.375;    0.000
625.398; 2948.225;  206.375;    0.000
625.518; 2918.225;  182.375;    0.000
625.637; 3037.225;  206.375;    0.000
625.757; 2991.225;  197.375;    0.000
625.876; 3042.225;  204.375;    0.000
625.996; 2995.225;  222.375;    0.000
626.115; 3040.225;  222.375;    0.000
626.235; 3001.225;  222.375;    0.000
626.354; 2988.225;  211.375;    0.000
626.474; 2942.225;  217.375;    0.000
626.594; 2948.225;  190.375;    0.000
626.713; 2929.225;  200.375;    0.000
626.832; 3011.225;  234.375;    0.000
626.952; 2951.225;  214.375;    0.000
627.071; 2920.225;  243.375;    0.000
627.191; 3017.225;  192.375;    0.000
627.310; 3033.225;  211.375;    0.000
627.429; 2986.225;  218.375;    0.000
627.549; 2938.225;  214.375;    0.000
627.668; 2855.225;  208.375;    0.000
627.787; 2975.225;  199.375;    0.000
627.907; 2905.225;  208.375;    0.000
628.026; 2988.225;  216.375;    0.000
628.145; 2918.225;  170.375;    0.000
628.264; 2986.225;  217.375;    0.000
628.384; 2966.225;  190.375;    0.000
628.503; 2877.225;  203.375;    0.000
628.622; 2911.225;  197.375;    0.000
628.741; 2894.225;  186.375;    0.000
628.860; 2862.225;  191.375;    0.000
628.980; 2878.225;  196.375;    0.000
629.099; 2955.225;  190.375;    0.000
629.218; 2980.225;  165.375;    0.000
629.337; 2892.225;  190.375;    0.000
629.456; 2992.225;  222.375;    0.000
629.575; 2882.225;  197.375;    0.000
629.694; 2940.225;  210.375;    0.000
629.813; 2995.225;  187.375;    0.000
629.932; 2951.225;  224.375;    0.000
630.051; 3003.225;  216.375;    0.000
630.170; 2934.225;  203.375;    0.000
630.289; 2959.225;  178.375;    0.000
630.408; 2876.225;  192.375;    0.000
630.527; 2966.225;  223.375;    0.000
630.646; 2862.225;  177.375;    0.000
630.764; 2880.225;  224.375;    0.000
630.883; 2990.225;  220.375;    0.000
631.002; 2855.225;  187.375;    0.000
631.121; 2826.225;  208.375;    0.000
631.240; 2928.225;  217.375;    0.000
631.359; 2953.225;  241.375;    0.000
631.477; 2854.225;  189.375;    0.000
631.596; 2912.225;  244.375;    0.000
631.715; 2872.225;  241.375;    0.000
631.834; 2919.225;  219.375;    0.000
631.952; 2903.225;  231.375;    0.000
632.071; 2790.225;  197.375;    0.000
632.190; 2879.225;  193.375;    0.000
632.308; 2817.225;  185.375;    0.000
632.427; 2870.225;  188.375;    0.000
632.546; 2832.225;  208.375;    0.000
632.664; 2802.225;  191.375;    0.000
632.783; 2936.225;  201.375;    0.000
632.901; 2861.225;  239.375;    0.000
633.020; 2826.225;  197.375;    0.000
633.138; 2845.225;  189.375;    0.000
633.257; 2884.225;  210.375;    0.000
633.375; 2845.225;  213.375;    0.000
633.494; 2853.225;  206.375;    0.000
633.612; 2852.225;  231.375;    0.000
633.731; 2811.225;  213.375;    0.000
633.849; 2823.225;  244.375;    0.000
633.968; 2735.225;  251.375;    0.000
634.086; 2873.225;  224.375;    0.000
634.204; 2897.225;  212.375;    0.000
634.323; 2896.225;  213.375;    0.000
634.441; 2888.225;  219.375;    0.000
634.559; 2750.225;  198.375;    0.000
634.678; 2791.225;  201.375;    0.000
634.796; 2745.225;  179.375;    0.000
634.914; 2847.225;  255.375;    0.000
635.032; 2885.225;  264.375;    0.000
635.151; 2782.225;  228.375;    0.000
635.269; 2758.225;  223.375;    0.000
635.387; 2863.225;  228.375;    0.000
635.505; 2880.225;  214.375;    0.000
635.623; 2793.225;  279.375;    0.000
635.742; 2868.225;  237.375;    0.000
635.860; 2836.225;  244.375;    0.000
635.978; 2782.225;  213.375;    0.000
636.096; 2745.225;  230.375;    0.000
636.214; 2833.225;  252.375;    0.000
636.332; 2763.225;  221.375;    0.000
636.450; 2807.225;  227.375;    0.000
636.568; 2766.225;  193.375;    0.000
636.686; 2723.225;  208.375;    0.000
636.804; 2779.225;  213.375;    0.000
636.922; 2790.225;  199.375;    0.000
637.040; 2712.225;  202.375;    0.000
637.158; 2742.225;  239.375;    0.000
637.276; 2774.225;  225.375;    0.000
637.394; 2820.225;  217.375;    0.000
637.512; 2724.225;  192.375;    0.000
637.629; 2835.225;  216.375;    0.000
637.747; 2694.225;  198.375;    0.000
637.865; 2744.225;  265.375;    0.000
637.983; 2847.225;  245.375;    0.000
638.101; 2703.225;  199.375;    0.000
638.218; 2802.225;  197.375;    0.000
638.336; 2782.225;  212.375;    0.000
638.454; 2741.225;  227.375;    0.000
638.572; 2806.225;  215.375;    0.000
638.689; 2724.225;  214.375;    0.000
638.807; 2876.225;  233.375;    0.000
638.925; 2832.225;  217.375;    0.000
639.042; 2711.225;  180.375;    0.000
639.160; 2826.225;  220.375;    0.000
639.278; 2781.225;  180.375;    0.000
639.395; 2741.225;  243.375;    0.000
639.513; 2737.225;  207.375;    0.000
639.630; 2670.225;  183.375;    0.000
639.748; 2772.225;  231.375;    0.000
639.865; 2785.225;  215.375;    0.000
639.983; 2741.225;  182.375;    0.000
640.100; 2691.225;  190.375;    0.000
640.218; 2640.225;  224.375;    0.000
640.335; 2783.225;  214.375;    0.000
640.453; 2829.225;  212.375;    0.000
640.570; 2753.225;  224.375;    0.000
640.688; 2748.225;  220.375;    0.000
640.805; 2671.225;  189.375;    0.000
640.922; 2812.225;  256.375;    0.000
641.040; 2763.225;  209.375;    0.000
641.157; 2765.225;  195.375;    0.000
641.274; 2671.225;  195.375;    0.000
641.391; 2824.225;  231.375;    0.000
641.509; 2715.225;  207.375;    0.000
641.626; 2762.225;  227.375;    0.000
641.743; 2803.225;  188.375;    0.000
641.860; 2740.225;  208.375;    0.000
641.978; 2699.225;  222.375;    0.000
642.095; 2754.225;  194.375;    0.000
642.212; 2718.225;  202.375;    0.000
642.329; 2816.225;  241.375;    0.000
642.446; 2697.225;  261.375;    0.000
642.563; 2762.225;  236.375;    0.000
642.681; 2738.225;  228.375;    0.000
642.798; 2788.225;  242.375;    0.000
642.915; 2735.225;  197.375;    0.000
643.032; 2747.225;  239.375;    0.000
643.149; 2736.225;  241.375;    0.000
643.266; 2758.225;  199.375;    0.000
643.383; 2695.225;  200.375;    0.000
643.500; 2796.225;  221.375;    0.000
643.617; 2762.225;  196.375;    0.000
643.734; 2699.225;  207.375;    0.000
643.850; 2722.225;  222.375;    0.000
643.967; 2746.225;  235.375;    0.000
644.084; 2767.225;  233.375;    0.000
644.201; 2712.225;  229.375;    0.000
644.318; 2774.225;  210.375;    0.000
644.435; 2722.225;  234.375;    0.000
644.552; 2700.225;  220.375;    0.000
644.668; 2824.225;  231.375;    0.000
644.785; 2819.225;  231.375;    0.000
644.902; 2722.225;  238.375;    0.000
645.019; 2778.225;  226.375;    0.000
645.135; 2749.225;  179.375;    0.000
645.252; 2715.225;  224.375;    0.000
645.369; 2744.225;  206.375;    0.000
645.485; 2760.225;  200.375;    0.000
645.602; 2816.225;  210.375;    0.000
645.719; 2857.225;  206.375;    0.000
645.835; 2792.225;  247.375;    0.000
645.952; 2833.225;  222.375;    0.000
646.068; 2801.225;  205.375;    0.000
646.185; 2801.225;  230.375;    0.000
646.302; 2861.225;  254.375;    0.000
646.418; 2839.225;  230.375;    0.000
646.535; 2869.225;  214.375;    0.000
646.651; 2881.225;  179.375;    0.000
646.768; 2935.225;  190.375;    0.000
646.884; 2833.225;  208.375;    0.000
647.000; 2840.225;  262.375;    0.000
647.117; 2881.225;  212.375;    0.000
647.233; 2895.225;  228.375;    0.000
647.350; 2876.225;  208.375;    0.000
647.466; 2867.225;  211.375;    0.000
647.582; 2891.225;  196.375;    0.000
647.699; 2879.225;  217.375;    0.000
647.815; 2884.225;  203.375;    0.000
647.931; 2895.225;  201.375;    0.000
648.047; 2800.225;  182.375;    0.000
648.164; 2874.225;  219.375;    0.000
648.280; 3000.225;  213.375;    0.000
648.396; 2897.225;  202.375;    0.000
648.512; 2956.225;  233.375;    0.000
648.629; 2993.225;  206.375;    0.000
648.745; 2996.225;  188.375;    0.000
648.861; 3001.225;  209.375;    0.000
648.977; 2839.225;  218.375;    0.000
649.093; 2981.225;  225.375;    0.000
649.209; 3017.225;  240.375;    0.000
649.325; 2997.225;  253.375;    0.000
649.441; 2857.225;  263.375;    0.000
649.557; 2988.225;  256.375;    0.000
649.673; 2963.225;  211.375;    0.000
649.789; 2995.225;  237.375;    0.000
649.905; 2937.225;  183.375;    0.000
650.021; 2971.225;  238.375;    0.000
650.137; 3013.225;  241.375;    0.000
650.253; 2966.225;  228.375;    0.000
650.369; 3014.225;  221.375;    0.000
650.485; 3001.225;  240.375;    0.000
650.601; 3102.225;  254.375;    0.000
650.717; 3035.225;  201.375;    0.000
650.833; 3006.225;  257.375;    0.000
650.948; 3112.225;  213.375;    0.000
651.064; 3039.225;  223.375;    0.000
651.180; 3088.225;  230.375;    0.000
651.296; 3076.225;  235.375;    0.000
651.411; 3096.225;  221.375;    0.000
651.527; 3135.225;  233.375;    0.000
651.643; 3208.225;  236.375;    0.000
651.759; 3165.225;  268.375;    0.000
651.874; 3135.225;  214.375;    0.000
651.990; 3161.225;  251.375;    0.000
652.105; 3104.225;  217.375;    0.000
652.221; 3095.225;  243.375;    0.000
652.337; 3191.225;  231.375;    0.000
652.452; 3208.225;  238.375;    0.000
652.568; 3181.225;  188.375;    0.000
652.683; 3191.225;  197.375;    0.000
652.799; 3242.225;  194.375;    0.000
652.914; 3300.225;  222.375;    0.000
653.030; 3325.225;  200.375;    0.000
653.145; 3313.225;  235.375;    0.000
653.261; 3360.225;  261.375;    0.000
653.376; 3434.225;  228.375;    0.000
653.492; 3407.225;  222.375;    0.000
653.607; 3433.225;  227.375;    0.000
653.722; 3591.225;  250.375;    0.000
653.838; 3497.225;  255.375;    0.000
653.953; 3614.225;  235.375;    0.000
654.068; 3574.225;  266.375;    0.000
654.184; 3673.225;  210.375;    0.000
654.299; 3760.225;  240.375;    0.000
654.414; 3705.225;  222.375;    0.000
654.530; 3836.225;  222.375;    0.000
654.645; 3840.225;  256.375;    0.000
654.760; 3893.225;  244.375;    0.000
654.875; 3911.225;  229.375;    0.000
654.990; 3973.225;  226.375;    0.000
655.106; 4151.225;  254.375;    0.000
655.221; 4141.225;  251.375;    0.000
655.336; 4167.225;  245.375;    0.000
655.451; 4432.225;  199.375;    0.000
655.566; 4435.225;  228.375;    0.000
655.681; 4518.225;  208.375;    0.000
655.796; 4657.225;  218.375;    0.000
655.911; 4730.225;  233.375;    0.000
656.026; 4995.225;  232.375;    0.000
656.141; 5128.225;  223.375;    0.000
656.256; 5196.225;  247.375;    0.000
656.371; 5203.225;  220.375;    0.000
656.486; 5258.225;  225.375;    0.000
656.601; 5144.225;  257.375;    0.000
656.716; 5045.225;  248.375;    0.000
656.831; 5003.225;  262.375;    0.000
656.946; 4910.225;  249.375;    0.000
657.060; 4856.225;  245.375;    0.000
657.175; 4757.225;  245.375;    0.000
657.290; 4713.225;  219.375;    0.000
657.405; 4618.225;  286.375;    0.000
657.520; 4452.225;  259.375;    0.000
657.634; 4427.225;  239.375;    0.000
657.749; 4367.225;  227.375;    0.000
657.864; 4279.225;  210.375;    0.000
657.979; 4258.225;  236.375;    0.000
658.093; 4135.225;  210.375;    0.000
658.208; 4128.225;  248.375;    0.000
658.323; 4000.225;  216.375;    0.000
658.437; 4016.225;  248.375;    0.000
658.552; 3968.225;  249.375;    0.000
658.666; 3972.225;  256.375;    0.000
658.781; 3851.225;  247.375;    0.000
658.895; 3785.225;  209.375;    0.000
659.010; 3751.225;  219.375;    0.000
659.125; 3653.225;  215.375;    0.000
659.239; 3691.225;  205.375;    0.000
659.353; 3596.225;  246.375;    0.000
659.468; 3627.225;  245.375;    0.000
659.582; 3580.225;  244.375;    0.000
659.697; 3599.225;  242.375;    0.000
659.811; 3546.225;  239.375;    0.000
659.926; 3459.225;  226.375;    0.000
660.040; 3424.225;  255.375;    0.000
660.154; 3427.225;  225.375;    0.000
660.269; 3376.225;  200.375;    0.000
660.383; 3278.225;  192.375;    0.000
660.497; 3344.225;  218.375;    0.000
660.612; 3317.225;  236.375;    0.000
660.726; 3354.225;  263.375;    0.000
660.840; 3355.225;  205.375;    0.000
660.954; 3122.225;  219.375;    0.000
661.068; 3189.225;  240.375;    0.000
661.183; 3221.225;  221.375;    0.000
661.297; 3218.225;  194.375;    0.000
661.411; 3152.225;  253.375;    0.000
661.525; 3110.225;  246.375;    0.000
661.639; 3011.225;  217.375;    0.000
661.753; 3043.225;  241.375;    0.000
661.867; 3062.225;  276.375;    0.000
661.981; 2999.225;  203.375;    0.000
662.095; 2938.225;  224.375;    0.000
662.209; 2890.225;  217.375;    0.000
662.323; 3016.225;  251.375;    0.000
662.437; 2990.225;  243.375;    0.000
662.551; 2906.225;  244.375;    0.000
662.665; 2880.225;  247.375;    0.000
662.779; 2918.225;  251.375;    0.000
662.893; 2911.225;  254.375;    0.000
663.007; 2822.225;  222.375;    0.000
663.121; 2896.225;  253.375;    0.000
663.235; 2797.225;  270.375;    0.000
663.349; 2862.225;  242.375;    0.000
663.462; 2802.225;  230.375;    0.000
663.576; 2698.225;  230.375;    0.000
663.690; 2743.225;  249.375;    0.000
663.804; 2737.225;  200.375;    0.000
663.917; 2636.225;  204.375;    0.000
664.031; 2666.225;  206.375;    0.000
664.145; 2720.225;  202.375;    0.000
664.258; 2750.225;  221.375;    0.000
664.372; 2585.225;  215.375;    0.000
664.486; 2641.225;  179.375;    0.000
664.599; 2664.225;  208.375;    0.000
664.713; 2669.225;  268.375;    0.000
664.827; 2650.225;  225.375;    0.000
664.940; 2609.225;  222.375;    0.000
665.054; 2621.225;  208.375;    0.000
665.167; 2521.225;  253.375;    0.000
665.281; 2613.225;  237.375;    0.000
665.394; 2584.225;  227.375;    0.000
665.508; 2463.225;  192.375;    0.000
665.621; 2659.225;  175.375;    0.000
665.735; 2599.225;  249.375;    0.000
665.848; 2525.225;  197.375;    0.000
665.961; 2547.225;  206.375;    0.000
666.075; 2630.225;  245.375;    0.000
666.188; 2564.225;  230.375;    0.000
666.301; 2590.225;  219.375;    0.000
666.415; 2519.225;  231.375;    0.000
666.528; 2464.225;  258.375;    0.000
666.641; 2532.225;  243.375;    0.000
666.755; 2459.225;  208.375;    0.000
666.868; 2506.225;  228.375;    0.000
666.981; 2464.225;  244.375;    0.000
667.094; 2471.225;  244.375;    0.000
667.207; 2465.225;  226.375;    0.000
667.321; 2438.225;  175.375;    0.000
667.434; 2424.225;  211.375;    0.000
667.547; 2473.225;  249.375;    0.000
667.660; 2350.225;  225.375;    0.000
667.773; 2337.225;  242.375;    0.000
667.886; 2384.225;  246.375;    0.000
667.999; 2411.225;  244.375;    0.000
668.112; 2423.225;  227.375;    0.000
668.225; 2382.225;  231.375;    0.000
668.338; 2395.225;  256.375;    0.000
668.451; 2425.225;  216.375;    0.000
668.564; 2428.225;  261.375;    0.000
668.677; 2328.225;  230.375;    0.000
668.790; 2312.225;  192.375;    0.000
668.903; 2372.225;  243.375;    0.000
669.016; 2289.225;  201.375;    0.000
669.129; 2271.225;  249.375;    0.000
669.242; 2245.225;  190.375;    0.000
669.354; 2359.225;  219.375;    0.000
669.467; 2273.225;  242.375;    0.000
669.580; 2297.225;  237.375;    0.000
669.693; 2302.225;  243.375;    0.000
669.806; 2311.225;  234.375;    0.000
669.918; 2206.225;  206.375;    0.000
670.031; 2313.225;  258.375;    0.000
670.144; 2329.225;  231.375;    0.000
670.256; 2272.225;  244.375;    0.000
670.369; 2228.225;  262.375;    0.000
670.482; 2304.225;  264.375;    0.000
670.594; 2267.225;  256.375;    0.000
670.707; 2223.225;  224.375;    0.000
670.820; 2333.225;  261.375;    0.000
670.932; 2255.225;  226.375;    0.000
671.045; 2279.225;  243.375;    0.000
671.157; 2270.225;  235.375;    0.000
671.270; 2220.225;  217.375;    0.000
671.382; 2285.225;  267.375;    0.000
671.495; 2216.225;  258.375;    0.000
671.607; 2178.225;  236.375;    0.000
671.720; 2224.225;  200.375;    0.000
671.832; 2211.225;  219.375;    0.000
671.944; 2175.225;  234.375;    0.000
672.057; 2137.225;  226.375;    0.000
672.169; 2188.225;  225.375;    0.000
672.281; 2207.225;  253.375;    0.000
672.394; 2202.225;  238.375;    0.000
672.506; 2206.225;  244.375;    0.000
672.618; 2239.225;  272.375;    0.000
672.731; 2183.225;  247.375;    0.000
672.843; 2196.225;  261.375;    0.000
672.955; 2188.225;  262.375;    0.000
673.067; 2190.225;  253.375;    0.000
673.180; 2234.225;  239.375;    0.000
673.292; 2080.225;  240.375;    0.000
673.404; 2161.225;  243.375;    0.000
673.516; 2165.225;  258.375;    0.000
673.628; 2230.225;  263.375;    0.000
673.740; 2134.225;  250.375;    0.000
673.852; 2187.225;  285.375;    0.000
673.964; 2239.225;  264.375;    0.000
674.076; 2143.225;  260.375;    0.000
674.188; 2148.225;  226.375;    0.000
674.300; 2150.225;  272.375;    0.000
674.412; 2168.225;  259.375;    0.000
674.524; 2192.225;  283.375;    0.000
674.636; 2142.225;  259.375;    0.000
674.748; 2205.225;  238.375;    0.000
674.860; 2146.225;  277.375;    0.000
674.972; 2115.225;  272.375;    0.000
675.084; 2105.225;  244.375;    0.000
675.196; 2164.225;  272.375;    0.000
675.307; 2159.225;  244.375;    0.000
675.419; 2058.225;  219.375;    0.000
675.531; 2160.225;  275.375;    0.000
675.643; 2031.225;  215.375;    0.000
675.755; 2129.225;  243.375;    0.000
675.866; 2114.225;  223.375;    0.000
675.978; 2038.225;  216.375;    0.000
676.090; 2095.225;  242.375;    0.000
676.201; 2138.225;  276.375;    0.000
676.313; 2083.225;  226.375;    0.000
676.425; 2096.225;  234.375;    0.000
676.536; 2000.225;  231.375;    0.000
676.648; 2138.225;  254.375;    0.000
676.759; 2132.225;  273.375;    0.000
676.871; 2042.225;  250.375;    0.000
676.983; 2065.225;  256.375;    0.000
677.094; 2061.225;  210.375;    0.000
677.206; 2076.225;  248.375;    0.000
677.317; 2059.225;  263.375;    0.000
677.429; 1948.225;  238.375;    0.000
677.540; 2009.225;  247.375;    0.000
677.651; 1987.225;  224.375;    0.000
677.763; 2069.225;  217.375;    0.000
677.874; 2030.225;  234.375;    0.000
677.986; 1997.225;  238.375;    0.000
678.097; 2029.225;  226.375;    0.000
678.208; 2018.225;  253.375;    0.000
678.320; 2071.225;  217.375;    0.000
678.431; 2028.225;  238.375;    0.000
678.542; 1931.225;  236.375;    0.000
678.653; 2037.225;  218.375;    0.000
678.765; 2036.225;  275.375;    0.000
678.876; 2054.225;  213.375;    0.000
678.987; 1955.225;  182.375;    0.000
679.098; 1928.225;  221.375;    0.000
679.209; 1993.225;  238.375;    0.000
679.320; 1963.225;  212.375;    0.000
679.432; 2018.225;  231.375;    0.000
679.543; 1972.225;  198.375;    0.000
679.654; 1991.225;  191.375;    0.000
679.765; 1947.225;  214.375;    0.000
679.876; 1928.225;  221.375;    0.000
679.987; 1968.225;  162.375;    0.000
680.098; 1969.225;  230.375;    0.000
680.209; 1908.225;  206.375;    0.000
680.320; 2002.225;  196.375;    0.000
680.431; 1947.225;  191.375;    0.000
680.542; 1993.225;  214.375;    0.000
680.653; 1981.225;  238.375;    0.000
680.763; 1899.225;  182.375;    0.000
680.874; 1940.225;  213.375;    0.000
680.985; 1896.225;  224.375;    0.000
681.096; 1931.225;  222.375;    0.000
681.207; 1973.225;  220.375;    0.000
681.318; 1948.225;  216.375;    0.000
681.428; 1923.225;  229.375;    0.000
681.539; 1925.225;  183.375;    0.000
681.650; 1934.225;  202.375;    0.000
681.760; 1937.225;  223.375;    0.000
681.871; 1935.225;  211.375;    0.000
681.982; 1872.225;  189.375;    0.000
682.093; 1885.225;  222.375;    0.000
682.203; 1900.225;  220.375;    0.000
682.314; 1901.225;  214.375;    0.000
682.424; 1898.225;  208.375;    0.000
682.535; 1923.225;  213.375;    0.000
682.646; 1989.225;  302.375;    0.000
682.756; 1971.225;  255.375;    0.000
682.867; 1879.225;  244.375;    0.000
682.977; 1884.225;  221.375;    0.000
683.088; 1946.225;  259.375;    0.000
683.198; 1933.225;  212.375;    0.000
683.308; 1884.225;  202.375;    0.000
683.419; 1852.225;  255.375;    0.000
683.529; 1905.225;  217.375;    0.000
683.640; 1860.225;  240.375;    0.000
683.750; 1869.225;  181.375;    0.000
683.860; 1921.225;  246.375;    0.000
683.971; 1937.225;  254.375;    0.000
684.081; 1887.225;  235.375;    0.000
684.191; 1899.225;  251.375;    0.000
684.301; 1899.225;  233.375;    0.000
684.412; 1935.225;  202.375;    0.000
684.522; 1945.225;  232.375;    0.000
684.632; 1894.225;  202.375;    0.000
684.742; 1904.225;  254.375;    0.000
684.852; 1894.225;  219.375;    0.000
684.963; 1918.225;  256.375;    0.000
685.073; 1941.225;  253.375;    0.000
685.183; 1968.225;  254.375;    0.000
685.293; 1849.225;  232.375;    0.000
685.403; 1888.225;  242.375;    0.000
685.513; 1916.225;  261.375;    0.000
685.623; 1883.225;  245.375;    0.000
685.733; 1893.225;  254.375;    0.000
685.843; 1931.225;  249.375;    0.000
685.953; 1877.225;  252.375;    0.000
686.063; 1913.225;  227.375;    0.000
686.173; 1868.225;  223.375;    0.000
686.283; 1885.225;  234.375;    0.000
686.393; 1992.225;  239.375;    0.000
686.503; 1899.225;  231.375;    0.000
686.612; 1915.225;  232.375;    0.000
686.722; 1903.225;  258.375;    0.000
686.832; 1913.225;  256.375;    0.000
686.942; 1851.225;  230.375;    0.000
687.052; 1892.225;  274.375;    0.000
687.161; 1882.225;  269.375;    0.000
687.271; 1878.225;  218.375;    0.000
687.381; 1897.225;  235.375;    0.000
687.491; 1852.225;  262.375;    0.000
687.600; 1887.225;  256.375;    0.000
687.710; 1890.225;  225.375;    0.000
687.820; 1916.225;  230.375;    0.000
687.929; 1865.225;  226.375;    0.000
688.039; 1923.225;  228.375;    0.000
688.148; 1884.225;  249.375;    0.000
688.258; 1814.225;  237.375;    0.000
688.367; 1791.225;  260.375;    0.000
688.477; 1777.225;  200.375;    0.000
688.586; 1866.225;  223.375;    0.000
688.696; 1837.225;  223.375;    0.000
688.805; 1836.225;  257.375;    0.000
688.915; 1794.225;  185.375;    0.000
689.024; 1787.225;  227.375;    0.000
689.134; 1846.225;  224.375;    0.000
689.243; 1803.225;  206.375;    0.000
689.352; 1853.225;  275.375;    0.000
689.462; 1862.225;  233.375;    0.000
689.571; 1806.225;  244.375;    0.000
689.680; 1824.225;  261.375;    0.000
689.790; 1804.225;  192.375;    0.000
689.899; 1827.225;  214.375;    0.000
690.008; 1864.225;  255.375;    0.000
690.117; 1834.225;  219.375;    0.000
690.227; 1841.225;  241.375;    0.000
690.336; 1815.225;  231.375;    0.000
690.445; 1824.225;  212.375;    0.000
690.554; 1773.225;  234.375;    0.000
690.663; 1794.225;  210.375;    0.000
690.772; 1801.225;  221.375;    0.000
690.881; 1868.225;  244.375;    0.000
690.990; 1829.225;  247.375;    0.000
691.099; 1839.225;  222.375;    0.000
691.209; 1788.225;  240.375;    0.000
691.318; 1857.225;  223.375;    0.000
691.427; 1791.225;  217.375;    0.000
691.536; 1811.225;  216.375;    0.000
691.644; 1796.225;  194.375;    0.000
691.753; 1799.225;  221.375;    0.000
691.862; 1873.225;  224.375;    0.000
691.971; 1812.225;  191.375;    0.000
692.080; 1816.225;  247.375;    0.000
692.189; 1843.225;  208.375;    0.000
692.298; 1856.225;  203.375;    0.000
692.406; 1853.225;  239.375;    0.000
692.515; 1851.225;  250.375;    0.000
692.624; 1831.225;  226.375;    0.000
692.733; 1778.225;  229.375;    0.000
692.842; 1895.225;  254.375;    0.000
692.950; 1841.225;  242.375;    0.000
693.059; 1808.225;  204.375;    0.000
693.168; 1848.225;  252.375;    0.000
693.276; 1860.225;  195.375;    0.000
693.385; 1814.225;  228.375;    0.000
693.494; 1859.225;  282.375;    0.000
693.602; 1833.225;  221.375;    0.000
693.711; 1797.225;  225.375;    0.000
693.819; 1837.225;  234.375;    0.000
693.928; 1846.225;  229.375;    0.000
694.036; 1752.225;  192.375;    0.000
694.145; 1809.225;  233.375;    0.000
694.253; 1835.225;  277.375;    0.000
694.362; 1757.225;  188.375;    0.000
694.470; 1834.225;  263.375;    0.000
694.579; 1719.225;  253.375;    0.000
694.687; 1849.225;  281.375;    0.000
694.795; 1828.225;  233.375;    0.000
694.904; 1825.225;  223.375;    0.000
695.012; 1830.225;  296.375;    0.000
695.120; 1798.225;  227.375;    0.000
695.229; 1829.225;  269.375;    0.000
695.337; 1819.225;  229.375;    0.000
695.445; 1879.225;  244.375;    0.000
695.553; 1794.225;  259.375;    0.000
695.662; 1832.225;  208.375;    0.000
695.770; 1827.225;  241.375;    0.000
695.878; 1846.225;  239.375;    0.000
695.986; 1856.225;  247.375;    0.000
696.094; 1846.225;  224.375;    0.000
696.202; 1767.225;  205.375;    0.000
696.310; 1798.225;  217.375;    0.000
696.419; 1720.225;  228.375;    0.000
696.527; 1821.225;  246.375;    0.000
696.635; 1824.225;  245.375;    0.000
696.743; 1804.225;  233.375;    0.000
696.851; 1798.225;  251.375;    0.000
696.959; 1809.225;  257.375;    0.000
697.067; 1853.225;  260.375;    0.000
697.174; 1827.225;  223.375;    0.000
697.282; 1751.225;  239.375;    0.000
697.390; 1810.225;  264.375;    0.000
697.498; 1735.225;  227.375;    0.000
697.606; 1773.225;  243.375;    0.000
697.714; 1812.225;  256.375;    0.000
697.822; 1812.225;  278.375;    0.000
697.929; 1790.225;  227.375;    0.000
698.037; 1770.225;  232.375;    0.000
698.145; 1797.225;  256.375;    0.000
698.253; 1817.225;  245.375;    0.000
698.360; 1781.225;  282.375;    0.000
698.468; 1780.225;  244.375;    0.000
698.576; 1836.225;  279.375;    0.000
698.683; 1779.225;  259.375;    0.000
698.791; 1895.225;  265.375;    0.000
698.899; 1815.225;  250.375;    0.000
699.006; 1819.225;  245.375;    0.000
699.114; 1773.225;  280.375;    0.000
699.221; 1782.225;  240.375;    0.000
699.329; 1808.225;  293.375;    0.000
699.436; 1780.225;  216.375;    0.000
699.544; 1816.225;  269.375;    0.000
699.651; 1795.225;  219.375;    0.000
699.759; 1750.225;  245.375;    0.000
699.866; 1805.225;  261.375;    0.000
699.974; 1747.225;  245.375;    0.000
700.081; 1811.225;  257.375;    0.000
700.188; 1838.225;  268.375;    0.000
700.296; 1790.225;  225.375;    0.000
700.403; 1799.225;  257.375;    0.000
700.510; 1764.225;  267.375;    0.000
700.618; 1786.225;  299.375;    0.000
700.725; 1714.225;  223.375;    0.000
700.832; 1744.225;  233.375;    0.000
700.940; 1752.225;  255.375;    0.000
701.047; 1787.225;  244.375;    0.000
701.154; 1802.225;  248.375;    0.000
701.261; 1714.225;  264.375;    0.000
701.368; 1761.225;  299.375;    0.000
701.475; 1743.225;  264.375;    0.000
701.582; 1784.225;  275.375;    0.000
701.690; 1802.225;  261.375;    0.000
701.797; 1852.225;  273.375;    0.000
701.904; 1779.225;  320.375;    0.000
702.011; 1778.225;  299.375;    0.000
702.118; 1791.225;  292.375;    0.000
702.225; 1736.225;  317.375;    0.000
702.332; 1845.225;  307.375;    0.000
702.439; 1792.225;  313.375;    0.000
702.546; 1802.225;  312.375;    0.000
702.652; 1836.225;  297.375;    0.000
702.759; 1849.225;  345.375;    0.000
702.866; 1819.225;  330.375;    0.000
702.973; 1857.225;  303.375;    0.000
703.080; 1856.225;  303.375;    0.000
703.187; 1837.225;  327.375;    0.000
703.294; 1839.225;  325.375;    0.000
703.400; 1688.225;  302.375;    0.000
703.507;  479.225;  344.375;    0.000
703.614;  319.225;  294.375;    0.000
703.720;  315.225;  322.375;    0.000
703.827;  316.225;  329.375;    0.000
703.934;  319.225;  318.375;    0.000
704.040;  302.225;  299.375;    0.000
704.147;  354.225;  352.375;    0.000
704.254;  346.225;  350.375;    0.000
704.360;  313.225;  347.375;    0.000
704.467;  318.225;  336.375;    0.000
704.573;  338.225;  344.375;    0.000
704.680;  322.225;  365.375;    0.000
704.786;  302.225;  332.375;    0.000
704.893;  279.225;  304.375;    0.000
704.999;  332.225;  299.375;    0.000
705.106;  348.225;  365.375;    0.000

