
Integration time [ms]:   0.300
Averaging Nr. [scans]: 1
Smoothing Nr. [pixels]: 0
Data measured with spectrometer [name]: VIS
Wave   ;Sample   ;Dark     ;Reference
[nm]   ;[counts] ;[counts] ;[counts] 

450.961;  202.325;  204.125;    0.000
451.100;  220.325;  219.125;    0.000
451.239;  217.325;  196.125;    0.000
451.377;  225.325;  252.125;    0.000
451.516;  192.325;  215.125;    0.000
451.655;  199.325;  214.125;    0.000
451.794;  206.325;  241.125;    0.000
451.932;  269.325;  242.125;    0.000
452.071;  245.325;  204.125;    0.000
452.210;  216.325;  243.125;    0.000
452.348;  228.325;  241.125;    0.000
452.487;  207.325;  246.125;    0.000
452.626;  203.325;  235.125;    0.000
452.764;  183.325;  230.125;    0.000
452.903;  238.325;  199.125;    0.000
453.042;  306.325;  178.125;    0.000
453.180; 3522.325;  291.125;    0.000
453.319; 3650.325;  335.125;    0.000
453.458; 3646.325;  245.125;    0.000
453.596; 3719.325;  325.125;    0.000
453.735; 3701.325;  291.125;    0.000
453.873; 3803.325;  295.125;    0.000
454.012; 3695.325;  291.125;    0.000
454.150; 3897.325;  292.125;    0.000
454.289; 3858.325;  328.125;    0.000
454.427; 3911.325;  295.125;    0.000
454.566; 3996.325;  295.125;    0.000
454.704; 3966.325;  301.125;    0.000
454.843; 4031.325;  278.125;    0.000
454.981; 4141.325;  306.125;    0.000
455.120; 3966.325;  237.125;    0.000
455.258; 4226.325;  325.125;    0.000
455.397; 4173.325;  276.125;    0.000
455.535; 4194.325;  269.125;    0.000
455.674; 4223.325;  259.125;    0.000
455.812; 4299.325;  264.125;    0.000
455.951; 4149.325;  286.125;    0.000
456.089; 4269.325;  302.125;    0.000
456.227; 4333.325;  230.125;    0.000
456.366; 4492.325;  303.125;    0.000
456.504; 4404.325;  316.125;    0.000
456.642; 4573.325;  309.125;    0.000
456.781; 4603.325;  299.125;    0.000
456.919; 4533.325;  281.125;    0.000
457.057; 4628.325;  253.125;    0.000
457.196; 4584.325;  268.125;    0.000
457.334; 4741.325;  292.125;    0.000
457.472; 4896.325;  287.125;    0.000
457.610; 4889.325;  300.125;    0.000
457.749; 4872.325;  342.125;    0.000
457.887; 5008.325;  310.125;    0.000
458.025; 5077.325;  310.125;    0.000
458.163; 5092.325;  323.125;    0.000
458.301; 5181.325;  336.125;    0.000
458.440; 5244.325;  297.125;    0.000
458.578; 5476.325;  295.125;    0.000
458.716; 5457.325;  309.125;    0.000
458.854; 5446.325;  335.125;    0.000
458.992; 5555.325;  244.125;    0.000
459.130; 5594.325;  370.125;    0.000
459.269; 5626.325;  313.125;    0.000
459.407; 5745.325;  370.125;    0.000
459.545; 5761.325;  341.125;    0.000
459.683; 5896.325;  336.125;    0.000
459.821; 5959.325;  311.125;    0.000
459.959; 5969.325;  330.125;    0.000
460.097; 6117.325;  355.125;    0.000
460.235; 6171.325;  348.125;    0.000
460.373; 6072.325;  338.125;    0.000
460.511; 6128.325;  361.125;    0.000
460.649; 6109.325;  295.125;    0.000
460.787; 6337.325;  325.125;    0.000
460.925; 6276.325;  266.125;    0.000
461.063; 6316.325;  365.125;    0.000
461.201; 6372.325;  334.125;    0.000
461.339; 6377.325;  341.125;    0.000
461.477; 6301.325;  304.125;    0.000
461.615; 6564.325;  311.125;    0.000
461.753; 6588.325;  342.125;    0.000
461.891; 6574.325;  333.125;    0.000
462.029; 6679.325;  336.125;    0.000
462.166; 6815.325;  272.125;    0.000
462.304; 6880.325;  313.125;    0.000
462.442; 6974.325;  313.125;    0.000
462.580; 7103.325;  328.125;    0.000
462.718; 7150.325;  358.125;    0.000
462.856; 7050.325;  302.125;    0.000
462.993; 7128.325;  360.125;    0.000
463.131; 6969.325;  280.125;    0.000
463.269; 6908.325;  312.125;    0.000
463.407; 6997.325;  263.125;    0.000
463.545; 6809.325;  253.125;    0.000
463.682; 6898.325;  296.125;    0.000
463.820; 7225.325;  308.125;    0.000
463.958; 7396.325;  300.125;    0.000
464.095; 7433.325;  289.125;    0.000
464.233; 7621.325;  340.125;    0.000
464.371; 7485.325;  300.125;    0.000
464.509; 7457.325;  266.125;    0.000
464.646; 7488.325;  294.125;    0.000
464.784; 7277.325;  284.125;    0.000
464.921; 7423.325;  350.125;    0.000
465.059; 7259.325;  256.125;    0.000
465.197; 7055.325;  289.125;    0.000
465.334; 6982.325;  287.125;    0.000
465.472; 6805.325;  322.125;    0.000
465.609; 6968.325;  311.125;    0.000
465.747; 6862.325;  336.125;    0.000
465.885; 6820.325;  308.125;    0.000
466.022; 6791.325;  299.125;    0.000
466.160; 6815.325;  293.125;    0.000
466.297; 6698.325;  317.125;    0.000
466.435; 6785.325;  336.125;    0.000
466.572; 6576.325;  282.125;    0.000
466.710; 6578.325;  299.125;    0.000
466.847; 6564.325;  288.125;    0.000
466.985; 6577.325;  274.125;    0.000
467.122; 6487.325;  302.125;    0.000
467.260; 6468.325;  271.125;    0.000
467.397; 6545.325;  263.125;    0.000
467.534; 6488.325;  320.125;    0.000
467.672; 6653.325;  309.125;    0.000
467.809; 6528.325;  275.125;    0.000
467.947; 6482.325;  319.125;    0.000
468.084; 6423.325;  309.125;    0.000
468.221; 6538.325;  302.125;    0.000
468.359; 6521.325;  286.125;    0.000
468.496; 6494.325;  293.125;    0.000
468.633; 6511.325;  273.125;    0.000
468.771; 6512.325;  296.125;    0.000
468.908; 6589.325;  277.125;    0.000
469.045; 6567.325;  303.125;    0.000
469.183; 6569.325;  314.125;    0.000
469.320; 6646.325;  278.125;    0.000
469.457; 6850.325;  308.125;    0.000
469.594; 6647.325;  272.125;    0.000
469.732; 6804.325;  321.125;    0.000
469.869; 6901.325;  299.125;    0.000
470.006; 6905.325;  267.125;    0.000
470.143; 6997.325;  298.125;    0.000
470.280; 6976.325;  272.125;    0.000
470.417; 7044.325;  314.125;    0.000
470.555; 7179.325;  305.125;    0.000
470.692; 7037.325;  309.125;    0.000
470.829; 6981.325;  311.125;    0.000
470.966; 7002.325;  260.125;    0.000
471.103; 7046.325;  267.125;    0.000
471.240; 7018.325;  290.125;    0.000
471.377; 6927.325;  290.125;    0.000
471.514; 6893.325;  295.125;    0.000
471.651; 6973.325;  300.125;    0.000
471.789; 6925.325;  281.125;    0.000
471.926; 6571.325;  291.125;    0.000
472.063; 6828.325;  305.125;    0.000
472.200; 6837.325;  285.125;    0.000
472.337; 6735.325;  288.125;    0.000
472.474; 6869.325;  276.125;    0.000
472.611; 6794.325;  309.125;    0.000
472.748; 6682.325;  280.125;    0.000
472.884; 6759.325;  300.125;    0.000
473.021; 6574.325;  280.125;    0.000
473.158; 6773.325;  304.125;    0.000
473.295; 6637.325;  308.125;    0.000
473.432; 6617.325;  294.125;    0.000
473.569; 6694.325;  288.125;    0.000
473.706; 6685.325;  254.125;    0.000
473.843; 6649.325;  282.125;    0.000
473.980; 6697.325;  286.125;    0.000
474.117; 6579.325;  257.125;    0.000
474.253; 6635.325;  298.125;    0.000
474.390; 6609.325;  253.125;    0.000
474.527; 6631.325;  271.125;    0.000
474.664; 6671.325;  257.125;    0.000
474.801; 6614.325;  296.125;    0.000
474.937; 6750.325;  263.125;    0.000
475.074; 6845.325;  262.125;    0.000
475.211; 6836.325;  299.125;    0.000
475.348; 6920.325;  308.125;    0.000
475.484; 6793.325;  278.125;    0.000
475.621; 6847.325;  287.125;    0.000
475.758; 6825.325;  231.125;    0.000
475.894; 6682.325;  295.125;    0.000
476.031; 6752.325;  290.125;    0.000
476.168; 6755.325;  287.125;    0.000
476.304; 6790.325;  331.125;    0.000
476.441; 6787.325;  301.125;    0.000
476.578; 6827.325;  263.125;    0.000
476.714; 7012.325;  261.125;    0.000
476.851; 6836.325;  247.125;    0.000
476.987; 6975.325;  297.125;    0.000
477.124; 6930.325;  296.125;    0.000
477.261; 7158.325;  299.125;    0.000
477.397; 6992.325;  292.125;    0.000
477.534; 7204.325;  289.125;    0.000
477.670; 7172.325;  268.125;    0.000
477.807; 7079.325;  234.125;    0.000
477.943; 7265.325;  279.125;    0.000
478.080; 7378.325;  276.125;    0.000
478.216; 7282.325;  248.125;    0.000
478.353; 7350.325;  296.125;    0.000
478.489; 7444.325;  267.125;    0.000
478.626; 7379.325;  243.125;    0.000
478.762; 7377.325;  252.125;    0.000
478.898; 7475.325;  266.125;    0.000
479.035; 7451.325;  290.125;    0.000
479.171; 7558.325;  247.125;    0.000
479.308; 7512.325;  283.125;    0.000
479.444; 7359.325;  244.125;    0.000
479.580; 7684.325;  259.125;    0.000
479.717; 7646.325;  301.125;    0.000
479.853; 7531.325;  257.125;    0.000
479.989; 7672.325;  249.125;    0.000
480.126; 7634.325;  218.125;    0.000
480.262; 7686.325;  275.125;    0.000
480.398; 7583.325;  246.125;    0.000
480.535; 7770.325;  246.125;    0.000
480.671; 7666.325;  272.125;    0.000
480.807; 7735.325;  281.125;    0.000
480.943; 7761.325;  233.125;    0.000
481.080; 7718.325;  303.125;    0.000
481.216; 7569.325;  229.125;    0.000
481.352; 7647.325;  240.125;    0.000
481.488; 7606.325;  284.125;    0.000
481.624; 7629.325;  236.125;    0.000
481.760; 7547.325;  255.125;    0.000
481.897; 7419.325;  206.125;    0.000
482.033; 7536.325;  254.125;    0.000
482.169; 7343.325;  268.125;    0.000
482.305; 7639.325;  214.125;    0.000
482.441; 7304.325;  225.125;    0.000
482.577; 7506.325;  251.125;    0.000
482.713; 7394.325;  221.125;    0.000
482.849; 7468.325;  218.125;    0.000
482.985; 7328.325;  245.125;    0.000
483.121; 7528.325;  224.125;    0.000
483.258; 7473.325;  249.125;    0.000
483.394; 7447.325;  224.125;    0.000
483.530; 7556.325;  247.125;    0.000
483.665; 7580.325;  256.125;    0.000
483.801; 7520.325;  220.125;    0.000
483.937; 7467.325;  200.125;    0.000
484.073; 7588.325;  272.125;    0.000
484.209; 7626.325;  243.125;    0.000
484.345; 7618.325;  274.125;    0.000
484.481; 7616.325;  264.125;    0.000
484.617; 7700.325;  270.125;    0.000
484.753; 7616.325;  244.125;    0.000
484.889; 7645.325;  293.125;    0.000
485.025; 7785.325;  257.125;    0.000
485.161; 7620.325;  264.125;    0.000
485.296; 7580.325;  247.125;    0.000
485.432; 7780.325;  240.125;    0.000
485.568; 7733.325;  240.125;    0.000
485.704; 7657.325;  232.125;    0.000
485.840; 7784.325;  280.125;    0.000
485.975; 7734.325;  253.125;    0.000
486.111; 7578.325;  250.125;    0.000
486.247; 7865.325;  272.125;    0.000
486.383; 7631.325;  258.125;    0.000
486.518; 7776.325;  256.125;    0.000
486.654; 7617.325;  250.125;    0.000
486.790; 7739.325;  259.125;    0.000
486.926; 7535.325;  256.125;    0.000
487.061; 7740.325;  267.125;    0.000
487.197; 7722.325;  224.125;    0.000
487.333; 7761.325;  265.125;    0.000
487.468; 7596.325;  223.125;    0.000
487.604; 7682.325;  298.125;    0.000
487.740; 7746.325;  261.125;    0.000
487.875; 7601.325;  278.125;    0.000
488.011; 7657.325;  292.125;    0.000
488.146; 7636.325;  239.125;    0.000
488.282; 7709.325;  265.125;    0.000
488.417; 7789.325;  286.125;    0.000
488.553; 7629.325;  271.125;    0.000
488.688; 7745.325;  252.125;    0.000
488.824; 7844.325;  239.125;    0.000
488.960; 7715.325;  266.125;    0.000
489.095; 7735.325;  229.125;    0.000
489.230; 7805.325;  247.125;    0.000
489.366; 7801.325;  260.125;    0.000
489.501; 7850.325;  257.125;    0.000
489.637; 7880.325;  233.125;    0.000
489.772; 7824.325;  254.125;    0.000
489.908; 7731.325;  235.125;    0.000
490.043; 7821.325;  266.125;    0.000
490.178; 7793.325;  228.125;    0.000
490.314; 7974.325;  310.125;    0.000
490.449; 7760.325;  251.125;    0.000
490.585; 7900.325;  221.125;    0.000
490.720; 7823.325;  203.125;    0.000
490.855; 7765.325;  266.125;    0.000
490.991; 7651.325;  249.125;    0.000
491.126; 7886.325;  313.125;    0.000
491.261; 7848.325;  284.125;    0.000
491.396; 7788.325;  225.125;    0.000
491.532; 7821.325;  227.125;    0.000
491.667; 7916.325;  210.125;    0.000
491.802; 7941.325;  214.125;    0.000
491.937; 7962.325;  246.125;    0.000
492.073; 8022.325;  250.125;    0.000
492.208; 7913.325;  267.125;    0.000
492.343; 7942.325;  245.125;    0.000
492.478; 8025.325;  271.125;    0.000
492.613; 8225.325;  253.125;    0.000
492.749; 7993.325;  249.125;    0.000
492.884; 7925.325;  217.125;    0.000
493.019; 8001.325;  244.125;    0.000
493.154; 7945.325;  265.125;    0.000
493.289; 7753.325;  266.125;    0.000
493.424; 8017.325;  226.125;    0.000
493.559; 7857.325;  222.125;    0.000
493.694; 7873.325;  218.125;    0.000
493.829; 7881.325;  246.125;    0.000
493.964; 7907.325;  243.125;    0.000
494.099; 7865.325;  269.125;    0.000
494.234; 7961.325;  249.125;    0.000
494.369; 7891.325;  279.125;    0.000
494.504; 8007.325;  261.125;    0.000
494.639; 7824.325;  289.125;    0.000
494.774; 7885.325;  252.125;    0.000
494.909; 7923.325;  250.125;    0.000
495.044; 7922.325;  207.125;    0.000
495.179; 7924.325;  266.125;    0.000
495.314; 7832.325;  228.125;    0.000
495.449; 7927.325;  262.125;    0.000
495.584; 7904.325;  281.125;    0.000
495.719; 7975.325;  251.125;    0.000
495.854; 7924.325;  237.125;    0.000
495.988; 8020.325;  238.125;    0.000
496.123; 7884.325;  255.125;    0.000
496.258; 7984.325;  264.125;    0.000
496.393; 8112.325;  253.125;    0.000
496.528; 8048.325;  244.125;    0.000
496.663; 8280.325;  267.125;    0.000
496.797; 8200.325;  271.125;    0.000
496.932; 8282.325;  262.125;    0.000
497.067; 8488.325;  260.125;    0.000
497.202; 8512.325;  264.125;    0.000
497.336; 8628.325;  243.125;    0.000
497.471; 8530.325;  251.125;    0.000
497.606; 8773.325;  219.125;    0.000
497.740; 8982.325;  264.125;    0.000
497.875; 9036.325;  252.125;    0.000
498.010; 9146.325;  241.125;    0.000
498.144; 9337.325;  261.125;    0.000
498.279; 9651.325;  221.125;    0.000
498.414; 9789.325;  246.125;    0.000
498.548; 9792.325;  212.125;    0.000
498.683; 9959.325;  260.125;    0.000
498.817;10195.325;  244.125;    0.000
498.952;10284.325;  252.125;    0.000
499.087;10547.325;  251.125;    0.000
499.221;10852.325;  282.125;    0.000
499.356;11048.325;  264.125;    0.000
499.490;11372.325;  280.125;    0.000
499.625;11556.325;  256.125;    0.000
499.759;11940.325;  253.125;    0.000
499.894;12290.325;  261.125;    0.000
500.028;12808.325;  304.125;    0.000
500.162;13084.325;  272.125;    0.000
500.297;12946.325;  274.125;    0.000
500.431;13274.325;  320.125;    0.000
500.566;13497.325;  268.125;    0.000
500.700;13246.325;  280.125;    0.000
500.835;12850.325;  288.125;    0.000
500.969;12535.325;  253.125;    0.000
501.103;12443.325;  234.125;    0.000
501.238;11855.325;  302.125;    0.000
501.372;11515.325;  292.125;    0.000
501.506;11161.325;  222.125;    0.000
501.641;10796.325;  274.125;    0.000
501.775;10326.325;  245.125;    0.000
501.909;10096.325;  283.125;    0.000
502.043;10004.325;  252.125;    0.000
502.178; 9767.325;  293.125;    0.000
502.312; 9556.325;  223.125;    0.000
502.446; 9515.325;  292.125;    0.000
502.580; 9200.325;  253.125;    0.000
502.715; 9232.325;  282.125;    0.000
502.849; 8826.325;  258.125;    0.000
502.983; 8960.325;  267.125;    0.000
503.117; 8836.325;  226.125;    0.000
503.251; 8708.325;  260.125;    0.000
503.385; 8606.325;  291.125;    0.000
503.520; 8405.325;  279.125;    0.000
503.654; 8256.325;  229.125;    0.000
503.788; 8372.325;  259.125;    0.000
503.922; 8206.325;  246.125;    0.000
504.056; 8113.325;  269.125;    0.000
504.190; 8021.325;  265.125;    0.000
504.324; 7968.325;  298.125;    0.000
504.458; 7910.325;  235.125;    0.000
504.592; 7983.325;  275.125;    0.000
504.726; 7661.325;  226.125;    0.000
504.860; 7885.325;  298.125;    0.000
504.994; 7600.325;  253.125;    0.000
505.128; 7493.325;  283.125;    0.000
505.262; 7372.325;  255.125;    0.000
505.396; 7151.325;  219.125;    0.000
505.530; 7111.325;  279.125;    0.000
505.664; 7072.325;  306.125;    0.000
505.798; 7037.325;  297.125;    0.000
505.932; 6916.325;  273.125;    0.000
506.066; 6852.325;  271.125;    0.000
506.199; 6854.325;  273.125;    0.000
506.333; 6718.325;  227.125;    0.000
506.467; 6721.325;  302.125;    0.000
506.601; 6568.325;  254.125;    0.000
506.735; 6622.325;  299.125;    0.000
506.869; 6475.325;  278.125;    0.000
507.002; 6489.325;  259.125;    0.000
507.136; 6577.325;  285.125;    0.000
507.270; 6382.325;  255.125;    0.000
507.404; 6355.325;  273.125;    0.000
507.537; 6418.325;  245.125;    0.000
507.671; 6389.325;  251.125;    0.000
507.805; 6247.325;  286.125;    0.000
507.939; 6215.325;  261.125;    0.000
508.072; 6264.325;  298.125;    0.000
508.206; 6101.325;  238.125;    0.000
508.340; 6219.325;  289.125;    0.000
508.473; 6114.325;  255.125;    0.000
508.607; 6256.325;  266.125;    0.000
508.740; 6062.325;  253.125;    0.000
508.874; 6223.325;  233.125;    0.000
509.008; 6068.325;  274.125;    0.000
509.141; 6111.325;  235.125;    0.000
509.275; 6174.325;  225.125;    0.000
509.408; 6125.325;  254.125;    0.000
509.542; 6074.325;  244.125;    0.000
509.675; 6016.325;  263.125;    0.000
509.809; 5926.325;  271.125;    0.000
509.942; 6013.325;  246.125;    0.000
510.076; 6023.325;  221.125;    0.000
510.209; 5997.325;  270.125;    0.000
510.343; 5910.325;  265.125;    0.000
510.476; 5983.325;  291.125;    0.000
510.610; 5831.325;  251.125;    0.000
510.743; 5924.325;  304.125;    0.000
510.877; 5797.325;  259.125;    0.000
511.010; 5801.325;  274.125;    0.000
511.143; 5794.325;  255.125;    0.000
511.277; 5736.325;  267.125;    0.000
511.410; 5786.325;  270.125;    0.000
511.543; 5821.325;  231.125;    0.000
511.677; 5917.325;  275.125;    0.000
511.810; 5793.325;  265.125;    0.000
511.943; 5824.325;  231.125;    0.000
512.077; 5717.325;  225.125;    0.000
512.210; 5753.325;  235.125;    0.000
512.343; 5741.325;  251.125;    0.000
512.476; 5765.325;  260.125;    0.000
512.610; 5734.325;  289.125;    0.000
512.743; 5807.325;  270.125;    0.000
512.876; 5719.325;  289.125;    0.000
513.009; 5859.325;  293.125;    0.000
513.142; 5787.325;  282.125;    0.000
513.276; 5823.325;  244.125;    0.000
513.409; 5688.325;  277.125;    0.000
513.542; 5694.325;  254.125;    0.000
513.675; 5806.325;  258.125;    0.000
513.808; 5578.325;  243.125;    0.000
513.941; 5666.325;  274.125;    0.000
514.074; 5838.325;  296.125;    0.000
514.207; 5837.325;  267.125;    0.000
514.340; 5923.325;  283.125;    0.000
514.474; 5839.325;  255.125;    0.000
514.607; 5885.325;  291.125;    0.000
514.740; 5855.325;  296.125;    0.000
514.873; 5857.325;  275.125;    0.000
515.006; 5936.325;  313.125;    0.000
515.139; 6112.325;  253.125;    0.000
515.272; 6073.325;  263.125;    0.000
515.404; 6092.325;  258.125;    0.000
515.537; 6111.325;  285.125;    0.000
515.670; 6034.325;  286.125;    0.000
515.803; 6114.325;  266.125;    0.000
515.936; 6245.325;  251.125;    0.000
516.069; 6156.325;  231.125;    0.000
516.202; 6376.325;  278.125;    0.000
516.335; 6355.325;  295.125;    0.000
516.468; 6777.325;  239.125;    0.000
516.600; 7885.325;  229.125;    0.000
516.733; 9930.325;  301.125;    0.000
516.866;10132.325;  287.125;    0.000
516.999; 9036.325;  265.125;    0.000
517.132;10991.325;  291.125;    0.000
517.264;15245.325;  262.125;    0.000
517.397;15133.325;  292.125;    0.000
517.530;11580.325;  299.125;    0.000
517.663; 9676.325;  268.125;    0.000
517.795; 8822.325;  323.125;    0.000
517.928; 8633.325;  281.125;    0.000
518.061; 8763.325;  242.125;    0.000
518.193;10984.325;  279.125;    0.000
518.326;17672.324;  288.125;    0.000
518.459;19183.324;  251.125;    0.000
518.591;14491.325;  314.125;    0.000
518.724;10922.325;  279.125;    0.000
518.857; 9358.325;  245.125;    0.000
518.989; 8746.325;  290.125;    0.000
519.122; 7982.325;  319.125;    0.000
519.254; 7622.325;  295.125;    0.000
519.387; 7273.325;  271.125;    0.000
519.519; 6885.325;  312.125;    0.000
519.652; 6721.325;  289.125;    0.000
519.784; 6621.325;  311.125;    0.000
519.917; 6385.325;  283.125;    0.000
520.049; 6361.325;  281.125;    0.000
520.182; 6245.325;  242.125;    0.000
520.314; 6257.325;  310.125;    0.000
520.447; 6111.325;  215.125;    0.000
520.579; 6121.325;  277.125;    0.000
520.712; 5927.325;  224.125;    0.000
520.844; 5949.325;  293.125;    0.000
520.976; 5823.325;  281.125;    0.000
521.109; 5830.325;  279.125;    0.000
521.241; 5673.325;  318.125;    0.000
521.373; 5612.325;  242.125;    0.000
521.506; 5623.325;  246.125;    0.000
521.638; 5550.325;  312.125;    0.000
521.770; 5521.325;  257.125;    0.000
521.903; 5489.325;  295.125;    0.000
522.035; 5456.325;  283.125;    0.000
522.167; 5308.325;  281.125;    0.000
522.300; 5307.325;  262.125;    0.000
522.432; 5327.325;  272.125;    0.000
522.564; 5147.325;  277.125;    0.000
522.696; 5316.325;  295.125;    0.000
522.828; 5296.325;  284.125;    0.000
522.961; 5168.325;  295.125;    0.000
523.093; 5140.325;  282.125;    0.000
523.225; 5096.325;  270.125;    0.000
523.357; 5178.325;  285.125;    0.000
523.489; 5180.325;  292.125;    0.000
523.621; 5182.325;  285.125;    0.000
523.753; 5086.325;  273.125;    0.000
523.885; 5022.325;  271.125;    0.000
524.018; 5005.325;  276.125;    0.000
524.150; 5052.325;  320.125;    0.000
524.282; 5031.325;  304.125;    0.000
524.414; 5065.325;  302.125;    0.000
524.546; 4915.325;  305.125;    0.000
524.678; 4909.325;  264.125;    0.000
524.810; 4970.325;  258.125;    0.000
524.942; 4810.325;  252.125;    0.000
525.074; 4897.325;  275.125;    0.000
525.206; 4894.325;  286.125;    0.000
525.338; 4831.325;  280.125;    0.000
525.469; 4807.325;  267.125;    0.000
525.601; 4803.325;  266.125;    0.000
525.733; 4731.325;  283.125;    0.000
525.865; 4847.325;  273.125;    0.000
525.997; 4764.325;  286.125;    0.000
526.129; 4672.325;  249.125;    0.000
526.261; 4686.325;  233.125;    0.000
526.393; 4740.325;  257.125;    0.000
526.524; 4682.325;  184.125;    0.000
526.656; 4600.325;  259.125;    0.000
526.788; 4606.325;  268.125;    0.000
526.920; 4643.325;  262.125;    0.000
527.052; 4638.325;  250.125;    0.000
527.183; 4609.325;  264.125;    0.000
527.315; 4652.325;  301.125;    0.000
527.447; 4667.325;  262.125;    0.000
527.578; 4622.325;  267.125;    0.000
527.710; 4631.325;  299.125;    0.000
527.842; 4745.325;  266.125;    0.000
527.973; 4768.325;  240.125;    0.000
528.105; 4576.325;  275.125;    0.000
528.237; 4705.325;  239.125;    0.000
528.368; 4554.325;  275.125;    0.000
528.500; 4513.325;  271.125;    0.000
528.632; 4560.325;  252.125;    0.000
528.763; 4588.325;  253.125;    0.000
528.895; 4559.325;  259.125;    0.000
529.026; 4571.325;  209.125;    0.000
529.158; 4701.325;  291.125;    0.000
529.289; 4568.325;  280.125;    0.000
529.421; 4574.325;  274.125;    0.000
529.552; 4614.325;  253.125;    0.000
529.684; 4610.325;  310.125;    0.000
529.815; 4537.325;  305.125;    0.000
529.947; 4586.325;  234.125;    0.000
530.078; 4627.325;  259.125;    0.000
530.210; 4527.325;  264.125;    0.000
530.341; 4581.325;  267.125;    0.000
530.472; 4527.325;  232.125;    0.000
530.604; 4539.325;  293.125;    0.000
530.735; 4622.325;  275.125;    0.000
530.867; 4586.325;  280.125;    0.000
530.998; 4607.325;  295.125;    0.000
531.129; 4660.325;  274.125;    0.000
531.260; 4642.325;  272.125;    0.000
531.392; 4653.325;  275.125;    0.000
531.523; 4677.325;  244.125;    0.000
531.654; 4570.325;  289.125;    0.000
531.786; 4738.325;  259.125;    0.000
531.917; 4831.325;  286.125;    0.000
532.048; 4725.325;  293.125;    0.000
532.179; 4779.325;  288.125;    0.000
532.311; 4677.325;  296.125;    0.000
532.442; 4611.325;  277.125;    0.000
532.573; 4654.325;  273.125;    0.000
532.704; 4579.325;  308.125;    0.000
532.835; 4624.325;  308.125;    0.000
532.966; 4605.325;  274.125;    0.000
533.097; 4638.325;  310.125;    0.000
533.229; 4679.325;  294.125;    0.000
533.360; 4564.325;  324.125;    0.000
533.491; 4584.325;  278.125;    0.000
533.622; 4631.325;  319.125;    0.000
533.753; 4725.325;  303.125;    0.000
533.884; 4648.325;  269.125;    0.000
534.015; 4678.325;  266.125;    0.000
534.146; 4688.325;  283.125;    0.000
534.277; 4650.325;  299.125;    0.000
534.408; 4561.325;  265.125;    0.000
534.539; 4640.325;  310.125;    0.000
534.670; 4619.325;  319.125;    0.000
534.801; 4554.325;  281.125;    0.000
534.932; 4607.325;  239.125;    0.000
535.063; 4513.325;  276.125;    0.000
535.194; 4554.325;  361.125;    0.000
535.324; 4470.325;  283.125;    0.000
535.455; 4505.325;  282.125;    0.000
535.586; 4550.325;  331.125;    0.000
535.717; 4503.325;  262.125;    0.000
535.848; 4623.325;  308.125;    0.000
535.979; 4401.325;  273.125;    0.000
536.109; 4483.325;  277.125;    0.000
536.240; 4485.325;  293.125;    0.000
536.371; 4418.325;  295.125;    0.000
536.502; 4408.325;  330.125;    0.000
536.632; 4433.325;  280.125;    0.000
536.763; 4492.325;  332.125;    0.000
536.894; 4513.325;  334.125;    0.000
537.025; 4309.325;  295.125;    0.000
537.155; 4374.325;  321.125;    0.000
537.286; 4403.325;  292.125;    0.000
537.417; 4400.325;  314.125;    0.000
537.547; 4325.325;  287.125;    0.000
537.678; 4379.325;  287.125;    0.000
537.808; 4415.325;  278.125;    0.000
537.939; 4346.325;  304.125;    0.000
538.070; 4412.325;  303.125;    0.000
538.200; 4417.325;  279.125;    0.000
538.331; 4284.325;  321.125;    0.000
538.461; 4460.325;  313.125;    0.000
538.592; 4469.325;  290.125;    0.000
538.722; 4526.325;  285.125;    0.000
538.853; 4299.325;  261.125;    0.000
538.983; 4392.325;  280.125;    0.000
539.114; 4382.325;  310.125;    0.000
539.244; 4295.325;  281.125;    0.000
539.375; 4399.325;  292.125;    0.000
539.505; 4308.325;  286.125;    0.000
539.636; 4394.325;  276.125;    0.000
539.766; 4345.325;  287.125;    0.000
539.896; 4328.325;  292.125;    0.000
540.027; 4442.325;  262.125;    0.000
540.157; 4286.325;  269.125;    0.000
540.287; 4313.325;  282.125;    0.000
540.418; 4439.325;  269.125;    0.000
540.548; 4416.325;  328.125;    0.000
540.678; 4427.325;  271.125;    0.000
540.809; 4355.325;  272.125;    0.000
540.939; 4443.325;  299.125;    0.000
541.069; 4382.325;  266.125;    0.000
541.200; 4366.325;  242.125;    0.000
541.330; 4480.325;  257.125;    0.000
541.460; 4488.325;  270.125;    0.000
541.590; 4378.325;  287.125;    0.000
541.720; 4303.325;  255.125;    0.000
541.851; 4429.325;  273.125;    0.000
541.981; 4452.325;  244.125;    0.000
542.111; 4488.325;  263.125;    0.000
542.241; 4451.325;  271.125;    0.000
542.371; 4510.325;  263.125;    0.000
542.501; 4581.325;  274.125;    0.000
542.631; 4606.325;  288.125;    0.000
542.761; 4684.325;  261.125;    0.000
542.891; 4728.325;  253.125;    0.000
543.021; 4667.325;  249.125;    0.000
543.151; 4781.325;  261.125;    0.000
543.281; 4633.325;  256.125;    0.000
543.411; 4626.325;  290.125;    0.000
543.542; 4554.325;  278.125;    0.000
543.671; 4584.325;  238.125;    0.000
543.801; 4491.325;  256.125;    0.000
543.931; 4533.325;  254.125;    0.000
544.061; 4517.325;  237.125;    0.000
544.191; 4607.325;  245.125;    0.000
544.321; 4554.325;  267.125;    0.000
544.451; 4648.325;  262.125;    0.000
544.581; 4579.325;  221.125;    0.000
544.711; 4749.325;  252.125;    0.000
544.841; 4730.325;  264.125;    0.000
544.970; 4743.325;  315.125;    0.000
545.100; 4746.325;  245.125;    0.000
545.230; 4982.325;  276.125;    0.000
545.360; 4833.325;  278.125;    0.000
545.490; 4745.325;  268.125;    0.000
545.619; 4794.325;  237.125;    0.000
545.749; 4689.325;  228.125;    0.000
545.879; 4601.325;  234.125;    0.000
546.009; 4549.325;  287.125;    0.000
546.138; 4581.325;  222.125;    0.000
546.268; 4521.325;  228.125;    0.000
546.398; 4611.325;  244.125;    0.000
546.527; 4501.325;  233.125;    0.000
546.657; 4545.325;  189.125;    0.000
546.786; 4599.325;  247.125;    0.000
546.916; 4609.325;  244.125;    0.000
547.046; 4548.325;  214.125;    0.000
547.175; 4615.325;  242.125;    0.000
547.305; 4549.325;  252.125;    0.000
547.434; 4552.325;  191.125;    0.000
547.564; 4567.325;  208.125;    0.000
547.693; 4598.325;  213.125;    0.000
547.823; 4548.325;  209.125;    0.000
547.953; 4519.325;  250.125;    0.000
548.082; 4604.325;  231.125;    0.000
548.211; 4538.325;  226.125;    0.000
548.341; 4499.325;  254.125;    0.000
548.470; 4540.325;  266.125;    0.000
548.600; 4624.325;  229.125;    0.000
548.729; 4676.325;  225.125;    0.000
548.859; 4463.325;  185.125;    0.000
548.988; 4512.325;  225.125;    0.000
549.117; 4592.325;  241.125;    0.000
549.247; 4618.325;  236.125;    0.000
549.376; 4592.325;  220.125;    0.000
549.505; 4704.325;  254.125;    0.000
549.635; 4624.325;  268.125;    0.000
549.764; 4604.325;  194.125;    0.000
549.893; 4661.325;  232.125;    0.000
550.023; 4544.325;  222.125;    0.000
550.152; 4684.325;  223.125;    0.000
550.281; 4616.325;  210.125;    0.000
550.410; 4760.325;  197.125;    0.000
550.539; 4751.325;  222.125;    0.000
550.669; 4672.325;  245.125;    0.000
550.798; 4568.325;  265.125;    0.000
550.927; 4622.325;  249.125;    0.000
551.056; 4638.325;  184.125;    0.000
551.185; 4580.325;  247.125;    0.000
551.314; 4608.325;  258.125;    0.000
551.443; 4634.325;  224.125;    0.000
551.573; 4631.325;  204.125;    0.000
551.702; 4723.325;  220.125;    0.000
551.831; 4712.325;  287.125;    0.000
551.960; 4716.325;  259.125;    0.000
552.089; 4761.325;  222.125;    0.000
552.218; 4732.325;  254.125;    0.000
552.347; 4840.325;  260.125;    0.000
552.476; 4774.325;  251.125;    0.000
552.605; 4848.325;  229.125;    0.000
552.734; 4937.325;  261.125;    0.000
552.863; 5120.325;  225.125;    0.000
552.992; 5196.325;  202.125;    0.000
553.121; 5197.325;  193.125;    0.000
553.249; 4968.325;  224.125;    0.000
553.378; 5043.325;  274.125;    0.000
553.507; 5020.325;  248.125;    0.000
553.636; 4928.325;  203.125;    0.000
553.765; 4901.325;  224.125;    0.000
553.894; 4826.325;  246.125;    0.000
554.023; 4824.325;  229.125;    0.000
554.151; 4874.325;  216.125;    0.000
554.280; 4820.325;  223.125;    0.000
554.409; 4899.325;  240.125;    0.000
554.538; 4739.325;  277.125;    0.000
554.666; 4718.325;  244.125;    0.000
554.795; 4599.325;  240.125;    0.000
554.924; 4694.325;  257.125;    0.000
555.052; 4680.325;  266.125;    0.000
555.181; 4744.325;  244.125;    0.000
555.310; 4823.325;  262.125;    0.000
555.439; 4636.325;  260.125;    0.000
555.567; 4557.325;  234.125;    0.000
555.696; 4630.325;  237.125;    0.000
555.824; 4528.325;  232.125;    0.000
555.953; 4624.325;  279.125;    0.000
556.082; 4500.325;  234.125;    0.000
556.210; 4495.325;  235.125;    0.000
556.339; 4529.325;  198.125;    0.000
556.467; 4664.325;  216.125;    0.000
556.596; 4698.325;  273.125;    0.000
556.724; 4586.325;  245.125;    0.000
556.853; 4520.325;  241.125;    0.000
556.981; 4543.325;  219.125;    0.000
557.110; 4502.325;  242.125;    0.000
557.238; 4607.325;  202.125;    0.000
557.367; 4489.325;  254.125;    0.000
557.495; 4510.325;  260.125;    0.000
557.623; 4432.325;  207.125;    0.000
557.752; 4449.325;  219.125;    0.000
557.880; 4582.325;  209.125;    0.000
558.008; 4515.325;  243.125;    0.000
558.137; 4669.325;  244.125;    0.000
558.265; 4564.325;  221.125;    0.000
558.393; 4633.325;  297.125;    0.000
558.522; 4489.325;  232.125;    0.000
558.650; 4616.325;  299.125;    0.000
558.778; 4505.325;  210.125;    0.000
558.906; 4486.325;  240.125;    0.000
559.035; 4599.325;  252.125;    0.000
559.163; 4465.325;  246.125;    0.000
559.291; 4456.325;  213.125;    0.000
559.419; 4521.325;  221.125;    0.000
559.548; 4427.325;  208.125;    0.000
559.676; 4484.325;  254.125;    0.000
559.804; 4581.325;  213.125;    0.000
559.932; 4488.325;  208.125;    0.000
560.060; 4567.325;  276.125;    0.000
560.188; 4566.325;  278.125;    0.000
560.316; 4636.325;  217.125;    0.000
560.444; 4591.325;  254.125;    0.000
560.572; 4648.325;  226.125;    0.000
560.700; 4812.325;  282.125;    0.000
560.828; 4683.325;  211.125;    0.000
560.956; 4744.325;  264.125;    0.000
561.085; 4654.325;  295.125;    0.000
561.212; 4678.325;  229.125;    0.000
561.340; 4704.325;  259.125;    0.000
561.468; 4784.325;  253.125;    0.000
561.596; 4692.325;  240.125;    0.000
561.724; 4739.325;  259.125;    0.000
561.852; 4743.325;  224.125;    0.000
561.980; 4836.325;  251.125;    0.000
562.108; 4794.325;  214.125;    0.000
562.236; 4886.325;  258.125;    0.000
562.364; 4838.325;  237.125;    0.000
562.492; 4816.325;  228.125;    0.000
562.619; 4788.325;  223.125;    0.000
562.747; 4855.325;  263.125;    0.000
562.875; 4875.325;  257.125;    0.000
563.003; 4879.325;  216.125;    0.000
563.130; 4948.325;  190.125;    0.000
563.258; 4992.325;  225.125;    0.000
563.386; 5142.325;  259.125;    0.000
563.514; 5116.325;  264.125;    0.000
563.641; 5268.325;  230.125;    0.000
563.769; 5204.325;  257.125;    0.000
563.897; 5234.325;  210.125;    0.000
564.024; 5353.325;  221.125;    0.000
564.152; 5428.325;  256.125;    0.000
564.280; 5434.325;  225.125;    0.000
564.407; 5442.325;  262.125;    0.000
564.535; 5471.325;  235.125;    0.000
564.662; 5475.325;  238.125;    0.000
564.790; 5508.325;  248.125;    0.000
564.917; 5545.325;  214.125;    0.000
565.045; 5593.325;  253.125;    0.000
565.173; 5602.325;  225.125;    0.000
565.300; 5502.325;  261.125;    0.000
565.428; 5718.325;  218.125;    0.000
565.555; 5685.325;  245.125;    0.000
565.682; 5823.325;  242.125;    0.000
565.810; 5967.325;  228.125;    0.000
565.937; 6051.325;  230.125;    0.000
566.065; 6219.325;  251.125;    0.000
566.192; 6285.325;  196.125;    0.000
566.320; 6388.325;  217.125;    0.000
566.447; 6488.325;  224.125;    0.000
566.574; 6626.325;  221.125;    0.000
566.702; 6666.325;  221.125;    0.000
566.829; 6685.325;  252.125;    0.000
566.956; 6640.325;  214.125;    0.000
567.083; 6952.325;  204.125;    0.000
567.211; 6883.325;  216.125;    0.000
567.338; 6927.325;  228.125;    0.000
567.465; 6877.325;  208.125;    0.000
567.593; 7030.325;  205.125;    0.000
567.720; 7182.325;  194.125;    0.000
567.847; 6982.325;  268.125;    0.000
567.974; 7114.325;  198.125;    0.000
568.101; 7211.325;  224.125;    0.000
568.228; 7867.325;  236.125;    0.000
568.356; 8015.325;  207.125;    0.000
568.483; 7717.325;  220.125;    0.000
568.610; 7485.325;  181.125;    0.000
568.737; 8162.325;  216.125;    0.000
568.864; 8944.325;  258.125;    0.000
568.991; 8478.325;  203.125;    0.000
569.118; 7691.325;  232.125;    0.000
569.245; 7023.325;  192.125;    0.000
569.372; 6751.325;  226.125;    0.000
569.499; 6438.325;  211.125;    0.000
569.626; 6329.325;  247.125;    0.000
569.753; 6102.325;  248.125;    0.000
569.880; 6034.325;  226.125;    0.000
570.007; 5882.325;  215.125;    0.000
570.134; 5775.325;  205.125;    0.000
570.261; 5705.325;  187.125;    0.000
570.388; 5789.325;  258.125;    0.000
570.515; 5673.325;  241.125;    0.000
570.642; 5535.325;  211.125;    0.000
570.768; 5576.325;  228.125;    0.000
570.895; 5525.325;  229.125;    0.000
571.022; 5541.325;  203.125;    0.000
571.149; 5529.325;  206.125;    0.000
571.276; 5382.325;  191.125;    0.000
571.402; 5406.325;  218.125;    0.000
571.529; 5353.325;  192.125;    0.000
571.656; 5321.325;  209.125;    0.000
571.783; 5111.325;  181.125;    0.000
571.909; 5305.325;  251.125;    0.000
572.036; 5019.325;  225.125;    0.000
572.163; 5073.325;  214.125;    0.000
572.289; 5069.325;  252.125;    0.000
572.416; 5062.325;  220.125;    0.000
572.543; 4993.325;  225.125;    0.000
572.669; 4868.325;  226.125;    0.000
572.796; 5007.325;  231.125;    0.000
572.922; 5069.325;  258.125;    0.000
573.049; 4879.325;  202.125;    0.000
573.176; 4955.325;  254.125;    0.000
573.302; 4914.325;  215.125;    0.000
573.429; 4834.325;  251.125;    0.000
573.555; 4897.325;  221.125;    0.000
573.682; 4752.325;  227.125;    0.000
573.808; 4822.325;  259.125;    0.000
573.935; 4805.325;  233.125;    0.000
574.061; 4727.325;  241.125;    0.000
574.188; 4755.325;  238.125;    0.000
574.314; 4744.325;  221.125;    0.000
574.440; 4779.325;  221.125;    0.000
574.567; 4805.325;  216.125;    0.000
574.693; 4852.325;  224.125;    0.000
574.820; 4814.325;  199.125;    0.000
574.946; 4722.325;  248.125;    0.000
575.072; 4744.325;  220.125;    0.000
575.198; 4757.325;  262.125;    0.000
575.325; 4748.325;  232.125;    0.000
575.451; 4773.325;  225.125;    0.000
575.577; 4673.325;  216.125;    0.000
575.704; 4724.325;  248.125;    0.000
575.830; 4763.325;  227.125;    0.000
575.956; 4748.325;  206.125;    0.000
576.082; 4643.325;  222.125;    0.000
576.208; 4697.325;  206.125;    0.000
576.335; 4726.325;  256.125;    0.000
576.461; 4662.325;  247.125;    0.000
576.587; 4636.325;  219.125;    0.000
576.713; 4632.325;  215.125;    0.000
576.839; 4699.325;  225.125;    0.000
576.965; 4713.325;  230.125;    0.000
577.091; 4637.325;  235.125;    0.000
577.217; 4672.325;  235.125;    0.000
577.343; 4722.325;  233.125;    0.000
577.469; 4784.325;  242.125;    0.000
577.596; 4605.325;  241.125;    0.000
577.722; 4623.325;  255.125;    0.000
577.848; 4700.325;  235.125;    0.000
577.974; 4759.325;  210.125;    0.000
578.099; 4574.325;  239.125;    0.000
578.225; 4813.325;  258.125;    0.000
578.351; 4664.325;  209.125;    0.000
578.477; 4652.325;  255.125;    0.000
578.603; 4762.325;  213.125;    0.000
578.729; 4677.325;  221.125;    0.000
578.855; 4647.325;  209.125;    0.000
578.981; 4726.325;  206.125;    0.000
579.107; 4786.325;  221.125;    0.000
579.232; 4617.325;  206.125;    0.000
579.358; 4669.325;  226.125;    0.000
579.484; 4706.325;  244.125;    0.000
579.610; 4797.325;  261.125;    0.000
579.735; 4717.325;  270.125;    0.000
579.861; 4793.325;  255.125;    0.000
579.987; 4795.325;  249.125;    0.000
580.113; 4711.325;  260.125;    0.000
580.238; 4729.325;  206.125;    0.000
580.364; 4801.325;  249.125;    0.000
580.490; 4737.325;  225.125;    0.000
580.615; 4836.325;  266.125;    0.000
580.741; 4798.325;  224.125;    0.000
580.867; 4753.325;  251.125;    0.000
580.992; 4813.325;  270.125;    0.000
581.118; 4911.325;  248.125;    0.000
581.243; 4854.325;  251.125;    0.000
581.369; 4827.325;  192.125;    0.000
581.494; 4865.325;  259.125;    0.000
581.620; 4863.325;  245.125;    0.000
581.745; 4972.325;  232.125;    0.000
581.871; 4895.325;  243.125;    0.000
581.996; 4894.325;  216.125;    0.000
582.122; 4923.325;  263.125;    0.000
582.247; 5040.325;  254.125;    0.000
582.373; 5004.325;  232.125;    0.000
582.498; 5028.325;  275.125;    0.000
582.624; 4987.325;  260.125;    0.000
582.749; 4994.325;  251.125;    0.000
582.874; 5066.325;  245.125;    0.000
583.000; 5068.325;  278.125;    0.000
583.125; 5150.325;  211.125;    0.000
583.250; 5170.325;  246.125;    0.000
583.376; 5285.325;  259.125;    0.000
583.501; 5295.325;  254.125;    0.000
583.626; 5320.325;  209.125;    0.000
583.751; 5305.325;  239.125;    0.000
583.877; 5393.325;  255.125;    0.000
584.002; 5563.325;  263.125;    0.000
584.127; 5458.325;  205.125;    0.000
584.252; 5618.325;  196.125;    0.000
584.377; 5589.325;  249.125;    0.000
584.503; 5519.325;  219.125;    0.000
584.628; 5702.325;  243.125;    0.000
584.753; 5857.325;  250.125;    0.000
584.878; 5939.325;  208.125;    0.000
585.003; 6019.325;  234.125;    0.000
585.128; 6022.325;  207.125;    0.000
585.253; 6183.325;  219.125;    0.000
585.378; 6231.325;  205.125;    0.000
585.503; 6174.325;  256.125;    0.000
585.628; 6374.325;  217.125;    0.000
585.753; 6475.325;  213.125;    0.000
585.878; 6588.325;  147.125;    0.000
586.003; 6720.325;  256.125;    0.000
586.128; 6865.325;  214.125;    0.000
586.253; 7141.325;  254.125;    0.000
586.378; 7142.325;  252.125;    0.000
586.503; 7396.325;  219.125;    0.000
586.628; 7670.325;  226.125;    0.000
586.753; 7787.325;  237.125;    0.000
586.878; 8183.325;  185.125;    0.000
587.003; 8435.325;  248.125;    0.000
587.127; 8894.325;  237.125;    0.000
587.252; 9161.325;  221.125;    0.000
587.377; 9580.325;  244.125;    0.000
587.502;10004.325;  260.125;    0.000
587.627;10648.325;  232.125;    0.000
587.751;11417.325;  250.125;    0.000
587.876;12327.325;  234.125;    0.000
588.001;13268.325;  248.125;    0.000
588.125;14572.325;  236.125;    0.000
588.250;16296.325;  192.125;    0.000
588.375;18449.324;  265.125;    0.000
588.499;21412.324;  235.125;    0.000
588.624;25802.324;  212.125;    0.000
588.749;31866.324;  214.125;    0.000
588.873;40346.324;  236.125;    0.000
588.998;47825.324;  230.125;    0.000
589.122;48406.324;  231.125;    0.000
589.247;42949.324;  250.125;    0.000
589.372;39867.324;  247.125;    0.000
589.496;41817.324;  230.125;    0.000
589.621;45507.324;  237.125;    0.000
589.745;41713.324;  277.125;    0.000
589.870;34177.324;  283.125;    0.000
589.994;27682.324;  263.125;    0.000
590.118;23163.324;  239.125;    0.000
590.243;20062.324;  218.125;    0.000
590.367;17881.324;  226.125;    0.000
590.492;15985.325;  269.125;    0.000
590.616;14819.325;  205.125;    0.000
590.740;13636.325;  243.125;    0.000
590.865;12709.325;  281.125;    0.000
590.989;11919.325;  233.125;    0.000
591.114;11097.325;  222.125;    0.000
591.238;10620.325;  204.125;    0.000
591.362;10194.325;  283.125;    0.000
591.486; 9715.325;  236.125;    0.000
591.611; 9286.325;  228.125;    0.000
591.735; 9159.325;  249.125;    0.000
591.859; 8804.325;  202.125;    0.000
591.983; 8719.325;  257.125;    0.000
592.107; 8410.325;  230.125;    0.000
592.232; 8295.325;  266.125;    0.000
592.356; 8054.325;  232.125;    0.000
592.480; 7942.325;  245.125;    0.000
592.604; 7784.325;  254.125;    0.000
592.728; 7581.325;  233.125;    0.000
592.852; 7498.325;  213.125;    0.000
592.976; 7339.325;  234.125;    0.000
593.100; 7207.325;  246.125;    0.000
593.224; 7126.325;  305.125;    0.000
593.349; 7137.325;  240.125;    0.000
593.473; 7009.325;  206.125;    0.000
593.597; 7064.325;  243.125;    0.000
593.721; 6784.325;  247.125;    0.000
593.844; 6753.325;  230.125;    0.000
593.968; 6701.325;  226.125;    0.000
594.092; 6629.325;  193.125;    0.000
594.216; 6558.325;  237.125;    0.000
594.340; 6442.325;  235.125;    0.000
594.464; 6233.325;  225.125;    0.000
594.588; 6311.325;  269.125;    0.000
594.712; 6161.325;  242.125;    0.000
594.836; 6001.325;  240.125;    0.000
594.959; 5999.325;  255.125;    0.000
595.083; 5813.325;  258.125;    0.000
595.207; 5828.325;  264.125;    0.000
595.331; 5759.325;  215.125;    0.000
595.455; 5639.325;  234.125;    0.000
595.578; 5616.325;  215.125;    0.000
595.702; 5599.325;  259.125;    0.000
595.826; 5506.325;  232.125;    0.000
595.949; 5228.325;  251.125;    0.000
596.073; 5342.325;  197.125;    0.000
596.197; 5330.325;  239.125;    0.000
596.320; 5342.325;  229.125;    0.000
596.444; 5213.325;  264.125;    0.000
596.568; 5092.325;  207.125;    0.000
596.691; 5181.325;  234.125;    0.000
596.815; 5113.325;  241.125;    0.000
596.938; 5023.325;  244.125;    0.000
597.062; 5071.325;  210.125;    0.000
597.186; 5016.325;  247.125;    0.000
597.309; 4949.325;  215.125;    0.000
597.433; 4887.325;  266.125;    0.000
597.556; 4896.325;  234.125;    0.000
597.680; 4844.325;  261.125;    0.000
597.803; 4840.325;  239.125;    0.000
597.926; 4849.325;  251.125;    0.000
598.050; 4756.325;  227.125;    0.000
598.173; 4718.325;  247.125;    0.000
598.297; 4868.325;  244.125;    0.000
598.420; 4636.325;  243.125;    0.000
598.543; 4729.325;  237.125;    0.000
598.667; 4568.325;  239.125;    0.000
598.790; 4657.325;  217.125;    0.000
598.913; 4612.325;  244.125;    0.000
599.037; 4550.325;  249.125;    0.000
599.160; 4555.325;  222.125;    0.000
599.283; 4638.325;  235.125;    0.000
599.406; 4443.325;  228.125;    0.000
599.530; 4632.325;  234.125;    0.000
599.653; 4479.325;  228.125;    0.000
599.776; 4490.325;  263.125;    0.000
599.899; 4521.325;  197.125;    0.000
600.022; 4510.325;  224.125;    0.000
600.145; 4404.325;  211.125;    0.000
600.269; 4448.325;  246.125;    0.000
600.392; 4429.325;  233.125;    0.000
600.515; 4423.325;  266.125;    0.000
600.638; 4365.325;  246.125;    0.000
600.761; 4288.325;  213.125;    0.000
600.884; 4334.325;  279.125;    0.000
601.007; 4353.325;  268.125;    0.000
601.130; 4360.325;  203.125;    0.000
601.253; 4355.325;  241.125;    0.000
601.376; 4288.325;  248.125;    0.000
601.499; 4237.325;  241.125;    0.000
601.622; 4313.325;  266.125;    0.000
601.745; 4234.325;  237.125;    0.000
601.868; 4198.325;  256.125;    0.000
601.991; 4326.325;  260.125;    0.000
602.113; 4285.325;  246.125;    0.000
602.236; 4279.325;  243.125;    0.000
602.359; 4185.325;  220.125;    0.000
602.482; 4249.325;  236.125;    0.000
602.605; 4245.325;  216.125;    0.000
602.728; 4177.325;  247.125;    0.000
602.850; 4230.325;  255.125;    0.000
602.973; 4165.325;  224.125;    0.000
603.096; 4143.325;  258.125;    0.000
603.219; 4307.325;  222.125;    0.000
603.341; 4109.325;  235.125;    0.000
603.464; 4065.325;  223.125;    0.000
603.587; 4165.325;  250.125;    0.000
603.709; 4040.325;  229.125;    0.000
603.832; 4140.325;  285.125;    0.000
603.955; 4133.325;  225.125;    0.000
604.077; 4141.325;  235.125;    0.000
604.200; 4181.325;  209.125;    0.000
604.323; 4138.325;  240.125;    0.000
604.445; 4046.325;  198.125;    0.000
604.568; 4047.325;  230.125;    0.000
604.690; 4183.325;  225.125;    0.000
604.813; 4147.325;  248.125;    0.000
604.935; 4021.325;  204.125;    0.000
605.058; 4127.325;  191.125;    0.000
605.180; 4084.325;  237.125;    0.000
605.303; 4122.325;  224.125;    0.000
605.425; 4100.325;  244.125;    0.000
605.547; 4095.325;  268.125;    0.000
605.670; 4048.325;  211.125;    0.000
605.792; 3862.325;  266.125;    0.000
605.915; 3989.325;  202.125;    0.000
606.037; 4040.325;  236.125;    0.000
606.159; 4106.325;  234.125;    0.000
606.282; 4002.325;  223.125;    0.000
606.404; 4013.325;  217.125;    0.000
606.526; 4069.325;  221.125;    0.000
606.648; 4072.325;  204.125;    0.000
606.771; 3917.325;  265.125;    0.000
606.893; 4009.325;  211.125;    0.000
607.015; 3975.325;  206.125;    0.000
607.137; 4007.325;  222.125;    0.000
607.260; 3938.325;  228.125;    0.000
607.382; 4013.325;  202.125;    0.000
607.504; 3913.325;  257.125;    0.000
607.626; 4082.325;  249.125;    0.000
607.748; 3984.325;  233.125;    0.000
607.870; 3959.325;  222.125;    0.000
607.992; 3887.325;  227.125;    0.000
608.114; 3935.325;  228.125;    0.000
608.237; 3987.325;  254.125;    0.000
608.359; 3930.325;  216.125;    0.000
608.481; 3850.325;  197.125;    0.000
608.603; 3858.325;  209.125;    0.000
608.725; 3964.325;  220.125;    0.000
608.847; 3964.325;  259.125;    0.000
608.969; 3919.325;  242.125;    0.000
609.090; 3869.325;  218.125;    0.000
609.212; 3915.325;  200.125;    0.000
609.334; 3902.325;  212.125;    0.000
609.456; 3916.325;  231.125;    0.000
609.578; 3928.325;  249.125;    0.000
609.700; 3875.325;  185.125;    0.000
609.822; 3910.325;  200.125;    0.000
609.944; 3963.325;  236.125;    0.000
610.065; 3862.325;  255.125;    0.000
610.187; 3826.325;  208.125;    0.000
610.309; 3876.325;  202.125;    0.000
610.431; 3881.325;  232.125;    0.000
610.552; 3762.325;  232.125;    0.000
610.674; 3929.325;  217.125;    0.000
610.796; 3895.325;  186.125;    0.000
610.918; 3892.325;  211.125;    0.000
611.039; 3749.325;  244.125;    0.000
611.161; 3893.325;  202.125;    0.000
611.282; 3893.325;  212.125;    0.000
611.404; 3826.325;  235.125;    0.000
611.526; 3882.325;  213.125;    0.000
611.647; 3833.325;  248.125;    0.000
611.769; 3833.325;  205.125;    0.000
611.890; 3775.325;  224.125;    0.000
612.012; 3817.325;  189.125;    0.000
612.133; 3785.325;  186.125;    0.000
612.255; 3795.325;  246.125;    0.000
612.377; 3733.325;  230.125;    0.000
612.498; 3782.325;  196.125;    0.000
612.619; 3839.325;  234.125;    0.000
612.741; 3973.325;  221.125;    0.000
612.862; 3764.325;  227.125;    0.000
612.984; 3795.325;  189.125;    0.000
613.105; 3711.325;  232.125;    0.000
613.226; 3740.325;  199.125;    0.000
613.348; 3789.325;  260.125;    0.000
613.469; 3866.325;  217.125;    0.000
613.590; 3762.325;  236.125;    0.000
613.712; 3796.325;  226.125;    0.000
613.833; 3854.325;  231.125;    0.000
613.954; 3737.325;  236.125;    0.000
614.076; 3871.325;  236.125;    0.000
614.197; 3771.325;  228.125;    0.000
614.318; 3688.325;  207.125;    0.000
614.439; 3759.325;  237.125;    0.000
614.560; 3793.325;  202.125;    0.000
614.682; 3880.325;  230.125;    0.000
614.803; 3772.325;  236.125;    0.000
614.924; 3828.325;  257.125;    0.000
615.045; 3824.325;  228.125;    0.000
615.166; 3759.325;  221.125;    0.000
615.287; 3948.325;  199.125;    0.000
615.408; 4236.325;  228.125;    0.000
615.529; 4330.325;  200.125;    0.000
615.650; 4112.325;  224.125;    0.000
615.771; 4158.325;  202.125;    0.000
615.892; 4076.325;  215.125;    0.000
616.013; 4550.325;  246.125;    0.000
616.134; 4901.325;  210.125;    0.000
616.255; 4578.325;  232.125;    0.000
616.376; 4365.325;  241.125;    0.000
616.497; 4076.325;  213.125;    0.000
616.618; 3895.325;  171.125;    0.000
616.739; 4083.325;  221.125;    0.000
616.860; 4033.325;  244.125;    0.000
616.981; 3961.325;  240.125;    0.000
617.102; 3900.325;  234.125;    0.000
617.222; 3942.325;  265.125;    0.000
617.343; 3792.325;  206.125;    0.000
617.464; 3843.325;  246.125;    0.000
617.585; 3853.325;  256.125;    0.000
617.705; 3860.325;  249.125;    0.000
617.826; 3827.325;  218.125;    0.000
617.947; 3728.325;  225.125;    0.000
618.068; 3728.325;  199.125;    0.000
618.188; 3861.325;  202.125;    0.000
618.309; 3768.325;  220.125;    0.000
618.430; 3770.325;  229.125;    0.000
618.550; 3814.325;  252.125;    0.000
618.671; 3734.325;  233.125;    0.000
618.791; 3751.325;  227.125;    0.000
618.912; 3866.325;  236.125;    0.000
619.033; 3683.325;  220.125;    0.000
619.153; 3789.325;  228.125;    0.000
619.274; 3625.325;  208.125;    0.000
619.394; 3726.325;  255.125;    0.000
619.515; 3701.325;  206.125;    0.000
619.635; 3654.325;  204.125;    0.000
619.756; 3715.325;  252.125;    0.000
619.876; 3691.325;  238.125;    0.000
619.996; 3817.325;  249.125;    0.000
620.117; 3699.325;  223.125;    0.000
620.237; 3591.325;  210.125;    0.000
620.358; 3624.325;  264.125;    0.000
620.478; 3640.325;  263.125;    0.000
620.598; 3765.325;  238.125;    0.000
620.719; 3688.325;  225.125;    0.000
620.839; 3666.325;  259.125;    0.000
620.959; 3600.325;  218.125;    0.000
621.079; 3730.325;  253.125;    0.000
621.200; 3579.325;  245.125;    0.000
621.320; 3794.325;  254.125;    0.000
621.440; 3661.325;  233.125;    0.000
621.560; 3652.325;  235.125;    0.000
621.681; 3649.325;  234.125;    0.000
621.801; 3614.325;  240.125;    0.000
621.921; 3543.325;  239.125;    0.000
622.041; 3681.325;  288.125;    0.000
622.161; 3600.325;  229.125;    0.000
622.281; 3603.325;  223.125;    0.000
622.401; 3597.325;  240.125;    0.000
622.521; 3678.325;  267.125;    0.000
622.641; 3623.325;  226.125;    0.000
622.761; 3572.325;  252.125;    0.000
622.882; 3616.325;  207.125;    0.000
623.002; 3509.325;  226.125;    0.000
623.121; 3587.325;  207.125;    0.000
623.241; 3682.325;  215.125;    0.000
623.361; 3560.325;  222.125;    0.000
623.481; 3518.325;  187.125;    0.000
623.601; 3581.325;  283.125;    0.000
623.721; 3626.325;  283.125;    0.000
623.841; 3537.325;  233.125;    0.000
623.961; 3622.325;  215.125;    0.000
624.081; 3467.325;  219.125;    0.000
624.201; 3635.325;  221.125;    0.000
624.320; 3471.325;  215.125;    0.000
624.440; 3479.325;  222.125;    0.000
624.560; 3531.325;  231.125;    0.000
624.680; 3516.325;  225.125;    0.000
624.799; 3502.325;  230.125;    0.000
624.919; 3460.325;  243.125;    0.000
625.039; 3444.325;  203.125;    0.000
625.159; 3494.325;  257.125;    0.000
625.278; 3504.325;  230.125;    0.000
625.398; 3517.325;  195.125;    0.000
625.518; 3478.325;  211.125;    0.000
625.637; 3418.325;  267.125;    0.000
625.757; 3527.325;  228.125;    0.000
625.876; 3426.325;  231.125;    0.000
625.996; 3481.325;  219.125;    0.000
626.115; 3457.325;  235.125;    0.000
626.235; 3559.325;  199.125;    0.000
626.354; 3534.325;  226.125;    0.000
626.474; 3443.325;  225.125;    0.000
626.594; 3379.325;  223.125;    0.000
626.713; 3425.325;  231.125;    0.000
626.832; 3398.325;  287.125;    0.000
626.952; 3397.325;  251.125;    0.000
627.071; 3444.325;  254.125;    0.000
627.191; 3460.325;  193.125;    0.000
627.310; 3375.325;  213.125;    0.000
627.429; 3449.325;  259.125;    0.000
627.549; 3411.325;  243.125;    0.000
627.668; 3316.325;  181.125;    0.000
627.787; 3384.325;  232.125;    0.000
627.907; 3292.325;  222.125;    0.000
628.026; 3369.325;  219.125;    0.000
628.145; 3460.325;  201.125;    0.000
628.264; 3402.325;  198.125;    0.000
628.384; 3426.325;  208.125;    0.000
628.503; 3460.325;  251.125;    0.000
628.622; 3483.325;  195.125;    0.000
628.741; 3518.325;  180.125;    0.000
628.860; 3369.325;  235.125;    0.000
628.980; 3447.325;  222.125;    0.000
629.099; 3442.325;  237.125;    0.000
629.218; 3404.325;  175.125;    0.000
629.337; 3375.325;  194.125;    0.000
629.456; 3381.325;  225.125;    0.000
629.575; 3422.325;  239.125;    0.000
629.694; 3413.325;  230.125;    0.000
629.813; 3406.325;  197.125;    0.000
629.932; 3270.325;  225.125;    0.000
630.051; 3417.325;  238.125;    0.000
630.170; 3291.325;  233.125;    0.000
630.289; 3319.325;  231.125;    0.000
630.408; 3329.325;  204.125;    0.000
630.527; 3323.325;  262.125;    0.000
630.646; 3341.325;  181.125;    0.000
630.764; 3276.325;  218.125;    0.000
630.883; 3302.325;  215.125;    0.000
631.002; 3367.325;  224.125;    0.000
631.121; 3328.325;  209.125;    0.000
631.240; 3321.325;  230.125;    0.000
631.359; 3428.325;  235.125;    0.000
631.477; 3393.325;  223.125;    0.000
631.596; 3356.325;  218.125;    0.000
631.715; 3360.325;  234.125;    0.000
631.834; 3297.325;  215.125;    0.000
631.952; 3388.325;  243.125;    0.000
632.071; 3383.325;  219.125;    0.000
632.190; 3370.325;  235.125;    0.000
632.308; 3354.325;  239.125;    0.000
632.427; 3303.325;  211.125;    0.000
632.546; 3348.325;  233.125;    0.000
632.664; 3284.325;  219.125;    0.000
632.783; 3285.325;  203.125;    0.000
632.901; 3297.325;  221.125;    0.000
633.020; 3316.325;  197.125;    0.000
633.138; 3236.325;  244.125;    0.000
633.257; 3362.325;  205.125;    0.000
633.375; 3265.325;  245.125;    0.000
633.494; 3269.325;  218.125;    0.000
633.612; 3270.325;  222.125;    0.000
633.731; 3280.325;  212.125;    0.000
633.849; 3319.325;  218.125;    0.000
633.968; 3267.325;  236.125;    0.000
634.086; 3341.325;  233.125;    0.000
634.204; 3213.325;  215.125;    0.000
634.323; 3364.325;  230.125;    0.000
634.441; 3220.325;  235.125;    0.000
634.559; 3292.325;  202.125;    0.000
634.678; 3211.325;  218.125;    0.000
634.796; 3219.325;  203.125;    0.000
634.914; 3294.325;  227.125;    0.000
635.032; 3284.325;  279.125;    0.000
635.151; 3222.325;  221.125;    0.000
635.269; 3314.325;  207.125;    0.000
635.387; 3202.325;  195.125;    0.000
635.505; 3265.325;  243.125;    0.000
635.623; 3184.325;  269.125;    0.000
635.742; 3289.325;  232.125;    0.000
635.860; 3311.325;  243.125;    0.000
635.978; 3229.325;  215.125;    0.000
636.096; 3233.325;  225.125;    0.000
636.214; 3276.325;  244.125;    0.000
636.332; 3241.325;  226.125;    0.000
636.450; 3270.325;  227.125;    0.000
636.568; 3313.325;  225.125;    0.000
636.686; 3125.325;  194.125;    0.000
636.804; 3186.325;  234.125;    0.000
636.922; 3183.325;  177.125;    0.000
637.040; 3205.325;  225.125;    0.000
637.158; 3257.325;  194.125;    0.000
637.276; 3255.325;  219.125;    0.000
637.394; 3243.325;  219.125;    0.000
637.512; 3186.325;  210.125;    0.000
637.629; 3195.325;  242.125;    0.000
637.747; 3125.325;  193.125;    0.000
637.865; 3224.325;  219.125;    0.000
637.983; 3262.325;  251.125;    0.000
638.101; 3171.325;  221.125;    0.000
638.218; 3194.325;  193.125;    0.000
638.336; 3147.325;  224.125;    0.000
638.454; 3186.325;  227.125;    0.000
638.572; 3265.325;  245.125;    0.000
638.689; 3124.325;  222.125;    0.000
638.807; 3271.325;  244.125;    0.000
638.925; 3304.325;  238.125;    0.000
639.042; 3131.325;  213.125;    0.000
639.160; 3169.325;  186.125;    0.000
639.278; 3012.325;  203.125;    0.000
639.395; 3220.325;  270.125;    0.000
639.513; 3162.325;  227.125;    0.000
639.630; 3212.325;  200.125;    0.000
639.748; 3115.325;  199.125;    0.000
639.865; 3192.325;  233.125;    0.000
639.983; 3218.325;  181.125;    0.000
640.100; 3219.325;  219.125;    0.000
640.218; 3188.325;  234.125;    0.000
640.335; 3150.325;  233.125;    0.000
640.453; 3214.325;  202.125;    0.000
640.570; 3189.325;  214.125;    0.000
640.688; 3182.325;  215.125;    0.000
640.805; 3098.325;  229.125;    0.000
640.922; 3165.325;  244.125;    0.000
641.040; 3169.325;  233.125;    0.000
641.157; 3139.325;  199.125;    0.000
641.274; 3219.325;  205.125;    0.000
641.391; 3261.325;  244.125;    0.000
641.509; 3249.325;  184.125;    0.000
641.626; 3147.325;  244.125;    0.000
641.743; 3106.325;  221.125;    0.000
641.860; 3136.325;  206.125;    0.000
641.978; 3187.325;  272.125;    0.000
642.095; 3155.325;  218.125;    0.000
642.212; 3096.325;  208.125;    0.000
642.329; 3211.325;  218.125;    0.000
642.446; 3126.325;  197.125;    0.000
642.563; 3226.325;  214.125;    0.000
642.681; 3132.325;  203.125;    0.000
642.798; 3116.325;  236.125;    0.000
642.915; 3168.325;  191.125;    0.000
643.032; 3217.325;  226.125;    0.000
643.149; 3145.325;  231.125;    0.000
643.266; 3096.325;  213.125;    0.000
643.383; 3320.325;  240.125;    0.000
643.500; 3136.325;  185.125;    0.000
643.617; 3087.325;  229.125;    0.000
643.734; 3181.325;  205.125;    0.000
643.850; 3302.325;  222.125;    0.000
643.967; 3276.325;  202.125;    0.000
644.084; 3298.325;  264.125;    0.000
644.201; 3232.325;  214.125;    0.000
644.318; 3179.325;  206.125;    0.000
644.435; 3253.325;  225.125;    0.000
644.552; 3140.325;  203.125;    0.000
644.668; 3281.325;  252.125;    0.000
644.785; 3144.325;  213.125;    0.000
644.902; 3216.325;  233.125;    0.000
645.019; 3301.325;  220.125;    0.000
645.135; 3230.325;  225.125;    0.000
645.252; 3119.325;  218.125;    0.000
645.369; 3202.325;  214.125;    0.000
645.485; 3210.325;  210.125;    0.000
645.602; 3269.325;  198.125;    0.000
645.719; 3209.325;  228.125;    0.000
645.835; 3276.325;  209.125;    0.000
645.952; 3269.325;  213.125;    0.000
646.068; 3373.325;  241.125;    0.000
646.185; 3283.325;  219.125;    0.000
646.302; 3289.325;  246.125;    0.000
646.418; 3342.325;  228.125;    0.000
646.535; 3347.325;  256.125;    0.000
646.651; 3403.325;  222.125;    0.000
646.768; 3246.325;  203.125;    0.000
646.884; 3327.325;  199.125;    0.000
647.000; 3327.325;  194.125;    0.000
647.117; 3348.325;  214.125;    0.000
647.233; 3298.325;  209.125;    0.000
647.350; 3437.325;  235.125;    0.000
647.466; 3444.325;  237.125;    0.000
647.582; 3384.325;  231.125;    0.000
647.699; 3430.325;  219.125;    0.000
647.815; 3395.325;  200.125;    0.000
647.931; 3451.325;  173.125;    0.000
648.047; 3392.325;  184.125;    0.000
648.164; 3554.325;  199.125;    0.000
648.280; 3475.325;  209.125;    0.000
648.396; 3486.325;  220.125;    0.000
648.512; 3500.325;  212.125;    0.000
648.629; 3428.325;  214.125;    0.000
648.745; 3403.325;  197.125;    0.000
648.861; 3524.325;  228.125;    0.000
648.977; 3395.325;  238.125;    0.000
649.093; 3484.325;  208.125;    0.000
649.209; 3510.325;  179.125;    0.000
649.325; 3604.325;  256.125;    0.000
649.441; 3544.325;  224.125;    0.000
649.557; 3500.325;  247.125;    0.000
649.673; 3614.325;  214.125;    0.000
649.789; 3481.325;  213.125;    0.000
649.905; 3454.325;  170.125;    0.000
650.021; 3588.325;  236.125;    0.000
650.137; 3590.325;  229.125;    0.000
650.253; 3507.325;  207.125;    0.000
650.369; 3647.325;  198.125;    0.000
650.485; 3443.325;  225.125;    0.000
650.601; 3630.325;  260.125;    0.000
650.717; 3565.325;  196.125;    0.000
650.833; 3668.325;  219.125;    0.000
650.948; 3662.325;  203.125;    0.000
651.064; 3666.325;  232.125;    0.000
651.180; 3615.325;  252.125;    0.000
651.296; 3641.325;  190.125;    0.000
651.411; 3756.325;  235.125;    0.000
651.527; 3687.325;  227.125;    0.000
651.643; 3803.325;  238.125;    0.000
651.759; 3726.325;  260.125;    0.000
651.874; 3823.325;  217.125;    0.000
651.990; 3812.325;  239.125;    0.000
652.105; 3858.325;  215.125;    0.000
652.221; 3894.325;  237.125;    0.000
652.337; 3945.325;  238.125;    0.000
652.452; 3918.325;  230.125;    0.000
652.568; 3930.325;  201.125;    0.000
652.683; 3995.325;  243.125;    0.000
652.799; 3929.325;  218.125;    0.000
652.914; 3987.325;  189.125;    0.000
653.030; 3985.325;  191.125;    0.000
653.145; 4057.325;  240.125;    0.000
653.261; 4122.325;  225.125;    0.000
653.376; 4127.325;  241.125;    0.000
653.492; 4176.325;  188.125;    0.000
653.607; 4179.325;  219.125;    0.000
653.722; 4283.325;  268.125;    0.000
653.838; 4423.325;  262.125;    0.000
653.953; 4450.325;  188.125;    0.000
654.068; 4536.325;  244.125;    0.000
654.184; 4638.325;  247.125;    0.000
654.299; 4630.325;  228.125;    0.000
654.414; 4664.325;  181.125;    0.000
654.530; 4687.325;  210.125;    0.000
654.645; 4956.325;  240.125;    0.000
654.760; 4941.325;  219.125;    0.000
654.875; 5045.325;  178.125;    0.000
654.990; 5264.325;  222.125;    0.000
655.106; 5212.325;  227.125;    0.000
655.221; 5474.325;  270.125;    0.000
655.336; 5651.325;  199.125;    0.000
655.451; 5805.325;  235.125;    0.000
655.566; 5798.325;  251.125;    0.000
655.681; 6184.325;  253.125;    0.000
655.796; 6365.325;  207.125;    0.000
655.911; 6646.325;  213.125;    0.000
656.026; 6917.325;  247.125;    0.000
656.141; 7205.325;  209.125;    0.000
656.256; 7476.325;  226.125;    0.000
656.371; 7635.325;  201.125;    0.000
656.486; 7577.325;  196.125;    0.000
656.601; 7327.325;  239.125;    0.000
656.716; 7041.325;  234.125;    0.000
656.831; 6920.325;  223.125;    0.000
656.946; 6716.325;  246.125;    0.000
657.060; 6525.325;  230.125;    0.000
657.175; 6330.325;  207.125;    0.000
657.290; 6313.325;  213.125;    0.000
657.405; 6058.325;  319.125;    0.000
657.520; 5932.325;  241.125;    0.000
657.634; 5937.325;  235.125;    0.000
657.749; 5783.325;  275.125;    0.000
657.864; 5579.325;  210.125;    0.000
657.979; 5489.325;  227.125;    0.000
658.093; 5432.325;  206.125;    0.000
658.208; 5239.325;  217.125;    0.000
658.323; 5088.325;  227.125;    0.000
658.437; 5032.325;  217.125;    0.000
658.552; 5017.325;  237.125;    0.000
658.666; 4976.325;  233.125;    0.000
658.781; 4866.325;  248.125;    0.000
658.895; 4678.325;  233.125;    0.000
659.010; 4700.325;  238.125;    0.000
659.125; 4615.325;  206.125;    0.000
659.239; 4578.325;  220.125;    0.000
659.353; 4517.325;  236.125;    0.000
659.468; 4459.325;  238.125;    0.000
659.582; 4464.325;  275.125;    0.000
659.697; 4366.325;  239.125;    0.000
659.811; 4209.325;  232.125;    0.000
659.926; 4247.325;  230.125;    0.000
660.040; 4262.325;  257.125;    0.000
660.154; 4212.325;  221.125;    0.000
660.269; 4129.325;  219.125;    0.000
660.383; 4119.325;  228.125;    0.000
660.497; 4080.325;  243.125;    0.000
660.612; 4043.325;  238.125;    0.000
660.726; 4036.325;  260.125;    0.000
660.840; 4017.325;  239.125;    0.000
660.954; 3880.325;  236.125;    0.000
661.068; 3938.325;  239.125;    0.000
661.183; 3820.325;  245.125;    0.000
661.297; 3782.325;  198.125;    0.000
661.411; 3811.325;  203.125;    0.000
661.525; 3788.325;  244.125;    0.000
661.639; 3693.325;  229.125;    0.000
661.753; 3680.325;  238.125;    0.000
661.867; 3713.325;  237.125;    0.000
661.981; 3704.325;  219.125;    0.000
662.095; 3638.325;  232.125;    0.000
662.209; 3507.325;  236.125;    0.000
662.323; 3526.325;  209.125;    0.000
662.437; 3399.325;  206.125;    0.000
662.551; 3520.325;  217.125;    0.000
662.665; 3413.325;  262.125;    0.000
662.779; 3482.325;  234.125;    0.000
662.893; 3401.325;  222.125;    0.000
663.007; 3356.325;  189.125;    0.000
663.121; 3362.325;  258.125;    0.000
663.235; 3299.325;  191.125;    0.000
663.349; 3273.325;  259.125;    0.000
663.462; 3279.325;  209.125;    0.000
663.576; 3246.325;  244.125;    0.000
663.690; 3265.325;  237.125;    0.000
663.804; 3194.325;  205.125;    0.000
663.917; 3253.325;  207.125;    0.000
664.031; 3104.325;  234.125;    0.000
664.145; 3179.325;  216.125;    0.000
664.258; 3175.325;  202.125;    0.000
664.372; 3013.325;  198.125;    0.000
664.486; 3065.325;  181.125;    0.000
664.599; 3050.325;  229.125;    0.000
664.713; 3130.325;  266.125;    0.000
664.827; 3082.325;  185.125;    0.000
664.940; 3105.325;  225.125;    0.000
665.054; 3071.325;  198.125;    0.000
665.167; 3007.325;  208.125;    0.000
665.281; 3017.325;  231.125;    0.000
665.394; 3005.325;  228.125;    0.000
665.508; 2917.325;  204.125;    0.000
665.621; 2980.325;  263.125;    0.000
665.735; 3086.325;  222.125;    0.000
665.848; 3037.325;  237.125;    0.000
665.961; 2881.325;  180.125;    0.000
666.075; 3005.325;  212.125;    0.000
666.188; 3000.325;  229.125;    0.000
666.301; 2953.325;  247.125;    0.000
666.415; 2955.325;  212.125;    0.000
666.528; 2873.325;  268.125;    0.000
666.641; 2861.325;  210.125;    0.000
666.755; 2942.325;  178.125;    0.000
666.868; 2865.325;  227.125;    0.000
666.981; 2882.325;  250.125;    0.000
667.094; 2901.325;  228.125;    0.000
667.207; 2795.325;  235.125;    0.000
667.321; 2795.325;  171.125;    0.000
667.434; 2727.325;  191.125;    0.000
667.547; 2809.325;  279.125;    0.000
667.660; 2881.325;  210.125;    0.000
667.773; 2876.325;  217.125;    0.000
667.886; 2770.325;  209.125;    0.000
667.999; 2726.325;  239.125;    0.000
668.112; 2689.325;  227.125;    0.000
668.225; 2751.325;  185.125;    0.000
668.338; 2776.325;  222.125;    0.000
668.451; 2725.325;  200.125;    0.000
668.564; 2771.325;  237.125;    0.000
668.677; 2793.325;  207.125;    0.000
668.790; 2736.325;  208.125;    0.000
668.903; 2678.325;  243.125;    0.000
669.016; 2605.325;  190.125;    0.000
669.129; 2608.325;  234.125;    0.000
669.242; 2581.325;  185.125;    0.000
669.354; 2596.325;  224.125;    0.000
669.467; 2619.325;  219.125;    0.000
669.580; 2639.325;  249.125;    0.000
669.693; 2598.325;  187.125;    0.000
669.806; 2681.325;  206.125;    0.000
669.918; 2634.325;  192.125;    0.000
670.031; 2594.325;  235.125;    0.000
670.144; 2530.325;  238.125;    0.000
670.256; 2555.325;  237.125;    0.000
670.369; 2579.325;  237.125;    0.000
670.482; 2583.325;  250.125;    0.000
670.594; 2621.325;  273.125;    0.000
670.707; 2645.325;  223.125;    0.000
670.820; 2526.325;  238.125;    0.000
670.932; 2592.325;  224.125;    0.000
671.045; 2676.325;  219.125;    0.000
671.157; 2553.325;  242.125;    0.000
671.270; 2517.325;  235.125;    0.000
671.382; 2529.325;  213.125;    0.000
671.495; 2568.325;  254.125;    0.000
671.607; 2468.325;  253.125;    0.000
671.720; 2555.325;  169.125;    0.000
671.832; 2481.325;  201.125;    0.000
671.944; 2579.325;  250.125;    0.000
672.057; 2502.325;  187.125;    0.000
672.169; 2494.325;  224.125;    0.000
672.281; 2522.325;  238.125;    0.000
672.394; 2481.325;  250.125;    0.000
672.506; 2504.325;  227.125;    0.000
672.618; 2607.325;  223.125;    0.000
672.731; 2489.325;  210.125;    0.000
672.843; 2469.325;  245.125;    0.000
672.955; 2517.325;  263.125;    0.000
673.067; 2506.325;  239.125;    0.000
673.180; 2538.325;  253.125;    0.000
673.292; 2473.325;  243.125;    0.000
673.404; 2489.325;  226.125;    0.000
673.516; 2429.325;  223.125;    0.000
673.628; 2475.325;  223.125;    0.000
673.740; 2457.325;  216.125;    0.000
673.852; 2497.325;  277.125;    0.000
673.964; 2505.325;  211.125;    0.000
674.076; 2453.325;  241.125;    0.000
674.188; 2426.325;  251.125;    0.000
674.300; 2477.325;  268.125;    0.000
674.412; 2411.325;  260.125;    0.000
674.524; 2477.325;  257.125;    0.000
674.636; 2447.325;  222.125;    0.000
674.748; 2513.325;  227.125;    0.000
674.860; 2463.325;  250.125;    0.000
674.972; 2450.325;  240.125;    0.000
675.084; 2429.325;  262.125;    0.000
675.196; 2408.325;  287.125;    0.000
675.307; 2461.325;  257.125;    0.000
675.419; 2418.325;  231.125;    0.000
675.531; 2503.325;  274.125;    0.000
675.643; 2427.325;  235.125;    0.000
675.755; 2424.325;  275.125;    0.000
675.866; 2427.325;  238.125;    0.000
675.978; 2395.325;  209.125;    0.000
676.090; 2302.325;  239.125;    0.000
676.201; 2404.325;  249.125;    0.000
676.313; 2344.325;  237.125;    0.000
676.425; 2346.325;  263.125;    0.000
676.536; 2388.325;  178.125;    0.000
676.648; 2379.325;  245.125;    0.000
676.759; 2404.325;  244.125;    0.000
676.871; 2382.325;  242.125;    0.000
676.983; 2339.325;  245.125;    0.000
677.094; 2350.325;  209.125;    0.000
677.206; 2426.325;  248.125;    0.000
677.317; 2282.325;  260.125;    0.000
677.429; 2341.325;  237.125;    0.000
677.540; 2340.325;  226.125;    0.000
677.651; 2367.325;  226.125;    0.000
677.763; 2235.325;  194.125;    0.000
677.874; 2363.325;  230.125;    0.000
677.986; 2311.325;  202.125;    0.000
678.097; 2238.325;  229.125;    0.000
678.208; 2338.325;  263.125;    0.000
678.320; 2276.325;  243.125;    0.000
678.431; 2276.325;  229.125;    0.000
678.542; 2334.325;  231.125;    0.000
678.653; 2347.325;  224.125;    0.000
678.765; 2275.325;  255.125;    0.000
678.876; 2276.325;  175.125;    0.000
678.987; 2288.325;  204.125;    0.000
679.098; 2191.325;  227.125;    0.000
679.209; 2262.325;  228.125;    0.000
679.320; 2226.325;  223.125;    0.000
679.432; 2304.325;  219.125;    0.000
679.543; 2206.325;  210.125;    0.000
679.654; 2236.325;  249.125;    0.000
679.765; 2201.325;  222.125;    0.000
679.876; 2251.325;  219.125;    0.000
679.987; 2190.325;  213.125;    0.000
680.098; 2265.325;  237.125;    0.000
680.209; 2190.325;  188.125;    0.000
680.320; 2199.325;  243.125;    0.000
680.431; 2220.325;  227.125;    0.000
680.542; 2269.325;  212.125;    0.000
680.653; 2309.325;  266.125;    0.000
680.763; 2231.325;  198.125;    0.000
680.874; 2258.325;  211.125;    0.000
680.985; 2228.325;  207.125;    0.000
681.096; 2203.325;  244.125;    0.000
681.207; 2263.325;  209.125;    0.000
681.318; 2142.325;  215.125;    0.000
681.428; 2187.325;  199.125;    0.000
681.539; 2224.325;  175.125;    0.000
681.650; 2218.325;  224.125;    0.000
681.760; 2278.325;  216.125;    0.000
681.871; 2183.325;  187.125;    0.000
681.982; 2188.325;  237.125;    0.000
682.093; 2186.325;  213.125;    0.000
682.203; 2241.325;  190.125;    0.000
682.314; 2193.325;  230.125;    0.000
682.424; 2174.325;  223.125;    0.000
682.535; 2244.325;  172.125;    0.000
682.646; 2253.325;  268.125;    0.000
682.756; 2273.325;  249.125;    0.000
682.867; 2221.325;  225.125;    0.000
682.977; 2275.325;  211.125;    0.000
683.088; 2250.325;  238.125;    0.000
683.198; 2139.325;  202.125;    0.000
683.308; 2167.325;  196.125;    0.000
683.419; 2245.325;  230.125;    0.000
683.529; 2192.325;  213.125;    0.000
683.640; 2233.325;  225.125;    0.000
683.750; 2102.325;  203.125;    0.000
683.860; 2232.325;  200.125;    0.000
683.971; 2187.325;  269.125;    0.000
684.081; 2172.325;  204.125;    0.000
684.191; 2229.325;  228.125;    0.000
684.301; 2167.325;  219.125;    0.000
684.412; 2170.325;  222.125;    0.000
684.522; 2156.325;  242.125;    0.000
684.632; 2114.325;  234.125;    0.000
684.742; 2141.325;  240.125;    0.000
684.852; 2104.325;  229.125;    0.000
684.963; 2189.325;  237.125;    0.000
685.073; 2132.325;  205.125;    0.000
685.183; 2243.325;  241.125;    0.000
685.293; 2097.325;  202.125;    0.000
685.403; 2186.325;  232.125;    0.000
685.513; 2179.325;  244.125;    0.000
685.623; 2102.325;  224.125;    0.000
685.733; 2156.325;  236.125;    0.000
685.843; 2223.325;  235.125;    0.000
685.953; 2155.325;  216.125;    0.000
686.063; 2202.325;  214.125;    0.000
686.173; 2171.325;  198.125;    0.000
686.283; 2184.325;  250.125;    0.000
686.393; 2174.325;  227.125;    0.000
686.503; 2198.325;  244.125;    0.000
686.612; 2185.325;  247.125;    0.000
686.722; 2180.325;  265.125;    0.000
686.832; 2182.325;  213.125;    0.000
686.942; 2081.325;  241.125;    0.000
687.052; 2069.325;  238.125;    0.000
687.161; 2155.325;  233.125;    0.000
687.271; 2208.325;  232.125;    0.000
687.381; 2103.325;  220.125;    0.000
687.491; 2109.325;  206.125;    0.000
687.600; 2163.325;  283.125;    0.000
687.710; 2132.325;  212.125;    0.000
687.820; 2190.325;  226.125;    0.000
687.929; 2132.325;  202.125;    0.000
688.039; 2203.325;  225.125;    0.000
688.148; 2118.325;  235.125;    0.000
688.258; 2176.325;  224.125;    0.000
688.367; 2121.325;  239.125;    0.000
688.477; 2050.325;  193.125;    0.000
688.586; 2144.325;  226.125;    0.000
688.696; 2159.325;  185.125;    0.000
688.805; 2140.325;  190.125;    0.000
688.915; 2125.325;  209.125;    0.000
689.024; 2137.325;  214.125;    0.000
689.134; 2118.325;  205.125;    0.000
689.243; 2128.325;  190.125;    0.000
689.352; 2084.325;  233.125;    0.000
689.462; 2113.325;  196.125;    0.000
689.571; 2101.325;  227.125;    0.000
689.680; 2161.325;  206.125;    0.000
689.790; 2142.325;  193.125;    0.000
689.899; 2086.325;  204.125;    0.000
690.008; 2131.325;  228.125;    0.000
690.117; 2115.325;  207.125;    0.000
690.227; 2175.325;  231.125;    0.000
690.336; 2151.325;  222.125;    0.000
690.445; 2083.325;  198.125;    0.000
690.554; 2080.325;  202.125;    0.000
690.663; 2104.325;  217.125;    0.000
690.772; 2090.325;  213.125;    0.000
690.881; 2168.325;  225.125;    0.000
690.990; 2084.325;  217.125;    0.000
691.099; 2150.325;  205.125;    0.000
691.209; 2086.325;  220.125;    0.000
691.318; 2165.325;  216.125;    0.000
691.427; 2082.325;  188.125;    0.000
691.536; 2098.325;  224.125;    0.000
691.644; 2105.325;  212.125;    0.000
691.753; 1965.325;  216.125;    0.000
691.862; 2107.325;  250.125;    0.000
691.971; 2097.325;  210.125;    0.000
692.080; 2113.325;  232.125;    0.000
692.189; 2091.325;  218.125;    0.000
692.298; 2091.325;  220.125;    0.000
692.406; 2146.325;  261.125;    0.000
692.515; 2117.325;  253.125;    0.000
692.624; 2085.325;  224.125;    0.000
692.733; 2108.325;  209.125;    0.000
692.842; 2108.325;  214.125;    0.000
692.950; 2059.325;  206.125;    0.000
693.059; 2087.325;  180.125;    0.000
693.168; 2133.325;  220.125;    0.000
693.276; 2060.325;  196.125;    0.000
693.385; 2076.325;  203.125;    0.000
693.494; 2068.325;  263.125;    0.000
693.602; 2070.325;  222.125;    0.000
693.711; 2077.325;  178.125;    0.000
693.819; 2068.325;  230.125;    0.000
693.928; 2068.325;  187.125;    0.000
694.036; 2024.325;  219.125;    0.000
694.145; 2051.325;  223.125;    0.000
694.253; 2017.325;  241.125;    0.000
694.362; 2060.325;  229.125;    0.000
694.470; 2188.325;  223.125;    0.000
694.579; 2056.325;  195.125;    0.000
694.687; 2106.325;  257.125;    0.000
694.795; 2079.325;  230.125;    0.000
694.904; 2026.325;  196.125;    0.000
695.012; 2130.325;  247.125;    0.000
695.120; 2070.325;  215.125;    0.000
695.229; 2173.325;  244.125;    0.000
695.337; 2094.325;  197.125;    0.000
695.445; 2127.325;  270.125;    0.000
695.553; 2065.325;  241.125;    0.000
695.662; 2071.325;  249.125;    0.000
695.770; 2039.325;  244.125;    0.000
695.878; 2149.325;  236.125;    0.000
695.986; 2090.325;  253.125;    0.000
696.094; 2161.325;  242.125;    0.000
696.202; 1976.325;  174.125;    0.000
696.310; 2162.325;  230.125;    0.000
696.419; 2025.325;  218.125;    0.000
696.527; 2023.325;  226.125;    0.000
696.635; 2109.325;  217.125;    0.000
696.743; 2056.325;  221.125;    0.000
696.851; 2171.325;  259.125;    0.000
696.959; 2065.325;  245.125;    0.000
697.067; 2098.325;  235.125;    0.000
697.174; 2075.325;  238.125;    0.000
697.282; 2070.325;  208.125;    0.000
697.390; 2164.325;  265.125;    0.000
697.498; 2033.325;  202.125;    0.000
697.606; 2031.325;  219.125;    0.000
697.714; 2040.325;  245.125;    0.000
697.822; 2093.325;  222.125;    0.000
697.929; 2084.325;  194.125;    0.000
698.037; 2041.325;  223.125;    0.000
698.145; 1956.325;  213.125;    0.000
698.253; 2012.325;  234.125;    0.000
698.360; 2121.325;  211.125;    0.000
698.468; 2050.325;  241.125;    0.000
698.576; 2041.325;  249.125;    0.000
698.683; 2064.325;  268.125;    0.000
698.791; 2060.325;  223.125;    0.000
698.899; 2107.325;  251.125;    0.000
699.006; 2087.325;  216.125;    0.000
699.114; 2033.325;  256.125;    0.000
699.221; 2044.325;  226.125;    0.000
699.329; 2020.325;  255.125;    0.000
699.436; 1966.325;  213.125;    0.000
699.544; 1964.325;  258.125;    0.000
699.651; 2015.325;  214.125;    0.000
699.759; 1994.325;  229.125;    0.000
699.866; 2070.325;  239.125;    0.000
699.974; 1981.325;  224.125;    0.000
700.081; 2048.325;  227.125;    0.000
700.188; 2092.325;  267.125;    0.000
700.296; 1987.325;  222.125;    0.000
700.403; 1969.325;  225.125;    0.000
700.510; 2061.325;  248.125;    0.000
700.618; 2000.325;  223.125;    0.000
700.725; 2008.325;  243.125;    0.000
700.832; 2010.325;  239.125;    0.000
700.940; 2025.325;  284.125;    0.000
701.047; 2049.325;  216.125;    0.000
701.154; 2050.325;  249.125;    0.000
701.261; 2038.325;  229.125;    0.000
701.368; 2019.325;  247.125;    0.000
701.475; 1981.325;  208.125;    0.000
701.582; 1995.325;  262.125;    0.000
701.690; 2023.325;  224.125;    0.000
701.797; 2063.325;  294.125;    0.000
701.904; 2080.325;  303.125;    0.000
702.011; 2035.325;  278.125;    0.000
702.118; 2068.325;  279.125;    0.000
702.225; 2034.325;  342.125;    0.000
702.332; 2062.325;  281.125;    0.000
702.439; 2090.325;  313.125;    0.000
702.546; 2122.325;  295.125;    0.000
702.652; 2074.325;  293.125;    0.000
702.759; 2089.325;  333.125;    0.000
702.866; 2105.325;  272.125;    0.000
702.973; 2055.325;  310.125;    0.000
703.080; 2029.325;  313.125;    0.000
703.187; 2027.325;  316.125;    0.000
703.294; 2149.325;  328.125;    0.000
703.400; 1937.325;  312.125;    0.000
703.507;  508.325;  349.125;    0.000
703.614;  291.325;  298.125;    0.000
703.720;  306.325;  300.125;    0.000
703.827;  319.325;  346.125;    0.000
703.934;  337.325;  308.125;    0.000
704.040;  284.325;  300.125;    0.000
704.147;  318.325;  317.125;    0.000
704.254;  343.325;  350.125;    0.000
704.360;  308.325;  285.125;    0.000
704.467;  363.325;  334.125;    0.000
704.573;  322.325;  330.125;    0.000
704.680;  317.325;  312.125;    0.000
704.786;  310.325;  305.125;    0.000
704.893;  300.325;  330.125;    0.000
704.999;  292.325;  315.125;    0.000
705.106;  343.325;  327.125;    0.000

