
Integration time [ms]:   0.300
Averaging Nr. [scans]: 1
Smoothing Nr. [pixels]: 0
Data measured with spectrometer [name]: UV1
Wave   ;Sample   ;Dark     ;Reference
[nm]   ;[counts] ;[counts] ;[counts] 

236.381;  124.625;  160.350;    0.000
236.451;  169.625;  198.350;    0.000
236.520;  186.625;  179.350;    0.000
236.590;  197.625;  205.350;    0.000
236.660;  169.625;  199.350;    0.000
236.730;  185.625;  178.350;    0.000
236.799;  186.625;  201.350;    0.000
236.869;  176.625;  197.350;    0.000
236.939;  198.625;  180.350;    0.000
237.009;  166.625;  165.350;    0.000
237.078;  186.625;  191.350;    0.000
237.148;  180.625;  146.350;    0.000
237.218;  151.625;  142.350;    0.000
237.287;  174.625;  190.350;    0.000
237.357;  178.625;  182.350;    0.000
237.427;  184.625;  139.350;    0.000
237.496;  935.625;  221.350;    0.000
237.566;  909.625;  183.350;    0.000
237.636;  936.625;  157.350;    0.000
237.705;  962.625;  189.350;    0.000
237.775;  943.625;  169.350;    0.000
237.845;  909.625;  156.350;    0.000
237.914;  888.625;  185.350;    0.000
237.984;  935.625;  194.350;    0.000
238.054;  956.625;  138.350;    0.000
238.123;  947.625;  166.350;    0.000
238.193;  950.625;  174.350;    0.000
238.263;  901.625;  158.350;    0.000
238.332;  905.625;  167.350;    0.000
238.402;  895.625;  173.350;    0.000
238.471;  881.625;  153.350;    0.000
238.541;  914.625;  167.350;    0.000
238.611;  888.625;  165.350;    0.000
238.680;  940.625;  157.350;    0.000
238.750;  911.625;  152.350;    0.000
238.819;  886.625;  190.350;    0.000
238.889;  852.625;  151.350;    0.000
238.958;  921.625;  166.350;    0.000
239.028;  907.625;  180.350;    0.000
239.097;  881.625;  170.350;    0.000
239.167;  914.625;  177.350;    0.000
239.237;  955.625;  195.350;    0.000
239.306;  940.625;  145.350;    0.000
239.376;  927.625;  158.350;    0.000
239.445;  952.625;  187.350;    0.000
239.515;  962.625;  160.350;    0.000
239.584;  927.625;  173.350;    0.000
239.654;  881.625;  184.350;    0.000
239.723;  931.625;  195.350;    0.000
239.793;  847.625;  183.350;    0.000
239.862;  868.625;  190.350;    0.000
239.932;  943.625;  168.350;    0.000
240.001;  938.625;  164.350;    0.000
240.070;  917.625;  183.350;    0.000
240.140;  889.625;  175.350;    0.000
240.209;  907.625;  135.350;    0.000
240.279;  927.625;  176.350;    0.000
240.348;  880.625;  184.350;    0.000
240.418;  886.625;  157.350;    0.000
240.487;  948.625;  189.350;    0.000
240.556;  883.625;  157.350;    0.000
240.626;  907.625;  174.350;    0.000
240.695;  909.625;  180.350;    0.000
240.765;  874.625;  152.350;    0.000
240.834;  831.625;  136.350;    0.000
240.903;  923.625;  196.350;    0.000
240.973;  861.625;  183.350;    0.000
241.042;  900.625;  150.350;    0.000
241.112;  898.625;  168.350;    0.000
241.181;  907.625;  152.350;    0.000
241.250;  883.625;  132.350;    0.000
241.320;  886.625;  209.350;    0.000
241.389;  915.625;  169.350;    0.000
241.458;  898.625;  204.350;    0.000
241.528;  899.625;  176.350;    0.000
241.597;  879.625;  170.350;    0.000
241.666;  940.625;  168.350;    0.000
241.736;  887.625;  172.350;    0.000
241.805;  880.625;  160.350;    0.000
241.874;  859.625;  176.350;    0.000
241.943;  927.625;  165.350;    0.000
242.013;  869.625;  206.350;    0.000
242.082;  869.625;  162.350;    0.000
242.151;  839.625;  180.350;    0.000
242.221;  919.625;  154.350;    0.000
242.290;  883.625;  122.350;    0.000
242.359;  846.625;  121.350;    0.000
242.428;  932.625;  187.350;    0.000
242.498;  841.625;  140.350;    0.000
242.567;  921.625;  173.350;    0.000
242.636;  879.625;  155.350;    0.000
242.705;  892.625;  108.350;    0.000
242.774;  889.625;  145.350;    0.000
242.844;  910.625;  162.350;    0.000
242.913;  882.625;  178.350;    0.000
242.982;  871.625;  163.350;    0.000
243.051;  843.625;  138.350;    0.000
243.120;  838.625;  172.350;    0.000
243.190;  852.625;  155.350;    0.000
243.259;  902.625;  159.350;    0.000
243.328;  849.625;  173.350;    0.000
243.397;  837.625;  175.350;    0.000
243.466;  854.625;  170.350;    0.000
243.535;  891.625;  161.350;    0.000
243.605;  860.625;  149.350;    0.000
243.674;  878.625;  162.350;    0.000
243.743;  892.625;  175.350;    0.000
243.812;  820.625;  159.350;    0.000
243.881;  895.625;  158.350;    0.000
243.950;  893.625;  154.350;    0.000
244.019;  856.625;  185.350;    0.000
244.088;  917.625;  175.350;    0.000
244.158;  917.625;  167.350;    0.000
244.227;  827.625;  159.350;    0.000
244.296;  886.625;  143.350;    0.000
244.365;  907.625;  182.350;    0.000
244.434;  904.625;  117.350;    0.000
244.503;  864.625;  109.350;    0.000
244.572;  775.625;  147.350;    0.000
244.641;  874.625;  129.350;    0.000
244.710;  877.625;  159.350;    0.000
244.779;  795.625;  166.350;    0.000
244.848;  737.625;  122.350;    0.000
244.917;  819.625;  167.350;    0.000
244.986;  838.625;  158.350;    0.000
245.055;  852.625;  175.350;    0.000
245.124;  819.625;  153.350;    0.000
245.193;  878.625;  155.350;    0.000
245.262;  885.625;  137.350;    0.000
245.331;  814.625;  145.350;    0.000
245.400;  783.625;  107.350;    0.000
245.469;  795.625;  162.350;    0.000
245.538;  814.625;  165.350;    0.000
245.607;  796.625;  178.350;    0.000
245.676;  770.625;  166.350;    0.000
245.745;  809.625;  169.350;    0.000
245.814;  821.625;  155.350;    0.000
245.883;  768.625;  186.350;    0.000
245.952;  765.625;  165.350;    0.000
246.021;  732.625;  169.350;    0.000
246.090;  782.625;  170.350;    0.000
246.159;  792.625;  155.350;    0.000
246.227;  747.625;  161.350;    0.000
246.296;  758.625;  142.350;    0.000
246.365;  753.625;  160.350;    0.000
246.434;  800.625;  199.350;    0.000
246.503;  763.625;  155.350;    0.000
246.572;  735.625;  206.350;    0.000
246.641;  774.625;  177.350;    0.000
246.710;  738.625;  178.350;    0.000
246.779;  755.625;  193.350;    0.000
246.847;  747.625;  147.350;    0.000
246.916;  707.625;  131.350;    0.000
246.985;  736.625;  168.350;    0.000
247.054;  746.625;  143.350;    0.000
247.123;  693.625;  130.350;    0.000
247.192;  747.625;  175.350;    0.000
247.260;  677.625;  171.350;    0.000
247.329;  807.625;  162.350;    0.000
247.398;  776.625;  163.350;    0.000
247.467;  722.625;  155.350;    0.000
247.536;  791.625;  149.350;    0.000
247.604;  752.625;  191.350;    0.000
247.673;  671.625;  193.350;    0.000
247.742;  721.625;  159.350;    0.000
247.811;  726.625;  167.350;    0.000
247.879;  711.625;  176.350;    0.000
247.948;  721.625;  157.350;    0.000
248.017;  723.625;  150.350;    0.000
248.086;  748.625;  153.350;    0.000
248.154;  764.625;  157.350;    0.000
248.223;  711.625;  198.350;    0.000
248.292;  798.625;  188.350;    0.000
248.361;  707.625;  157.350;    0.000
248.429;  679.625;  138.350;    0.000
248.498;  693.625;  166.350;    0.000
248.567;  743.625;  179.350;    0.000
248.635;  732.625;  210.350;    0.000
248.704;  725.625;  168.350;    0.000
248.773;  689.625;  147.350;    0.000
248.841;  728.625;  155.350;    0.000
248.910;  737.625;  183.350;    0.000
248.979;  749.625;  171.350;    0.000
249.047;  710.625;  152.350;    0.000
249.116;  710.625;  155.350;    0.000
249.185;  699.625;  217.350;    0.000
249.253;  656.625;  149.350;    0.000
249.322;  764.625;  167.350;    0.000
249.390;  718.625;  182.350;    0.000
249.459;  662.625;  173.350;    0.000
249.528;  691.625;  162.350;    0.000
249.596;  697.625;  162.350;    0.000
249.665;  663.625;  163.350;    0.000
249.733;  786.625;  147.350;    0.000
249.802;  704.625;  170.350;    0.000
249.871;  685.625;  179.350;    0.000
249.939;  678.625;  179.350;    0.000
250.008;  725.625;  201.350;    0.000
250.076;  766.625;  189.350;    0.000
250.145;  717.625;  171.350;    0.000
250.213;  630.625;  161.350;    0.000
250.282;  648.625;  171.350;    0.000
250.350;  682.625;  138.350;    0.000
250.419;  722.625;  172.350;    0.000
250.487;  718.625;  207.350;    0.000
250.556;  676.625;  160.350;    0.000
250.624;  729.625;  187.350;    0.000
250.693;  668.625;  141.350;    0.000
250.761;  672.625;  182.350;    0.000
250.830;  764.625;  203.350;    0.000
250.898;  663.625;  160.350;    0.000
250.967;  632.625;  143.350;    0.000
251.035;  629.625;  142.350;    0.000
251.104;  617.625;  159.350;    0.000
251.172;  695.625;  189.350;    0.000
251.241;  719.625;  134.350;    0.000
251.309;  667.625;  179.350;    0.000
251.378;  704.625;  203.350;    0.000
251.446;  670.625;  151.350;    0.000
251.514;  719.625;  176.350;    0.000
251.583;  681.625;  173.350;    0.000
251.651;  637.625;  163.350;    0.000
251.720;  669.625;  151.350;    0.000
251.788;  720.625;  205.350;    0.000
251.856;  673.625;  126.350;    0.000
251.925;  654.625;  118.350;    0.000
251.993;  692.625;  139.350;    0.000
252.062;  692.625;  161.350;    0.000
252.130;  613.625;  180.350;    0.000
252.198;  664.625;  141.350;    0.000
252.267;  674.625;  145.350;    0.000
252.335;  671.625;  159.350;    0.000
252.403;  685.625;  158.350;    0.000
252.472;  634.625;  142.350;    0.000
252.540;  635.625;  162.350;    0.000
252.608;  648.625;  180.350;    0.000
252.677;  653.625;  137.350;    0.000
252.745;  628.625;  183.350;    0.000
252.813;  620.625;  151.350;    0.000
252.881;  569.625;  109.350;    0.000
252.950;  591.625;  174.350;    0.000
253.018;  622.625;  136.350;    0.000
253.086;  575.625;  149.350;    0.000
253.155;  545.625;  127.350;    0.000
253.223;  572.625;  156.350;    0.000
253.291;  559.625;  163.350;    0.000
253.359;  578.625;  174.350;    0.000
253.428;  569.625;  174.350;    0.000
253.496;  554.625;  161.350;    0.000
253.564;  507.625;  128.350;    0.000
253.632;  517.625;  153.350;    0.000
253.700;  530.625;  185.350;    0.000
253.769;  496.625;  163.350;    0.000
253.837;  516.625;  176.350;    0.000
253.905;  535.625;  164.350;    0.000
253.973;  518.625;  156.350;    0.000
254.041;  534.625;  154.350;    0.000
254.110;  519.625;  165.350;    0.000
254.178;  505.625;  148.350;    0.000
254.246;  545.625;  138.350;    0.000
254.314;  522.625;  164.350;    0.000
254.382;  530.625;  167.350;    0.000
254.450;  501.625;  134.350;    0.000
254.518;  536.625;  192.350;    0.000
254.587;  504.625;  139.350;    0.000
254.655;  556.625;  162.350;    0.000
254.723;  536.625;  131.350;    0.000
254.791;  546.625;  181.350;    0.000
254.859;  513.625;  146.350;    0.000
254.927;  551.625;  189.350;    0.000
254.995;  467.625;  141.350;    0.000
255.063;  551.625;  181.350;    0.000
255.131;  522.625;  156.350;    0.000
255.199;  498.625;  175.350;    0.000
255.267;  549.625;  120.350;    0.000
255.336;  555.625;  186.350;    0.000
255.404;  515.625;  134.350;    0.000
255.472;  572.625;  172.350;    0.000
255.540;  536.625;  157.350;    0.000
255.608;  574.625;  186.350;    0.000
255.676;  521.625;  155.350;    0.000
255.744;  537.625;  143.350;    0.000
255.812;  539.625;  134.350;    0.000
255.880;  557.625;  188.350;    0.000
255.948;  550.625;  163.350;    0.000
256.016;  596.625;  175.350;    0.000
256.084;  576.625;  191.350;    0.000
256.152;  531.625;  187.350;    0.000
256.220;  566.625;  152.350;    0.000
256.288;  560.625;  141.350;    0.000
256.356;  535.625;  139.350;    0.000
256.424;  549.625;  121.350;    0.000
256.491;  559.625;  139.350;    0.000
256.559;  600.625;  144.350;    0.000
256.627;  631.625;  158.350;    0.000
256.695;  559.625;  121.350;    0.000
256.763;  640.625;  150.350;    0.000
256.831;  647.625;  181.350;    0.000
256.899;  607.625;  146.350;    0.000
256.967;  631.625;   71.350;    0.000
257.035;  617.625;  164.350;    0.000
257.103;  639.625;  191.350;    0.000
257.171;  579.625;  140.350;    0.000
257.238;  551.625;  165.350;    0.000
257.306;  631.625;  127.350;    0.000
257.374;  658.625;  120.350;    0.000
257.442;  629.625;  139.350;    0.000
257.510;  689.625;  158.350;    0.000
257.578;  659.625;  164.350;    0.000
257.646;  683.625;  151.350;    0.000
257.713;  660.625;  136.350;    0.000
257.781;  710.625;  137.350;    0.000
257.849;  690.625;  151.350;    0.000
257.917;  653.625;  154.350;    0.000
257.985;  689.625;  113.350;    0.000
258.052;  709.625;  140.350;    0.000
258.120;  692.625;  176.350;    0.000
258.188;  706.625;  157.350;    0.000
258.256;  750.625;  153.350;    0.000
258.324;  766.625;  184.350;    0.000
258.391;  726.625;  144.350;    0.000
258.459;  733.625;  162.350;    0.000
258.527;  692.625;  154.350;    0.000
258.595;  698.625;  122.350;    0.000
258.662;  762.625;  164.350;    0.000
258.730;  764.625;  114.350;    0.000
258.798;  746.625;  131.350;    0.000
258.865;  795.625;  171.350;    0.000
258.933;  832.625;  145.350;    0.000
259.001;  820.625;  150.350;    0.000
259.069;  795.625;  123.350;    0.000
259.136;  808.625;  139.350;    0.000
259.204;  827.625;  165.350;    0.000
259.272;  867.625;  114.350;    0.000
259.339;  803.625;  179.350;    0.000
259.407;  899.625;  153.350;    0.000
259.475;  889.625;  143.350;    0.000
259.542;  893.625;  136.350;    0.000
259.610;  923.625;  133.350;    0.000
259.677;  909.625;  159.350;    0.000
259.745;  853.625;  130.350;    0.000
259.813;  888.625;  175.350;    0.000
259.880;  914.625;  158.350;    0.000
259.948;  993.625;  124.350;    0.000
260.016;  936.625;  105.350;    0.000
260.083;  962.625;  169.350;    0.000
260.151;  925.625;  133.350;    0.000
260.218; 1030.625;  143.350;    0.000
260.286;  974.625;  134.350;    0.000
260.353;  979.625;  160.350;    0.000
260.421; 1030.625;  128.350;    0.000
260.489; 1024.625;  150.350;    0.000
260.556; 1026.625;  179.350;    0.000
260.624; 1022.625;  113.350;    0.000
260.691; 1077.625;  128.350;    0.000
260.759; 1066.625;  146.350;    0.000
260.826; 1089.625;  111.350;    0.000
260.894; 1066.625;  115.350;    0.000
260.961; 1080.625;  138.350;    0.000
261.029; 1156.625;  152.350;    0.000
261.096; 1074.625;  175.350;    0.000
261.164; 1082.625;  131.350;    0.000
261.231; 1158.625;  141.350;    0.000
261.299; 1089.625;  125.350;    0.000
261.366; 1085.625;  142.350;    0.000
261.434; 1094.625;  133.350;    0.000
261.501; 1198.625;  137.350;    0.000
261.568; 1166.625;  184.350;    0.000
261.636; 1154.625;  138.350;    0.000
261.703; 1232.625;  161.350;    0.000
261.771; 1174.625;  160.350;    0.000
261.838; 1244.625;  178.350;    0.000
261.906; 1178.625;  128.350;    0.000
261.973; 1208.625;  139.350;    0.000
262.040; 1255.625;  148.350;    0.000
262.108; 1314.625;  130.350;    0.000
262.175; 1271.625;  117.350;    0.000
262.243; 1318.625;  174.350;    0.000
262.310; 1329.625;  145.350;    0.000
262.377; 1285.625;  108.350;    0.000
262.445; 1388.625;  147.350;    0.000
262.512; 1319.625;  124.350;    0.000
262.579; 1310.625;  127.350;    0.000
262.647; 1404.625;  166.350;    0.000
262.714; 1380.625;  150.350;    0.000
262.781; 1337.625;  121.350;    0.000
262.849; 1345.625;  126.350;    0.000
262.916; 1386.625;  119.350;    0.000
262.983; 1481.625;  155.350;    0.000
263.051; 1373.625;  137.350;    0.000
263.118; 1374.625;  160.350;    0.000
263.185; 1460.625;  151.350;    0.000
263.252; 1454.625;  167.350;    0.000
263.320; 1416.625;  123.350;    0.000
263.387; 1448.625;  134.350;    0.000
263.454; 1456.625;  144.350;    0.000
263.522; 1441.625;  153.350;    0.000
263.589; 1470.625;  161.350;    0.000
263.656; 1493.625;  117.350;    0.000
263.723; 1451.625;  101.350;    0.000
263.790; 1573.625;  128.350;    0.000
263.858; 1528.625;  142.350;    0.000
263.925; 1520.625;  182.350;    0.000
263.992; 1564.625;  146.350;    0.000
264.059; 1497.625;  132.350;    0.000
264.126; 1542.625;  154.350;    0.000
264.194; 1561.625;  153.350;    0.000
264.261; 1561.625;  157.350;    0.000
264.328; 1571.625;  171.350;    0.000
264.395; 1552.625;  166.350;    0.000
264.462; 1582.625;  165.350;    0.000
264.529; 1622.625;  124.350;    0.000
264.597; 1618.625;  120.350;    0.000
264.664; 1651.625;  159.350;    0.000
264.731; 1609.625;  145.350;    0.000
264.798; 1612.625;  100.350;    0.000
264.865; 1614.625;  166.350;    0.000
264.932; 1676.625;  132.350;    0.000
264.999; 1599.625;  137.350;    0.000
265.066; 1692.625;  124.350;    0.000
265.133; 1699.625;  162.350;    0.000
265.201; 1692.625;  163.350;    0.000
265.268; 1721.625;  174.350;    0.000
265.335; 1699.625;  132.350;    0.000
265.402; 1653.625;  116.350;    0.000
265.469; 1723.625;  121.350;    0.000
265.536; 1819.625;  157.350;    0.000
265.603; 1792.625;  151.350;    0.000
265.670; 1791.625;  164.350;    0.000
265.737; 1790.625;  142.350;    0.000
265.804; 1771.625;  146.350;    0.000
265.871; 1731.625;  168.350;    0.000
265.938; 1761.625;  131.350;    0.000
266.005; 1895.625;  208.350;    0.000
266.072; 1764.625;  125.350;    0.000
266.139; 1847.625;  161.350;    0.000
266.206; 1757.625;  134.350;    0.000
266.273; 1816.625;  155.350;    0.000
266.340; 1831.625;  122.350;    0.000
266.407; 1775.625;  134.350;    0.000
266.474; 1833.625;  126.350;    0.000
266.541; 1800.625;  153.350;    0.000
266.608; 1749.625;  129.350;    0.000
266.675; 1861.625;  185.350;    0.000
266.742; 1831.625;  153.350;    0.000
266.808; 1870.625;  169.350;    0.000
266.875; 1871.625;  156.350;    0.000
266.942; 1852.625;  172.350;    0.000
267.009; 1838.625;  150.350;    0.000
267.076; 1975.625;  184.350;    0.000
267.143; 1930.625;  170.350;    0.000
267.210; 1959.625;  132.350;    0.000
267.277; 1889.625;  146.350;    0.000
267.344; 1874.625;  159.350;    0.000
267.410; 1921.625;  174.350;    0.000
267.477; 1862.625;  169.350;    0.000
267.544; 1941.625;  130.350;    0.000
267.611; 2000.625;  169.350;    0.000
267.678; 1944.625;  197.350;    0.000
267.745; 2046.625;  185.350;    0.000
267.811; 1922.625;  160.350;    0.000
267.878; 2044.625;  143.350;    0.000
267.945; 1867.625;  126.350;    0.000
268.012; 1905.625;  172.350;    0.000
268.079; 1976.625;  156.350;    0.000
268.145; 1958.625;  128.350;    0.000
268.212; 1917.625;  107.350;    0.000
268.279; 1993.625;  135.350;    0.000
268.346; 1892.625;  166.350;    0.000
268.412; 1921.625;  150.350;    0.000
268.479; 1994.625;  176.350;    0.000
268.546; 1970.625;  119.350;    0.000
268.613; 2032.625;  201.350;    0.000
268.679; 2027.625;  141.350;    0.000
268.746; 2008.625;  177.350;    0.000
268.813; 1986.625;  134.350;    0.000
268.879; 1980.625;  141.350;    0.000
268.946; 1969.625;  172.350;    0.000
269.013; 1965.625;  150.350;    0.000
269.079; 1955.625;  124.350;    0.000
269.146; 1912.625;  135.350;    0.000
269.213; 1973.625;  200.350;    0.000
269.280; 1992.625;  142.350;    0.000
269.346; 1994.625;  153.350;    0.000
269.413; 1975.625;  140.350;    0.000
269.479; 2009.625;  171.350;    0.000
269.546; 2006.625;  156.350;    0.000
269.613; 1967.625;  145.350;    0.000
269.679; 1938.625;  168.350;    0.000
269.746; 1979.625;  136.350;    0.000
269.813; 1936.625;  153.350;    0.000
269.879; 1998.625;  162.350;    0.000
269.946; 2005.625;  156.350;    0.000
270.012; 1988.625;  178.350;    0.000
270.079; 1915.625;  132.350;    0.000
270.145; 2011.625;  146.350;    0.000
270.212; 1952.625;  145.350;    0.000
270.279; 2016.625;  184.350;    0.000
270.345; 1901.625;  143.350;    0.000
270.412; 2051.625;  158.350;    0.000
270.478; 1953.625;  143.350;    0.000
270.545; 1945.625;  150.350;    0.000
270.611; 1923.625;  156.350;    0.000
270.678; 2042.625;  121.350;    0.000
270.744; 1917.625;  161.350;    0.000
270.811; 2000.625;  173.350;    0.000
270.877; 1924.625;  115.350;    0.000
270.944; 1895.625;  114.350;    0.000
271.010; 1898.625;  122.350;    0.000
271.077; 1954.625;  142.350;    0.000
271.143; 2021.625;  152.350;    0.000
271.210; 1959.625;  135.350;    0.000
271.276; 1909.625;  107.350;    0.000
271.342; 2014.625;  173.350;    0.000
271.409; 1924.625;  171.350;    0.000
271.475; 1934.625;  136.350;    0.000
271.542; 1935.625;  121.350;    0.000
271.608; 1936.625;  133.350;    0.000
271.675; 1938.625;  136.350;    0.000
271.741; 2073.625;  151.350;    0.000
271.807; 1900.625;  130.350;    0.000
271.874; 2021.625;  168.350;    0.000
271.940; 1939.625;  156.350;    0.000
272.007; 1918.625;  122.350;    0.000
272.073; 1962.625;  121.350;    0.000
272.139; 1933.625;  137.350;    0.000
272.206; 1914.625;  152.350;    0.000
272.272; 1925.625;  162.350;    0.000
272.338; 2020.625;  197.350;    0.000
272.405; 2104.625;  144.350;    0.000
272.471; 1932.625;  160.350;    0.000
272.537; 1980.625;  142.350;    0.000
272.604; 1968.625;  141.350;    0.000
272.670; 1963.625;  182.350;    0.000
272.736; 1973.625;  126.350;    0.000
272.802; 2037.625;  146.350;    0.000
272.869; 1905.625;  163.350;    0.000
272.935; 1929.625;  132.350;    0.000
273.001; 1915.625;  119.350;    0.000
273.068; 2026.625;  137.350;    0.000
273.134; 1938.625;  155.350;    0.000
273.200; 2004.625;  165.350;    0.000
273.266; 2022.625;  156.350;    0.000
273.333; 1985.625;  143.350;    0.000
273.399; 1972.625;  128.350;    0.000
273.465; 2064.625;  167.350;    0.000
273.531; 2001.625;  122.350;    0.000
273.597; 1988.625;  182.350;    0.000
273.664; 2058.625;  177.350;    0.000
273.730; 1981.625;  124.350;    0.000
273.796; 2035.625;  143.350;    0.000
273.862; 2076.625;  155.350;    0.000
273.928; 2175.625;  137.350;    0.000
273.995; 2142.625;  188.350;    0.000
274.061; 2126.625;  154.350;    0.000
274.127; 2053.625;  161.350;    0.000
274.193; 2147.625;   95.350;    0.000
274.259; 2191.625;  128.350;    0.000
274.325; 2132.625;  146.350;    0.000
274.391; 2074.625;  113.350;    0.000
274.457; 2076.625;  150.350;    0.000
274.524; 2089.625;  165.350;    0.000
274.590; 2069.625;  140.350;    0.000
274.656; 2217.625;  165.350;    0.000
274.722; 2170.625;  118.350;    0.000
274.788; 2185.625;  143.350;    0.000
274.854; 2194.625;  150.350;    0.000
274.920; 2168.625;   88.350;    0.000
274.986; 2134.625;  178.350;    0.000
275.052; 2266.625;  145.350;    0.000
275.118; 2300.625;  105.350;    0.000
275.184; 2262.625;  129.350;    0.000
275.250; 2265.625;  138.350;    0.000
275.316; 2276.625;  173.350;    0.000
275.382; 2312.625;  106.350;    0.000
275.448; 2375.625;  160.350;    0.000
275.514; 2328.625;  162.350;    0.000
275.580; 2392.625;  135.350;    0.000
275.646; 2391.625;  120.350;    0.000
275.712; 2355.625;  157.350;    0.000
275.778; 2415.625;  128.350;    0.000
275.844; 2419.625;  117.350;    0.000
275.910; 2481.625;  121.350;    0.000
275.976; 2511.625;  172.350;    0.000
276.042; 2469.625;  114.350;    0.000
276.108; 2579.625;  200.350;    0.000
276.174; 2585.625;  132.350;    0.000
276.240; 2730.625;  128.350;    0.000
276.306; 2685.625;  124.350;    0.000
276.372; 2768.625;  133.350;    0.000
276.437; 2781.625;  146.350;    0.000
276.503; 2714.625;  136.350;    0.000
276.569; 2938.625;  162.350;    0.000
276.635; 2886.625;  128.350;    0.000
276.701; 2945.625;  148.350;    0.000
276.767; 2958.625;  155.350;    0.000
276.833; 2948.625;  128.350;    0.000
276.899; 3040.625;  145.350;    0.000
276.964; 3186.625;  124.350;    0.000
277.030; 3246.625;  130.350;    0.000
277.096; 3370.625;  139.350;    0.000
277.162; 3373.625;  164.350;    0.000
277.228; 3513.625;  108.350;    0.000
277.293; 3598.625;  138.350;    0.000
277.359; 3876.625;  123.350;    0.000
277.425; 3978.625;  183.350;    0.000
277.491; 4104.625;  144.350;    0.000
277.557; 4984.625;  130.350;    0.000
277.622; 6672.625;  151.350;    0.000
277.688; 6701.625;  169.350;    0.000
277.754; 6960.625;  199.350;    0.000
277.820; 7639.625;  170.350;    0.000
277.885; 9033.625;  173.350;    0.000
277.951;10885.625;  187.350;    0.000
278.017; 9484.625;  152.350;    0.000
278.083; 8317.625;  137.350;    0.000
278.148; 7941.625;  147.350;    0.000
278.214; 8178.625;  162.350;    0.000
278.280; 8404.625;  171.350;    0.000
278.345; 7655.625;  174.350;    0.000
278.411; 7102.625;  152.350;    0.000
278.477; 7288.625;  173.350;    0.000
278.542; 7724.625;  161.350;    0.000
278.608; 8405.625;  155.350;    0.000
278.674; 9317.625;  169.350;    0.000
278.739;10138.625;  142.350;    0.000
278.805;11639.625;  164.350;    0.000
278.871;13769.625;  160.350;    0.000
278.936;17204.625;  121.350;    0.000
279.002;25170.625;  166.350;    0.000
279.067;32448.625;  199.350;    0.000
279.133;31379.625;  150.350;    0.000
279.199;28982.625;  154.350;    0.000
279.264;29877.625;  154.350;    0.000
279.330;34502.625;  159.350;    0.000
279.395;43299.625;  143.350;    0.000
279.461;51193.625;  173.350;    0.000
279.527;54798.625;  163.350;    0.000
279.592;53022.625;  167.350;    0.000
279.658;47956.625;  189.350;    0.000
279.723;47243.625;  153.350;    0.000
279.789;48048.625;  174.350;    0.000
279.854;43834.625;  129.350;    0.000
279.920;37030.625;  165.350;    0.000
279.985;33981.625;  152.350;    0.000
280.051;34453.625;  164.350;    0.000
280.116;40095.625;  187.350;    0.000
280.182;49248.625;  160.350;    0.000
280.247;53936.625;  124.350;    0.000
280.313;48386.625;  154.350;    0.000
280.378;36892.625;  152.350;    0.000
280.444;27759.625;  165.350;    0.000
280.509;22527.625;  164.350;    0.000
280.574;18713.625;  160.350;    0.000
280.640;16142.625;  167.350;    0.000
280.705;14191.625;  190.350;    0.000
280.771;12875.625;  154.350;    0.000
280.836;11719.625;  158.350;    0.000
280.902;10830.625;  124.350;    0.000
280.967;10230.625;  179.350;    0.000
281.032; 9695.625;  187.350;    0.000
281.098; 9047.625;  155.350;    0.000
281.163; 8591.625;  133.350;    0.000
281.229; 8072.625;  170.350;    0.000
281.294; 7824.625;  175.350;    0.000
281.359; 7407.625;  163.350;    0.000
281.425; 7339.625;  161.350;    0.000
281.490; 6865.625;  162.350;    0.000
281.555; 6759.625;  137.350;    0.000
281.621; 6347.625;  163.350;    0.000
281.686; 6147.625;  155.350;    0.000
281.751; 6115.625;  158.350;    0.000
281.816; 5778.625;  139.350;    0.000
281.882; 5653.625;  150.350;    0.000
281.947; 5463.625;  165.350;    0.000
282.012; 5403.625;  171.350;    0.000
282.078; 5287.625;  177.350;    0.000
282.143; 5050.625;  149.350;    0.000
282.208; 5048.625;  181.350;    0.000
282.273; 4983.625;  166.350;    0.000
282.339; 4835.625;  165.350;    0.000
282.404; 4703.625;  166.350;    0.000
282.469; 4654.625;  150.350;    0.000
282.534; 4647.625;  176.350;    0.000
282.600; 4583.625;  117.350;    0.000
282.665; 4493.625;  134.350;    0.000
282.730; 4329.625;  155.350;    0.000
282.795; 4410.625;  193.350;    0.000
282.860; 4293.625;  160.350;    0.000
282.926; 4243.625;  174.350;    0.000
282.991; 4194.625;  161.350;    0.000
283.056; 4150.625;  157.350;    0.000
283.121; 4192.625;  178.350;    0.000
283.186; 4142.625;  152.350;    0.000
283.251; 4119.625;  167.350;    0.000
283.316; 4088.625;  186.350;    0.000
283.382; 4122.625;  148.350;    0.000
283.447; 4011.625;  191.350;    0.000
283.512; 4000.625;  132.350;    0.000
283.577; 3891.625;  179.350;    0.000
283.642; 3909.625;  185.350;    0.000
283.707; 3822.625;  136.350;    0.000
283.772; 3835.625;  119.350;    0.000
283.837; 3813.625;  136.350;    0.000
283.902; 3839.625;  135.350;    0.000
283.967; 3734.625;  146.350;    0.000
284.032; 3726.625;  140.350;    0.000
284.097; 3789.625;  199.350;    0.000
284.163; 3812.625;  144.350;    0.000
284.228; 3947.625;  183.350;    0.000
284.293; 3894.625;  141.350;    0.000
284.358; 3892.625;  146.350;    0.000
284.423; 3874.625;  127.350;    0.000
284.488; 4181.625;  186.350;    0.000
284.553; 4093.625;  155.350;    0.000
284.618; 4082.625;  118.350;    0.000
284.683; 4307.625;  145.350;    0.000
284.748; 4590.625;  139.350;    0.000
284.812; 4942.625;  147.350;    0.000
284.877; 5362.625;  123.350;    0.000
284.942; 6254.625;  153.350;    0.000
285.007; 7499.625;  168.350;    0.000
285.072;10188.625;  181.350;    0.000
285.137;15664.625;  147.350;    0.000
285.202;20266.625;  175.350;    0.000
285.267;18022.625;  182.350;    0.000
285.332;12471.625;  136.350;    0.000
285.397; 9151.625;  138.350;    0.000
285.462; 7405.625;  151.350;    0.000
285.527; 6440.625;  159.350;    0.000
285.591; 5684.625;  177.350;    0.000
285.656; 5271.625;  144.350;    0.000
285.721; 4833.625;  125.350;    0.000
285.786; 4646.625;  169.350;    0.000
285.851; 4507.625;  175.350;    0.000
285.916; 4161.625;  164.350;    0.000
285.981; 4115.625;  134.350;    0.000
286.045; 3974.625;  154.350;    0.000
286.110; 3948.625;  136.350;    0.000
286.175; 3889.625;  155.350;    0.000
286.240; 3850.625;  138.350;    0.000
286.305; 3739.625;  213.350;    0.000
286.369; 3754.625;  221.350;    0.000
286.434; 3655.625;  172.350;    0.000
286.499; 3664.625;  161.350;    0.000
286.564; 3548.625;  189.350;    0.000
286.628; 3691.625;  144.350;    0.000
286.693; 3592.625;  176.350;    0.000
286.758; 3501.625;  168.350;    0.000
286.823; 3431.625;  142.350;    0.000
286.887; 3497.625;  134.350;    0.000
286.952; 3429.625;  180.350;    0.000
287.017; 3377.625;  204.350;    0.000
287.082; 3336.625;  120.350;    0.000
287.146; 3395.625;  173.350;    0.000
287.211; 3268.625;  167.350;    0.000
287.276; 3314.625;  164.350;    0.000
287.340; 3306.625;  138.350;    0.000
287.405; 3155.625;  172.350;    0.000
287.470; 3299.625;  142.350;    0.000
287.534; 3367.625;  155.350;    0.000
287.599; 3404.625;  166.350;    0.000
287.663; 3326.625;  171.350;    0.000
287.728; 3289.625;  190.350;    0.000
287.793; 3385.625;  197.350;    0.000
287.857; 3295.625;  165.350;    0.000
287.922; 3349.625;  147.350;    0.000
287.987; 3296.625;  167.350;    0.000
288.051; 3298.625;  151.350;    0.000
288.116; 3394.625;  154.350;    0.000
288.180; 3267.625;  186.350;    0.000
288.245; 3294.625;  161.350;    0.000
288.309; 3287.625;  177.350;    0.000
288.374; 3210.625;  151.350;    0.000
288.439; 3092.625;  169.350;    0.000
288.503; 3175.625;  133.350;    0.000
288.568; 3288.625;  206.350;    0.000
288.632; 3203.625;  192.350;    0.000
288.697; 3184.625;  183.350;    0.000
288.761; 3091.625;  148.350;    0.000
288.826; 3209.625;  136.350;    0.000
288.890; 3127.625;  185.350;    0.000
288.955; 3179.625;  150.350;    0.000
289.019; 3221.625;  165.350;    0.000
289.084; 3119.625;  150.350;    0.000
289.148; 3044.625;  146.350;    0.000
289.212; 3231.625;  172.350;    0.000
289.277; 3207.625;  177.350;    0.000
289.341; 3102.625;  190.350;    0.000
289.406; 3151.625;  117.350;    0.000
289.470; 3055.625;  173.350;    0.000
289.535; 3173.625;  170.350;    0.000
289.599; 3197.625;  154.350;    0.000
289.663; 3090.625;  173.350;    0.000
289.728; 3127.625;  176.350;    0.000
289.792; 3195.625;  138.350;    0.000
289.857; 3048.625;  203.350;    0.000
289.921; 3098.625;  143.350;    0.000
289.985; 3164.625;  150.350;    0.000
290.050; 3069.625;  170.350;    0.000
290.114; 3045.625;  125.350;    0.000
290.178; 3077.625;  161.350;    0.000
290.243; 3040.625;  119.350;    0.000
290.307; 3117.625;  169.350;    0.000
290.371; 3154.625;  169.350;    0.000
290.436; 3174.625;  170.350;    0.000
290.500; 3102.625;  144.350;    0.000
290.564; 3085.625;  179.350;    0.000
290.629; 3188.625;  166.350;    0.000
290.693; 3098.625;  156.350;    0.000
290.757; 3192.625;  147.350;    0.000
290.821; 3142.625;  170.350;    0.000
290.886; 3194.625;  167.350;    0.000
290.950; 3137.625;  187.350;    0.000
291.014; 3104.625;  164.350;    0.000
291.078; 3199.625;  115.350;    0.000
291.143; 3232.625;  149.350;    0.000
291.207; 3284.625;  163.350;    0.000
291.271; 3232.625;  177.350;    0.000
291.335; 3391.625;  148.350;    0.000
291.399; 3305.625;  155.350;    0.000
291.464; 3591.625;  114.350;    0.000
291.528; 3593.625;  153.350;    0.000
291.592; 3675.625;  156.350;    0.000
291.656; 3427.625;  170.350;    0.000
291.720; 3422.625;  159.350;    0.000
291.784; 3293.625;  159.350;    0.000
291.849; 3540.625;  154.350;    0.000
291.913; 3317.625;  118.350;    0.000
291.977; 3329.625;  157.350;    0.000
292.041; 3428.625;  163.350;    0.000
292.105; 3426.625;  135.350;    0.000
292.169; 3391.625;  155.350;    0.000
292.233; 3372.625;  163.350;    0.000
292.297; 3510.625;  144.350;    0.000
292.361; 3487.625;  143.350;    0.000
292.425; 3620.625;  177.350;    0.000
292.490; 3727.625;  159.350;    0.000
292.554; 3899.625;  137.350;    0.000
292.618; 4030.625;  144.350;    0.000
292.682; 4389.625;  169.350;    0.000
292.746; 4937.625;  166.350;    0.000
292.810; 6543.625;  147.350;    0.000
292.874; 8245.625;  160.350;    0.000
292.938; 8272.625;  174.350;    0.000
293.002; 7396.625;  148.350;    0.000
293.066; 6690.625;  115.350;    0.000
293.130; 6109.625;  133.350;    0.000
293.194; 5892.625;  148.350;    0.000
293.258; 5769.625;  167.350;    0.000
293.322; 5729.625;  166.350;    0.000
293.386; 5718.625;  193.350;    0.000
293.450; 6174.625;  142.350;    0.000
293.514; 6861.625;  170.350;    0.000
293.577; 9020.625;  153.350;    0.000
293.641;12222.625;  171.350;    0.000
293.705;12934.625;  168.350;    0.000
293.769;11618.625;  155.350;    0.000
293.833;10114.625;  161.350;    0.000
293.897; 8899.625;  124.350;    0.000
293.961; 7850.625;  165.350;    0.000
294.025; 7020.625;  118.350;    0.000
294.089; 6524.625;  125.350;    0.000
294.152; 6132.625;  160.350;    0.000
294.216; 5707.625;  160.350;    0.000
294.280; 5294.625;  158.350;    0.000
294.344; 5147.625;  119.350;    0.000
294.408; 5013.625;  168.350;    0.000
294.472; 4641.625;  156.350;    0.000
294.536; 4551.625;  192.350;    0.000
294.599; 4382.625;  171.350;    0.000
294.663; 4189.625;  139.350;    0.000
294.727; 4046.625;  136.350;    0.000
294.791; 3956.625;  118.350;    0.000
294.855; 3953.625;  118.350;    0.000
294.918; 3850.625;  127.350;    0.000
294.982; 3688.625;  167.350;    0.000
295.046; 3630.625;  178.350;    0.000
295.110; 3653.625;  157.350;    0.000
295.173; 3548.625;  101.350;    0.000
295.237; 3518.625;  145.350;    0.000
295.301; 3539.625;  135.350;    0.000
295.364; 3450.625;  185.350;    0.000
295.428; 3480.625;  112.350;    0.000
295.492; 3361.625;  142.350;    0.000
295.556; 3388.625;  170.350;    0.000
295.619; 3325.625;  193.350;    0.000
295.683; 3336.625;  144.350;    0.000
295.747; 3273.625;  152.350;    0.000
295.810; 3324.625;  139.350;    0.000
295.874; 3265.625;  157.350;    0.000
295.938; 3282.625;  128.350;    0.000
296.001; 3173.625;  164.350;    0.000
296.065; 3078.625;  184.350;    0.000
296.128; 3151.625;  127.350;    0.000
296.192; 3084.625;  166.350;    0.000
296.256; 3130.625;  154.350;    0.000
296.319; 3006.625;  128.350;    0.000
296.383; 3118.625;  146.350;    0.000
296.447; 2957.625;  155.350;    0.000
296.510; 3133.625;  177.350;    0.000
296.574; 2962.625;  169.350;    0.000
296.637; 3010.625;  140.350;    0.000
296.701; 2972.625;  181.350;    0.000
296.764; 2916.625;  131.350;    0.000
296.828; 2992.625;  194.350;    0.000
296.891; 2908.625;  146.350;    0.000
296.955; 2884.625;  160.350;    0.000
297.018; 2935.625;  174.350;    0.000
297.082; 2863.625;  153.350;    0.000
297.145; 2911.625;  133.350;    0.000
297.209; 2951.625;  149.350;    0.000
297.272; 2899.625;  150.350;    0.000
297.336; 2877.625;  119.350;    0.000
297.399; 2967.625;  160.350;    0.000
297.463; 2929.625;  158.350;    0.000
297.526; 2875.625;  160.350;    0.000
297.590; 2947.625;  173.350;    0.000
297.653; 2830.625;  121.350;    0.000
297.717; 2855.625;  168.350;    0.000
297.780; 2856.625;  131.350;    0.000
297.843; 2893.625;  154.350;    0.000
297.907; 2829.625;  126.350;    0.000
297.970; 2794.625;  180.350;    0.000
298.034; 2769.625;  140.350;    0.000
298.097; 2755.625;  207.350;    0.000
298.160; 2816.625;  177.350;    0.000
298.224; 2888.625;  165.350;    0.000
298.287; 2838.625;  160.350;    0.000
298.350; 2734.625;  176.350;    0.000
298.414; 2825.625;  155.350;    0.000
298.477; 2697.625;  132.350;    0.000
298.540; 2801.625;  162.350;    0.000
298.604; 2750.625;  180.350;    0.000
298.667; 2734.625;  208.350;    0.000
298.730; 2700.625;  177.350;    0.000
298.794; 2730.625;  126.350;    0.000
298.857; 2744.625;  171.350;    0.000
298.920; 2724.625;  124.350;    0.000
298.984; 2650.625;  146.350;    0.000
299.047; 2729.625;  140.350;    0.000
299.110; 2602.625;  159.350;    0.000
299.173; 2697.625;  177.350;    0.000
299.237; 2657.625;  196.350;    0.000
299.300; 2612.625;  121.350;    0.000
299.363; 2640.625;  172.350;    0.000
299.426; 2650.625;  117.350;    0.000
299.489; 2536.625;  138.350;    0.000
299.553; 2616.625;  198.350;    0.000
299.616; 2687.625;  158.350;    0.000
299.679; 2575.625;  148.350;    0.000
299.742; 2492.625;  138.350;    0.000
299.805; 2587.625;  157.350;    0.000
299.868; 2569.625;  183.350;    0.000
299.932; 2565.625;  137.350;    0.000
299.995; 2585.625;  152.350;    0.000
300.058; 2489.625;  171.350;    0.000
300.121; 2487.625;  172.350;    0.000
300.184; 2570.625;  161.350;    0.000
300.247; 2512.625;  156.350;    0.000
300.310; 2474.625;  154.350;    0.000
300.374; 2554.625;  147.350;    0.000
300.437; 2527.625;  144.350;    0.000
300.500; 2524.625;  152.350;    0.000
300.563; 2513.625;  160.350;    0.000
300.626; 2506.625;  167.350;    0.000
300.689; 2480.625;  193.350;    0.000
300.752; 2503.625;  134.350;    0.000
300.815; 2425.625;  194.350;    0.000
300.878; 2526.625;  156.350;    0.000
300.941; 2558.625;  177.350;    0.000
301.004; 2459.625;  160.350;    0.000
301.067; 2477.625;  153.350;    0.000
301.130; 2550.625;  167.350;    0.000
301.193; 2446.625;  156.350;    0.000
301.256; 2404.625;  176.350;    0.000
301.319; 2523.625;  172.350;    0.000
301.382; 2492.625;  150.350;    0.000
301.445; 2478.625;  183.350;    0.000
301.508; 2364.625;  118.350;    0.000
301.571; 2349.625;  142.350;    0.000
301.634; 2395.625;  164.350;    0.000
301.697; 2499.625;  169.350;    0.000
301.760; 2462.625;  197.350;    0.000
301.823; 2437.625;  155.350;    0.000
301.885; 2456.625;  165.350;    0.000
301.948; 2441.625;  168.350;    0.000
302.011; 2455.625;  172.350;    0.000
302.074; 2470.625;  182.350;    0.000
302.137; 2392.625;  161.350;    0.000
302.200; 2449.625;  174.350;    0.000
302.263; 2428.625;  158.350;    0.000
302.326; 2459.625;  168.350;    0.000
302.388; 2460.625;  165.350;    0.000
302.451; 2373.625;  158.350;    0.000
302.514; 2406.625;  181.350;    0.000
302.577; 2447.625;  147.350;    0.000
302.640; 2399.625;  178.350;    0.000
302.703; 2435.625;  164.350;    0.000
302.765; 2440.625;  149.350;    0.000
302.828; 2488.625;  192.350;    0.000
302.891; 2521.625;  201.350;    0.000
302.954; 2347.625;  135.350;    0.000
303.016; 2511.625;  180.350;    0.000
303.079; 2377.625;  192.350;    0.000
303.142; 2377.625;  176.350;    0.000
303.205; 2424.625;  176.350;    0.000
303.267; 2365.625;  163.350;    0.000
303.330; 2413.625;  162.350;    0.000
303.393; 2408.625;  164.350;    0.000
303.456; 2384.625;  180.350;    0.000
303.518; 2387.625;  162.350;    0.000
303.581; 2404.625;  137.350;    0.000
303.644; 2384.625;  135.350;    0.000
303.706; 2453.625;  170.350;    0.000
303.769; 2419.625;  216.350;    0.000
303.832; 2303.625;  143.350;    0.000
303.894; 2479.625;  162.350;    0.000
303.957; 2457.625;  149.350;    0.000
304.020; 2488.625;  111.350;    0.000
304.082; 2491.625;  158.350;    0.000
304.145; 2373.625;  149.350;    0.000
304.207; 2401.625;  169.350;    0.000
304.270; 2460.625;  170.350;    0.000
304.333; 2469.625;  185.350;    0.000
304.395; 2393.625;  179.350;    0.000
304.458; 2370.625;  174.350;    0.000
304.520; 2400.625;  160.350;    0.000
304.583; 2461.625;  175.350;    0.000
304.646; 2330.625;  160.350;    0.000
304.708; 2378.625;  173.350;    0.000
304.771; 2370.625;  115.350;    0.000
304.833; 2419.625;  172.350;    0.000
304.896; 2400.625;  187.350;    0.000
304.958; 2398.625;  142.350;    0.000
305.021; 2354.625;  164.350;    0.000
305.083; 2376.625;  139.350;    0.000
305.146; 2385.625;  162.350;    0.000
305.208; 2333.625;  135.350;    0.000
305.271; 2380.625;  159.350;    0.000
305.333; 2388.625;  210.350;    0.000
305.396; 2389.625;  151.350;    0.000
305.458; 2382.625;  195.350;    0.000
305.520; 2346.625;  179.350;    0.000
305.583; 2347.625;  157.350;    0.000
305.645; 2457.625;  187.350;    0.000
305.708; 2422.625;  159.350;    0.000
305.770; 2398.625;  189.350;    0.000
305.833; 2492.625;  147.350;    0.000
305.895; 2455.625;  154.350;    0.000
305.957; 2430.625;  143.350;    0.000
306.020; 2382.625;  133.350;    0.000
306.082; 2412.625;  146.350;    0.000
306.144; 2449.625;  171.350;    0.000
306.207; 2395.625;  151.350;    0.000
306.269; 2380.625;  169.350;    0.000
306.331; 2462.625;  162.350;    0.000
306.394; 2443.625;  171.350;    0.000
306.456; 2322.625;  155.350;    0.000
306.518; 2413.625;  183.350;    0.000
306.581; 2417.625;  180.350;    0.000
306.643; 2426.625;  199.350;    0.000
306.705; 2403.625;  163.350;    0.000
306.768; 2418.625;  183.350;    0.000
306.830; 2404.625;  183.350;    0.000
306.892; 2416.625;  190.350;    0.000
306.954; 2460.625;  161.350;    0.000
307.017; 2481.625;  151.350;    0.000
307.079; 2514.625;  147.350;    0.000
307.141; 2515.625;  179.350;    0.000
307.203; 2535.625;  143.350;    0.000
307.266; 2507.625;  142.350;    0.000
307.328; 2522.625;  161.350;    0.000
307.390; 2448.625;  189.350;    0.000
307.452; 2509.625;  155.350;    0.000
307.514; 2577.625;  211.350;    0.000
307.577; 2563.625;  201.350;    0.000
307.639; 2494.625;  192.350;    0.000
307.701; 2621.625;  162.350;    0.000
307.763; 2542.625;  155.350;    0.000
307.825; 2544.625;  193.350;    0.000
307.887; 2469.625;  214.350;    0.000
307.949; 2556.625;  208.350;    0.000
308.012; 2538.625;  175.350;    0.000
308.074; 2604.625;  155.350;    0.000
308.136; 2577.625;  172.350;    0.000
308.198; 2568.625;  171.350;    0.000
308.260; 2669.625;  182.350;    0.000
308.322; 2528.625;  177.350;    0.000
308.384; 2607.625;  207.350;    0.000
308.446; 2532.625;  170.350;    0.000
308.508; 2665.625;  177.350;    0.000
308.570; 2572.625;  195.350;    0.000
308.632; 2655.625;  190.350;    0.000
308.694; 2767.625;  161.350;    0.000
308.756; 2633.625;  173.350;    0.000
308.818; 2668.625;  190.350;    0.000
308.880; 2677.625;  197.350;    0.000
308.942; 2769.625;  223.350;    0.000
309.004; 2801.625;  176.350;    0.000
309.066; 2818.625;  182.350;    0.000
309.128; 2891.625;  185.350;    0.000
309.190; 2892.625;  166.350;    0.000
309.252; 2946.625;  191.350;    0.000
309.314; 3168.625;  208.350;    0.000
309.376; 3012.625;  205.350;    0.000
309.438; 2943.625;  166.350;    0.000
309.500; 2983.625;  195.350;    0.000
309.562; 3060.625;  163.350;    0.000
309.624; 3111.625;  162.350;    0.000
309.686; 3155.625;  194.350;    0.000
309.747; 3173.625;  179.350;    0.000
309.809; 3031.625;  211.350;    0.000
309.871; 2995.625;  191.350;    0.000
309.933; 2929.625;  151.350;    0.000
309.995; 2949.625;  179.350;    0.000
310.057; 2884.625;  175.350;    0.000
310.119; 2851.625;  161.350;    0.000
310.180; 2765.625;  167.350;    0.000
310.242; 2824.625;  171.350;    0.000
310.304; 2822.625;  209.350;    0.000
310.366; 2823.625;  229.350;    0.000
310.428; 2745.625;  132.350;    0.000
310.489; 2708.625;  165.350;    0.000
310.551; 2731.625;  193.350;    0.000
310.613; 2762.625;  182.350;    0.000
310.675; 2753.625;  186.350;    0.000
310.737; 2778.625;  192.350;    0.000
310.798; 2783.625;  194.350;    0.000
310.860; 2765.625;  220.350;    0.000
310.922; 2646.625;  161.350;    0.000
310.983; 2686.625;  203.350;    0.000
311.045; 2682.625;  198.350;    0.000
311.107; 2783.625;  179.350;    0.000
311.169; 2622.625;  154.350;    0.000
311.230; 2670.625;  134.350;    0.000
311.292; 2686.625;  215.350;    0.000
311.354; 2748.625;  171.350;    0.000
311.415; 2681.625;  195.350;    0.000
311.477; 2640.625;  185.350;    0.000
311.539; 2670.625;  183.350;    0.000
311.600; 2618.625;  183.350;    0.000
311.662; 2751.625;  207.350;    0.000
311.724; 2676.625;  193.350;    0.000
311.785; 2595.625;  180.350;    0.000
311.847; 2692.625;  155.350;    0.000
311.908; 2706.625;  179.350;    0.000
311.970; 2673.625;  193.350;    0.000
312.032; 2715.625;  188.350;    0.000
312.093; 2703.625;  166.350;    0.000
312.155; 2555.625;  147.350;    0.000
312.216; 2686.625;  177.350;    0.000
312.278; 2618.625;  162.350;    0.000
312.339; 2587.625;  158.350;    0.000
312.401; 2569.625;  181.350;    0.000
312.462; 2655.625;  153.350;    0.000
312.524; 2674.625;  186.350;    0.000
312.585; 2690.625;  191.350;    0.000
312.647; 2679.625;  131.350;    0.000
312.708; 2632.625;  170.350;    0.000
312.770; 2689.625;  194.350;    0.000
312.831; 2616.625;  161.350;    0.000
312.893; 2676.625;  179.350;    0.000
312.954; 2717.625;  183.350;    0.000
313.016; 2661.625;  189.350;    0.000
313.077; 2656.625;  169.350;    0.000
313.139; 2663.625;  148.350;    0.000
313.200; 2673.625;  155.350;    0.000
313.261; 2668.625;  213.350;    0.000
313.323; 2664.625;  162.350;    0.000
313.384; 2621.625;  160.350;    0.000
313.446; 2759.625;  202.350;    0.000
313.507; 2696.625;  149.350;    0.000
313.568; 2631.625;  194.350;    0.000
313.630; 2647.625;  163.350;    0.000
313.691; 2674.625;  158.350;    0.000
313.752; 2637.625;  179.350;    0.000
313.814; 2643.625;  180.350;    0.000
313.875; 2659.625;  191.350;    0.000
313.936; 2569.625;  169.350;    0.000
313.998; 2650.625;  165.350;    0.000
314.059; 2620.625;  211.350;    0.000
314.120; 2617.625;  190.350;    0.000
314.182; 2593.625;  185.350;    0.000
314.243; 2698.625;  186.350;    0.000
314.304; 2646.625;  178.350;    0.000
314.365; 2731.625;  187.350;    0.000
314.427; 2750.625;  145.350;    0.000
314.488; 2648.625;  184.350;    0.000
314.549; 2598.625;  181.350;    0.000
314.610; 2538.625;  151.350;    0.000
314.672; 2645.625;  153.350;    0.000
314.733; 2706.625;  148.350;    0.000
314.794; 2557.625;  156.350;    0.000
314.855; 2634.625;  196.350;    0.000
314.917; 2748.625;  157.350;    0.000
314.978; 2734.625;  174.350;    0.000
315.039; 2588.625;  168.350;    0.000
315.100; 2620.625;  154.350;    0.000
315.161; 2622.625;  176.350;    0.000
315.222; 2683.625;  198.350;    0.000
315.283; 2598.625;  169.350;    0.000
315.345; 2567.625;  162.350;    0.000
315.406; 2581.625;  199.350;    0.000
315.467; 2646.625;  180.350;    0.000
315.528; 2625.625;  179.350;    0.000
315.589; 2584.625;  166.350;    0.000
315.650; 2629.625;  179.350;    0.000
315.711; 2684.625;  177.350;    0.000
315.772; 2618.625;  180.350;    0.000
315.833; 2556.625;  157.350;    0.000
315.894; 2611.625;  133.350;    0.000
315.955; 2654.625;  205.350;    0.000
316.016; 2635.625;  190.350;    0.000
316.078; 2578.625;  174.350;    0.000
316.139; 2625.625;  208.350;    0.000
316.200; 2657.625;  166.350;    0.000
316.261; 2656.625;  186.350;    0.000
316.322; 2677.625;  185.350;    0.000
316.383; 2680.625;  179.350;    0.000
316.444; 2730.625;  172.350;    0.000
316.504; 2698.625;  181.350;    0.000
316.565; 2509.625;  197.350;    0.000
316.626; 2552.625;  196.350;    0.000
316.687; 2611.625;  173.350;    0.000
316.748; 2656.625;  178.350;    0.000
316.809; 2562.625;  178.350;    0.000
316.870; 2592.625;  134.350;    0.000
316.931; 2623.625;  166.350;    0.000
316.992; 2673.625;  200.350;    0.000
317.053; 2567.625;  169.350;    0.000
317.114; 2668.625;  185.350;    0.000
317.175; 2567.625;  213.350;    0.000
317.235; 2573.625;  199.350;    0.000
317.296; 2534.625;  190.350;    0.000
317.357; 2597.625;  152.350;    0.000
317.418; 2531.625;  192.350;    0.000
317.479; 2493.625;  170.350;    0.000
317.540; 2644.625;  179.350;    0.000
317.601; 2616.625;  155.350;    0.000
317.661; 2602.625;  154.350;    0.000
317.722; 2575.625;  190.350;    0.000
317.783; 2604.625;  149.350;    0.000
317.844; 2613.625;  207.350;    0.000
317.904; 2599.625;  153.350;    0.000
317.965; 2556.625;  179.350;    0.000
318.026; 2587.625;  235.350;    0.000
318.087; 2651.625;  184.350;    0.000
318.148; 2572.625;  201.350;    0.000
318.208; 2597.625;  220.350;    0.000
318.269; 2629.625;  175.350;    0.000
318.330; 2589.625;  185.350;    0.000
318.390; 2585.625;  180.350;    0.000
318.451; 2521.625;  164.350;    0.000
318.512; 2632.625;  150.350;    0.000
318.572; 2584.625;  205.350;    0.000
318.633; 2604.625;  224.350;    0.000
318.694; 2572.625;  202.350;    0.000
318.754; 2540.625;  196.350;    0.000
318.815; 2469.625;  187.350;    0.000
318.876; 2571.625;  200.350;    0.000
318.936; 2597.625;  232.350;    0.000
318.997; 2549.625;  211.350;    0.000
319.058; 2577.625;  194.350;    0.000
319.118; 2598.625;  197.350;    0.000
319.179; 2677.625;  162.350;    0.000
319.239; 2526.625;  188.350;    0.000
319.300; 2614.625;  205.350;    0.000
319.361; 2564.625;  179.350;    0.000
319.421; 2518.625;  182.350;    0.000
319.482; 2578.625;  189.350;    0.000
319.542; 2532.625;  180.350;    0.000
319.603; 2452.625;  204.350;    0.000
319.663; 2523.625;  195.350;    0.000
319.724; 2518.625;  135.350;    0.000
319.784; 2546.625;  184.350;    0.000
319.845; 2611.625;  160.350;    0.000
319.905; 2463.625;  206.350;    0.000
319.966; 2483.625;  203.350;    0.000
320.026; 2574.625;  203.350;    0.000
320.087; 2574.625;  206.350;    0.000
320.147; 2527.625;  180.350;    0.000
320.208; 2573.625;  189.350;    0.000
320.268; 2587.625;  179.350;    0.000
320.329; 2558.625;  215.350;    0.000
320.389; 2544.625;  193.350;    0.000
320.449; 2557.625;  210.350;    0.000
320.510; 2622.625;  206.350;    0.000
320.570; 2537.625;  221.350;    0.000
320.631; 2602.625;  203.350;    0.000
320.691; 2563.625;  190.350;    0.000
320.751; 2490.625;  205.350;    0.000
320.812; 2622.625;  191.350;    0.000
320.872; 2638.625;  216.350;    0.000
320.932; 2616.625;  209.350;    0.000
320.993; 2523.625;  189.350;    0.000
321.053; 2524.625;  228.350;    0.000
321.113; 2580.625;  163.350;    0.000
321.174; 2570.625;  204.350;    0.000
321.234; 2555.625;  214.350;    0.000
321.294; 2555.625;  184.350;    0.000
321.355; 2427.625;  216.350;    0.000
321.415; 2567.625;  187.350;    0.000
321.475; 2546.625;  216.350;    0.000
321.535; 2545.625;  189.350;    0.000
321.596; 2547.625;  186.350;    0.000
321.656; 2531.625;  204.350;    0.000
321.716; 2559.625;  183.350;    0.000
321.776; 2524.625;  194.350;    0.000
321.837; 2494.625;  190.350;    0.000
321.897; 2451.625;  219.350;    0.000
321.957; 2485.625;  222.350;    0.000
322.017; 2467.625;  183.350;    0.000
322.077; 2509.625;  239.350;    0.000
322.138; 2586.625;  219.350;    0.000
322.198; 2507.625;  185.350;    0.000
322.258; 2460.625;  231.350;    0.000
322.318; 2471.625;  197.350;    0.000
322.378; 2540.625;  179.350;    0.000
322.438; 2470.625;  217.350;    0.000
322.499; 2463.625;  238.350;    0.000
322.559; 2545.625;  197.350;    0.000
322.619; 2417.625;  204.350;    0.000
322.679; 2439.625;  199.350;    0.000
322.739; 2478.625;  194.350;    0.000
322.799; 2495.625;  203.350;    0.000
322.859; 2484.625;  234.350;    0.000
322.919; 2478.625;  194.350;    0.000
322.979; 2527.625;  219.350;    0.000
323.039; 2480.625;  193.350;    0.000
323.099; 2465.625;  207.350;    0.000
323.159; 2411.625;  213.350;    0.000
323.219; 2494.625;  171.350;    0.000
323.279; 2515.625;  215.350;    0.000
323.339; 2507.625;  170.350;    0.000
323.399; 2496.625;  195.350;    0.000
323.459; 2521.625;  234.350;    0.000
323.519; 2578.625;  201.350;    0.000
323.579; 2547.625;  167.350;    0.000
323.639; 2567.625;  209.350;    0.000
323.699; 2461.625;  217.350;    0.000
323.759; 2572.625;  213.350;    0.000
323.819; 2494.625;  216.350;    0.000
323.879; 2519.625;  193.350;    0.000
323.939; 2441.625;  182.350;    0.000
323.999; 2522.625;  206.350;    0.000
324.059; 2533.625;  196.350;    0.000
324.119; 2444.625;  240.350;    0.000
324.178; 2405.625;  186.350;    0.000
324.238; 2494.625;  179.350;    0.000
324.298; 2534.625;  195.350;    0.000
324.358; 2566.625;  208.350;    0.000
324.418; 2469.625;  190.350;    0.000
324.478; 2506.625;  197.350;    0.000
324.538; 2492.625;  157.350;    0.000
324.597; 2476.625;  219.350;    0.000
324.657; 2474.625;  176.350;    0.000
324.717; 2544.625;  179.350;    0.000
324.777; 2464.625;  190.350;    0.000
324.837; 2471.625;  172.350;    0.000
324.896; 2521.625;  199.350;    0.000
324.956; 2488.625;  216.350;    0.000
325.016; 2553.625;  191.350;    0.000
325.076; 2545.625;  185.350;    0.000
325.135; 2547.625;  174.350;    0.000
325.195; 2516.625;  175.350;    0.000
325.255; 2451.625;  144.350;    0.000
325.315; 2454.625;  201.350;    0.000
325.374; 2460.625;  198.350;    0.000
325.434; 2447.625;  181.350;    0.000
325.494; 2485.625;  183.350;    0.000
325.553; 2405.625;  172.350;    0.000
325.613; 2468.625;  200.350;    0.000
325.673; 2537.625;  177.350;    0.000
325.732; 2457.625;  174.350;    0.000
325.792; 2506.625;  181.350;    0.000
325.852; 2348.625;  214.350;    0.000
325.911; 2479.625;  230.350;    0.000
325.971; 2470.625;  198.350;    0.000
326.031; 2498.625;  201.350;    0.000
326.090; 2494.625;  214.350;    0.000
326.150; 2423.625;  163.350;    0.000
326.209; 2491.625;  207.350;    0.000
326.269; 2506.625;  201.350;    0.000
326.328; 2488.625;  208.350;    0.000
326.388; 2438.625;  169.350;    0.000
326.448; 2541.625;  229.350;    0.000
326.507; 2523.625;  243.350;    0.000
326.567; 2468.625;  162.350;    0.000
326.626; 2395.625;  200.350;    0.000
326.686; 2438.625;  166.350;    0.000
326.745; 2346.625;  178.350;    0.000
326.805; 2377.625;  185.350;    0.000
326.864; 2359.625;  209.350;    0.000
326.924; 2413.625;  234.350;    0.000
326.983; 2418.625;  197.350;    0.000
327.043; 2410.625;  217.350;    0.000
327.102; 2440.625;  174.350;    0.000
327.161; 2407.625;  172.350;    0.000
327.221; 2436.625;  183.350;    0.000
327.280; 2434.625;  200.350;    0.000
327.340; 2364.625;  200.350;    0.000
327.399; 2375.625;  219.350;    0.000
327.459; 2395.625;  246.350;    0.000
327.518; 2383.625;  217.350;    0.000
327.577; 2354.625;  212.350;    0.000
327.637; 2393.625;  188.350;    0.000
327.696; 2463.625;  201.350;    0.000
327.755; 2337.625;  199.350;    0.000
327.815; 2369.625;  224.350;    0.000
327.874; 2428.625;  236.350;    0.000
327.933; 2432.625;  182.350;    0.000
327.993; 2407.625;  206.350;    0.000
328.052; 2348.625;  191.350;    0.000
328.111; 2416.625;  222.350;    0.000
328.171; 2387.625;  200.350;    0.000
328.230; 2377.625;  203.350;    0.000
328.289; 2341.625;  219.350;    0.000
328.349; 2399.625;  231.350;    0.000
328.408; 2415.625;  223.350;    0.000
328.467; 2395.625;  226.350;    0.000
328.526; 2316.625;  197.350;    0.000
328.586; 2412.625;  221.350;    0.000
328.645; 2345.625;  199.350;    0.000
328.704; 2373.625;  227.350;    0.000
328.763; 2283.625;  201.350;    0.000
328.822; 2369.625;  230.350;    0.000
328.882; 2351.625;  244.350;    0.000
328.941; 2380.625;  221.350;    0.000
329.000; 2354.625;  207.350;    0.000
329.059; 2365.625;  208.350;    0.000
329.118; 2310.625;  203.350;    0.000
329.177; 2337.625;  198.350;    0.000
329.237; 2391.625;  218.350;    0.000
329.296; 2340.625;  213.350;    0.000
329.355; 2410.625;  208.350;    0.000
329.414; 2374.625;  231.350;    0.000
329.473; 2386.625;  221.350;    0.000
329.532; 2411.625;  243.350;    0.000
329.591; 2479.625;  210.350;    0.000
329.650; 2342.625;  232.350;    0.000
329.709; 2484.625;  211.350;    0.000
329.768; 2460.625;  194.350;    0.000
329.827; 2517.625;  237.350;    0.000
329.886; 2469.625;  213.350;    0.000
329.945; 2540.625;  190.350;    0.000
330.004; 2599.625;  233.350;    0.000
330.063; 2693.625;  191.350;    0.000
330.122; 2850.625;  234.350;    0.000
330.181; 3088.625;  220.350;    0.000
330.240; 3089.625;  191.350;    0.000
330.299; 2789.625;  210.350;    0.000
330.358; 2508.625;  191.350;    0.000
330.417; 2524.625;  225.350;    0.000
330.476; 2485.625;  226.350;    0.000
330.535; 2420.625;  217.350;    0.000
330.594; 2408.625;  205.350;    0.000
330.653; 2437.625;  193.350;    0.000
330.712; 2403.625;  206.350;    0.000
330.771; 2364.625;  175.350;    0.000
330.830; 2403.625;  204.350;    0.000
330.889; 2407.625;  198.350;    0.000
330.948; 2326.625;  198.350;    0.000
331.006; 2301.625;  207.350;    0.000
331.065; 2369.625;  203.350;    0.000
331.124; 2385.625;  210.350;    0.000
331.183; 2355.625;  165.350;    0.000
331.242; 2266.625;  195.350;    0.000
331.301; 2332.625;  191.350;    0.000
331.359; 2342.625;  205.350;    0.000
331.418; 2408.625;  183.350;    0.000
331.477; 2329.625;  198.350;    0.000
331.536; 2310.625;  211.350;    0.000
331.595; 2297.625;  191.350;    0.000
331.653; 2342.625;  232.350;    0.000
331.712; 2315.625;  225.350;    0.000
331.771; 2274.625;  199.350;    0.000
331.830; 2218.625;  189.350;    0.000
331.888; 2330.625;  219.350;    0.000
331.947; 2298.625;  188.350;    0.000
332.006; 2329.625;  180.350;    0.000
332.065; 2306.625;  177.350;    0.000
332.123; 2240.625;  214.350;    0.000
332.182; 2282.625;  223.350;    0.000
332.241; 2344.625;  202.350;    0.000
332.299; 2248.625;  180.350;    0.000
332.358; 2384.625;  206.350;    0.000
332.417; 2297.625;  195.350;    0.000
332.475; 2312.625;  221.350;    0.000
332.534; 2269.625;  207.350;    0.000
332.592; 2323.625;  190.350;    0.000
332.651; 2327.625;  203.350;    0.000
332.710; 2268.625;  219.350;    0.000
332.768; 2287.625;  210.350;    0.000
332.827; 2314.625;  173.350;    0.000
332.885; 2387.625;  239.350;    0.000
332.944; 2345.625;  145.350;    0.000
333.003; 2383.625;  197.350;    0.000
333.061; 2409.625;  179.350;    0.000
333.120; 2426.625;  198.350;    0.000
333.178; 2535.625;  185.350;    0.000
333.237; 2426.625;  204.350;    0.000
333.295; 2553.625;  266.350;    0.000
333.354; 2390.625;  181.350;    0.000
333.412; 2448.625;  189.350;    0.000
333.471; 2417.625;  216.350;    0.000
333.529; 2504.625;  220.350;    0.000
333.588; 2542.625;  193.350;    0.000
333.646; 2616.625;  186.350;    0.000
333.705; 2627.625;  210.350;    0.000
333.763; 2630.625;  222.350;    0.000
333.822; 2519.625;  222.350;    0.000
333.880; 2536.625;  202.350;    0.000
333.938; 2545.625;  205.350;    0.000
333.997; 2571.625;  199.350;    0.000
334.055; 2474.625;  199.350;    0.000
334.114; 2491.625;  237.350;    0.000
334.172; 2421.625;  155.350;    0.000
334.230; 2456.625;  208.350;    0.000
334.289; 2435.625;  191.350;    0.000
334.347; 2404.625;  211.350;    0.000
334.405; 2477.625;  212.350;    0.000
334.464; 2446.625;  179.350;    0.000
334.522; 2449.625;  160.350;    0.000
334.580; 2441.625;  195.350;    0.000
334.639; 2427.625;  191.350;    0.000
334.697; 2356.625;  194.350;    0.000
334.755; 2334.625;  185.350;    0.000
334.814; 2448.625;  214.350;    0.000
334.872; 2416.625;  179.350;    0.000
334.930; 2339.625;  169.350;    0.000
334.988; 2349.625;  201.350;    0.000
335.047; 2430.625;  188.350;    0.000
335.105; 2445.625;  175.350;    0.000
335.163; 2421.625;  191.350;    0.000
335.221; 2421.625;  196.350;    0.000
335.280; 2454.625;  182.350;    0.000
335.338; 2392.625;  202.350;    0.000
335.396; 2428.625;  219.350;    0.000
335.454; 2408.625;  187.350;    0.000
335.512; 2428.625;  236.350;    0.000
335.570; 2434.625;  209.350;    0.000
335.629; 2519.625;  247.350;    0.000
335.687; 2515.625;  219.350;    0.000
335.745; 2523.625;  203.350;    0.000
335.803; 2555.625;  220.350;    0.000
335.861; 2446.625;  208.350;    0.000
335.919; 2459.625;  223.350;    0.000
335.977; 2463.625;  201.350;    0.000
336.035; 2397.625;  193.350;    0.000
336.094; 2441.625;  178.350;    0.000
336.152; 2398.625;  182.350;    0.000
336.210; 2439.625;  199.350;    0.000
336.268; 2367.625;  216.350;    0.000
336.326; 2476.625;  216.350;    0.000
336.384; 2392.625;  201.350;    0.000
336.442; 2466.625;  197.350;    0.000
336.500; 2429.625;  203.350;    0.000
336.558; 2429.625;  198.350;    0.000
336.616; 2435.625;  210.350;    0.000
336.674; 2403.625;  192.350;    0.000
336.732; 2416.625;  182.350;    0.000
336.790; 2382.625;  189.350;    0.000
336.848; 2408.625;  233.350;    0.000
336.906; 2389.625;  235.350;    0.000
336.964; 2357.625;  208.350;    0.000
337.022; 2363.625;  249.350;    0.000
337.080; 2458.625;  204.350;    0.000
337.138; 2407.625;  176.350;    0.000
337.195; 2306.625;  207.350;    0.000
337.253; 2366.625;  214.350;    0.000
337.311; 2405.625;  210.350;    0.000
337.369; 2368.625;  222.350;    0.000
337.427; 2379.625;  236.350;    0.000
337.485; 2332.625;  241.350;    0.000
337.543; 2388.625;  217.350;    0.000
337.601; 2296.625;  221.350;    0.000
337.658; 2333.625;  205.350;    0.000
337.716; 2319.625;  210.350;    0.000
337.774; 2307.625;  196.350;    0.000
337.832; 2287.625;  200.350;    0.000
337.890; 2287.625;  192.350;    0.000
337.947; 2280.625;  192.350;    0.000
338.005; 2339.625;  211.350;    0.000
338.063; 2291.625;  176.350;    0.000
338.121; 2341.625;  222.350;    0.000
338.178; 2299.625;  198.350;    0.000
338.236; 2365.625;  210.350;    0.000
338.294; 2309.625;  211.350;    0.000
338.352; 2361.625;  212.350;    0.000
338.409; 2264.625;  199.350;    0.000
338.467; 2247.625;  205.350;    0.000
338.525; 2270.625;  217.350;    0.000
338.583; 2264.625;  197.350;    0.000
338.640; 2216.625;  226.350;    0.000
338.698; 2203.625;  201.350;    0.000
338.756; 2243.625;  192.350;    0.000
338.813; 2426.625;  220.350;    0.000
338.871; 2293.625;  258.350;    0.000
338.928; 2387.625;  223.350;    0.000
338.986; 2409.625;  200.350;    0.000
339.044; 2341.625;  206.350;    0.000
339.101; 2268.625;  250.350;    0.000
339.159; 2254.625;  245.350;    0.000
339.216; 2357.625;  227.350;    0.000
339.274; 2322.625;  260.350;    0.000
339.332; 2334.625;  223.350;    0.000
339.389; 2383.625;  233.350;    0.000
339.447; 2294.625;  206.350;    0.000
339.504; 2284.625;  229.350;    0.000
339.562; 2282.625;  194.350;    0.000
339.619; 2256.625;  245.350;    0.000
339.677; 2267.625;  238.350;    0.000
339.734; 2216.625;  197.350;    0.000
339.792; 2293.625;  210.350;    0.000
339.849; 2214.625;  201.350;    0.000
339.907; 2301.625;  252.350;    0.000
339.964; 2255.625;  191.350;    0.000
340.022; 2309.625;  246.350;    0.000
340.079; 2280.625;  213.350;    0.000
340.137; 2256.625;  240.350;    0.000
340.194; 2298.625;  208.350;    0.000
340.252; 2221.625;  215.350;    0.000
340.309; 2302.625;  203.350;    0.000
340.366; 2277.625;  194.350;    0.000
340.424; 2285.625;  226.350;    0.000
340.481; 2270.625;  234.350;    0.000
340.538; 2244.625;  205.350;    0.000
340.596; 2194.625;  197.350;    0.000
340.653; 2320.625;  233.350;    0.000
340.711; 2326.625;  273.350;    0.000
340.768; 2400.625;  237.350;    0.000
340.825; 2343.625;  224.350;    0.000
340.883; 2368.625;  240.350;    0.000
340.940; 2301.625;  216.350;    0.000
340.997; 2276.625;  228.350;    0.000
341.054; 2187.625;  200.350;    0.000
341.112; 2359.625;  220.350;    0.000
341.169; 2275.625;  226.350;    0.000
341.226; 2280.625;  206.350;    0.000
341.284; 2333.625;  204.350;    0.000
341.341; 2343.625;  214.350;    0.000
341.398; 2333.625;  160.350;    0.000
341.455; 2341.625;  209.350;    0.000
341.512; 2391.625;  233.350;    0.000
341.570; 2296.625;  240.350;    0.000
341.627; 2337.625;  209.350;    0.000
341.684; 2282.625;  178.350;    0.000
341.741; 2314.625;  254.350;    0.000
341.798; 2363.625;  232.350;    0.000
341.856; 2273.625;  196.350;    0.000
341.913; 2292.625;  244.350;    0.000
341.970; 2348.625;  203.350;    0.000
342.027; 2312.625;  235.350;    0.000
342.084; 2289.625;  214.350;    0.000
342.141; 2188.625;  194.350;    0.000
342.198; 2339.625;  194.350;    0.000
342.255; 2305.625;  219.350;    0.000
342.313; 2285.625;  195.350;    0.000
342.370; 2272.625;  207.350;    0.000
342.427; 2397.625;  217.350;    0.000
342.484; 2269.625;  213.350;    0.000
342.541; 2304.625;  215.350;    0.000
342.598; 2306.625;  247.350;    0.000
342.655; 2263.625;  205.350;    0.000
342.712; 2274.625;  226.350;    0.000
342.769; 2330.625;  212.350;    0.000
342.826; 2287.625;  203.350;    0.000
342.883; 2306.625;  207.350;    0.000
342.940; 2299.625;  204.350;    0.000
342.997; 2220.625;  237.350;    0.000
343.054; 2224.625;  210.350;    0.000
343.111; 2257.625;  209.350;    0.000
343.168; 2352.625;  201.350;    0.000
343.225; 2373.625;  208.350;    0.000
343.282; 2395.625;  216.350;    0.000
343.339; 2355.625;  237.350;    0.000
343.395; 2362.625;  218.350;    0.000
343.452; 2365.625;  234.350;    0.000
343.509; 2422.625;  214.350;    0.000
343.566; 2355.625;  222.350;    0.000
343.623; 2409.625;  226.350;    0.000
343.680; 2386.625;  245.350;    0.000
343.737; 2462.625;  209.350;    0.000
343.794; 2494.625;  227.350;    0.000
343.850; 2537.625;  197.350;    0.000
343.907; 2520.625;  211.350;    0.000
343.964; 2504.625;  190.350;    0.000
344.021; 2522.625;  252.350;    0.000
344.078; 2546.625;  261.350;    0.000
344.134; 2526.625;  206.350;    0.000
344.191; 2455.625;  231.350;    0.000
344.248; 2557.625;  225.350;    0.000
344.305; 2576.625;  210.350;    0.000
344.361; 2520.625;  194.350;    0.000
344.418; 2462.625;  219.350;    0.000
344.475; 2483.625;  245.350;    0.000
344.532; 2496.625;  238.350;    0.000
344.588; 2481.625;  235.350;    0.000
344.645; 2477.625;  229.350;    0.000
344.702; 2472.625;  145.350;    0.000
344.758; 2503.625;  240.350;    0.000
344.815; 2519.625;  215.350;    0.000
344.872; 2458.625;  203.350;    0.000
344.928; 2482.625;  208.350;    0.000
344.985; 2383.625;  216.350;    0.000
345.042; 2485.625;  234.350;    0.000
345.098; 2469.625;  183.350;    0.000
345.155; 2420.625;  241.350;    0.000
345.212; 2384.625;  222.350;    0.000
345.268; 2465.625;  234.350;    0.000
345.325; 2432.625;  181.350;    0.000
345.381; 2400.625;  251.350;    0.000
345.438; 2415.625;  256.350;    0.000
345.495; 2445.625;  247.350;    0.000
345.551; 2488.625;  231.350;    0.000
345.608; 2485.625;  206.350;    0.000
345.664; 2465.625;  201.350;    0.000
345.721; 2517.625;  216.350;    0.000
345.777; 2422.625;  195.350;    0.000
345.834; 2349.625;  195.350;    0.000
345.890; 2316.625;  227.350;    0.000
345.947; 2458.625;  240.350;    0.000
346.003; 2356.625;  248.350;    0.000
346.060; 2520.625;  213.350;    0.000
346.116; 2436.625;  225.350;    0.000
346.173; 2451.625;  199.350;    0.000
346.229; 2494.625;  264.350;    0.000
346.285; 2453.625;  246.350;    0.000
346.342; 2389.625;  240.350;    0.000
346.398; 2457.625;  222.350;    0.000
346.455; 2391.625;  231.350;    0.000
346.511; 2574.625;  214.350;    0.000
346.567; 2422.625;  231.350;    0.000
346.624; 2466.625;  222.350;    0.000
346.680; 2496.625;  197.350;    0.000
346.737; 2419.625;  225.350;    0.000
346.793; 2466.625;  255.350;    0.000
346.849; 2504.625;  245.350;    0.000
346.906; 2474.625;  221.350;    0.000
346.962; 2535.625;  260.350;    0.000
347.018; 2469.625;  238.350;    0.000
347.074; 2542.625;  257.350;    0.000
347.131; 2567.625;  200.350;    0.000
347.187; 2490.625;  232.350;    0.000
347.243; 2487.625;  240.350;    0.000
347.300; 2466.625;  249.350;    0.000
347.356; 2548.625;  250.350;    0.000
347.412; 2501.625;  252.350;    0.000
347.468; 2488.625;  254.350;    0.000
347.524; 2463.625;  280.350;    0.000
347.581; 2452.625;  228.350;    0.000
347.637; 2505.625;  261.350;    0.000
347.693; 2504.625;  238.350;    0.000
347.749; 2509.625;  261.350;    0.000
347.805; 2477.625;  238.350;    0.000
347.862; 2507.625;  246.350;    0.000
347.918; 2428.625;  256.350;    0.000
347.974; 2463.625;  277.350;    0.000
348.030; 2482.625;  242.350;    0.000
348.086; 2410.625;  223.350;    0.000
348.142; 2531.625;  215.350;    0.000
348.198; 2487.625;  272.350;    0.000
348.254; 2499.625;  292.350;    0.000
348.311; 2422.625;  235.350;    0.000
348.367; 2466.625;  263.350;    0.000
348.423; 2497.625;  193.350;    0.000
348.479; 2391.625;  266.350;    0.000
348.535; 2455.625;  238.350;    0.000
348.591; 2468.625;  237.350;    0.000
348.647; 2424.625;  239.350;    0.000
348.703; 2532.625;  240.350;    0.000
348.759; 2541.625;  253.350;    0.000
348.815; 2491.625;  255.350;    0.000
348.871; 2583.625;  256.350;    0.000
348.927; 2437.625;  261.350;    0.000
348.983; 2571.625;  258.350;    0.000
349.039; 2566.625;  204.350;    0.000
349.095; 2537.625;  215.350;    0.000
349.151; 2491.625;  230.350;    0.000
349.207; 2520.625;  216.350;    0.000
349.263; 2491.625;  235.350;    0.000
349.319; 2544.625;  244.350;    0.000
349.374; 2526.625;  213.350;    0.000
349.430; 2547.625;  241.350;    0.000
349.486; 2579.625;  248.350;    0.000
349.542; 2619.625;  259.350;    0.000
349.598; 2543.625;  208.350;    0.000
349.654; 2528.625;  242.350;    0.000
349.710; 2491.625;  246.350;    0.000
349.766; 2515.625;  226.350;    0.000
349.821; 2575.625;  227.350;    0.000
349.877; 2421.625;  226.350;    0.000
349.933; 2541.625;  249.350;    0.000
349.989; 2591.625;  263.350;    0.000
350.045; 2493.625;  267.350;    0.000
350.100; 2501.625;  219.350;    0.000
350.156; 2578.625;  207.350;    0.000
350.212; 2606.625;  230.350;    0.000
350.268; 2479.625;  223.350;    0.000
350.323; 2522.625;  217.350;    0.000
350.379; 2518.625;  227.350;    0.000
350.435; 2608.625;  219.350;    0.000
350.491; 2472.625;  195.350;    0.000
350.546; 2533.625;  229.350;    0.000
350.602; 2572.625;  222.350;    0.000
350.658; 2514.625;  225.350;    0.000
350.713; 2449.625;  231.350;    0.000
350.769; 2479.625;  193.350;    0.000
350.825; 2586.625;  182.350;    0.000
350.880; 2473.625;  193.350;    0.000
350.936; 2470.625;  222.350;    0.000
350.992; 2470.625;  217.350;    0.000
351.047; 2517.625;  226.350;    0.000
351.103; 2524.625;  187.350;    0.000
351.158; 2536.625;  212.350;    0.000
351.214; 2518.625;  207.350;    0.000
351.270; 2598.625;  194.350;    0.000
351.325; 2466.625;  213.350;    0.000
351.381; 2483.625;  223.350;    0.000
351.436; 2601.625;  222.350;    0.000
351.492; 2592.625;  219.350;    0.000
351.547; 2558.625;  205.350;    0.000
351.603; 2598.625;  218.350;    0.000
351.658; 2589.625;  199.350;    0.000
351.714; 2632.625;  201.350;    0.000
351.769; 2469.625;  209.350;    0.000
351.825; 2750.625;  226.350;    0.000
351.880; 2640.625;  189.350;    0.000
351.936; 2642.625;  201.350;    0.000
351.991; 2537.625;  220.350;    0.000
352.047; 2522.625;  232.350;    0.000
352.102; 2498.625;  185.350;    0.000
352.158; 2547.625;  228.350;    0.000
352.213; 2558.625;  204.350;    0.000
352.268; 2550.625;  220.350;    0.000
352.324; 2460.625;  206.350;    0.000
352.379; 2604.625;  182.350;    0.000
352.434; 2505.625;  214.350;    0.000
352.490; 2516.625;  250.350;    0.000
352.545; 2492.625;  290.350;    0.000
352.601; 2595.625;  247.350;    0.000
352.656; 2521.625;  203.350;    0.000
352.711; 2588.625;  197.350;    0.000
352.767; 2547.625;  169.350;    0.000
352.822; 2505.625;  191.350;    0.000
352.877; 2579.625;  235.350;    0.000
352.932; 2540.625;  231.350;    0.000
352.988; 2625.625;  224.350;    0.000
353.043; 2557.625;  226.350;    0.000
353.098; 2634.625;  227.350;    0.000
353.153; 2537.625;  239.350;    0.000
353.209; 2653.625;  217.350;    0.000
353.264; 2588.625;  198.350;    0.000
353.319; 2582.625;  247.350;    0.000
353.374; 2648.625;  199.350;    0.000
353.430; 2442.625;  247.350;    0.000
353.485; 2626.625;  242.350;    0.000
353.540; 2561.625;  237.350;    0.000
353.595; 2604.625;  233.350;    0.000
353.650; 2605.625;  221.350;    0.000
353.705; 2562.625;  259.350;    0.000
353.761; 2546.625;  223.350;    0.000
353.816; 2552.625;  234.350;    0.000
353.871; 2451.625;  226.350;    0.000
353.926; 2586.625;  232.350;    0.000
353.981; 2550.625;  245.350;    0.000
354.036; 2534.625;  247.350;    0.000
354.091; 2509.625;  233.350;    0.000
354.146; 2577.625;  253.350;    0.000
354.201; 2534.625;  236.350;    0.000
354.256; 2644.625;  210.350;    0.000
354.311; 2600.625;  279.350;    0.000
354.367; 2554.625;  208.350;    0.000
354.422; 2638.625;  228.350;    0.000
354.477; 2592.625;  202.350;    0.000
354.532; 2577.625;  215.350;    0.000
354.587; 2687.625;  249.350;    0.000
354.642; 2500.625;  206.350;    0.000
354.697; 2622.625;  226.350;    0.000
354.751; 2551.625;  241.350;    0.000
354.806; 2560.625;  249.350;    0.000
354.861; 2605.625;  216.350;    0.000
354.916; 2533.625;  249.350;    0.000
354.971; 2600.625;  217.350;    0.000
355.026; 2587.625;  236.350;    0.000
355.081; 2507.625;  242.350;    0.000
355.136; 2502.625;  216.350;    0.000
355.191; 2536.625;  216.350;    0.000
355.246; 2567.625;  258.350;    0.000
355.301; 2641.625;  250.350;    0.000
355.355; 2685.625;  251.350;    0.000
355.410; 2650.625;  216.350;    0.000
355.465; 2587.625;  224.350;    0.000
355.520; 2695.625;  221.350;    0.000
355.575; 2570.625;  255.350;    0.000
355.630; 2620.625;  225.350;    0.000
355.684; 2610.625;  210.350;    0.000
355.739; 2585.625;  232.350;    0.000
355.794; 2627.625;  202.350;    0.000
355.849; 2694.625;  211.350;    0.000
355.904; 2641.625;  226.350;    0.000
355.958; 2622.625;  191.350;    0.000
356.013; 2538.625;  208.350;    0.000
356.068; 2609.625;  229.350;    0.000
356.123; 2580.625;  243.350;    0.000
356.177; 2658.625;  227.350;    0.000
356.232; 2508.625;  243.350;    0.000
356.287; 2696.625;  216.350;    0.000
356.341; 2576.625;  242.350;    0.000
356.396; 2565.625;  175.350;    0.000
356.451; 2682.625;  271.350;    0.000
356.505; 2625.625;  225.350;    0.000
356.560; 2611.625;  260.350;    0.000
356.615; 2591.625;  213.350;    0.000
356.669; 2688.625;  213.350;    0.000
356.724; 2604.625;  221.350;    0.000
356.778; 2746.625;  232.350;    0.000
356.833; 2573.625;  178.350;    0.000
356.888; 2551.625;  236.350;    0.000
356.942; 2617.625;  224.350;    0.000
356.997; 2657.625;  228.350;    0.000
357.051; 2590.625;  226.350;    0.000
357.106; 2590.625;  185.350;    0.000
357.160; 2587.625;  202.350;    0.000
357.215; 2522.625;  232.350;    0.000
357.269; 2634.625;  224.350;    0.000
357.324; 2596.625;  219.350;    0.000
357.378; 2622.625;  196.350;    0.000
357.433; 2599.625;  241.350;    0.000
357.487; 2558.625;  244.350;    0.000
357.542; 2508.625;  210.350;    0.000
357.596; 2603.625;  231.350;    0.000
357.651; 2656.625;  248.350;    0.000
357.705; 2639.625;  232.350;    0.000
357.760; 2616.625;  224.350;    0.000
357.814; 2667.625;  221.350;    0.000
357.868; 2635.625;  207.350;    0.000
357.923; 2577.625;  234.350;    0.000
357.977; 2535.625;  218.350;    0.000
358.032; 2535.625;  244.350;    0.000
358.086; 2561.625;  246.350;    0.000
358.140; 2605.625;  235.350;    0.000
358.195; 2554.625;  237.350;    0.000
358.249; 2651.625;  233.350;    0.000
358.303; 2625.625;  254.350;    0.000
358.358; 2580.625;  217.350;    0.000
358.412; 2478.625;  245.350;    0.000
358.466; 2590.625;  230.350;    0.000
358.521; 2545.625;  214.350;    0.000
358.575; 2622.625;  243.350;    0.000
358.629; 2563.625;  230.350;    0.000
358.683; 2576.625;  232.350;    0.000
358.738; 2544.625;  249.350;    0.000
358.792; 2458.625;  249.350;    0.000
358.846; 2620.625;  271.350;    0.000
358.900; 2557.625;  265.350;    0.000
358.954; 2577.625;  236.350;    0.000
359.009; 2569.625;  254.350;    0.000
359.063; 2614.625;  216.350;    0.000
359.117; 2643.625;  245.350;    0.000
359.171; 2602.625;  252.350;    0.000
359.225; 2538.625;  240.350;    0.000
359.280; 2558.625;  239.350;    0.000
359.334; 2560.625;  234.350;    0.000
359.388; 2651.625;  258.350;    0.000
359.442; 2536.625;  220.350;    0.000
359.496; 2530.625;  206.350;    0.000
359.550; 2688.625;  279.350;    0.000
359.604; 2555.625;  263.350;    0.000
359.658; 2589.625;  251.350;    0.000
359.712; 2579.625;  244.350;    0.000
359.766; 2602.625;  217.350;    0.000
359.820; 2519.625;  235.350;    0.000
359.875; 2587.625;  249.350;    0.000
359.929; 2612.625;  269.350;    0.000
359.983; 2539.625;  240.350;    0.000
360.037; 2550.625;  252.350;    0.000
360.091; 2611.625;  271.350;    0.000
360.145; 2541.625;  222.350;    0.000
360.199; 2635.625;  302.350;    0.000
360.253; 2501.625;  234.350;    0.000
360.306; 2552.625;  258.350;    0.000
360.360; 2617.625;  249.350;    0.000
360.414; 2482.625;  231.350;    0.000
360.468; 2579.625;  261.350;    0.000
360.522; 2544.625;  277.350;    0.000
360.576; 2559.625;  273.350;    0.000
360.630; 2676.625;  264.350;    0.000
360.684; 2496.625;  223.350;    0.000
360.738; 2585.625;  266.350;    0.000
360.792; 2585.625;  252.350;    0.000
360.846; 2497.625;  234.350;    0.000
360.899; 2577.625;  296.350;    0.000
360.953; 2475.625;  273.350;    0.000
361.007; 2600.625;  251.350;    0.000
361.061; 2542.625;  250.350;    0.000
361.115; 2548.625;  267.350;    0.000
361.168; 2670.625;  308.350;    0.000
361.222; 2515.625;  246.350;    0.000
361.276; 2509.625;  261.350;    0.000
361.330; 2636.625;  233.350;    0.000
361.384; 2591.625;  269.350;    0.000
361.437; 2568.625;  270.350;    0.000
361.491; 2519.625;  263.350;    0.000
361.545; 2560.625;  288.350;    0.000
361.599; 2509.625;  270.350;    0.000
361.652; 2589.625;  256.350;    0.000
361.706; 2619.625;  263.350;    0.000
361.760; 2527.625;  237.350;    0.000
361.813; 2601.625;  278.350;    0.000
361.867; 2578.625;  317.350;    0.000
361.921; 2556.625;  260.350;    0.000
361.974; 2603.625;  239.350;    0.000
362.028; 2483.625;  266.350;    0.000
362.082; 2550.625;  269.350;    0.000
362.135; 2508.625;  262.350;    0.000
362.189; 2575.625;  258.350;    0.000
362.242; 2541.625;  273.350;    0.000
362.296; 2589.625;  261.350;    0.000
362.350; 2564.625;  272.350;    0.000
362.403; 2531.625;  291.350;    0.000
362.457; 2523.625;  253.350;    0.000
362.510; 2536.625;  266.350;    0.000
362.564; 2514.625;  260.350;    0.000
362.617; 2479.625;  280.350;    0.000
362.671; 2513.625;  281.350;    0.000
362.724; 2553.625;  234.350;    0.000
362.778; 2615.625;  311.350;    0.000
362.831; 2620.625;  276.350;    0.000
362.885; 2561.625;  288.350;    0.000
362.938; 2496.625;  284.350;    0.000
362.992;  322.625;  245.350;    0.000
363.045;  263.625;  277.350;    0.000
363.099;  285.625;  246.350;    0.000
363.152;  292.625;  290.350;    0.000
363.205;  275.625;  256.350;    0.000
363.259;  248.625;  238.350;    0.000
363.312;  237.625;  290.350;    0.000
363.366;  294.625;  287.350;    0.000
363.419;  289.625;  279.350;    0.000
363.472;  303.625;  304.350;    0.000
363.526;  273.625;  305.350;    0.000
363.579;  276.625;  281.350;    0.000
363.632;  284.625;  279.350;    0.000
363.686;  278.625;  277.350;    0.000
363.739;  279.625;  268.350;    0.000
363.792;  286.625;  274.350;    0.000

