
Integration time [ms]:   0.300
Averaging Nr. [scans]: 1
Smoothing Nr. [pixels]: 0
Data measured with spectrometer [name]: UV1
Wave   ;Sample   ;Dark     ;Reference
[nm]   ;[counts] ;[counts] ;[counts] 

236.381;  144.100;  160.350;    0.000
236.451;  176.100;  198.350;    0.000
236.520;  157.100;  179.350;    0.000
236.590;  203.100;  205.350;    0.000
236.660;  169.100;  199.350;    0.000
236.730;  208.100;  178.350;    0.000
236.799;  182.100;  201.350;    0.000
236.869;  202.100;  197.350;    0.000
236.939;  195.100;  180.350;    0.000
237.009;  190.100;  165.350;    0.000
237.078;  184.100;  191.350;    0.000
237.148;  139.100;  146.350;    0.000
237.218;  169.100;  142.350;    0.000
237.287;  199.100;  190.350;    0.000
237.357;  153.100;  182.350;    0.000
237.427;  180.100;  139.350;    0.000
237.496;  995.100;  221.350;    0.000
237.566;  962.100;  183.350;    0.000
237.636;  925.100;  157.350;    0.000
237.705;  988.100;  189.350;    0.000
237.775;  972.100;  169.350;    0.000
237.845; 1025.100;  156.350;    0.000
237.914;  905.100;  185.350;    0.000
237.984; 1004.100;  194.350;    0.000
238.054;  996.100;  138.350;    0.000
238.123; 1020.100;  166.350;    0.000
238.193;  982.100;  174.350;    0.000
238.263;  998.100;  158.350;    0.000
238.332;  966.100;  167.350;    0.000
238.402;  976.100;  173.350;    0.000
238.471;  928.100;  153.350;    0.000
238.541; 1003.100;  167.350;    0.000
238.611;  953.100;  165.350;    0.000
238.680;  979.100;  157.350;    0.000
238.750;  928.100;  152.350;    0.000
238.819;  956.100;  190.350;    0.000
238.889; 1005.100;  151.350;    0.000
238.958;  982.100;  166.350;    0.000
239.028;  975.100;  180.350;    0.000
239.097;  908.100;  170.350;    0.000
239.167;  982.100;  177.350;    0.000
239.237;  980.100;  195.350;    0.000
239.306;  969.100;  145.350;    0.000
239.376;  939.100;  158.350;    0.000
239.445; 1018.100;  187.350;    0.000
239.515;  971.100;  160.350;    0.000
239.584;  922.100;  173.350;    0.000
239.654;  930.100;  184.350;    0.000
239.723;  945.100;  195.350;    0.000
239.793;  957.100;  183.350;    0.000
239.862;  925.100;  190.350;    0.000
239.932;  917.100;  168.350;    0.000
240.001;  953.100;  164.350;    0.000
240.070; 1022.100;  183.350;    0.000
240.140;  966.100;  175.350;    0.000
240.209;  940.100;  135.350;    0.000
240.279;  976.100;  176.350;    0.000
240.348;  958.100;  184.350;    0.000
240.418;  941.100;  157.350;    0.000
240.487;  961.100;  189.350;    0.000
240.556;  956.100;  157.350;    0.000
240.626;  978.100;  174.350;    0.000
240.695;  947.100;  180.350;    0.000
240.765;  940.100;  152.350;    0.000
240.834; 1014.100;  136.350;    0.000
240.903;  938.100;  196.350;    0.000
240.973;  945.100;  183.350;    0.000
241.042;  929.100;  150.350;    0.000
241.112;  966.100;  168.350;    0.000
241.181;  895.100;  152.350;    0.000
241.250;  917.100;  132.350;    0.000
241.320;  928.100;  209.350;    0.000
241.389;  888.100;  169.350;    0.000
241.458;  935.100;  204.350;    0.000
241.528;  991.100;  176.350;    0.000
241.597;  960.100;  170.350;    0.000
241.666;  980.100;  168.350;    0.000
241.736;  958.100;  172.350;    0.000
241.805;  973.100;  160.350;    0.000
241.874;  951.100;  176.350;    0.000
241.943;  914.100;  165.350;    0.000
242.013;  958.100;  206.350;    0.000
242.082;  925.100;  162.350;    0.000
242.151;  912.100;  180.350;    0.000
242.221;  897.100;  154.350;    0.000
242.290;  919.100;  122.350;    0.000
242.359;  895.100;  121.350;    0.000
242.428;  986.100;  187.350;    0.000
242.498;  854.100;  140.350;    0.000
242.567;  940.100;  173.350;    0.000
242.636;  907.100;  155.350;    0.000
242.705;  925.100;  108.350;    0.000
242.774;  939.100;  145.350;    0.000
242.844;  877.100;  162.350;    0.000
242.913;  920.100;  178.350;    0.000
242.982;  949.100;  163.350;    0.000
243.051;  956.100;  138.350;    0.000
243.120;  971.100;  172.350;    0.000
243.190;  916.100;  155.350;    0.000
243.259;  906.100;  159.350;    0.000
243.328;  926.100;  173.350;    0.000
243.397;  912.100;  175.350;    0.000
243.466;  951.100;  170.350;    0.000
243.535;  888.100;  161.350;    0.000
243.605;  877.100;  149.350;    0.000
243.674;  897.100;  162.350;    0.000
243.743;  952.100;  175.350;    0.000
243.812;  869.100;  159.350;    0.000
243.881;  908.100;  158.350;    0.000
243.950;  888.100;  154.350;    0.000
244.019;  854.100;  185.350;    0.000
244.088;  936.100;  175.350;    0.000
244.158;  966.100;  167.350;    0.000
244.227;  920.100;  159.350;    0.000
244.296;  880.100;  143.350;    0.000
244.365;  937.100;  182.350;    0.000
244.434;  870.100;  117.350;    0.000
244.503;  937.100;  109.350;    0.000
244.572;  818.100;  147.350;    0.000
244.641;  888.100;  129.350;    0.000
244.710;  946.100;  159.350;    0.000
244.779;  865.100;  166.350;    0.000
244.848;  858.100;  122.350;    0.000
244.917;  931.100;  167.350;    0.000
244.986;  854.100;  158.350;    0.000
245.055;  853.100;  175.350;    0.000
245.124;  858.100;  153.350;    0.000
245.193;  845.100;  155.350;    0.000
245.262;  811.100;  137.350;    0.000
245.331;  903.100;  145.350;    0.000
245.400;  830.100;  107.350;    0.000
245.469;  879.100;  162.350;    0.000
245.538;  804.100;  165.350;    0.000
245.607;  843.100;  178.350;    0.000
245.676;  849.100;  166.350;    0.000
245.745;  813.100;  169.350;    0.000
245.814;  819.100;  155.350;    0.000
245.883;  828.100;  186.350;    0.000
245.952;  805.100;  165.350;    0.000
246.021;  814.100;  169.350;    0.000
246.090;  816.100;  170.350;    0.000
246.159;  785.100;  155.350;    0.000
246.227;  804.100;  161.350;    0.000
246.296;  776.100;  142.350;    0.000
246.365;  785.100;  160.350;    0.000
246.434;  818.100;  199.350;    0.000
246.503;  740.100;  155.350;    0.000
246.572;  824.100;  206.350;    0.000
246.641;  758.100;  177.350;    0.000
246.710;  772.100;  178.350;    0.000
246.779;  781.100;  193.350;    0.000
246.847;  770.100;  147.350;    0.000
246.916;  736.100;  131.350;    0.000
246.985;  775.100;  168.350;    0.000
247.054;  752.100;  143.350;    0.000
247.123;  738.100;  130.350;    0.000
247.192;  777.100;  175.350;    0.000
247.260;  782.100;  171.350;    0.000
247.329;  747.100;  162.350;    0.000
247.398;  786.100;  163.350;    0.000
247.467;  731.100;  155.350;    0.000
247.536;  754.100;  149.350;    0.000
247.604;  763.100;  191.350;    0.000
247.673;  743.100;  193.350;    0.000
247.742;  749.100;  159.350;    0.000
247.811;  811.100;  167.350;    0.000
247.879;  799.100;  176.350;    0.000
247.948;  717.100;  157.350;    0.000
248.017;  763.100;  150.350;    0.000
248.086;  754.100;  153.350;    0.000
248.154;  739.100;  157.350;    0.000
248.223;  779.100;  198.350;    0.000
248.292;  826.100;  188.350;    0.000
248.361;  751.100;  157.350;    0.000
248.429;  755.100;  138.350;    0.000
248.498;  729.100;  166.350;    0.000
248.567;  789.100;  179.350;    0.000
248.635;  765.100;  210.350;    0.000
248.704;  753.100;  168.350;    0.000
248.773;  721.100;  147.350;    0.000
248.841;  734.100;  155.350;    0.000
248.910;  748.100;  183.350;    0.000
248.979;  738.100;  171.350;    0.000
249.047;  762.100;  152.350;    0.000
249.116;  790.100;  155.350;    0.000
249.185;  799.100;  217.350;    0.000
249.253;  712.100;  149.350;    0.000
249.322;  743.100;  167.350;    0.000
249.390;  707.100;  182.350;    0.000
249.459;  787.100;  173.350;    0.000
249.528;  775.100;  162.350;    0.000
249.596;  734.100;  162.350;    0.000
249.665;  737.100;  163.350;    0.000
249.733;  727.100;  147.350;    0.000
249.802;  763.100;  170.350;    0.000
249.871;  771.100;  179.350;    0.000
249.939;  687.100;  179.350;    0.000
250.008;  776.100;  201.350;    0.000
250.076;  745.100;  189.350;    0.000
250.145;  757.100;  171.350;    0.000
250.213;  727.100;  161.350;    0.000
250.282;  703.100;  171.350;    0.000
250.350;  624.100;  138.350;    0.000
250.419;  758.100;  172.350;    0.000
250.487;  692.100;  207.350;    0.000
250.556;  719.100;  160.350;    0.000
250.624;  765.100;  187.350;    0.000
250.693;  646.100;  141.350;    0.000
250.761;  729.100;  182.350;    0.000
250.830;  738.100;  203.350;    0.000
250.898;  699.100;  160.350;    0.000
250.967;  744.100;  143.350;    0.000
251.035;  695.100;  142.350;    0.000
251.104;  726.100;  159.350;    0.000
251.172;  689.100;  189.350;    0.000
251.241;  735.100;  134.350;    0.000
251.309;  746.100;  179.350;    0.000
251.378;  725.100;  203.350;    0.000
251.446;  703.100;  151.350;    0.000
251.514;  740.100;  176.350;    0.000
251.583;  741.100;  173.350;    0.000
251.651;  721.100;  163.350;    0.000
251.720;  744.100;  151.350;    0.000
251.788;  717.100;  205.350;    0.000
251.856;  678.100;  126.350;    0.000
251.925;  654.100;  118.350;    0.000
251.993;  732.100;  139.350;    0.000
252.062;  716.100;  161.350;    0.000
252.130;  724.100;  180.350;    0.000
252.198;  693.100;  141.350;    0.000
252.267;  649.100;  145.350;    0.000
252.335;  724.100;  159.350;    0.000
252.403;  646.100;  158.350;    0.000
252.472;  634.100;  142.350;    0.000
252.540;  678.100;  162.350;    0.000
252.608;  678.100;  180.350;    0.000
252.677;  682.100;  137.350;    0.000
252.745;  659.100;  183.350;    0.000
252.813;  707.100;  151.350;    0.000
252.881;  627.100;  109.350;    0.000
252.950;  663.100;  174.350;    0.000
253.018;  633.100;  136.350;    0.000
253.086;  563.100;  149.350;    0.000
253.155;  581.100;  127.350;    0.000
253.223;  551.100;  156.350;    0.000
253.291;  599.100;  163.350;    0.000
253.359;  588.100;  174.350;    0.000
253.428;  585.100;  174.350;    0.000
253.496;  542.100;  161.350;    0.000
253.564;  529.100;  128.350;    0.000
253.632;  497.100;  153.350;    0.000
253.700;  562.100;  185.350;    0.000
253.769;  522.100;  163.350;    0.000
253.837;  543.100;  176.350;    0.000
253.905;  556.100;  164.350;    0.000
253.973;  564.100;  156.350;    0.000
254.041;  565.100;  154.350;    0.000
254.110;  531.100;  165.350;    0.000
254.178;  527.100;  148.350;    0.000
254.246;  538.100;  138.350;    0.000
254.314;  538.100;  164.350;    0.000
254.382;  534.100;  167.350;    0.000
254.450;  527.100;  134.350;    0.000
254.518;  517.100;  192.350;    0.000
254.587;  503.100;  139.350;    0.000
254.655;  541.100;  162.350;    0.000
254.723;  549.100;  131.350;    0.000
254.791;  531.100;  181.350;    0.000
254.859;  578.100;  146.350;    0.000
254.927;  573.100;  189.350;    0.000
254.995;  542.100;  141.350;    0.000
255.063;  530.100;  181.350;    0.000
255.131;  563.100;  156.350;    0.000
255.199;  559.100;  175.350;    0.000
255.267;  560.100;  120.350;    0.000
255.336;  569.100;  186.350;    0.000
255.404;  521.100;  134.350;    0.000
255.472;  569.100;  172.350;    0.000
255.540;  573.100;  157.350;    0.000
255.608;  532.100;  186.350;    0.000
255.676;  604.100;  155.350;    0.000
255.744;  568.100;  143.350;    0.000
255.812;  566.100;  134.350;    0.000
255.880;  578.100;  188.350;    0.000
255.948;  566.100;  163.350;    0.000
256.016;  636.100;  175.350;    0.000
256.084;  562.100;  191.350;    0.000
256.152;  613.100;  187.350;    0.000
256.220;  579.100;  152.350;    0.000
256.288;  599.100;  141.350;    0.000
256.356;  572.100;  139.350;    0.000
256.424;  599.100;  121.350;    0.000
256.491;  590.100;  139.350;    0.000
256.559;  655.100;  144.350;    0.000
256.627;  617.100;  158.350;    0.000
256.695;  614.100;  121.350;    0.000
256.763;  601.100;  150.350;    0.000
256.831;  597.100;  181.350;    0.000
256.899;  629.100;  146.350;    0.000
256.967;  626.100;   71.350;    0.000
257.035;  683.100;  164.350;    0.000
257.103;  678.100;  191.350;    0.000
257.171;  602.100;  140.350;    0.000
257.238;  618.100;  165.350;    0.000
257.306;  693.100;  127.350;    0.000
257.374;  677.100;  120.350;    0.000
257.442;  689.100;  139.350;    0.000
257.510;  745.100;  158.350;    0.000
257.578;  679.100;  164.350;    0.000
257.646;  664.100;  151.350;    0.000
257.713;  748.100;  136.350;    0.000
257.781;  742.100;  137.350;    0.000
257.849;  734.100;  151.350;    0.000
257.917;  679.100;  154.350;    0.000
257.985;  714.100;  113.350;    0.000
258.052;  736.100;  140.350;    0.000
258.120;  765.100;  176.350;    0.000
258.188;  743.100;  157.350;    0.000
258.256;  793.100;  153.350;    0.000
258.324;  835.100;  184.350;    0.000
258.391;  776.100;  144.350;    0.000
258.459;  848.100;  162.350;    0.000
258.527;  889.100;  154.350;    0.000
258.595;  848.100;  122.350;    0.000
258.662;  795.100;  164.350;    0.000
258.730;  822.100;  114.350;    0.000
258.798;  828.100;  131.350;    0.000
258.865;  852.100;  171.350;    0.000
258.933;  848.100;  145.350;    0.000
259.001;  911.100;  150.350;    0.000
259.069;  853.100;  123.350;    0.000
259.136;  846.100;  139.350;    0.000
259.204;  926.100;  165.350;    0.000
259.272;  946.100;  114.350;    0.000
259.339;  965.100;  179.350;    0.000
259.407;  928.100;  153.350;    0.000
259.475;  895.100;  143.350;    0.000
259.542;  921.100;  136.350;    0.000
259.610; 1017.100;  133.350;    0.000
259.677;  994.100;  159.350;    0.000
259.745; 1046.100;  130.350;    0.000
259.813; 1201.100;  175.350;    0.000
259.880; 1400.100;  158.350;    0.000
259.948; 1234.100;  124.350;    0.000
260.016; 1073.100;  105.350;    0.000
260.083; 1091.100;  169.350;    0.000
260.151; 1048.100;  133.350;    0.000
260.218; 1028.100;  143.350;    0.000
260.286; 1027.100;  134.350;    0.000
260.353; 1104.100;  160.350;    0.000
260.421; 1017.100;  128.350;    0.000
260.489; 1188.100;  150.350;    0.000
260.556; 1130.100;  179.350;    0.000
260.624; 1225.100;  113.350;    0.000
260.691; 1278.100;  128.350;    0.000
260.759; 1188.100;  146.350;    0.000
260.826; 1124.100;  111.350;    0.000
260.894; 1149.100;  115.350;    0.000
260.961; 1210.100;  138.350;    0.000
261.029; 1207.100;  152.350;    0.000
261.096; 1322.100;  175.350;    0.000
261.164; 1414.100;  131.350;    0.000
261.231; 1288.100;  141.350;    0.000
261.299; 1327.100;  125.350;    0.000
261.366; 1329.100;  142.350;    0.000
261.434; 1303.100;  133.350;    0.000
261.501; 1227.100;  137.350;    0.000
261.568; 1296.100;  184.350;    0.000
261.636; 1249.100;  138.350;    0.000
261.703; 1358.100;  161.350;    0.000
261.771; 1355.100;  160.350;    0.000
261.838; 1327.100;  178.350;    0.000
261.906; 1302.100;  128.350;    0.000
261.973; 1300.100;  139.350;    0.000
262.040; 1361.100;  148.350;    0.000
262.108; 1371.100;  130.350;    0.000
262.175; 1361.100;  117.350;    0.000
262.243; 1469.100;  174.350;    0.000
262.310; 1354.100;  145.350;    0.000
262.377; 1408.100;  108.350;    0.000
262.445; 1533.100;  147.350;    0.000
262.512; 1584.100;  124.350;    0.000
262.579; 1488.100;  127.350;    0.000
262.647; 1443.100;  166.350;    0.000
262.714; 1516.100;  150.350;    0.000
262.781; 1658.100;  121.350;    0.000
262.849; 1516.100;  126.350;    0.000
262.916; 1528.100;  119.350;    0.000
262.983; 1727.100;  155.350;    0.000
263.051; 1686.100;  137.350;    0.000
263.118; 1825.100;  160.350;    0.000
263.185; 1566.100;  151.350;    0.000
263.252; 1476.100;  167.350;    0.000
263.320; 1593.100;  123.350;    0.000
263.387; 1519.100;  134.350;    0.000
263.454; 1556.100;  144.350;    0.000
263.522; 1609.100;  153.350;    0.000
263.589; 1614.100;  161.350;    0.000
263.656; 1614.100;  117.350;    0.000
263.723; 1579.100;  101.350;    0.000
263.790; 1594.100;  128.350;    0.000
263.858; 1662.100;  142.350;    0.000
263.925; 1595.100;  182.350;    0.000
263.992; 1709.100;  146.350;    0.000
264.059; 1699.100;  132.350;    0.000
264.126; 1693.100;  154.350;    0.000
264.194; 1731.100;  153.350;    0.000
264.261; 1697.100;  157.350;    0.000
264.328; 1680.100;  171.350;    0.000
264.395; 1687.100;  166.350;    0.000
264.462; 1674.100;  165.350;    0.000
264.529; 1669.100;  124.350;    0.000
264.597; 1726.100;  120.350;    0.000
264.664; 1758.100;  159.350;    0.000
264.731; 1761.100;  145.350;    0.000
264.798; 1755.100;  100.350;    0.000
264.865; 1742.100;  166.350;    0.000
264.932; 1719.100;  132.350;    0.000
264.999; 1795.100;  137.350;    0.000
265.066; 1806.100;  124.350;    0.000
265.133; 1741.100;  162.350;    0.000
265.201; 1821.100;  163.350;    0.000
265.268; 1835.100;  174.350;    0.000
265.335; 1927.100;  132.350;    0.000
265.402; 1811.100;  116.350;    0.000
265.469; 1908.100;  121.350;    0.000
265.536; 1878.100;  157.350;    0.000
265.603; 1961.100;  151.350;    0.000
265.670; 1905.100;  164.350;    0.000
265.737; 1905.100;  142.350;    0.000
265.804; 1954.100;  146.350;    0.000
265.871; 1847.100;  168.350;    0.000
265.938; 1944.100;  131.350;    0.000
266.005; 1882.100;  208.350;    0.000
266.072; 1930.100;  125.350;    0.000
266.139; 2031.100;  161.350;    0.000
266.206; 1939.100;  134.350;    0.000
266.273; 2030.100;  155.350;    0.000
266.340; 1971.100;  122.350;    0.000
266.407; 1969.100;  134.350;    0.000
266.474; 2163.100;  126.350;    0.000
266.541; 2103.100;  153.350;    0.000
266.608; 2049.100;  129.350;    0.000
266.675; 2153.100;  185.350;    0.000
266.742; 2058.100;  153.350;    0.000
266.808; 2041.100;  169.350;    0.000
266.875; 2033.100;  156.350;    0.000
266.942; 1964.100;  172.350;    0.000
267.009; 1998.100;  150.350;    0.000
267.076; 2089.100;  184.350;    0.000
267.143; 2194.100;  170.350;    0.000
267.210; 2084.100;  132.350;    0.000
267.277; 2064.100;  146.350;    0.000
267.344; 2089.100;  159.350;    0.000
267.410; 2074.100;  174.350;    0.000
267.477; 2051.100;  169.350;    0.000
267.544; 2174.100;  130.350;    0.000
267.611; 2256.100;  169.350;    0.000
267.678; 2214.100;  197.350;    0.000
267.745; 2155.100;  185.350;    0.000
267.811; 2191.100;  160.350;    0.000
267.878; 2065.100;  143.350;    0.000
267.945; 2070.100;  126.350;    0.000
268.012; 2063.100;  172.350;    0.000
268.079; 2007.100;  156.350;    0.000
268.145; 2121.100;  128.350;    0.000
268.212; 2102.100;  107.350;    0.000
268.279; 2107.100;  135.350;    0.000
268.346; 2111.100;  166.350;    0.000
268.412; 2121.100;  150.350;    0.000
268.479; 2076.100;  176.350;    0.000
268.546; 2139.100;  119.350;    0.000
268.613; 2013.100;  201.350;    0.000
268.679; 2113.100;  141.350;    0.000
268.746; 2070.100;  177.350;    0.000
268.813; 2140.100;  134.350;    0.000
268.879; 2093.100;  141.350;    0.000
268.946; 2136.100;  172.350;    0.000
269.013; 2172.100;  150.350;    0.000
269.079; 2133.100;  124.350;    0.000
269.146; 2114.100;  135.350;    0.000
269.213; 2142.100;  200.350;    0.000
269.280; 2104.100;  142.350;    0.000
269.346; 2116.100;  153.350;    0.000
269.413; 2070.100;  140.350;    0.000
269.479; 2151.100;  171.350;    0.000
269.546; 2033.100;  156.350;    0.000
269.613; 2084.100;  145.350;    0.000
269.679; 2090.100;  168.350;    0.000
269.746; 2063.100;  136.350;    0.000
269.813; 2121.100;  153.350;    0.000
269.879; 2136.100;  162.350;    0.000
269.946; 2120.100;  156.350;    0.000
270.012; 2047.100;  178.350;    0.000
270.079; 1959.100;  132.350;    0.000
270.145; 2074.100;  146.350;    0.000
270.212; 2142.100;  145.350;    0.000
270.279; 2086.100;  184.350;    0.000
270.345; 2147.100;  143.350;    0.000
270.412; 2101.100;  158.350;    0.000
270.478; 2059.100;  143.350;    0.000
270.545; 2047.100;  150.350;    0.000
270.611; 2097.100;  156.350;    0.000
270.678; 2009.100;  121.350;    0.000
270.744; 2030.100;  161.350;    0.000
270.811; 2081.100;  173.350;    0.000
270.877; 2075.100;  115.350;    0.000
270.944; 1984.100;  114.350;    0.000
271.010; 2082.100;  122.350;    0.000
271.077; 2081.100;  142.350;    0.000
271.143; 2042.100;  152.350;    0.000
271.210; 2001.100;  135.350;    0.000
271.276; 2010.100;  107.350;    0.000
271.342; 2097.100;  173.350;    0.000
271.409; 2152.100;  171.350;    0.000
271.475; 2057.100;  136.350;    0.000
271.542; 2004.100;  121.350;    0.000
271.608; 2085.100;  133.350;    0.000
271.675; 2066.100;  136.350;    0.000
271.741; 2058.100;  151.350;    0.000
271.807; 2034.100;  130.350;    0.000
271.874; 2116.100;  168.350;    0.000
271.940; 2138.100;  156.350;    0.000
272.007; 2011.100;  122.350;    0.000
272.073; 1987.100;  121.350;    0.000
272.139; 1953.100;  137.350;    0.000
272.206; 2086.100;  152.350;    0.000
272.272; 2115.100;  162.350;    0.000
272.338; 2141.100;  197.350;    0.000
272.405; 2073.100;  144.350;    0.000
272.471; 2028.100;  160.350;    0.000
272.537; 2065.100;  142.350;    0.000
272.604; 2045.100;  141.350;    0.000
272.670; 2160.100;  182.350;    0.000
272.736; 2112.100;  126.350;    0.000
272.802; 2016.100;  146.350;    0.000
272.869; 2074.100;  163.350;    0.000
272.935; 2148.100;  132.350;    0.000
273.001; 2102.100;  119.350;    0.000
273.068; 2094.100;  137.350;    0.000
273.134; 2028.100;  155.350;    0.000
273.200; 2053.100;  165.350;    0.000
273.266; 2012.100;  156.350;    0.000
273.333; 2041.100;  143.350;    0.000
273.399; 1995.100;  128.350;    0.000
273.465; 2122.100;  167.350;    0.000
273.531; 2044.100;  122.350;    0.000
273.597; 2140.100;  182.350;    0.000
273.664; 2210.100;  177.350;    0.000
273.730; 2087.100;  124.350;    0.000
273.796; 2183.100;  143.350;    0.000
273.862; 2288.100;  155.350;    0.000
273.928; 2520.100;  137.350;    0.000
273.995; 2307.100;  188.350;    0.000
274.061; 2219.100;  154.350;    0.000
274.127; 2127.100;  161.350;    0.000
274.193; 2106.100;   95.350;    0.000
274.259; 2246.100;  128.350;    0.000
274.325; 2185.100;  146.350;    0.000
274.391; 2259.100;  113.350;    0.000
274.457; 2249.100;  150.350;    0.000
274.524; 2287.100;  165.350;    0.000
274.590; 2495.100;  140.350;    0.000
274.656; 2540.100;  165.350;    0.000
274.722; 2365.100;  118.350;    0.000
274.788; 2310.100;  143.350;    0.000
274.854; 2633.100;  150.350;    0.000
274.920; 2705.100;   88.350;    0.000
274.986; 2426.100;  178.350;    0.000
275.052; 2344.100;  145.350;    0.000
275.118; 2343.100;  105.350;    0.000
275.184; 2316.100;  129.350;    0.000
275.250; 2320.100;  138.350;    0.000
275.316; 2377.100;  173.350;    0.000
275.382; 2396.100;  106.350;    0.000
275.448; 2403.100;  160.350;    0.000
275.514; 2704.100;  162.350;    0.000
275.580; 2724.100;  135.350;    0.000
275.646; 2454.100;  120.350;    0.000
275.712; 2430.100;  157.350;    0.000
275.778; 2493.100;  128.350;    0.000
275.844; 2494.100;  117.350;    0.000
275.910; 2468.100;  121.350;    0.000
275.976; 2573.100;  172.350;    0.000
276.042; 2439.100;  114.350;    0.000
276.108; 2446.100;  200.350;    0.000
276.174; 2545.100;  132.350;    0.000
276.240; 2598.100;  128.350;    0.000
276.306; 2606.100;  124.350;    0.000
276.372; 2667.100;  133.350;    0.000
276.437; 2643.100;  146.350;    0.000
276.503; 2638.100;  136.350;    0.000
276.569; 2777.100;  162.350;    0.000
276.635; 2781.100;  128.350;    0.000
276.701; 2931.100;  148.350;    0.000
276.767; 2861.100;  155.350;    0.000
276.833; 2903.100;  128.350;    0.000
276.899; 2948.100;  145.350;    0.000
276.964; 2934.100;  124.350;    0.000
277.030; 3003.100;  130.350;    0.000
277.096; 2982.100;  139.350;    0.000
277.162; 3209.100;  164.350;    0.000
277.228; 3250.100;  108.350;    0.000
277.293; 3287.100;  138.350;    0.000
277.359; 3433.100;  123.350;    0.000
277.425; 3643.100;  183.350;    0.000
277.491; 3770.100;  144.350;    0.000
277.557; 4297.100;  130.350;    0.000
277.622; 5783.100;  151.350;    0.000
277.688; 5802.100;  169.350;    0.000
277.754; 5847.100;  199.350;    0.000
277.820; 6361.100;  170.350;    0.000
277.885; 7842.100;  173.350;    0.000
277.951; 9587.100;  187.350;    0.000
278.017; 8021.100;  152.350;    0.000
278.083; 6901.100;  137.350;    0.000
278.148; 6670.100;  147.350;    0.000
278.214; 6775.100;  162.350;    0.000
278.280; 7325.100;  171.350;    0.000
278.345; 6672.100;  174.350;    0.000
278.411; 6128.100;  152.350;    0.000
278.477; 6331.100;  173.350;    0.000
278.542; 6673.100;  161.350;    0.000
278.608; 7364.100;  155.350;    0.000
278.674; 8050.100;  169.350;    0.000
278.739; 8798.100;  142.350;    0.000
278.805;10267.100;  164.350;    0.000
278.871;12278.100;  160.350;    0.000
278.936;16098.100;  121.350;    0.000
279.002;25967.100;  166.350;    0.000
279.067;35451.102;  199.350;    0.000
279.133;33327.102;  150.350;    0.000
279.199;28209.100;  154.350;    0.000
279.264;29069.100;  154.350;    0.000
279.330;34655.102;  159.350;    0.000
279.395;48399.102;  143.350;    0.000
279.461;65299.102;  173.350;    0.000
279.527;65299.102;  163.350;    0.000
279.592;65299.102;  167.350;    0.000
279.658;55077.102;  189.350;    0.000
279.723;52939.102;  153.350;    0.000
279.789;57193.102;  174.350;    0.000
279.854;49624.102;  129.350;    0.000
279.920;38633.102;  165.350;    0.000
279.985;33418.102;  152.350;    0.000
280.051;34163.102;  164.350;    0.000
280.116;42302.102;  187.350;    0.000
280.182;64556.102;  160.350;    0.000
280.247;65299.102;  124.350;    0.000
280.313;60319.102;  154.350;    0.000
280.378;37255.102;  152.350;    0.000
280.444;25507.100;  165.350;    0.000
280.509;19278.100;  164.350;    0.000
280.574;16210.100;  160.350;    0.000
280.640;13881.100;  167.350;    0.000
280.705;12073.100;  190.350;    0.000
280.771;10887.100;  154.350;    0.000
280.836;10145.100;  158.350;    0.000
280.902; 9461.100;  124.350;    0.000
280.967; 8704.100;  179.350;    0.000
281.032; 8178.100;  187.350;    0.000
281.098; 7765.100;  155.350;    0.000
281.163; 7460.100;  133.350;    0.000
281.229; 6952.100;  170.350;    0.000
281.294; 6658.100;  175.350;    0.000
281.359; 6465.100;  163.350;    0.000
281.425; 6220.100;  161.350;    0.000
281.490; 6136.100;  162.350;    0.000
281.555; 5800.100;  137.350;    0.000
281.621; 5689.100;  163.350;    0.000
281.686; 5472.100;  155.350;    0.000
281.751; 5190.100;  158.350;    0.000
281.816; 5152.100;  139.350;    0.000
281.882; 5028.100;  150.350;    0.000
281.947; 4830.100;  165.350;    0.000
282.012; 4630.100;  171.350;    0.000
282.078; 4669.100;  177.350;    0.000
282.143; 4616.100;  149.350;    0.000
282.208; 4618.100;  181.350;    0.000
282.273; 4491.100;  166.350;    0.000
282.339; 4379.100;  165.350;    0.000
282.404; 4300.100;  166.350;    0.000
282.469; 4236.100;  150.350;    0.000
282.534; 4227.100;  176.350;    0.000
282.600; 4155.100;  117.350;    0.000
282.665; 4009.100;  134.350;    0.000
282.730; 4008.100;  155.350;    0.000
282.795; 4030.100;  193.350;    0.000
282.860; 3911.100;  160.350;    0.000
282.926; 3949.100;  174.350;    0.000
282.991; 3994.100;  161.350;    0.000
283.056; 3894.100;  157.350;    0.000
283.121; 3879.100;  178.350;    0.000
283.186; 3729.100;  152.350;    0.000
283.251; 3794.100;  167.350;    0.000
283.316; 3771.100;  186.350;    0.000
283.382; 3779.100;  148.350;    0.000
283.447; 3837.100;  191.350;    0.000
283.512; 4074.100;  132.350;    0.000
283.577; 3965.100;  179.350;    0.000
283.642; 3615.100;  185.350;    0.000
283.707; 3765.100;  136.350;    0.000
283.772; 3664.100;  119.350;    0.000
283.837; 3729.100;  136.350;    0.000
283.902; 3680.100;  135.350;    0.000
283.967; 3559.100;  146.350;    0.000
284.032; 3644.100;  140.350;    0.000
284.097; 3682.100;  199.350;    0.000
284.163; 3680.100;  144.350;    0.000
284.228; 3714.100;  183.350;    0.000
284.293; 3805.100;  141.350;    0.000
284.358; 3778.100;  146.350;    0.000
284.423; 3551.100;  127.350;    0.000
284.488; 3798.100;  186.350;    0.000
284.553; 3741.100;  155.350;    0.000
284.618; 3848.100;  118.350;    0.000
284.683; 3971.100;  145.350;    0.000
284.748; 4107.100;  139.350;    0.000
284.812; 4301.100;  147.350;    0.000
284.877; 4780.100;  123.350;    0.000
284.942; 5422.100;  153.350;    0.000
285.007; 6521.100;  168.350;    0.000
285.072; 9137.100;  181.350;    0.000
285.137;18640.100;  147.350;    0.000
285.202;24730.100;  175.350;    0.000
285.267;17917.100;  182.350;    0.000
285.332;10366.100;  136.350;    0.000
285.397; 7428.100;  138.350;    0.000
285.462; 6066.100;  151.350;    0.000
285.527; 5461.100;  159.350;    0.000
285.591; 4948.100;  177.350;    0.000
285.656; 4469.100;  144.350;    0.000
285.721; 4372.100;  125.350;    0.000
285.786; 4177.100;  169.350;    0.000
285.851; 4210.100;  175.350;    0.000
285.916; 4052.100;  164.350;    0.000
285.981; 3876.100;  134.350;    0.000
286.045; 3852.100;  154.350;    0.000
286.110; 3714.100;  136.350;    0.000
286.175; 3705.100;  155.350;    0.000
286.240; 3742.100;  138.350;    0.000
286.305; 3564.100;  213.350;    0.000
286.369; 3538.100;  221.350;    0.000
286.434; 3551.100;  172.350;    0.000
286.499; 3570.100;  161.350;    0.000
286.564; 3433.100;  189.350;    0.000
286.628; 3556.100;  144.350;    0.000
286.693; 3515.100;  176.350;    0.000
286.758; 3369.100;  168.350;    0.000
286.823; 3373.100;  142.350;    0.000
286.887; 3360.100;  134.350;    0.000
286.952; 3428.100;  180.350;    0.000
287.017; 3451.100;  204.350;    0.000
287.082; 3352.100;  120.350;    0.000
287.146; 3442.100;  173.350;    0.000
287.211; 3306.100;  167.350;    0.000
287.276; 3456.100;  164.350;    0.000
287.340; 3383.100;  138.350;    0.000
287.405; 3206.100;  172.350;    0.000
287.470; 3289.100;  142.350;    0.000
287.534; 3389.100;  155.350;    0.000
287.599; 3342.100;  166.350;    0.000
287.663; 3365.100;  171.350;    0.000
287.728; 3365.100;  190.350;    0.000
287.793; 3232.100;  197.350;    0.000
287.857; 3382.100;  165.350;    0.000
287.922; 3185.100;  147.350;    0.000
287.987; 3336.100;  167.350;    0.000
288.051; 3436.100;  151.350;    0.000
288.116; 3838.100;  154.350;    0.000
288.180; 3771.100;  186.350;    0.000
288.245; 3330.100;  161.350;    0.000
288.309; 3364.100;  177.350;    0.000
288.374; 3310.100;  151.350;    0.000
288.439; 3221.100;  169.350;    0.000
288.503; 3119.100;  133.350;    0.000
288.568; 3237.100;  206.350;    0.000
288.632; 3154.100;  192.350;    0.000
288.697; 3163.100;  183.350;    0.000
288.761; 3242.100;  148.350;    0.000
288.826; 3167.100;  136.350;    0.000
288.890; 3274.100;  185.350;    0.000
288.955; 3141.100;  150.350;    0.000
289.019; 3247.100;  165.350;    0.000
289.084; 3139.100;  150.350;    0.000
289.148; 3187.100;  146.350;    0.000
289.212; 3173.100;  172.350;    0.000
289.277; 3144.100;  177.350;    0.000
289.341; 3123.100;  190.350;    0.000
289.406; 3147.100;  117.350;    0.000
289.470; 3161.100;  173.350;    0.000
289.535; 3080.100;  170.350;    0.000
289.599; 3192.100;  154.350;    0.000
289.663; 3185.100;  173.350;    0.000
289.728; 3181.100;  176.350;    0.000
289.792; 3242.100;  138.350;    0.000
289.857; 3240.100;  203.350;    0.000
289.921; 3172.100;  143.350;    0.000
289.985; 3068.100;  150.350;    0.000
290.050; 3116.100;  170.350;    0.000
290.114; 3091.100;  125.350;    0.000
290.178; 3168.100;  161.350;    0.000
290.243; 3046.100;  119.350;    0.000
290.307; 3166.100;  169.350;    0.000
290.371; 3096.100;  169.350;    0.000
290.436; 3251.100;  170.350;    0.000
290.500; 3242.100;  144.350;    0.000
290.564; 3137.100;  179.350;    0.000
290.629; 3101.100;  166.350;    0.000
290.693; 3104.100;  156.350;    0.000
290.757; 3147.100;  147.350;    0.000
290.821; 3101.100;  170.350;    0.000
290.886; 3230.100;  167.350;    0.000
290.950; 3220.100;  187.350;    0.000
291.014; 3260.100;  164.350;    0.000
291.078; 3247.100;  115.350;    0.000
291.143; 3206.100;  149.350;    0.000
291.207; 3225.100;  163.350;    0.000
291.271; 3254.100;  177.350;    0.000
291.335; 3358.100;  148.350;    0.000
291.399; 3325.100;  155.350;    0.000
291.464; 3455.100;  114.350;    0.000
291.528; 3564.100;  153.350;    0.000
291.592; 3523.100;  156.350;    0.000
291.656; 3325.100;  170.350;    0.000
291.720; 3434.100;  159.350;    0.000
291.784; 3347.100;  159.350;    0.000
291.849; 3422.100;  154.350;    0.000
291.913; 3419.100;  118.350;    0.000
291.977; 3414.100;  157.350;    0.000
292.041; 3401.100;  163.350;    0.000
292.105; 3417.100;  135.350;    0.000
292.169; 3381.100;  155.350;    0.000
292.233; 3539.100;  163.350;    0.000
292.297; 3481.100;  144.350;    0.000
292.361; 3636.100;  143.350;    0.000
292.425; 3666.100;  177.350;    0.000
292.490; 3670.100;  159.350;    0.000
292.554; 3821.100;  137.350;    0.000
292.618; 4018.100;  144.350;    0.000
292.682; 4314.100;  169.350;    0.000
292.746; 5291.100;  166.350;    0.000
292.810; 7035.100;  147.350;    0.000
292.874; 8866.100;  160.350;    0.000
292.938; 8669.100;  174.350;    0.000
293.002; 7565.100;  148.350;    0.000
293.066; 6561.100;  115.350;    0.000
293.130; 5897.100;  133.350;    0.000
293.194; 5775.100;  148.350;    0.000
293.258; 5496.100;  167.350;    0.000
293.322; 5346.100;  166.350;    0.000
293.386; 5482.100;  193.350;    0.000
293.450; 5932.100;  142.350;    0.000
293.514; 6797.100;  170.350;    0.000
293.577; 9300.100;  153.350;    0.000
293.641;13005.100;  171.350;    0.000
293.705;13863.100;  168.350;    0.000
293.769;11954.100;  155.350;    0.000
293.833; 9714.100;  161.350;    0.000
293.897; 8296.100;  124.350;    0.000
293.961; 7306.100;  165.350;    0.000
294.025; 6439.100;  118.350;    0.000
294.089; 5983.100;  125.350;    0.000
294.152; 5501.100;  160.350;    0.000
294.216; 5118.100;  160.350;    0.000
294.280; 4979.100;  158.350;    0.000
294.344; 4669.100;  119.350;    0.000
294.408; 4501.100;  168.350;    0.000
294.472; 4400.100;  156.350;    0.000
294.536; 4151.100;  192.350;    0.000
294.599; 4117.100;  171.350;    0.000
294.663; 3998.100;  139.350;    0.000
294.727; 3936.100;  136.350;    0.000
294.791; 3886.100;  118.350;    0.000
294.855; 3839.100;  118.350;    0.000
294.918; 3716.100;  127.350;    0.000
294.982; 3645.100;  167.350;    0.000
295.046; 3542.100;  178.350;    0.000
295.110; 3485.100;  157.350;    0.000
295.173; 3441.100;  101.350;    0.000
295.237; 3516.100;  145.350;    0.000
295.301; 3416.100;  135.350;    0.000
295.364; 3523.100;  185.350;    0.000
295.428; 3486.100;  112.350;    0.000
295.492; 3340.100;  142.350;    0.000
295.556; 3284.100;  170.350;    0.000
295.619; 3426.100;  193.350;    0.000
295.683; 3291.100;  144.350;    0.000
295.747; 3259.100;  152.350;    0.000
295.810; 3204.100;  139.350;    0.000
295.874; 3220.100;  157.350;    0.000
295.938; 3269.100;  128.350;    0.000
296.001; 3191.100;  164.350;    0.000
296.065; 3181.100;  184.350;    0.000
296.128; 3076.100;  127.350;    0.000
296.192; 3164.100;  166.350;    0.000
296.256; 3078.100;  154.350;    0.000
296.319; 3091.100;  128.350;    0.000
296.383; 3092.100;  146.350;    0.000
296.447; 3098.100;  155.350;    0.000
296.510; 3186.100;  177.350;    0.000
296.574; 3055.100;  169.350;    0.000
296.637; 3125.100;  140.350;    0.000
296.701; 2970.100;  181.350;    0.000
296.764; 3005.100;  131.350;    0.000
296.828; 3013.100;  194.350;    0.000
296.891; 3023.100;  146.350;    0.000
296.955; 2976.100;  160.350;    0.000
297.018; 2983.100;  174.350;    0.000
297.082; 3052.100;  153.350;    0.000
297.145; 3060.100;  133.350;    0.000
297.209; 2965.100;  149.350;    0.000
297.272; 2992.100;  150.350;    0.000
297.336; 2985.100;  119.350;    0.000
297.399; 3012.100;  160.350;    0.000
297.463; 2862.100;  158.350;    0.000
297.526; 2998.100;  160.350;    0.000
297.590; 2968.100;  173.350;    0.000
297.653; 3024.100;  121.350;    0.000
297.717; 2860.100;  168.350;    0.000
297.780; 2899.100;  131.350;    0.000
297.843; 2855.100;  154.350;    0.000
297.907; 2990.100;  126.350;    0.000
297.970; 2924.100;  180.350;    0.000
298.034; 2900.100;  140.350;    0.000
298.097; 3043.100;  207.350;    0.000
298.160; 2901.100;  177.350;    0.000
298.224; 2895.100;  165.350;    0.000
298.287; 2886.100;  160.350;    0.000
298.350; 2962.100;  176.350;    0.000
298.414; 2861.100;  155.350;    0.000
298.477; 2936.100;  132.350;    0.000
298.540; 2859.100;  162.350;    0.000
298.604; 2857.100;  180.350;    0.000
298.667; 2883.100;  208.350;    0.000
298.730; 2850.100;  177.350;    0.000
298.794; 2818.100;  126.350;    0.000
298.857; 2825.100;  171.350;    0.000
298.920; 2768.100;  124.350;    0.000
298.984; 2731.100;  146.350;    0.000
299.047; 2849.100;  140.350;    0.000
299.110; 2753.100;  159.350;    0.000
299.173; 2756.100;  177.350;    0.000
299.237; 2804.100;  196.350;    0.000
299.300; 2725.100;  121.350;    0.000
299.363; 2696.100;  172.350;    0.000
299.426; 2784.100;  117.350;    0.000
299.489; 2726.100;  138.350;    0.000
299.553; 2702.100;  198.350;    0.000
299.616; 2672.100;  158.350;    0.000
299.679; 2754.100;  148.350;    0.000
299.742; 2680.100;  138.350;    0.000
299.805; 2637.100;  157.350;    0.000
299.868; 2705.100;  183.350;    0.000
299.932; 2638.100;  137.350;    0.000
299.995; 2635.100;  152.350;    0.000
300.058; 2684.100;  171.350;    0.000
300.121; 2630.100;  172.350;    0.000
300.184; 2644.100;  161.350;    0.000
300.247; 2637.100;  156.350;    0.000
300.310; 2589.100;  154.350;    0.000
300.374; 2642.100;  147.350;    0.000
300.437; 2559.100;  144.350;    0.000
300.500; 2630.100;  152.350;    0.000
300.563; 2628.100;  160.350;    0.000
300.626; 2662.100;  167.350;    0.000
300.689; 2615.100;  193.350;    0.000
300.752; 2627.100;  134.350;    0.000
300.815; 2527.100;  194.350;    0.000
300.878; 2628.100;  156.350;    0.000
300.941; 2685.100;  177.350;    0.000
301.004; 2583.100;  160.350;    0.000
301.067; 2555.100;  153.350;    0.000
301.130; 2573.100;  167.350;    0.000
301.193; 2558.100;  156.350;    0.000
301.256; 2492.100;  176.350;    0.000
301.319; 2653.100;  172.350;    0.000
301.382; 2609.100;  150.350;    0.000
301.445; 2630.100;  183.350;    0.000
301.508; 2587.100;  118.350;    0.000
301.571; 2592.100;  142.350;    0.000
301.634; 2582.100;  164.350;    0.000
301.697; 2632.100;  169.350;    0.000
301.760; 2601.100;  197.350;    0.000
301.823; 2605.100;  155.350;    0.000
301.885; 2560.100;  165.350;    0.000
301.948; 2601.100;  168.350;    0.000
302.011; 2654.100;  172.350;    0.000
302.074; 2634.100;  182.350;    0.000
302.137; 2572.100;  161.350;    0.000
302.200; 2586.100;  174.350;    0.000
302.263; 2584.100;  158.350;    0.000
302.326; 2485.100;  168.350;    0.000
302.388; 2551.100;  165.350;    0.000
302.451; 2580.100;  158.350;    0.000
302.514; 2635.100;  181.350;    0.000
302.577; 2494.100;  147.350;    0.000
302.640; 2564.100;  178.350;    0.000
302.703; 2551.100;  164.350;    0.000
302.765; 2528.100;  149.350;    0.000
302.828; 2561.100;  192.350;    0.000
302.891; 2521.100;  201.350;    0.000
302.954; 2486.100;  135.350;    0.000
303.016; 2531.100;  180.350;    0.000
303.079; 2528.100;  192.350;    0.000
303.142; 2534.100;  176.350;    0.000
303.205; 2472.100;  176.350;    0.000
303.267; 2483.100;  163.350;    0.000
303.330; 2567.100;  162.350;    0.000
303.393; 2620.100;  164.350;    0.000
303.456; 2517.100;  180.350;    0.000
303.518; 2470.100;  162.350;    0.000
303.581; 2435.100;  137.350;    0.000
303.644; 2445.100;  135.350;    0.000
303.706; 2486.100;  170.350;    0.000
303.769; 2486.100;  216.350;    0.000
303.832; 2467.100;  143.350;    0.000
303.894; 2413.100;  162.350;    0.000
303.957; 2474.100;  149.350;    0.000
304.020; 2515.100;  111.350;    0.000
304.082; 2555.100;  158.350;    0.000
304.145; 2493.100;  149.350;    0.000
304.207; 2546.100;  169.350;    0.000
304.270; 2441.100;  170.350;    0.000
304.333; 2509.100;  185.350;    0.000
304.395; 2533.100;  179.350;    0.000
304.458; 2562.100;  174.350;    0.000
304.520; 2495.100;  160.350;    0.000
304.583; 2472.100;  175.350;    0.000
304.646; 2488.100;  160.350;    0.000
304.708; 2394.100;  173.350;    0.000
304.771; 2535.100;  115.350;    0.000
304.833; 2573.100;  172.350;    0.000
304.896; 2474.100;  187.350;    0.000
304.958; 2464.100;  142.350;    0.000
305.021; 2515.100;  164.350;    0.000
305.083; 2535.100;  139.350;    0.000
305.146; 2526.100;  162.350;    0.000
305.208; 2501.100;  135.350;    0.000
305.271; 2516.100;  159.350;    0.000
305.333; 2527.100;  210.350;    0.000
305.396; 2411.100;  151.350;    0.000
305.458; 2553.100;  195.350;    0.000
305.520; 2480.100;  179.350;    0.000
305.583; 2458.100;  157.350;    0.000
305.645; 2521.100;  187.350;    0.000
305.708; 2523.100;  159.350;    0.000
305.770; 2528.100;  189.350;    0.000
305.833; 2416.100;  147.350;    0.000
305.895; 2529.100;  154.350;    0.000
305.957; 2426.100;  143.350;    0.000
306.020; 2405.100;  133.350;    0.000
306.082; 2442.100;  146.350;    0.000
306.144; 2528.100;  171.350;    0.000
306.207; 2402.100;  151.350;    0.000
306.269; 2527.100;  169.350;    0.000
306.331; 2456.100;  162.350;    0.000
306.394; 2445.100;  171.350;    0.000
306.456; 2510.100;  155.350;    0.000
306.518; 2493.100;  183.350;    0.000
306.581; 2433.100;  180.350;    0.000
306.643; 2480.100;  199.350;    0.000
306.705; 2550.100;  163.350;    0.000
306.768; 2497.100;  183.350;    0.000
306.830; 2530.100;  183.350;    0.000
306.892; 2544.100;  190.350;    0.000
306.954; 2522.100;  161.350;    0.000
307.017; 2555.100;  151.350;    0.000
307.079; 2444.100;  147.350;    0.000
307.141; 2577.100;  179.350;    0.000
307.203; 2570.100;  143.350;    0.000
307.266; 2545.100;  142.350;    0.000
307.328; 2645.100;  161.350;    0.000
307.390; 2534.100;  189.350;    0.000
307.452; 2608.100;  155.350;    0.000
307.514; 2605.100;  211.350;    0.000
307.577; 2592.100;  201.350;    0.000
307.639; 2614.100;  192.350;    0.000
307.701; 2767.100;  162.350;    0.000
307.763; 2668.100;  155.350;    0.000
307.825; 2726.100;  193.350;    0.000
307.887; 2594.100;  214.350;    0.000
307.949; 2619.100;  208.350;    0.000
308.012; 2681.100;  175.350;    0.000
308.074; 2652.100;  155.350;    0.000
308.136; 2563.100;  172.350;    0.000
308.198; 2713.100;  171.350;    0.000
308.260; 2741.100;  182.350;    0.000
308.322; 2620.100;  177.350;    0.000
308.384; 2746.100;  207.350;    0.000
308.446; 2715.100;  170.350;    0.000
308.508; 2744.100;  177.350;    0.000
308.570; 2690.100;  195.350;    0.000
308.632; 2662.100;  190.350;    0.000
308.694; 2627.100;  161.350;    0.000
308.756; 2747.100;  173.350;    0.000
308.818; 2758.100;  190.350;    0.000
308.880; 2839.100;  197.350;    0.000
308.942; 2849.100;  223.350;    0.000
309.004; 2849.100;  176.350;    0.000
309.066; 2853.100;  182.350;    0.000
309.128; 2811.100;  185.350;    0.000
309.190; 2927.100;  166.350;    0.000
309.252; 3026.100;  191.350;    0.000
309.314; 3052.100;  208.350;    0.000
309.376; 3088.100;  205.350;    0.000
309.438; 2917.100;  166.350;    0.000
309.500; 2891.100;  195.350;    0.000
309.562; 2931.100;  163.350;    0.000
309.624; 3102.100;  162.350;    0.000
309.686; 3116.100;  194.350;    0.000
309.747; 3024.100;  179.350;    0.000
309.809; 2977.100;  211.350;    0.000
309.871; 3031.100;  191.350;    0.000
309.933; 2887.100;  151.350;    0.000
309.995; 2986.100;  179.350;    0.000
310.057; 2816.100;  175.350;    0.000
310.119; 2842.100;  161.350;    0.000
310.180; 2903.100;  167.350;    0.000
310.242; 2907.100;  171.350;    0.000
310.304; 2889.100;  209.350;    0.000
310.366; 2892.100;  229.350;    0.000
310.428; 2741.100;  132.350;    0.000
310.489; 2761.100;  165.350;    0.000
310.551; 2817.100;  193.350;    0.000
310.613; 2704.100;  182.350;    0.000
310.675; 2920.100;  186.350;    0.000
310.737; 2828.100;  192.350;    0.000
310.798; 2840.100;  194.350;    0.000
310.860; 2852.100;  220.350;    0.000
310.922; 2720.100;  161.350;    0.000
310.983; 2768.100;  203.350;    0.000
311.045; 2700.100;  198.350;    0.000
311.107; 2704.100;  179.350;    0.000
311.169; 2792.100;  154.350;    0.000
311.230; 2776.100;  134.350;    0.000
311.292; 2732.100;  215.350;    0.000
311.354; 2792.100;  171.350;    0.000
311.415; 2736.100;  195.350;    0.000
311.477; 2770.100;  185.350;    0.000
311.539; 2670.100;  183.350;    0.000
311.600; 2672.100;  183.350;    0.000
311.662; 2764.100;  207.350;    0.000
311.724; 2716.100;  193.350;    0.000
311.785; 2821.100;  180.350;    0.000
311.847; 2695.100;  155.350;    0.000
311.908; 2806.100;  179.350;    0.000
311.970; 2882.100;  193.350;    0.000
312.032; 2710.100;  188.350;    0.000
312.093; 2850.100;  166.350;    0.000
312.155; 2779.100;  147.350;    0.000
312.216; 2787.100;  177.350;    0.000
312.278; 2747.100;  162.350;    0.000
312.339; 2639.100;  158.350;    0.000
312.401; 2807.100;  181.350;    0.000
312.462; 2895.100;  153.350;    0.000
312.524; 2851.100;  186.350;    0.000
312.585; 2823.100;  191.350;    0.000
312.647; 2683.100;  131.350;    0.000
312.708; 2827.100;  170.350;    0.000
312.770; 2739.100;  194.350;    0.000
312.831; 2753.100;  161.350;    0.000
312.893; 2801.100;  179.350;    0.000
312.954; 2779.100;  183.350;    0.000
313.016; 2777.100;  189.350;    0.000
313.077; 2817.100;  169.350;    0.000
313.139; 2894.100;  148.350;    0.000
313.200; 2880.100;  155.350;    0.000
313.261; 2957.100;  213.350;    0.000
313.323; 2812.100;  162.350;    0.000
313.384; 2774.100;  160.350;    0.000
313.446; 2879.100;  202.350;    0.000
313.507; 2746.100;  149.350;    0.000
313.568; 2806.100;  194.350;    0.000
313.630; 2718.100;  163.350;    0.000
313.691; 2871.100;  158.350;    0.000
313.752; 2815.100;  179.350;    0.000
313.814; 2759.100;  180.350;    0.000
313.875; 2847.100;  191.350;    0.000
313.936; 2799.100;  169.350;    0.000
313.998; 2799.100;  165.350;    0.000
314.059; 2855.100;  211.350;    0.000
314.120; 2699.100;  190.350;    0.000
314.182; 2753.100;  185.350;    0.000
314.243; 2749.100;  186.350;    0.000
314.304; 2827.100;  178.350;    0.000
314.365; 2823.100;  187.350;    0.000
314.427; 2803.100;  145.350;    0.000
314.488; 2730.100;  184.350;    0.000
314.549; 2746.100;  181.350;    0.000
314.610; 2791.100;  151.350;    0.000
314.672; 2709.100;  153.350;    0.000
314.733; 2721.100;  148.350;    0.000
314.794; 2797.100;  156.350;    0.000
314.855; 2785.100;  196.350;    0.000
314.917; 2751.100;  157.350;    0.000
314.978; 2762.100;  174.350;    0.000
315.039; 2738.100;  168.350;    0.000
315.100; 2782.100;  154.350;    0.000
315.161; 2886.100;  176.350;    0.000
315.222; 2779.100;  198.350;    0.000
315.283; 2647.100;  169.350;    0.000
315.345; 2839.100;  162.350;    0.000
315.406; 2863.100;  199.350;    0.000
315.467; 2759.100;  180.350;    0.000
315.528; 2721.100;  179.350;    0.000
315.589; 2737.100;  166.350;    0.000
315.650; 2755.100;  179.350;    0.000
315.711; 2753.100;  177.350;    0.000
315.772; 2761.100;  180.350;    0.000
315.833; 2738.100;  157.350;    0.000
315.894; 2862.100;  133.350;    0.000
315.955; 2803.100;  205.350;    0.000
316.016; 2776.100;  190.350;    0.000
316.078; 2724.100;  174.350;    0.000
316.139; 2889.100;  208.350;    0.000
316.200; 2667.100;  166.350;    0.000
316.261; 2777.100;  186.350;    0.000
316.322; 2772.100;  185.350;    0.000
316.383; 2644.100;  179.350;    0.000
316.444; 2806.100;  172.350;    0.000
316.504; 2819.100;  181.350;    0.000
316.565; 2726.100;  197.350;    0.000
316.626; 2722.100;  196.350;    0.000
316.687; 2758.100;  173.350;    0.000
316.748; 2795.100;  178.350;    0.000
316.809; 2679.100;  178.350;    0.000
316.870; 2901.100;  134.350;    0.000
316.931; 2737.100;  166.350;    0.000
316.992; 2791.100;  200.350;    0.000
317.053; 2735.100;  169.350;    0.000
317.114; 2719.100;  185.350;    0.000
317.175; 2778.100;  213.350;    0.000
317.235; 2680.100;  199.350;    0.000
317.296; 2729.100;  190.350;    0.000
317.357; 2721.100;  152.350;    0.000
317.418; 2801.100;  192.350;    0.000
317.479; 2681.100;  170.350;    0.000
317.540; 2668.100;  179.350;    0.000
317.601; 2742.100;  155.350;    0.000
317.661; 2742.100;  154.350;    0.000
317.722; 2768.100;  190.350;    0.000
317.783; 2652.100;  149.350;    0.000
317.844; 2716.100;  207.350;    0.000
317.904; 2697.100;  153.350;    0.000
317.965; 2755.100;  179.350;    0.000
318.026; 2766.100;  235.350;    0.000
318.087; 2902.100;  184.350;    0.000
318.148; 2758.100;  201.350;    0.000
318.208; 2636.100;  220.350;    0.000
318.269; 2745.100;  175.350;    0.000
318.330; 2631.100;  185.350;    0.000
318.390; 2717.100;  180.350;    0.000
318.451; 2641.100;  164.350;    0.000
318.512; 2734.100;  150.350;    0.000
318.572; 2640.100;  205.350;    0.000
318.633; 2729.100;  224.350;    0.000
318.694; 2792.100;  202.350;    0.000
318.754; 2790.100;  196.350;    0.000
318.815; 2639.100;  187.350;    0.000
318.876; 2618.100;  200.350;    0.000
318.936; 2804.100;  232.350;    0.000
318.997; 2688.100;  211.350;    0.000
319.058; 2703.100;  194.350;    0.000
319.118; 2749.100;  197.350;    0.000
319.179; 2737.100;  162.350;    0.000
319.239; 2706.100;  188.350;    0.000
319.300; 2684.100;  205.350;    0.000
319.361; 2641.100;  179.350;    0.000
319.421; 2652.100;  182.350;    0.000
319.482; 2622.100;  189.350;    0.000
319.542; 2693.100;  180.350;    0.000
319.603; 2652.100;  204.350;    0.000
319.663; 2694.100;  195.350;    0.000
319.724; 2538.100;  135.350;    0.000
319.784; 2715.100;  184.350;    0.000
319.845; 2706.100;  160.350;    0.000
319.905; 2754.100;  206.350;    0.000
319.966; 2647.100;  203.350;    0.000
320.026; 2645.100;  203.350;    0.000
320.087; 2653.100;  206.350;    0.000
320.147; 2669.100;  180.350;    0.000
320.208; 2649.100;  189.350;    0.000
320.268; 2669.100;  179.350;    0.000
320.329; 2632.100;  215.350;    0.000
320.389; 2686.100;  193.350;    0.000
320.449; 2634.100;  210.350;    0.000
320.510; 2702.100;  206.350;    0.000
320.570; 2606.100;  221.350;    0.000
320.631; 2758.100;  203.350;    0.000
320.691; 2655.100;  190.350;    0.000
320.751; 2705.100;  205.350;    0.000
320.812; 2689.100;  191.350;    0.000
320.872; 2743.100;  216.350;    0.000
320.932; 2655.100;  209.350;    0.000
320.993; 2707.100;  189.350;    0.000
321.053; 2748.100;  228.350;    0.000
321.113; 2660.100;  163.350;    0.000
321.174; 2747.100;  204.350;    0.000
321.234; 2703.100;  214.350;    0.000
321.294; 2639.100;  184.350;    0.000
321.355; 2636.100;  216.350;    0.000
321.415; 2740.100;  187.350;    0.000
321.475; 2665.100;  216.350;    0.000
321.535; 2611.100;  189.350;    0.000
321.596; 2631.100;  186.350;    0.000
321.656; 2762.100;  204.350;    0.000
321.716; 2736.100;  183.350;    0.000
321.776; 2676.100;  194.350;    0.000
321.837; 2673.100;  190.350;    0.000
321.897; 2655.100;  219.350;    0.000
321.957; 2663.100;  222.350;    0.000
322.017; 2666.100;  183.350;    0.000
322.077; 2668.100;  239.350;    0.000
322.138; 2628.100;  219.350;    0.000
322.198; 2575.100;  185.350;    0.000
322.258; 2621.100;  231.350;    0.000
322.318; 2609.100;  197.350;    0.000
322.378; 2604.100;  179.350;    0.000
322.438; 2612.100;  217.350;    0.000
322.499; 2667.100;  238.350;    0.000
322.559; 2568.100;  197.350;    0.000
322.619; 2696.100;  204.350;    0.000
322.679; 2612.100;  199.350;    0.000
322.739; 2560.100;  194.350;    0.000
322.799; 2613.100;  203.350;    0.000
322.859; 2588.100;  234.350;    0.000
322.919; 2676.100;  194.350;    0.000
322.979; 2612.100;  219.350;    0.000
323.039; 2616.100;  193.350;    0.000
323.099; 2584.100;  207.350;    0.000
323.159; 2672.100;  213.350;    0.000
323.219; 2608.100;  171.350;    0.000
323.279; 2664.100;  215.350;    0.000
323.339; 2688.100;  170.350;    0.000
323.399; 2640.100;  195.350;    0.000
323.459; 2776.100;  234.350;    0.000
323.519; 2590.100;  201.350;    0.000
323.579; 2618.100;  167.350;    0.000
323.639; 2690.100;  209.350;    0.000
323.699; 2696.100;  217.350;    0.000
323.759; 2658.100;  213.350;    0.000
323.819; 2629.100;  216.350;    0.000
323.879; 2675.100;  193.350;    0.000
323.939; 2627.100;  182.350;    0.000
323.999; 2640.100;  206.350;    0.000
324.059; 2663.100;  196.350;    0.000
324.119; 2650.100;  240.350;    0.000
324.178; 2583.100;  186.350;    0.000
324.238; 2643.100;  179.350;    0.000
324.298; 2590.100;  195.350;    0.000
324.358; 2551.100;  208.350;    0.000
324.418; 2467.100;  190.350;    0.000
324.478; 2551.100;  197.350;    0.000
324.538; 2671.100;  157.350;    0.000
324.597; 2635.100;  219.350;    0.000
324.657; 2591.100;  176.350;    0.000
324.717; 2655.100;  179.350;    0.000
324.777; 2551.100;  190.350;    0.000
324.837; 2597.100;  172.350;    0.000
324.896; 2593.100;  199.350;    0.000
324.956; 2597.100;  216.350;    0.000
325.016; 2529.100;  191.350;    0.000
325.076; 2555.100;  185.350;    0.000
325.135; 2560.100;  174.350;    0.000
325.195; 2672.100;  175.350;    0.000
325.255; 2522.100;  144.350;    0.000
325.315; 2562.100;  201.350;    0.000
325.374; 2547.100;  198.350;    0.000
325.434; 2634.100;  181.350;    0.000
325.494; 2584.100;  183.350;    0.000
325.553; 2571.100;  172.350;    0.000
325.613; 2631.100;  200.350;    0.000
325.673; 2467.100;  177.350;    0.000
325.732; 2607.100;  174.350;    0.000
325.792; 2538.100;  181.350;    0.000
325.852; 2663.100;  214.350;    0.000
325.911; 2567.100;  230.350;    0.000
325.971; 2663.100;  198.350;    0.000
326.031; 2631.100;  201.350;    0.000
326.090; 2615.100;  214.350;    0.000
326.150; 2549.100;  163.350;    0.000
326.209; 2629.100;  207.350;    0.000
326.269; 2693.100;  201.350;    0.000
326.328; 2651.100;  208.350;    0.000
326.388; 2561.100;  169.350;    0.000
326.448; 2554.100;  229.350;    0.000
326.507; 2570.100;  243.350;    0.000
326.567; 2618.100;  162.350;    0.000
326.626; 2505.100;  200.350;    0.000
326.686; 2504.100;  166.350;    0.000
326.745; 2567.100;  178.350;    0.000
326.805; 2581.100;  185.350;    0.000
326.864; 2599.100;  209.350;    0.000
326.924; 2546.100;  234.350;    0.000
326.983; 2548.100;  197.350;    0.000
327.043; 2639.100;  217.350;    0.000
327.102; 2534.100;  174.350;    0.000
327.161; 2507.100;  172.350;    0.000
327.221; 2527.100;  183.350;    0.000
327.280; 2530.100;  200.350;    0.000
327.340; 2503.100;  200.350;    0.000
327.399; 2575.100;  219.350;    0.000
327.459; 2581.100;  246.350;    0.000
327.518; 2465.100;  217.350;    0.000
327.577; 2433.100;  212.350;    0.000
327.637; 2553.100;  188.350;    0.000
327.696; 2499.100;  201.350;    0.000
327.755; 2488.100;  199.350;    0.000
327.815; 2506.100;  224.350;    0.000
327.874; 2556.100;  236.350;    0.000
327.933; 2532.100;  182.350;    0.000
327.993; 2513.100;  206.350;    0.000
328.052; 2522.100;  191.350;    0.000
328.111; 2595.100;  222.350;    0.000
328.171; 2504.100;  200.350;    0.000
328.230; 2490.100;  203.350;    0.000
328.289; 2490.100;  219.350;    0.000
328.349; 2475.100;  231.350;    0.000
328.408; 2543.100;  223.350;    0.000
328.467; 2488.100;  226.350;    0.000
328.526; 2543.100;  197.350;    0.000
328.586; 2591.100;  221.350;    0.000
328.645; 2467.100;  199.350;    0.000
328.704; 2511.100;  227.350;    0.000
328.763; 2420.100;  201.350;    0.000
328.822; 2549.100;  230.350;    0.000
328.882; 2481.100;  244.350;    0.000
328.941; 2547.100;  221.350;    0.000
329.000; 2517.100;  207.350;    0.000
329.059; 2462.100;  208.350;    0.000
329.118; 2388.100;  203.350;    0.000
329.177; 2464.100;  198.350;    0.000
329.237; 2451.100;  218.350;    0.000
329.296; 2448.100;  213.350;    0.000
329.355; 2409.100;  208.350;    0.000
329.414; 2500.100;  231.350;    0.000
329.473; 2422.100;  221.350;    0.000
329.532; 2411.100;  243.350;    0.000
329.591; 2466.100;  210.350;    0.000
329.650; 2456.100;  232.350;    0.000
329.709; 2490.100;  211.350;    0.000
329.768; 2517.100;  194.350;    0.000
329.827; 2567.100;  237.350;    0.000
329.886; 2511.100;  213.350;    0.000
329.945; 2576.100;  190.350;    0.000
330.004; 2643.100;  233.350;    0.000
330.063; 2548.100;  191.350;    0.000
330.122; 2713.100;  234.350;    0.000
330.181; 2941.100;  220.350;    0.000
330.240; 2856.100;  191.350;    0.000
330.299; 2695.100;  210.350;    0.000
330.358; 2532.100;  191.350;    0.000
330.417; 2416.100;  225.350;    0.000
330.476; 2454.100;  226.350;    0.000
330.535; 2418.100;  217.350;    0.000
330.594; 2443.100;  205.350;    0.000
330.653; 2462.100;  193.350;    0.000
330.712; 2524.100;  206.350;    0.000
330.771; 2381.100;  175.350;    0.000
330.830; 2429.100;  204.350;    0.000
330.889; 2349.100;  198.350;    0.000
330.948; 2429.100;  198.350;    0.000
331.006; 2458.100;  207.350;    0.000
331.065; 2392.100;  203.350;    0.000
331.124; 2408.100;  210.350;    0.000
331.183; 2466.100;  165.350;    0.000
331.242; 2498.100;  195.350;    0.000
331.301; 2399.100;  191.350;    0.000
331.359; 2420.100;  205.350;    0.000
331.418; 2470.100;  183.350;    0.000
331.477; 2357.100;  198.350;    0.000
331.536; 2431.100;  211.350;    0.000
331.595; 2397.100;  191.350;    0.000
331.653; 2450.100;  232.350;    0.000
331.712; 2439.100;  225.350;    0.000
331.771; 2374.100;  199.350;    0.000
331.830; 2425.100;  189.350;    0.000
331.888; 2360.100;  219.350;    0.000
331.947; 2427.100;  188.350;    0.000
332.006; 2397.100;  180.350;    0.000
332.065; 2413.100;  177.350;    0.000
332.123; 2452.100;  214.350;    0.000
332.182; 2470.100;  223.350;    0.000
332.241; 2335.100;  202.350;    0.000
332.299; 2324.100;  180.350;    0.000
332.358; 2538.100;  206.350;    0.000
332.417; 2494.100;  195.350;    0.000
332.475; 2431.100;  221.350;    0.000
332.534; 2457.100;  207.350;    0.000
332.592; 2464.100;  190.350;    0.000
332.651; 2525.100;  203.350;    0.000
332.710; 2463.100;  219.350;    0.000
332.768; 2525.100;  210.350;    0.000
332.827; 2480.100;  173.350;    0.000
332.885; 2544.100;  239.350;    0.000
332.944; 2588.100;  145.350;    0.000
333.003; 2507.100;  197.350;    0.000
333.061; 2460.100;  179.350;    0.000
333.120; 2588.100;  198.350;    0.000
333.178; 2608.100;  185.350;    0.000
333.237; 2610.100;  204.350;    0.000
333.295; 2627.100;  266.350;    0.000
333.354; 2622.100;  181.350;    0.000
333.412; 2628.100;  189.350;    0.000
333.471; 2688.100;  216.350;    0.000
333.529; 2533.100;  220.350;    0.000
333.588; 2763.100;  193.350;    0.000
333.646; 2759.100;  186.350;    0.000
333.705; 2686.100;  210.350;    0.000
333.763; 2708.100;  222.350;    0.000
333.822; 2660.100;  222.350;    0.000
333.880; 2625.100;  202.350;    0.000
333.938; 2725.100;  205.350;    0.000
333.997; 2741.100;  199.350;    0.000
334.055; 2598.100;  199.350;    0.000
334.114; 2642.100;  237.350;    0.000
334.172; 2504.100;  155.350;    0.000
334.230; 2602.100;  208.350;    0.000
334.289; 2628.100;  191.350;    0.000
334.347; 2587.100;  211.350;    0.000
334.405; 2559.100;  212.350;    0.000
334.464; 2540.100;  179.350;    0.000
334.522; 2609.100;  160.350;    0.000
334.580; 2604.100;  195.350;    0.000
334.639; 2625.100;  191.350;    0.000
334.697; 2469.100;  194.350;    0.000
334.755; 2580.100;  185.350;    0.000
334.814; 2596.100;  214.350;    0.000
334.872; 2608.100;  179.350;    0.000
334.930; 2612.100;  169.350;    0.000
334.988; 2580.100;  201.350;    0.000
335.047; 2612.100;  188.350;    0.000
335.105; 2552.100;  175.350;    0.000
335.163; 2528.100;  191.350;    0.000
335.221; 2546.100;  196.350;    0.000
335.280; 2526.100;  182.350;    0.000
335.338; 2484.100;  202.350;    0.000
335.396; 2496.100;  219.350;    0.000
335.454; 2606.100;  187.350;    0.000
335.512; 2655.100;  236.350;    0.000
335.570; 2637.100;  209.350;    0.000
335.629; 2516.100;  247.350;    0.000
335.687; 2610.100;  219.350;    0.000
335.745; 2499.100;  203.350;    0.000
335.803; 2545.100;  220.350;    0.000
335.861; 2548.100;  208.350;    0.000
335.919; 2582.100;  223.350;    0.000
335.977; 2627.100;  201.350;    0.000
336.035; 2607.100;  193.350;    0.000
336.094; 2558.100;  178.350;    0.000
336.152; 2610.100;  182.350;    0.000
336.210; 2559.100;  199.350;    0.000
336.268; 2587.100;  216.350;    0.000
336.326; 2535.100;  216.350;    0.000
336.384; 2555.100;  201.350;    0.000
336.442; 2471.100;  197.350;    0.000
336.500; 2581.100;  203.350;    0.000
336.558; 2465.100;  198.350;    0.000
336.616; 2615.100;  210.350;    0.000
336.674; 2453.100;  192.350;    0.000
336.732; 2543.100;  182.350;    0.000
336.790; 2384.100;  189.350;    0.000
336.848; 2598.100;  233.350;    0.000
336.906; 2417.100;  235.350;    0.000
336.964; 2510.100;  208.350;    0.000
337.022; 2549.100;  249.350;    0.000
337.080; 2542.100;  204.350;    0.000
337.138; 2521.100;  176.350;    0.000
337.195; 2586.100;  207.350;    0.000
337.253; 2593.100;  214.350;    0.000
337.311; 2504.100;  210.350;    0.000
337.369; 2391.100;  222.350;    0.000
337.427; 2454.100;  236.350;    0.000
337.485; 2407.100;  241.350;    0.000
337.543; 2462.100;  217.350;    0.000
337.601; 2478.100;  221.350;    0.000
337.658; 2451.100;  205.350;    0.000
337.716; 2415.100;  210.350;    0.000
337.774; 2397.100;  196.350;    0.000
337.832; 2409.100;  200.350;    0.000
337.890; 2375.100;  192.350;    0.000
337.947; 2543.100;  192.350;    0.000
338.005; 2481.100;  211.350;    0.000
338.063; 2308.100;  176.350;    0.000
338.121; 2436.100;  222.350;    0.000
338.178; 2481.100;  198.350;    0.000
338.236; 2449.100;  210.350;    0.000
338.294; 2320.100;  211.350;    0.000
338.352; 2412.100;  212.350;    0.000
338.409; 2384.100;  199.350;    0.000
338.467; 2336.100;  205.350;    0.000
338.525; 2428.100;  217.350;    0.000
338.583; 2306.100;  197.350;    0.000
338.640; 2398.100;  226.350;    0.000
338.698; 2328.100;  201.350;    0.000
338.756; 2372.100;  192.350;    0.000
338.813; 2386.100;  220.350;    0.000
338.871; 2471.100;  258.350;    0.000
338.928; 2455.100;  223.350;    0.000
338.986; 2414.100;  200.350;    0.000
339.044; 2424.100;  206.350;    0.000
339.101; 2261.100;  250.350;    0.000
339.159; 2339.100;  245.350;    0.000
339.216; 2369.100;  227.350;    0.000
339.274; 2371.100;  260.350;    0.000
339.332; 2468.100;  223.350;    0.000
339.389; 2452.100;  233.350;    0.000
339.447; 2359.100;  206.350;    0.000
339.504; 2374.100;  229.350;    0.000
339.562; 2343.100;  194.350;    0.000
339.619; 2338.100;  245.350;    0.000
339.677; 2318.100;  238.350;    0.000
339.734; 2307.100;  197.350;    0.000
339.792; 2331.100;  210.350;    0.000
339.849; 2241.100;  201.350;    0.000
339.907; 2417.100;  252.350;    0.000
339.964; 2355.100;  191.350;    0.000
340.022; 2365.100;  246.350;    0.000
340.079; 2375.100;  213.350;    0.000
340.137; 2348.100;  240.350;    0.000
340.194; 2288.100;  208.350;    0.000
340.252; 2331.100;  215.350;    0.000
340.309; 2364.100;  203.350;    0.000
340.366; 2357.100;  194.350;    0.000
340.424; 2274.100;  226.350;    0.000
340.481; 2370.100;  234.350;    0.000
340.538; 2333.100;  205.350;    0.000
340.596; 2324.100;  197.350;    0.000
340.653; 2382.100;  233.350;    0.000
340.711; 2367.100;  273.350;    0.000
340.768; 2369.100;  237.350;    0.000
340.825; 2388.100;  224.350;    0.000
340.883; 2474.100;  240.350;    0.000
340.940; 2463.100;  216.350;    0.000
340.997; 2319.100;  228.350;    0.000
341.054; 2382.100;  200.350;    0.000
341.112; 2340.100;  220.350;    0.000
341.169; 2301.100;  226.350;    0.000
341.226; 2323.100;  206.350;    0.000
341.284; 2303.100;  204.350;    0.000
341.341; 2297.100;  214.350;    0.000
341.398; 2352.100;  160.350;    0.000
341.455; 2302.100;  209.350;    0.000
341.512; 2371.100;  233.350;    0.000
341.570; 2351.100;  240.350;    0.000
341.627; 2382.100;  209.350;    0.000
341.684; 2314.100;  178.350;    0.000
341.741; 2397.100;  254.350;    0.000
341.798; 2427.100;  232.350;    0.000
341.856; 2361.100;  196.350;    0.000
341.913; 2363.100;  244.350;    0.000
341.970; 2413.100;  203.350;    0.000
342.027; 2426.100;  235.350;    0.000
342.084; 2353.100;  214.350;    0.000
342.141; 2354.100;  194.350;    0.000
342.198; 2445.100;  194.350;    0.000
342.255; 2376.100;  219.350;    0.000
342.313; 2367.100;  195.350;    0.000
342.370; 2388.100;  207.350;    0.000
342.427; 2317.100;  217.350;    0.000
342.484; 2298.100;  213.350;    0.000
342.541; 2320.100;  215.350;    0.000
342.598; 2379.100;  247.350;    0.000
342.655; 2280.100;  205.350;    0.000
342.712; 2414.100;  226.350;    0.000
342.769; 2321.100;  212.350;    0.000
342.826; 2344.100;  203.350;    0.000
342.883; 2271.100;  207.350;    0.000
342.940; 2378.100;  204.350;    0.000
342.997; 2413.100;  237.350;    0.000
343.054; 2334.100;  210.350;    0.000
343.111; 2328.100;  209.350;    0.000
343.168; 2461.100;  201.350;    0.000
343.225; 2421.100;  208.350;    0.000
343.282; 2500.100;  216.350;    0.000
343.339; 2553.100;  237.350;    0.000
343.395; 2508.100;  218.350;    0.000
343.452; 2432.100;  234.350;    0.000
343.509; 2606.100;  214.350;    0.000
343.566; 2534.100;  222.350;    0.000
343.623; 2606.100;  226.350;    0.000
343.680; 2594.100;  245.350;    0.000
343.737; 2606.100;  209.350;    0.000
343.794; 2627.100;  227.350;    0.000
343.850; 2637.100;  197.350;    0.000
343.907; 2737.100;  211.350;    0.000
343.964; 2613.100;  190.350;    0.000
344.021; 2685.100;  252.350;    0.000
344.078; 2651.100;  261.350;    0.000
344.134; 2702.100;  206.350;    0.000
344.191; 2600.100;  231.350;    0.000
344.248; 2686.100;  225.350;    0.000
344.305; 2562.100;  210.350;    0.000
344.361; 2577.100;  194.350;    0.000
344.418; 2611.100;  219.350;    0.000
344.475; 2664.100;  245.350;    0.000
344.532; 2567.100;  238.350;    0.000
344.588; 2587.100;  235.350;    0.000
344.645; 2510.100;  229.350;    0.000
344.702; 2511.100;  145.350;    0.000
344.758; 2496.100;  240.350;    0.000
344.815; 2553.100;  215.350;    0.000
344.872; 2493.100;  203.350;    0.000
344.928; 2463.100;  208.350;    0.000
344.985; 2591.100;  216.350;    0.000
345.042; 2538.100;  234.350;    0.000
345.098; 2536.100;  183.350;    0.000
345.155; 2552.100;  241.350;    0.000
345.212; 2381.100;  222.350;    0.000
345.268; 2523.100;  234.350;    0.000
345.325; 2521.100;  181.350;    0.000
345.381; 2608.100;  251.350;    0.000
345.438; 2542.100;  256.350;    0.000
345.495; 2582.100;  247.350;    0.000
345.551; 2435.100;  231.350;    0.000
345.608; 2462.100;  206.350;    0.000
345.664; 2486.100;  201.350;    0.000
345.721; 2497.100;  216.350;    0.000
345.777; 2449.100;  195.350;    0.000
345.834; 2451.100;  195.350;    0.000
345.890; 2581.100;  227.350;    0.000
345.947; 2479.100;  240.350;    0.000
346.003; 2548.100;  248.350;    0.000
346.060; 2452.100;  213.350;    0.000
346.116; 2485.100;  225.350;    0.000
346.173; 2560.100;  199.350;    0.000
346.229; 2529.100;  264.350;    0.000
346.285; 2532.100;  246.350;    0.000
346.342; 2492.100;  240.350;    0.000
346.398; 2472.100;  222.350;    0.000
346.455; 2588.100;  231.350;    0.000
346.511; 2548.100;  214.350;    0.000
346.567; 2542.100;  231.350;    0.000
346.624; 2530.100;  222.350;    0.000
346.680; 2686.100;  197.350;    0.000
346.737; 2556.100;  225.350;    0.000
346.793; 2560.100;  255.350;    0.000
346.849; 2511.100;  245.350;    0.000
346.906; 2559.100;  221.350;    0.000
346.962; 2541.100;  260.350;    0.000
347.018; 2596.100;  238.350;    0.000
347.074; 2590.100;  257.350;    0.000
347.131; 2547.100;  200.350;    0.000
347.187; 2569.100;  232.350;    0.000
347.243; 2556.100;  240.350;    0.000
347.300; 2590.100;  249.350;    0.000
347.356; 2557.100;  250.350;    0.000
347.412; 2515.100;  252.350;    0.000
347.468; 2590.100;  254.350;    0.000
347.524; 2626.100;  280.350;    0.000
347.581; 2635.100;  228.350;    0.000
347.637; 2622.100;  261.350;    0.000
347.693; 2543.100;  238.350;    0.000
347.749; 2647.100;  261.350;    0.000
347.805; 2529.100;  238.350;    0.000
347.862; 2509.100;  246.350;    0.000
347.918; 2577.100;  256.350;    0.000
347.974; 2565.100;  277.350;    0.000
348.030; 2569.100;  242.350;    0.000
348.086; 2494.100;  223.350;    0.000
348.142; 2600.100;  215.350;    0.000
348.198; 2582.100;  272.350;    0.000
348.254; 2576.100;  292.350;    0.000
348.311; 2606.100;  235.350;    0.000
348.367; 2457.100;  263.350;    0.000
348.423; 2558.100;  193.350;    0.000
348.479; 2589.100;  266.350;    0.000
348.535; 2582.100;  238.350;    0.000
348.591; 2663.100;  237.350;    0.000
348.647; 2544.100;  239.350;    0.000
348.703; 2635.100;  240.350;    0.000
348.759; 2532.100;  253.350;    0.000
348.815; 2679.100;  255.350;    0.000
348.871; 2651.100;  256.350;    0.000
348.927; 2602.100;  261.350;    0.000
348.983; 2555.100;  258.350;    0.000
349.039; 2640.100;  204.350;    0.000
349.095; 2685.100;  215.350;    0.000
349.151; 2585.100;  230.350;    0.000
349.207; 2599.100;  216.350;    0.000
349.263; 2559.100;  235.350;    0.000
349.319; 2624.100;  244.350;    0.000
349.374; 2610.100;  213.350;    0.000
349.430; 2600.100;  241.350;    0.000
349.486; 2589.100;  248.350;    0.000
349.542; 2601.100;  259.350;    0.000
349.598; 2636.100;  208.350;    0.000
349.654; 2589.100;  242.350;    0.000
349.710; 2676.100;  246.350;    0.000
349.766; 2600.100;  226.350;    0.000
349.821; 2650.100;  227.350;    0.000
349.877; 2646.100;  226.350;    0.000
349.933; 2626.100;  249.350;    0.000
349.989; 2584.100;  263.350;    0.000
350.045; 2668.100;  267.350;    0.000
350.100; 2535.100;  219.350;    0.000
350.156; 2589.100;  207.350;    0.000
350.212; 2639.100;  230.350;    0.000
350.268; 2576.100;  223.350;    0.000
350.323; 2688.100;  217.350;    0.000
350.379; 2605.100;  227.350;    0.000
350.435; 2532.100;  219.350;    0.000
350.491; 2645.100;  195.350;    0.000
350.546; 2582.100;  229.350;    0.000
350.602; 2606.100;  222.350;    0.000
350.658; 2624.100;  225.350;    0.000
350.713; 2518.100;  231.350;    0.000
350.769; 2520.100;  193.350;    0.000
350.825; 2611.100;  182.350;    0.000
350.880; 2647.100;  193.350;    0.000
350.936; 2626.100;  222.350;    0.000
350.992; 2555.100;  217.350;    0.000
351.047; 2652.100;  226.350;    0.000
351.103; 2617.100;  187.350;    0.000
351.158; 2625.100;  212.350;    0.000
351.214; 2609.100;  207.350;    0.000
351.270; 2577.100;  194.350;    0.000
351.325; 2582.100;  213.350;    0.000
351.381; 2682.100;  223.350;    0.000
351.436; 2676.100;  222.350;    0.000
351.492; 2608.100;  219.350;    0.000
351.547; 2686.100;  205.350;    0.000
351.603; 2585.100;  218.350;    0.000
351.658; 2671.100;  199.350;    0.000
351.714; 2666.100;  201.350;    0.000
351.769; 2656.100;  209.350;    0.000
351.825; 2681.100;  226.350;    0.000
351.880; 2686.100;  189.350;    0.000
351.936; 2755.100;  201.350;    0.000
351.991; 2589.100;  220.350;    0.000
352.047; 2616.100;  232.350;    0.000
352.102; 2614.100;  185.350;    0.000
352.158; 2641.100;  228.350;    0.000
352.213; 2651.100;  204.350;    0.000
352.268; 2688.100;  220.350;    0.000
352.324; 2620.100;  206.350;    0.000
352.379; 2649.100;  182.350;    0.000
352.434; 2682.100;  214.350;    0.000
352.490; 2699.100;  250.350;    0.000
352.545; 2680.100;  290.350;    0.000
352.601; 2680.100;  247.350;    0.000
352.656; 2650.100;  203.350;    0.000
352.711; 2633.100;  197.350;    0.000
352.767; 2623.100;  169.350;    0.000
352.822; 2606.100;  191.350;    0.000
352.877; 2688.100;  235.350;    0.000
352.932; 2619.100;  231.350;    0.000
352.988; 2566.100;  224.350;    0.000
353.043; 2741.100;  226.350;    0.000
353.098; 2707.100;  227.350;    0.000
353.153; 2656.100;  239.350;    0.000
353.209; 2727.100;  217.350;    0.000
353.264; 2701.100;  198.350;    0.000
353.319; 2622.100;  247.350;    0.000
353.374; 2675.100;  199.350;    0.000
353.430; 2636.100;  247.350;    0.000
353.485; 2705.100;  242.350;    0.000
353.540; 2746.100;  237.350;    0.000
353.595; 2609.100;  233.350;    0.000
353.650; 2717.100;  221.350;    0.000
353.705; 2700.100;  259.350;    0.000
353.761; 2670.100;  223.350;    0.000
353.816; 2609.100;  234.350;    0.000
353.871; 2726.100;  226.350;    0.000
353.926; 2638.100;  232.350;    0.000
353.981; 2732.100;  245.350;    0.000
354.036; 2755.100;  247.350;    0.000
354.091; 2750.100;  233.350;    0.000
354.146; 2763.100;  253.350;    0.000
354.201; 2667.100;  236.350;    0.000
354.256; 2702.100;  210.350;    0.000
354.311; 2727.100;  279.350;    0.000
354.367; 2773.100;  208.350;    0.000
354.422; 2677.100;  228.350;    0.000
354.477; 2737.100;  202.350;    0.000
354.532; 2585.100;  215.350;    0.000
354.587; 2747.100;  249.350;    0.000
354.642; 2714.100;  206.350;    0.000
354.697; 2664.100;  226.350;    0.000
354.751; 2758.100;  241.350;    0.000
354.806; 2638.100;  249.350;    0.000
354.861; 2727.100;  216.350;    0.000
354.916; 2725.100;  249.350;    0.000
354.971; 2772.100;  217.350;    0.000
355.026; 2699.100;  236.350;    0.000
355.081; 2741.100;  242.350;    0.000
355.136; 2699.100;  216.350;    0.000
355.191; 2686.100;  216.350;    0.000
355.246; 2694.100;  258.350;    0.000
355.301; 2803.100;  250.350;    0.000
355.355; 2700.100;  251.350;    0.000
355.410; 2723.100;  216.350;    0.000
355.465; 2671.100;  224.350;    0.000
355.520; 2739.100;  221.350;    0.000
355.575; 2729.100;  255.350;    0.000
355.630; 2684.100;  225.350;    0.000
355.684; 2797.100;  210.350;    0.000
355.739; 2747.100;  232.350;    0.000
355.794; 2749.100;  202.350;    0.000
355.849; 2764.100;  211.350;    0.000
355.904; 2766.100;  226.350;    0.000
355.958; 2646.100;  191.350;    0.000
356.013; 2659.100;  208.350;    0.000
356.068; 2732.100;  229.350;    0.000
356.123; 2792.100;  243.350;    0.000
356.177; 2697.100;  227.350;    0.000
356.232; 2795.100;  243.350;    0.000
356.287; 2635.100;  216.350;    0.000
356.341; 2808.100;  242.350;    0.000
356.396; 2698.100;  175.350;    0.000
356.451; 2732.100;  271.350;    0.000
356.505; 2767.100;  225.350;    0.000
356.560; 2753.100;  260.350;    0.000
356.615; 2662.100;  213.350;    0.000
356.669; 2711.100;  213.350;    0.000
356.724; 2752.100;  221.350;    0.000
356.778; 2741.100;  232.350;    0.000
356.833; 2580.100;  178.350;    0.000
356.888; 2845.100;  236.350;    0.000
356.942; 2873.100;  224.350;    0.000
356.997; 2918.100;  228.350;    0.000
357.051; 2806.100;  226.350;    0.000
357.106; 2794.100;  185.350;    0.000
357.160; 2636.100;  202.350;    0.000
357.215; 2736.100;  232.350;    0.000
357.269; 2653.100;  224.350;    0.000
357.324; 2761.100;  219.350;    0.000
357.378; 2789.100;  196.350;    0.000
357.433; 2728.100;  241.350;    0.000
357.487; 2740.100;  244.350;    0.000
357.542; 2854.100;  210.350;    0.000
357.596; 2806.100;  231.350;    0.000
357.651; 2768.100;  248.350;    0.000
357.705; 2708.100;  232.350;    0.000
357.760; 2808.100;  224.350;    0.000
357.814; 2957.100;  221.350;    0.000
357.868; 3023.100;  207.350;    0.000
357.923; 2818.100;  234.350;    0.000
357.977; 2700.100;  218.350;    0.000
358.032; 2852.100;  244.350;    0.000
358.086; 2966.100;  246.350;    0.000
358.140; 2811.100;  235.350;    0.000
358.195; 2785.100;  237.350;    0.000
358.249; 2708.100;  233.350;    0.000
358.303; 2792.100;  254.350;    0.000
358.358; 2709.100;  217.350;    0.000
358.412; 2805.100;  245.350;    0.000
358.466; 2824.100;  230.350;    0.000
358.521; 2778.100;  214.350;    0.000
358.575; 2774.100;  243.350;    0.000
358.629; 2754.100;  230.350;    0.000
358.683; 2706.100;  232.350;    0.000
358.738; 2724.100;  249.350;    0.000
358.792; 2617.100;  249.350;    0.000
358.846; 2643.100;  271.350;    0.000
358.900; 2693.100;  265.350;    0.000
358.954; 2713.100;  236.350;    0.000
359.009; 2630.100;  254.350;    0.000
359.063; 2688.100;  216.350;    0.000
359.117; 2809.100;  245.350;    0.000
359.171; 2682.100;  252.350;    0.000
359.225; 2788.100;  240.350;    0.000
359.280; 2839.100;  239.350;    0.000
359.334; 2964.100;  234.350;    0.000
359.388; 3006.100;  258.350;    0.000
359.442; 2713.100;  220.350;    0.000
359.496; 2648.100;  206.350;    0.000
359.550; 2759.100;  279.350;    0.000
359.604; 2738.100;  263.350;    0.000
359.658; 2715.100;  251.350;    0.000
359.712; 2716.100;  244.350;    0.000
359.766; 2664.100;  217.350;    0.000
359.820; 2741.100;  235.350;    0.000
359.875; 2815.100;  249.350;    0.000
359.929; 2649.100;  269.350;    0.000
359.983; 2768.100;  240.350;    0.000
360.037; 2710.100;  252.350;    0.000
360.091; 2766.100;  271.350;    0.000
360.145; 2719.100;  222.350;    0.000
360.199; 2638.100;  302.350;    0.000
360.253; 2734.100;  234.350;    0.000
360.306; 2699.100;  258.350;    0.000
360.360; 2755.100;  249.350;    0.000
360.414; 2763.100;  231.350;    0.000
360.468; 2893.100;  261.350;    0.000
360.522; 2933.100;  277.350;    0.000
360.576; 2737.100;  273.350;    0.000
360.630; 2785.100;  264.350;    0.000
360.684; 2759.100;  223.350;    0.000
360.738; 2774.100;  266.350;    0.000
360.792; 2708.100;  252.350;    0.000
360.846; 2772.100;  234.350;    0.000
360.899; 2808.100;  296.350;    0.000
360.953; 2773.100;  273.350;    0.000
361.007; 2777.100;  251.350;    0.000
361.061; 2688.100;  250.350;    0.000
361.115; 2598.100;  267.350;    0.000
361.168; 2734.100;  308.350;    0.000
361.222; 2762.100;  246.350;    0.000
361.276; 2708.100;  261.350;    0.000
361.330; 2644.100;  233.350;    0.000
361.384; 2747.100;  269.350;    0.000
361.437; 2659.100;  270.350;    0.000
361.491; 2779.100;  263.350;    0.000
361.545; 2718.100;  288.350;    0.000
361.599; 2754.100;  270.350;    0.000
361.652; 2705.100;  256.350;    0.000
361.706; 2705.100;  263.350;    0.000
361.760; 2653.100;  237.350;    0.000
361.813; 2827.100;  278.350;    0.000
361.867; 2849.100;  317.350;    0.000
361.921; 2776.100;  260.350;    0.000
361.974; 2694.100;  239.350;    0.000
362.028; 2688.100;  266.350;    0.000
362.082; 2665.100;  269.350;    0.000
362.135; 2674.100;  262.350;    0.000
362.189; 2698.100;  258.350;    0.000
362.242; 2723.100;  273.350;    0.000
362.296; 2708.100;  261.350;    0.000
362.350; 2672.100;  272.350;    0.000
362.403; 2681.100;  291.350;    0.000
362.457; 2737.100;  253.350;    0.000
362.510; 2689.100;  266.350;    0.000
362.564; 2634.100;  260.350;    0.000
362.617; 2776.100;  280.350;    0.000
362.671; 2692.100;  281.350;    0.000
362.724; 2646.100;  234.350;    0.000
362.778; 2642.100;  311.350;    0.000
362.831; 2673.100;  276.350;    0.000
362.885; 2792.100;  288.350;    0.000
362.938; 2552.100;  284.350;    0.000
362.992;  345.100;  245.350;    0.000
363.045;  287.100;  277.350;    0.000
363.099;  278.100;  246.350;    0.000
363.152;  302.100;  290.350;    0.000
363.205;  290.100;  256.350;    0.000
363.259;  262.100;  238.350;    0.000
363.312;  315.100;  290.350;    0.000
363.366;  289.100;  287.350;    0.000
363.419;  305.100;  279.350;    0.000
363.472;  305.100;  304.350;    0.000
363.526;  273.100;  305.350;    0.000
363.579;  293.100;  281.350;    0.000
363.632;  290.100;  279.350;    0.000
363.686;  270.100;  277.350;    0.000
363.739;  256.100;  268.350;    0.000
363.792;  294.100;  274.350;    0.000

