
Integration time [ms]:   0.300
Averaging Nr. [scans]: 1
Smoothing Nr. [pixels]: 0
Data measured with spectrometer [name]: NIR
Wave   ;Sample   ;Dark     ;Reference
[nm]   ;[counts] ;[counts] ;[counts] 

691.496;  -39.875;  155.525;    0.000
691.696;    7.125;  186.525;    0.000
691.896;  -56.875;  113.525;    0.000
692.096;  -51.875;  169.525;    0.000
692.296;  -65.875;  119.525;    0.000
692.496;    1.125;  182.525;    0.000
692.695;  -31.875;  119.525;    0.000
692.895;   -3.875;  183.525;    0.000
693.095;  -40.875;  119.525;    0.000
693.295;   -9.875;  156.525;    0.000
693.495;   -4.875;  145.525;    0.000
693.695;  -46.875;  144.525;    0.000
693.894;  -46.875;  174.525;    0.000
694.094;  -45.875;  148.525;    0.000
694.294;  -31.875;  114.525;    0.000
694.494;  240.125;  137.525;    0.000
694.693; 2779.125;  112.525;    0.000
694.893; 2965.125;   85.525;    0.000
695.093; 3058.125;  152.525;    0.000
695.293; 3097.125;  159.525;    0.000
695.492; 3041.125;  131.525;    0.000
695.692; 3110.125;  134.525;    0.000
695.891; 3141.125;  161.525;    0.000
696.091; 3124.125;  180.525;    0.000
696.291; 3221.125;  120.525;    0.000
696.490; 3117.125;  146.525;    0.000
696.690; 3236.125;  145.525;    0.000
696.889; 3167.125;  171.525;    0.000
697.089; 3089.125;   98.525;    0.000
697.288; 3207.125;  172.525;    0.000
697.488; 3207.125;  137.525;    0.000
697.687; 3131.125;  171.525;    0.000
697.887; 3202.125;  142.525;    0.000
698.086; 3295.125;  159.525;    0.000
698.286; 3258.125;  122.525;    0.000
698.485; 3212.125;  121.525;    0.000
698.684; 3204.125;   94.525;    0.000
698.884; 3164.125;  131.525;    0.000
699.083; 3152.125;  112.525;    0.000
699.282; 3312.125;  119.525;    0.000
699.482; 3247.125;  117.525;    0.000
699.681; 3167.125;  115.525;    0.000
699.880; 3305.125;  166.525;    0.000
700.080; 3221.125;  194.525;    0.000
700.279; 3213.125;   98.525;    0.000
700.478; 3240.125;  159.525;    0.000
700.677; 3354.125;  134.525;    0.000
700.877; 3309.125;  171.525;    0.000
701.076; 3345.125;  141.525;    0.000
701.275; 3231.125;  119.525;    0.000
701.474; 3305.125;  132.525;    0.000
701.673; 3278.125;  141.525;    0.000
701.872; 3365.125;  158.525;    0.000
702.071; 3279.125;  129.525;    0.000
702.271; 3332.125;  122.525;    0.000
702.470; 3277.125;  158.525;    0.000
702.669; 3360.125;  145.525;    0.000
702.868; 3327.125;  135.525;    0.000
703.067; 3302.125;  169.525;    0.000
703.266; 3331.125;  125.525;    0.000
703.465; 3349.125;  153.525;    0.000
703.664; 3401.125;  113.525;    0.000
703.863; 3370.125;  170.525;    0.000
704.062; 3266.125;  115.525;    0.000
704.260; 3360.125;  133.525;    0.000
704.459; 3383.125;  123.525;    0.000
704.658; 3263.125;  105.525;    0.000
704.857; 3392.125;  125.525;    0.000
705.056; 3486.125;  108.525;    0.000
705.255; 3413.125;  117.525;    0.000
705.454; 3300.125;  126.525;    0.000
705.652; 3404.125;  137.525;    0.000
705.851; 3501.125;   95.525;    0.000
706.050; 3342.125;  120.525;    0.000
706.249; 3315.125;   81.525;    0.000
706.447; 3411.125;  105.525;    0.000
706.646; 3419.125;  107.525;    0.000
706.845; 3393.125;  104.525;    0.000
707.043; 3422.125;  136.525;    0.000
707.242; 3414.125;   89.525;    0.000
707.441; 3454.125;  147.525;    0.000
707.639; 3354.125;  156.525;    0.000
707.838; 3399.125;  114.525;    0.000
708.037; 3482.125;  100.525;    0.000
708.235; 3432.125;  103.525;    0.000
708.434; 3430.125;  102.525;    0.000
708.632; 3512.125;  100.525;    0.000
708.831; 3560.125;  121.525;    0.000
709.029; 3608.125;  102.525;    0.000
709.228; 3445.125;   88.525;    0.000
709.426; 3632.125;  135.525;    0.000
709.625; 3515.125;  128.525;    0.000
709.823; 3465.125;  123.525;    0.000
710.022; 3587.125;  137.525;    0.000
710.220; 3593.125;  134.525;    0.000
710.418; 3659.125;  122.525;    0.000
710.617; 3554.125;   64.525;    0.000
710.815; 3663.125;   94.525;    0.000
711.013; 3560.125;  127.525;    0.000
711.212; 3503.125;  105.525;    0.000
711.410; 3516.125;  117.525;    0.000
711.608; 3648.125;  114.525;    0.000
711.807; 3618.125;  119.525;    0.000
712.005; 3597.125;   92.525;    0.000
712.203; 3640.125;   95.525;    0.000
712.401; 3665.125;  107.525;    0.000
712.599; 3663.125;  127.525;    0.000
712.798; 3652.125;  120.525;    0.000
712.996; 3699.125;   76.525;    0.000
713.194; 3665.125;  118.525;    0.000
713.392; 3711.125;   60.525;    0.000
713.590; 3744.125;   92.525;    0.000
713.788; 3813.125;  110.525;    0.000
713.986; 3870.125;  130.525;    0.000
714.184; 3793.125;   71.525;    0.000
714.382; 3794.125;   86.525;    0.000
714.580; 3779.125;   74.525;    0.000
714.778; 3883.125;  133.525;    0.000
714.976; 3876.125;   81.525;    0.000
715.174; 3987.125;  100.525;    0.000
715.372; 4050.125;  141.525;    0.000
715.570; 4212.125;   73.525;    0.000
715.768; 4526.125;  119.525;    0.000
715.966; 4461.125;   81.525;    0.000
716.164; 4404.125;  130.525;    0.000
716.362; 4352.125;  125.525;    0.000
716.560; 4365.125;  109.525;    0.000
716.758; 4234.125;   96.525;    0.000
716.955; 4239.125;   83.525;    0.000
717.153; 4165.125;   87.525;    0.000
717.351; 4135.125;  123.525;    0.000
717.549; 4091.125;  121.525;    0.000
717.746; 4086.125;  128.525;    0.000
717.944; 4098.125;  132.525;    0.000
718.142; 4049.125;  120.525;    0.000
718.340; 4096.125;   94.525;    0.000
718.537; 4136.125;   95.525;    0.000
718.735; 4106.125;  152.525;    0.000
718.933; 4188.125;  124.525;    0.000
719.130; 4091.125;  114.525;    0.000
719.328; 4031.125;   63.525;    0.000
719.525; 4053.125;  146.525;    0.000
719.723; 4060.125;   96.525;    0.000
719.920; 4065.125;  120.525;    0.000
720.118; 3996.125;   59.525;    0.000
720.316; 4094.125;  116.525;    0.000
720.513; 4021.125;  127.525;    0.000
720.711; 4031.125;  110.525;    0.000
720.908; 4025.125;   92.525;    0.000
721.105; 4099.125;  138.525;    0.000
721.303; 4066.125;   90.525;    0.000
721.500; 4037.125;  126.525;    0.000
721.698; 4036.125;  103.525;    0.000
721.895; 4093.125;  206.525;    0.000
722.092; 4026.125;   63.525;    0.000
722.290; 4172.125;  123.525;    0.000
722.487; 4019.125;  137.525;    0.000
722.684; 4079.125;  126.525;    0.000
722.882; 4011.125;  119.525;    0.000
723.079; 4058.125;  132.525;    0.000
723.276; 4101.125;   98.525;    0.000
723.473; 4126.125;   97.525;    0.000
723.671; 3988.125;   43.525;    0.000
723.868; 4060.125;  142.525;    0.000
724.065; 4086.125;  102.525;    0.000
724.262; 4143.125;  119.525;    0.000
724.459; 4144.125;   73.525;    0.000
724.656; 4139.125;  128.525;    0.000
724.854; 4197.125;  135.525;    0.000
725.051; 4106.125;   81.525;    0.000
725.248; 4138.125;   88.525;    0.000
725.445; 4183.125;  129.525;    0.000
725.642; 4156.125;   76.525;    0.000
725.839; 4257.125;  134.525;    0.000
726.036; 4022.125;  101.525;    0.000
726.233; 4166.125;   68.525;    0.000
726.430; 4214.125;  121.525;    0.000
726.627; 4165.125;  136.525;    0.000
726.824; 4027.125;   87.525;    0.000
727.021; 4296.125;  141.525;    0.000
727.218; 4042.125;   92.525;    0.000
727.414; 4148.125;  121.525;    0.000
727.611; 4199.125;  100.525;    0.000
727.808; 4192.125;  130.525;    0.000
728.005; 4195.125;   83.525;    0.000
728.202; 4188.125;  120.525;    0.000
728.399; 4161.125;   75.525;    0.000
728.595; 4166.125;  148.525;    0.000
728.792; 4253.125;   79.525;    0.000
728.989; 4352.125;   86.525;    0.000
729.186; 4243.125;   80.525;    0.000
729.382; 4171.125;   72.525;    0.000
729.579; 4200.125;  112.525;    0.000
729.776; 4231.125;  106.525;    0.000
729.972; 4299.125;   77.525;    0.000
730.169; 4358.125;  118.525;    0.000
730.366; 4192.125;   92.525;    0.000
730.562; 4235.125;  104.525;    0.000
730.759; 4262.125;   95.525;    0.000
730.955; 4334.125;   85.525;    0.000
731.152; 4260.125;   79.525;    0.000
731.348; 4279.125;   72.525;    0.000
731.545; 4254.125;   56.525;    0.000
731.741; 4290.125;  106.525;    0.000
731.938; 4302.125;  113.525;    0.000
732.134; 4279.125;  106.525;    0.000
732.331; 4254.125;   82.525;    0.000
732.527; 4294.125;   80.525;    0.000
732.724; 4304.125;   97.525;    0.000
732.920; 4316.125;  127.525;    0.000
733.116; 4344.125;  115.525;    0.000
733.313; 4364.125;  153.525;    0.000
733.509; 4360.125;   76.525;    0.000
733.705; 4411.125;  159.525;    0.000
733.902; 4277.125;   82.525;    0.000
734.098; 4365.125;   70.525;    0.000
734.294; 4349.125;  105.525;    0.000
734.490; 4351.125;  110.525;    0.000
734.687; 4406.125;  102.525;    0.000
734.883; 4413.125;   77.525;    0.000
735.079; 4405.125;   93.525;    0.000
735.275; 4335.125;  109.525;    0.000
735.471; 4386.125;   99.525;    0.000
735.667; 4336.125;  107.525;    0.000
735.863; 4473.125;   89.525;    0.000
736.060; 4391.125;  105.525;    0.000
736.256; 4416.125;  113.525;    0.000
736.452; 4428.125;   90.525;    0.000
736.648; 4481.125;   88.525;    0.000
736.844; 4437.125;  129.525;    0.000
737.040; 4514.125;  139.525;    0.000
737.236; 4531.125;  129.525;    0.000
737.432; 4531.125;   67.525;    0.000
737.628; 4557.125;  104.525;    0.000
737.824; 4417.125;  111.525;    0.000
738.019; 4550.125;  116.525;    0.000
738.215; 4512.125;  135.525;    0.000
738.411; 4560.125;  118.525;    0.000
738.607; 4519.125;   58.525;    0.000
738.803; 4603.125;   32.525;    0.000
738.999; 4594.125;  120.525;    0.000
739.195; 4533.125;   76.525;    0.000
739.390; 4607.125;  119.525;    0.000
739.586; 4556.125;   83.525;    0.000
739.782; 4670.125;  134.525;    0.000
739.978; 4696.125;  122.525;    0.000
740.173; 4663.125;   96.525;    0.000
740.369; 4720.125;   86.525;    0.000
740.565; 4773.125;  122.525;    0.000
740.760; 4772.125;   99.525;    0.000
740.956; 4779.125;  137.525;    0.000
741.152; 4896.125;  108.525;    0.000
741.347; 4815.125;   65.525;    0.000
741.543; 4983.125;   73.525;    0.000
741.738; 5023.125;  142.525;    0.000
741.934; 5058.125;  131.525;    0.000
742.129; 5207.125;   66.525;    0.000
742.325; 5852.125;  143.525;    0.000
742.520; 6280.125;  119.525;    0.000
742.716; 6124.125;  109.525;    0.000
742.911; 5764.125;   62.525;    0.000
743.107; 5670.125;  119.525;    0.000
743.302; 5655.125;   78.525;    0.000
743.498; 5603.125;  130.525;    0.000
743.693; 5693.125;   75.525;    0.000
743.888; 5939.125;  135.525;    0.000
744.084; 6754.125;  106.525;    0.000
744.279; 7950.125;  101.525;    0.000
744.474; 8054.125;   91.525;    0.000
744.670; 7247.125;  144.525;    0.000
744.865; 6824.125;  128.525;    0.000
745.060; 6446.125;   63.525;    0.000
745.255; 6370.125;  155.525;    0.000
745.451; 6192.125;  110.525;    0.000
745.646; 6074.125;  150.525;    0.000
745.841; 6057.125;  128.525;    0.000
746.036; 6110.125;  110.525;    0.000
746.231; 6144.125;  126.525;    0.000
746.426; 6489.125;   83.525;    0.000
746.622; 7310.125;  157.525;    0.000
746.817; 9203.125;  112.525;    0.000
747.012;10446.125;  115.525;    0.000
747.207; 9189.125;  161.525;    0.000
747.402; 8499.125;   88.525;    0.000
747.597; 7918.125;  103.525;    0.000
747.792; 7562.125;  152.525;    0.000
747.987; 7230.125;   80.525;    0.000
748.182; 6977.125;   89.525;    0.000
748.377; 6664.125;  104.525;    0.000
748.572; 6594.125;  138.525;    0.000
748.767; 6376.125;  100.525;    0.000
748.961; 6124.125;  106.525;    0.000
749.156; 6031.125;  113.525;    0.000
749.351; 6017.125;  116.525;    0.000
749.546; 5792.125;  107.525;    0.000
749.741; 5745.125;  102.525;    0.000
749.936; 5801.125;  105.525;    0.000
750.130; 5550.125;  111.525;    0.000
750.325; 5643.125;   72.525;    0.000
750.520; 5651.125;   96.525;    0.000
750.715; 5601.125;  135.525;    0.000
750.909; 5533.125;  107.525;    0.000
751.104; 5410.125;  106.525;    0.000
751.299; 5406.125;  144.525;    0.000
751.493; 5418.125;  116.525;    0.000
751.688; 5289.125;   96.525;    0.000
751.882; 5389.125;   92.525;    0.000
752.077; 5238.125;  109.525;    0.000
752.272; 5172.125;   96.525;    0.000
752.466; 5314.125;  110.525;    0.000
752.661; 5203.125;  120.525;    0.000
752.855; 5045.125;   70.525;    0.000
753.050; 5160.125;  129.525;    0.000
753.244; 5169.125;  126.525;    0.000
753.439; 4992.125;  115.525;    0.000
753.633; 5092.125;  120.525;    0.000
753.828; 5185.125;  129.525;    0.000
754.022; 5011.125;  139.525;    0.000
754.216; 5077.125;  121.525;    0.000
754.411; 5051.125;  108.525;    0.000
754.605; 5039.125;   94.525;    0.000
754.799; 5075.125;  125.525;    0.000
754.994; 5030.125;  160.525;    0.000
755.188; 5075.125;  151.525;    0.000
755.382; 4988.125;  102.525;    0.000
755.576; 4966.125;  103.525;    0.000
755.771; 4970.125;   99.525;    0.000
755.965; 5074.125;  158.525;    0.000
756.159; 5094.125;   96.525;    0.000
756.353; 5033.125;  157.525;    0.000
756.547; 4924.125;  132.525;    0.000
756.742; 4950.125;  106.525;    0.000
756.936; 4952.125;  113.525;    0.000
757.130; 4968.125;  114.525;    0.000
757.324; 4847.125;  111.525;    0.000
757.518; 4923.125;  142.525;    0.000
757.712; 4996.125;  137.525;    0.000
757.906; 4833.125;   93.525;    0.000
758.100; 5005.125;  119.525;    0.000
758.294; 4902.125;  132.525;    0.000
758.488; 5004.125;  153.525;    0.000
758.682; 4863.125;  101.525;    0.000
758.876; 4909.125;  129.525;    0.000
759.070; 4831.125;  168.525;    0.000
759.264; 4872.125;   96.525;    0.000
759.458; 4853.125;  117.525;    0.000
759.651; 4978.125;  135.525;    0.000
759.845; 4925.125;  127.525;    0.000
760.039; 4928.125;  120.525;    0.000
760.233; 4867.125;  124.525;    0.000
760.427; 4785.125;  115.525;    0.000
760.620; 4850.125;  130.525;    0.000
760.814; 4799.125;  102.525;    0.000
761.008; 4949.125;  174.525;    0.000
761.202; 4804.125;  132.525;    0.000
761.395; 4893.125;  126.525;    0.000
761.589; 4972.125;  133.525;    0.000
761.783; 4854.125;  147.525;    0.000
761.976; 4957.125;  147.525;    0.000
762.170; 4975.125;  174.525;    0.000
762.363; 4875.125;   97.525;    0.000
762.557; 4979.125;  141.525;    0.000
762.750; 4912.125;  112.525;    0.000
762.944; 4883.125;  110.525;    0.000
763.138; 4934.125;  125.525;    0.000
763.331; 5058.125;  101.525;    0.000
763.524; 5074.125;  101.525;    0.000
763.718; 5085.125;  156.525;    0.000
763.911; 5032.125;  143.525;    0.000
764.105; 5128.125;  139.525;    0.000
764.298; 4924.125;   89.525;    0.000
764.492; 5040.125;  111.525;    0.000
764.685; 4965.125;  136.525;    0.000
764.878; 5067.125;  146.525;    0.000
765.072; 4893.125;  110.525;    0.000
765.265; 5025.125;  141.525;    0.000
765.458; 4967.125;   82.525;    0.000
765.651; 5019.125;  144.525;    0.000
765.845; 5012.125;   79.525;    0.000
766.038; 5035.125;  123.525;    0.000
766.231; 5589.125;  125.525;    0.000
766.424; 7690.125;  131.525;    0.000
766.617; 7832.125;   62.525;    0.000
766.811; 5507.125;  142.525;    0.000
767.004; 5178.125;  134.525;    0.000
767.197; 5217.125;  147.525;    0.000
767.390; 5068.125;  100.525;    0.000
767.583; 5199.125;  121.525;    0.000
767.776; 5108.125;   91.525;    0.000
767.969; 5094.125;  113.525;    0.000
768.162; 5199.125;  170.525;    0.000
768.355; 5059.125;  134.525;    0.000
768.548; 5112.125;  177.525;    0.000
768.741; 5197.125;   96.525;    0.000
768.934; 5160.125;  143.525;    0.000
769.127; 5250.125;  147.525;    0.000
769.320; 5348.125;   93.525;    0.000
769.513; 5273.125;  137.525;    0.000
769.706; 5965.125;   96.525;    0.000
769.898; 7943.125;  118.525;    0.000
770.091; 6460.125;  138.525;    0.000
770.284; 5585.125;  133.525;    0.000
770.477; 5515.125;  137.525;    0.000
770.670; 5579.125;  124.525;    0.000
770.862; 5446.125;  125.525;    0.000
771.055; 5515.125;  135.525;    0.000
771.248; 5529.125;  109.525;    0.000
771.441; 5512.125;  141.525;    0.000
771.633; 5514.125;  142.525;    0.000
771.826; 5572.125;  123.525;    0.000
772.018; 5792.125;  136.525;    0.000
772.211; 5675.125;  145.525;    0.000
772.404; 5733.125;  127.525;    0.000
772.596; 5890.125;  193.525;    0.000
772.789; 5823.125;   64.525;    0.000
772.981; 6031.125;  142.525;    0.000
773.174; 5906.125;  105.525;    0.000
773.366; 6107.125;  166.525;    0.000
773.559; 6100.125;  125.525;    0.000
773.751; 6292.125;  126.525;    0.000
773.944; 6290.125;  147.525;    0.000
774.136; 6506.125;  155.525;    0.000
774.329; 6516.125;  127.525;    0.000
774.521; 6697.125;  133.525;    0.000
774.713; 6961.125;  139.525;    0.000
774.906; 7126.125;  170.525;    0.000
775.098; 7462.125;  144.525;    0.000
775.290; 7765.125;  162.525;    0.000
775.483; 7935.125;  137.525;    0.000
775.675; 8407.125;  148.525;    0.000
775.867; 8992.125;   81.525;    0.000
776.059; 9716.125;  134.525;    0.000
776.251;10737.125;  137.525;    0.000
776.444;11996.125;  155.525;    0.000
776.636;13884.125;  148.525;    0.000
776.828;16875.125;  129.525;    0.000
777.020;23501.125;  133.525;    0.000
777.212;34263.125;  137.525;    0.000
777.404;38069.125;  124.525;    0.000
777.596;35461.125;  142.525;    0.000
777.788;26814.125;  155.525;    0.000
777.980;20867.125;  119.525;    0.000
778.172;16968.125;  129.525;    0.000
778.364;14751.125;  122.525;    0.000
778.556;13157.125;  129.525;    0.000
778.748;11942.125;  178.525;    0.000
778.940;10946.125;  128.525;    0.000
779.132;10139.125;  145.525;    0.000
779.324; 9454.125;   89.525;    0.000
779.516; 8817.125;  161.525;    0.000
779.708; 8300.125;  183.525;    0.000
779.900; 7996.125;  124.525;    0.000
780.091; 7584.125;  143.525;    0.000
780.283; 7290.125;  135.525;    0.000
780.475; 7167.125;  129.525;    0.000
780.667; 6885.125;  178.525;    0.000
780.859; 6797.125;  146.525;    0.000
781.050; 6519.125;  156.525;    0.000
781.242; 6388.125;  138.525;    0.000
781.434; 6234.125;  117.525;    0.000
781.625; 6203.125;  161.525;    0.000
781.817; 6053.125;  127.525;    0.000
782.008; 5972.125;  138.525;    0.000
782.200; 5899.125;  139.525;    0.000
782.392; 5852.125;  179.525;    0.000
782.583; 5816.125;  137.525;    0.000
782.775; 5707.125;  162.525;    0.000
782.966; 5615.125;  159.525;    0.000
783.158; 5540.125;  118.525;    0.000
783.349; 5583.125;  160.525;    0.000
783.541; 5553.125;  139.525;    0.000
783.732; 5406.125;  145.525;    0.000
783.924; 5458.125;  146.525;    0.000
784.115; 5251.125;  125.525;    0.000
784.306; 5432.125;  118.525;    0.000
784.498; 5351.125;  144.525;    0.000
784.689; 5374.125;  145.525;    0.000
784.880; 5208.125;  137.525;    0.000
785.072; 5174.125;  157.525;    0.000
785.263; 5237.125;  149.525;    0.000
785.454; 5148.125;  128.525;    0.000
785.645; 5138.125;  131.525;    0.000
785.837; 5133.125;  137.525;    0.000
786.028; 5108.125;  161.525;    0.000
786.219; 5139.125;  155.525;    0.000
786.410; 5089.125;  146.525;    0.000
786.601; 5092.125;  120.525;    0.000
786.792; 5105.125;  179.525;    0.000
786.984; 5097.125;  113.525;    0.000
787.175; 5070.125;  156.525;    0.000
787.366; 5085.125;  131.525;    0.000
787.557; 5061.125;  138.525;    0.000
787.748; 5071.125;  112.525;    0.000
787.939; 5175.125;  115.525;    0.000
788.130; 5120.125;  150.525;    0.000
788.321; 5143.125;  122.525;    0.000
788.512; 5239.125;  147.525;    0.000
788.703; 5056.125;  126.525;    0.000
788.894; 5100.125;   80.525;    0.000
789.084; 5209.125;  127.525;    0.000
789.275; 5176.125;  141.525;    0.000
789.466; 5234.125;  108.525;    0.000
789.657; 5325.125;  137.525;    0.000
789.848; 5237.125;  126.525;    0.000
790.039; 5225.125;  144.525;    0.000
790.229; 5165.125;  105.525;    0.000
790.420; 5380.125;   96.525;    0.000
790.611; 5377.125;  171.525;    0.000
790.801; 5109.125;   89.525;    0.000
790.992; 5155.125;  140.525;    0.000
791.183; 5121.125;  143.525;    0.000
791.373; 5171.125;  128.525;    0.000
791.564; 5149.125;   96.525;    0.000
791.755; 5221.125;  111.525;    0.000
791.945; 5268.125;  112.525;    0.000
792.136; 5131.125;  124.525;    0.000
792.326; 5192.125;   88.525;    0.000
792.517; 5253.125;  130.525;    0.000
792.707; 5205.125;  144.525;    0.000
792.898; 5353.125;  120.525;    0.000
793.088; 5342.125;  106.525;    0.000
793.279; 5431.125;  104.525;    0.000
793.469; 5261.125;  103.525;    0.000
793.660; 5415.125;  120.525;    0.000
793.850; 5509.125;  106.525;    0.000
794.040; 5764.125;  135.525;    0.000
794.231; 6034.125;   80.525;    0.000
794.421; 6317.125;  120.525;    0.000
794.611; 6876.125;  154.525;    0.000
794.802; 7833.125;  103.525;    0.000
794.992; 8413.125;  120.525;    0.000
795.182; 8354.125;  156.525;    0.000
795.372; 8041.125;  104.525;    0.000
795.563; 7351.125;  153.525;    0.000
795.753; 6771.125;  112.525;    0.000
795.943; 6441.125;  128.525;    0.000
796.133; 6198.125;  128.525;    0.000
796.323; 5891.125;  152.525;    0.000
796.513; 5708.125;  123.525;    0.000
796.703; 5616.125;  134.525;    0.000
796.893; 5571.125;  120.525;    0.000
797.083; 5412.125;  136.525;    0.000
797.273; 5290.125;  128.525;    0.000
797.463; 5171.125;  140.525;    0.000
797.653; 5073.125;   75.525;    0.000
797.843; 4996.125;  114.525;    0.000
798.033; 4899.125;   90.525;    0.000
798.223; 5028.125;  136.525;    0.000
798.413; 4916.125;  164.525;    0.000
798.603; 4733.125;  150.525;    0.000
798.793; 4693.125;  137.525;    0.000
798.983; 4750.125;  119.525;    0.000
799.172; 4633.125;  136.525;    0.000
799.362; 4667.125;  138.525;    0.000
799.552; 4629.125;  123.525;    0.000
799.742; 4643.125;  117.525;    0.000
799.932; 4608.125;  108.525;    0.000
800.121; 4441.125;  152.525;    0.000
800.311; 4396.125;  117.525;    0.000
800.501; 4561.125;  100.525;    0.000
800.690; 4444.125;  139.525;    0.000
800.880; 4415.125;  138.525;    0.000
801.070; 4577.125;  120.525;    0.000
801.259; 4441.125;  143.525;    0.000
801.449; 4379.125;  110.525;    0.000
801.638; 4541.125;  140.525;    0.000
801.828; 4352.125;  103.525;    0.000
802.017; 4351.125;   78.525;    0.000
802.207; 4461.125;  126.525;    0.000
802.396; 4484.125;  151.525;    0.000
802.586; 4301.125;  106.525;    0.000
802.775; 4487.125;  152.525;    0.000
802.965; 4352.125;  117.525;    0.000
803.154; 4435.125;  171.525;    0.000
803.343; 4169.125;  126.525;    0.000
803.533; 4343.125;  135.525;    0.000
803.722; 4358.125;  144.525;    0.000
803.911; 4383.125;  109.525;    0.000
804.101; 4354.125;  146.525;    0.000
804.290; 4377.125;  115.525;    0.000
804.479; 4334.125;  128.525;    0.000
804.668; 4276.125;  156.525;    0.000
804.857; 4236.125;  151.525;    0.000
805.047; 4226.125;  131.525;    0.000
805.236; 4241.125;  144.525;    0.000
805.425; 4260.125;  160.525;    0.000
805.614; 4225.125;  112.525;    0.000
805.803; 4249.125;  120.525;    0.000
805.992; 4268.125;  148.525;    0.000
806.181; 4289.125;  108.525;    0.000
806.370; 4153.125;  142.525;    0.000
806.559; 4221.125;  116.525;    0.000
806.748; 4299.125;  108.525;    0.000
806.937; 4195.125;  110.525;    0.000
807.126; 4289.125;  126.525;    0.000
807.315; 4299.125;  121.525;    0.000
807.504; 4287.125;  102.525;    0.000
807.693; 4214.125;  134.525;    0.000
807.882; 4292.125;  135.525;    0.000
808.071; 4319.125;  135.525;    0.000
808.260; 4384.125;   93.525;    0.000
808.448; 4378.125;  151.525;    0.000
808.637; 4332.125;  105.525;    0.000
808.826; 4371.125;  178.525;    0.000
809.015; 4188.125;  152.525;    0.000
809.203; 4301.125;  147.525;    0.000
809.392; 4244.125;  144.525;    0.000
809.581; 4417.125;  167.525;    0.000
809.770; 4310.125;  151.525;    0.000
809.958; 4373.125;  128.525;    0.000
810.147; 4289.125;  152.525;    0.000
810.335; 4381.125;  160.525;    0.000
810.524; 4469.125;  130.525;    0.000
810.713; 4412.125;  128.525;    0.000
810.901; 4403.125;  140.525;    0.000
811.090; 4559.125;  152.525;    0.000
811.278; 4385.125;  126.525;    0.000
811.467; 4669.125;  161.525;    0.000
811.655; 4809.125;  184.525;    0.000
811.844; 4702.125;  148.525;    0.000
812.032; 4622.125;  138.525;    0.000
812.220; 4809.125;  157.525;    0.000
812.409; 4591.125;  143.525;    0.000
812.597; 4747.125;  124.525;    0.000
812.785; 4754.125;  170.525;    0.000
812.974; 4650.125;  135.525;    0.000
813.162; 4871.125;  135.525;    0.000
813.350; 4800.125;  182.525;    0.000
813.539; 4870.125;  126.525;    0.000
813.727; 4772.125;  127.525;    0.000
813.915; 4902.125;  140.525;    0.000
814.103; 4884.125;  176.525;    0.000
814.291; 4889.125;  115.525;    0.000
814.479; 5034.125;  119.525;    0.000
814.668; 4925.125;  134.525;    0.000
814.856; 5124.125;  120.525;    0.000
815.044; 5231.125;  164.525;    0.000
815.232; 5267.125;  146.525;    0.000
815.420; 5440.125;  154.525;    0.000
815.608; 5471.125;  137.525;    0.000
815.796; 5471.125;  108.525;    0.000
815.984; 5566.125;  134.525;    0.000
816.172; 5766.125;  123.525;    0.000
816.360; 5873.125;  181.525;    0.000
816.548; 5980.125;  139.525;    0.000
816.736; 6220.125;  138.525;    0.000
816.924; 6598.125;  151.525;    0.000
817.111; 6892.125;  156.525;    0.000
817.299; 7289.125;  147.525;    0.000
817.487; 7811.125;  188.525;    0.000
817.675; 8589.125;  129.525;    0.000
817.863; 9710.125;  128.525;    0.000
818.050;13039.125;  110.525;    0.000
818.238;21955.125;  166.525;    0.000
818.426;30360.125;  136.525;    0.000
818.613;22557.125;  143.525;    0.000
818.801;18728.125;  150.525;    0.000
818.989;17860.125;  179.525;    0.000
819.176;18764.125;  123.525;    0.000
819.364;26935.125;  148.525;    0.000
819.552;36989.125;   86.525;    0.000
819.739;27877.125;  169.525;    0.000
819.927;20381.125;  130.525;    0.000
820.114;17011.125;  144.525;    0.000
820.302;15108.125;  166.525;    0.000
820.489;13627.125;  145.525;    0.000
820.677;12799.125;  101.525;    0.000
820.864;12655.125;  149.525;    0.000
821.052;12382.125;  130.525;    0.000
821.239;12685.125;  147.525;    0.000
821.426;13032.125;  121.525;    0.000
821.614;14900.125;  187.525;    0.000
821.801;15672.125;  105.525;    0.000
821.988;14322.125;  167.525;    0.000
822.176;13461.125;  130.525;    0.000
822.363;13711.125;  143.525;    0.000
822.550;12687.125;  108.525;    0.000
822.737;11455.125;  109.525;    0.000
822.924;10690.125;  156.525;    0.000
823.112;10341.125;  123.525;    0.000
823.299; 9676.125;  128.525;    0.000
823.486; 9298.125;  138.525;    0.000
823.673; 8764.125;  125.525;    0.000
823.860; 8564.125;  138.525;    0.000
824.047; 8471.125;  122.525;    0.000
824.234; 9407.125;  134.525;    0.000
824.421; 9428.125;   95.525;    0.000
824.608; 8447.125;  151.525;    0.000
824.795; 7769.125;  117.525;    0.000
824.982; 7394.125;  143.525;    0.000
825.169; 6880.125;   83.525;    0.000
825.356; 6707.125;  126.525;    0.000
825.543; 6274.125;   92.525;    0.000
825.730; 6235.125;  113.525;    0.000
825.917; 5988.125;  142.525;    0.000
826.104; 5955.125;  182.525;    0.000
826.290; 5772.125;  137.525;    0.000
826.477; 5574.125;  126.525;    0.000
826.664; 5388.125;  135.525;    0.000
826.851; 5347.125;  139.525;    0.000
827.038; 5060.125;  135.525;    0.000
827.224; 5111.125;  143.525;    0.000
827.411; 4962.125;  153.525;    0.000
827.598; 4973.125;  122.525;    0.000
827.784; 4784.125;  138.525;    0.000
827.971; 4797.125;  134.525;    0.000
828.157; 4696.125;  152.525;    0.000
828.344; 4594.125;  135.525;    0.000
828.531; 4601.125;  137.525;    0.000
828.717; 4449.125;  117.525;    0.000
828.904; 4435.125;  127.525;    0.000
829.090; 4415.125;  172.525;    0.000
829.277; 4322.125;  144.525;    0.000
829.463; 4287.125;  159.525;    0.000
829.650; 4265.125;  187.525;    0.000
829.836; 4206.125;  138.525;    0.000
830.022; 4178.125;  196.525;    0.000
830.209; 4112.125;  118.525;    0.000
830.395; 4038.125;  148.525;    0.000
830.581; 3999.125;  108.525;    0.000
830.768; 4134.125;  137.525;    0.000
830.954; 3966.125;  162.525;    0.000
831.140; 3935.125;  117.525;    0.000
831.327; 3922.125;  176.525;    0.000
831.513; 3964.125;  162.525;    0.000
831.699; 3936.125;  157.525;    0.000
831.885; 3822.125;  153.525;    0.000
832.071; 3730.125;  123.525;    0.000
832.257; 3736.125;  142.525;    0.000
832.444; 3651.125;  165.525;    0.000
832.630; 3705.125;  159.525;    0.000
832.816; 3632.125;  145.525;    0.000
833.002; 3612.125;  120.525;    0.000
833.188; 3679.125;  145.525;    0.000
833.374; 3542.125;  137.525;    0.000
833.560; 3605.125;  152.525;    0.000
833.746; 3447.125;  139.525;    0.000
833.932; 3473.125;  170.525;    0.000
834.118; 3448.125;  111.525;    0.000
834.303; 3460.125;  141.525;    0.000
834.489; 3465.125;  146.525;    0.000
834.675; 3536.125;  156.525;    0.000
834.861; 3487.125;   87.525;    0.000
835.047; 3521.125;  134.525;    0.000
835.233; 3389.125;   89.525;    0.000
835.418; 3437.125;  145.525;    0.000
835.604; 3451.125;  136.525;    0.000
835.790; 3378.125;  132.525;    0.000
835.976; 3397.125;  161.525;    0.000
836.161; 3435.125;  157.525;    0.000
836.347; 3329.125;  147.525;    0.000
836.533; 3368.125;  116.525;    0.000
836.718; 3386.125;  168.525;    0.000
836.904; 3361.125;  199.525;    0.000
837.089; 3294.125;  165.525;    0.000
837.275; 3335.125;  166.525;    0.000
837.460; 3247.125;  144.525;    0.000
837.646; 3308.125;  164.525;    0.000
837.831; 3241.125;  122.525;    0.000
838.017; 3286.125;  163.525;    0.000
838.202; 3296.125;  139.525;    0.000
838.388; 3322.125;  174.525;    0.000
838.573; 3385.125;  140.525;    0.000
838.759; 3329.125;  167.525;    0.000
838.944; 3250.125;  142.525;    0.000
839.129; 3297.125;  164.525;    0.000
839.315; 3264.125;  129.525;    0.000
839.500; 3311.125;  150.525;    0.000
839.685; 3351.125;  118.525;    0.000
839.870; 3286.125;  177.525;    0.000
840.056; 3257.125;  144.525;    0.000
840.241; 3185.125;  121.525;    0.000
840.426; 3322.125;  131.525;    0.000
840.611; 3384.125;  177.525;    0.000
840.796; 3288.125;  173.525;    0.000
840.981; 3405.125;  156.525;    0.000
841.166; 3299.125;  145.525;    0.000
841.352; 3364.125;  150.525;    0.000
841.537; 3359.125;  143.525;    0.000
841.722; 3431.125;  165.525;    0.000
841.907; 3519.125;  184.525;    0.000
842.092; 3500.125;  171.525;    0.000
842.277; 3513.125;  155.525;    0.000
842.461; 3590.125;  152.525;    0.000
842.646; 3786.125;  107.525;    0.000
842.831; 3788.125;  160.525;    0.000
843.016; 3873.125;  160.525;    0.000
843.201; 3973.125;  164.525;    0.000
843.386; 4112.125;  134.525;    0.000
843.571; 4332.125;  132.525;    0.000
843.755; 4515.125;  158.525;    0.000
843.940; 4843.125;  152.525;    0.000
844.125; 5339.125;  154.525;    0.000
844.310; 6223.125;  147.525;    0.000
844.494; 7909.125;  158.525;    0.000
844.679;10644.125;  173.525;    0.000
844.864;10516.125;  152.525;    0.000
845.048; 8602.125;  139.525;    0.000
845.233; 7438.125;  200.525;    0.000
845.418; 6609.125;  139.525;    0.000
845.602; 5971.125;  147.525;    0.000
845.787; 5269.125;  148.525;    0.000
845.971; 5034.125;  170.525;    0.000
846.156; 4678.125;  136.525;    0.000
846.340; 4523.125;  146.525;    0.000
846.525; 4220.125;  188.525;    0.000
846.709; 4115.125;  128.525;    0.000
846.893; 3948.125;  151.525;    0.000
847.078; 3806.125;  164.525;    0.000
847.262; 3782.125;  155.525;    0.000
847.447; 3637.125;  114.525;    0.000
847.631; 3428.125;  148.525;    0.000
847.815; 3499.125;  114.525;    0.000
848.000; 3418.125;  134.525;    0.000
848.184; 3406.125;  154.525;    0.000
848.368; 3361.125;  145.525;    0.000
848.552; 3263.125;  122.525;    0.000
848.736; 3158.125;  139.525;    0.000
848.921; 3270.125;  143.525;    0.000
849.105; 3102.125;  145.525;    0.000
849.289; 3187.125;  173.525;    0.000
849.473; 3004.125;  147.525;    0.000
849.657; 3008.125;  144.525;    0.000
849.841; 3002.125;  168.525;    0.000
850.025; 3038.125;  205.525;    0.000
850.209; 2972.125;  171.525;    0.000
850.393; 3067.125;  130.525;    0.000
850.577; 2915.125;  146.525;    0.000
850.761; 2924.125;  188.525;    0.000
850.945; 2918.125;  137.525;    0.000
851.129; 2899.125;  192.525;    0.000
851.313; 3000.125;  199.525;    0.000
851.497; 2980.125;  165.525;    0.000
851.680; 2819.125;  196.525;    0.000
851.864; 2876.125;  169.525;    0.000
852.048; 2874.125;  156.525;    0.000
852.232; 2903.125;  150.525;    0.000
852.416; 2891.125;  219.525;    0.000
852.599; 2848.125;  168.525;    0.000
852.783; 2817.125;  165.525;    0.000
852.967; 2934.125;  166.525;    0.000
853.150; 2912.125;  191.525;    0.000
853.334; 2844.125;  158.525;    0.000
853.518; 2843.125;  168.525;    0.000
853.701; 2787.125;  125.525;    0.000
853.885; 2748.125;  165.525;    0.000
854.068; 2711.125;  142.525;    0.000
854.252; 2841.125;  167.525;    0.000
854.435; 2780.125;  146.525;    0.000
854.619; 2796.125;  163.525;    0.000
854.802; 2829.125;  167.525;    0.000
854.986; 2716.125;  163.525;    0.000
855.169; 2705.125;  146.525;    0.000
855.353; 2817.125;  183.525;    0.000
855.536; 2847.125;  140.525;    0.000
855.719; 2793.125;  168.525;    0.000
855.903; 2821.125;  170.525;    0.000
856.086; 2787.125;  145.525;    0.000
856.269; 2793.125;  126.525;    0.000
856.452; 2846.125;  142.525;    0.000
856.636; 3031.125;  140.525;    0.000
856.819; 3191.125;  127.525;    0.000
857.002; 3260.125;  165.525;    0.000
857.185; 3065.125;  111.525;    0.000
857.368; 3060.125;  143.525;    0.000
857.552; 2996.125;  174.525;    0.000
857.735; 3058.125;  194.525;    0.000
857.918; 2961.125;  171.525;    0.000
858.101; 2833.125;  142.525;    0.000
858.284; 2927.125;  118.525;    0.000
858.467; 3001.125;  163.525;    0.000
858.650; 3006.125;  149.525;    0.000
858.833; 3089.125;  120.525;    0.000
859.016; 3145.125;  169.525;    0.000
859.199; 3260.125;  121.525;    0.000
859.382; 3601.125;  184.525;    0.000
859.564; 3818.125;  139.525;    0.000
859.747; 3653.125;  126.525;    0.000
859.930; 3429.125;  109.525;    0.000
860.113; 3401.125;  137.525;    0.000
860.296; 3401.125;  182.525;    0.000
860.478; 3310.125;  136.525;    0.000
860.661; 3237.125;  157.525;    0.000
860.844; 3175.125;  129.525;    0.000
861.027; 3203.125;  163.525;    0.000
861.209; 3259.125;  151.525;    0.000
861.392; 3142.125;  124.525;    0.000
861.575; 3201.125;  163.525;    0.000
861.757; 3226.125;  205.525;    0.000
861.940; 3220.125;  180.525;    0.000
862.122; 3256.125;  148.525;    0.000
862.305; 3348.125;  128.525;    0.000
862.487; 3453.125;  172.525;    0.000
862.670; 3774.125;  123.525;    0.000
862.852; 4267.125;  126.525;    0.000
863.035; 5153.125;  174.525;    0.000
863.217; 5015.125;  160.525;    0.000
863.400; 4561.125;  164.525;    0.000
863.582; 4450.125;  118.525;    0.000
863.764; 4132.125;  143.525;    0.000
863.947; 3969.125;  137.525;    0.000
864.129; 3898.125;  166.525;    0.000
864.311; 3681.125;  128.525;    0.000
864.493; 3654.125;  153.525;    0.000
864.676; 3677.125;  156.525;    0.000
864.858; 3559.125;  159.525;    0.000
865.040; 3680.125;  163.525;    0.000
865.222; 3591.125;  138.525;    0.000
865.404; 3700.125;  157.525;    0.000
865.587; 3851.125;  184.525;    0.000
865.769; 4028.125;  178.525;    0.000
865.951; 4011.125;  104.525;    0.000
866.133; 3936.125;  147.525;    0.000
866.315; 3963.125;  141.525;    0.000
866.497; 4040.125;  132.525;    0.000
866.679; 4167.125;  139.525;    0.000
866.861; 4186.125;  118.525;    0.000
867.043; 4469.125;  154.525;    0.000
867.225; 4688.125;  147.525;    0.000
867.407; 5003.125;  158.525;    0.000
867.589; 5618.125;  172.525;    0.000
867.770; 6774.125;  159.525;    0.000
867.952; 9069.125;  149.525;    0.000
868.134;11845.125;  156.525;    0.000
868.316;11724.125;  171.525;    0.000
868.498;11282.125;  200.525;    0.000
868.679;10114.125;  174.525;    0.000
868.861; 8479.125;  175.525;    0.000
869.043; 7235.125;  174.525;    0.000
869.224; 6375.125;  122.525;    0.000
869.406; 5822.125;  166.525;    0.000
869.588; 5522.125;  143.525;    0.000
869.769; 5198.125;  152.525;    0.000
869.951; 5210.125;  165.525;    0.000
870.132; 5138.125;  115.525;    0.000
870.314; 5614.125;  139.525;    0.000
870.495; 5794.125;  168.525;    0.000
870.677; 5294.125;  188.525;    0.000
870.858; 5052.125;  123.525;    0.000
871.040; 5380.125;  170.525;    0.000
871.221; 5950.125;  148.525;    0.000
871.403; 5544.125;  140.525;    0.000
871.584; 5242.125;  174.525;    0.000
871.765; 5299.125;  168.525;    0.000
871.947; 5687.125;  191.525;    0.000
872.128; 5110.125;  132.525;    0.000
872.309; 4451.125;  140.525;    0.000
872.491; 4178.125;  157.525;    0.000
872.672; 4094.125;  130.525;    0.000
872.853; 3910.125;  148.525;    0.000
873.034; 3840.125;  138.525;    0.000
873.215; 3652.125;  152.525;    0.000
873.396; 3424.125;  149.525;    0.000
873.578; 3228.125;  173.525;    0.000
873.759; 3248.125;  158.525;    0.000
873.940; 3161.125;  147.525;    0.000
874.121; 3093.125;  136.525;    0.000
874.302; 3045.125;  151.525;    0.000
874.483; 2941.125;  137.525;    0.000
874.664; 2905.125;  163.525;    0.000
874.845; 2943.125;  124.525;    0.000
875.026; 2895.125;  134.525;    0.000
875.207; 2813.125;  164.525;    0.000
875.388; 2773.125;  163.525;    0.000
875.568; 2779.125;  176.525;    0.000
875.749; 2708.125;  108.525;    0.000
875.930; 2750.125;  191.525;    0.000
876.111; 2725.125;  170.525;    0.000
876.292; 2645.125;  180.525;    0.000
876.472; 2592.125;  150.525;    0.000
876.653; 2573.125;  162.525;    0.000
876.834; 2544.125;  176.525;    0.000
877.015; 2567.125;  203.525;    0.000
877.195; 2519.125;  178.525;    0.000
877.376; 2515.125;  141.525;    0.000
877.556; 2589.125;  135.525;    0.000
877.737; 2541.125;  174.525;    0.000
877.918; 2488.125;  150.525;    0.000
878.098; 2440.125;  133.525;    0.000
878.279; 2396.125;  129.525;    0.000
878.459; 2421.125;  162.525;    0.000
878.640; 2501.125;  187.525;    0.000
878.820; 2463.125;  151.525;    0.000
879.000; 2519.125;  159.525;    0.000
879.181; 2493.125;  171.525;    0.000
879.361; 2439.125;  167.525;    0.000
879.542; 2421.125;  126.525;    0.000
879.722; 2396.125;  152.525;    0.000
879.902; 2466.125;  144.525;    0.000
880.083; 2431.125;  154.525;    0.000
880.263; 2512.125;  148.525;    0.000
880.443; 2659.125;  185.525;    0.000
880.623; 3109.125;  172.525;    0.000
880.803; 3384.125;  152.525;    0.000
880.984; 3010.125;  165.525;    0.000
881.164; 2799.125;  164.525;    0.000
881.344; 2666.125;  141.525;    0.000
881.524; 2603.125;  160.525;    0.000
881.704; 2611.125;  164.525;    0.000
881.884; 2686.125;  159.525;    0.000
882.064; 2864.125;  158.525;    0.000
882.244; 2876.125;  147.525;    0.000
882.424; 2756.125;  160.525;    0.000
882.604; 2672.125;  150.525;    0.000
882.784; 2582.125;  138.525;    0.000
882.964; 2507.125;  157.525;    0.000
883.144; 2477.125;  128.525;    0.000
883.324; 2481.125;  220.525;    0.000
883.504; 2391.125;  177.525;    0.000
883.683; 2284.125;  159.525;    0.000
883.863; 2316.125;  143.525;    0.000
884.043; 2375.125;  156.525;    0.000
884.223; 2337.125;  152.525;    0.000
884.402; 2280.125;  169.525;    0.000
884.582; 2287.125;  162.525;    0.000
884.762; 2285.125;  172.525;    0.000
884.941; 2240.125;  220.525;    0.000
885.121; 2315.125;  128.525;    0.000
885.301; 2303.125;  141.525;    0.000
885.480; 2232.125;  141.525;    0.000
885.660; 2257.125;  132.525;    0.000
885.839; 2209.125;  146.525;    0.000
886.019; 2286.125;  170.525;    0.000
886.198; 2142.125;  143.525;    0.000
886.378; 2167.125;  159.525;    0.000
886.557; 2229.125;  148.525;    0.000
886.737; 2167.125;  125.525;    0.000
886.916; 2110.125;  177.525;    0.000
887.095; 2164.125;  186.525;    0.000
887.275; 2098.125;  134.525;    0.000
887.454; 2165.125;  148.525;    0.000
887.633; 2144.125;  171.525;    0.000
887.813; 2112.125;  187.525;    0.000
887.992; 2217.125;  157.525;    0.000
888.171; 2196.125;  143.525;    0.000
888.350; 2177.125;  182.525;    0.000
888.530; 2165.125;  142.525;    0.000
888.709; 2117.125;  160.525;    0.000
888.888; 2181.125;  197.525;    0.000
889.067; 2117.125;  126.525;    0.000
889.246; 2155.125;  197.525;    0.000
889.425; 2169.125;  161.525;    0.000
889.604; 2159.125;  180.525;    0.000
889.783; 2123.125;  135.525;    0.000
889.962; 1987.125;  107.525;    0.000
890.141; 2130.125;  167.525;    0.000
890.320; 2083.125;  149.525;    0.000
890.499; 2114.125;  194.525;    0.000
890.678; 2124.125;  138.525;    0.000
890.857; 2164.125;  146.525;    0.000
891.036; 2080.125;  178.525;    0.000
891.214; 2100.125;  151.525;    0.000
891.393; 2142.125;  137.525;    0.000
891.572; 2121.125;  177.525;    0.000
891.751; 2179.125;  149.525;    0.000
891.930; 2141.125;  189.525;    0.000
892.108; 2145.125;  136.525;    0.000
892.287; 2052.125;  129.525;    0.000
892.466; 2165.125;  163.525;    0.000
892.644; 2052.125;  147.525;    0.000
892.823; 2009.125;  127.525;    0.000
893.001; 2113.125;  192.525;    0.000
893.180; 2047.125;  157.525;    0.000
893.359; 2137.125;  176.525;    0.000
893.537; 2167.125;  146.525;    0.000
893.716; 2125.125;  154.525;    0.000
893.894; 2139.125;  166.525;    0.000
894.073; 2096.125;  163.525;    0.000
894.251; 2049.125;  166.525;    0.000
894.429; 2048.125;  149.525;    0.000
894.608; 2091.125;  141.525;    0.000
894.786; 2094.125;  139.525;    0.000
894.964; 2111.125;  180.525;    0.000
895.143; 2081.125;  193.525;    0.000
895.321; 2015.125;  163.525;    0.000
895.499; 2116.125;  163.525;    0.000
895.677; 2094.125;  194.525;    0.000
895.856; 2146.125;  176.525;    0.000
896.034; 2105.125;  173.525;    0.000
896.212; 2118.125;  180.525;    0.000
896.390; 2097.125;  146.525;    0.000
896.568; 2140.125;  167.525;    0.000
896.746; 2152.125;  158.525;    0.000
896.924; 2137.125;  163.525;    0.000
897.102; 2094.125;  170.525;    0.000
897.280; 2101.125;  159.525;    0.000
897.458; 2203.125;  182.525;    0.000
897.636; 2151.125;  151.525;    0.000
897.814; 2123.125;  130.525;    0.000
897.992; 2194.125;  213.525;    0.000
898.170; 2113.125;  164.525;    0.000
898.348; 2122.125;  159.525;    0.000
898.526; 2142.125;  182.525;    0.000
898.704; 2238.125;  209.525;    0.000
898.882; 2138.125;  145.525;    0.000
899.059; 2179.125;  172.525;    0.000
899.237; 2248.125;  172.525;    0.000
899.415; 2114.125;  211.525;    0.000
899.593; 2142.125;  151.525;    0.000
899.770; 2172.125;  147.525;    0.000
899.948; 2180.125;  218.525;    0.000
900.125; 2205.125;  166.525;    0.000
900.303; 2182.125;  146.525;    0.000
900.481; 2204.125;  174.525;    0.000
900.658; 2287.125;  198.525;    0.000
900.836; 2205.125;  125.525;    0.000
901.013; 2271.125;  197.525;    0.000
901.191; 2264.125;  181.525;    0.000
901.368; 2319.125;  185.525;    0.000
901.546; 2308.125;  197.525;    0.000
901.723; 2403.125;  205.525;    0.000
901.901; 2388.125;  187.525;    0.000
902.078; 2399.125;  163.525;    0.000
902.255; 2376.125;  141.525;    0.000
902.433; 2473.125;  183.525;    0.000
902.610; 2522.125;  181.525;    0.000
902.787; 2421.125;  174.525;    0.000
902.964; 2544.125;  174.525;    0.000
903.142; 2491.125;  141.525;    0.000
903.319; 2665.125;  214.525;    0.000
903.496; 2584.125;  187.525;    0.000
903.673; 2689.125;  183.525;    0.000
903.850; 2767.125;  125.525;    0.000
904.027; 2770.125;  197.525;    0.000
904.204; 2863.125;  197.525;    0.000
904.381; 3117.125;  196.525;    0.000
904.558; 3471.125;  176.525;    0.000
904.735; 3966.125;  179.525;    0.000
904.912; 3842.125;  203.525;    0.000
905.089; 3930.125;  159.525;    0.000
905.266; 3607.125;  176.525;    0.000
905.443; 3450.125;  184.525;    0.000
905.620; 3194.125;  168.525;    0.000
905.797; 3050.125;  214.525;    0.000
905.974; 2954.125;  154.525;    0.000
906.151; 2954.125;  132.525;    0.000
906.327; 2920.125;  192.525;    0.000
906.504; 2976.125;  186.525;    0.000
906.681; 2792.125;  171.525;    0.000
906.858; 2732.125;  181.525;    0.000
907.034; 2656.125;  164.525;    0.000
907.211; 2637.125;  184.525;    0.000
907.388; 2637.125;  177.525;    0.000
907.564; 2551.125;  150.525;    0.000
907.741; 2571.125;  195.525;    0.000
907.917; 2587.125;  190.525;    0.000
908.094; 2499.125;  214.525;    0.000
908.271; 2435.125;  173.525;    0.000
908.447; 2464.125;  229.525;    0.000
908.623; 2444.125;  162.525;    0.000
908.800; 2370.125;  195.525;    0.000
908.976; 2388.125;  171.525;    0.000
909.153; 2444.125;  167.525;    0.000
909.329; 2389.125;  227.525;    0.000
909.505; 2309.125;  167.525;    0.000
909.682; 2376.125;  174.525;    0.000
909.858; 2205.125;  158.525;    0.000
910.034; 2277.125;  188.525;    0.000
910.211; 2291.125;  158.525;    0.000
910.387; 2331.125;  208.525;    0.000
910.563; 2283.125;  203.525;    0.000
910.739; 2305.125;  201.525;    0.000
910.915; 2317.125;  170.525;    0.000
911.091; 2272.125;  171.525;    0.000
911.268; 2252.125;  220.525;    0.000
911.444; 2194.125;  202.525;    0.000
911.620; 2235.125;  175.525;    0.000
911.796; 2263.125;  175.525;    0.000
911.972; 2217.125;  164.525;    0.000
912.148; 2281.125;  174.525;    0.000
912.324; 2206.125;  155.525;    0.000
912.500; 2218.125;  156.525;    0.000
912.676; 2244.125;  138.525;    0.000
912.851; 2225.125;  158.525;    0.000
913.027; 2257.125;  161.525;    0.000
913.203; 2270.125;  168.525;    0.000
913.379; 2216.125;  172.525;    0.000
913.555; 2113.125;  193.525;    0.000
913.730; 2281.125;  149.525;    0.000
913.906; 2113.125;  159.525;    0.000
914.082; 2186.125;  184.525;    0.000
914.258; 2251.125;  194.525;    0.000
914.433; 2215.125;  175.525;    0.000
914.609; 2159.125;  175.525;    0.000
914.784; 2155.125;  170.525;    0.000
914.960; 2206.125;  212.525;    0.000
915.136; 2176.125;  157.525;    0.000
915.311; 2226.125;  204.525;    0.000
915.487; 2178.125;  180.525;    0.000
915.662; 2246.125;  203.525;    0.000
915.838; 2250.125;  194.525;    0.000
916.013; 2231.125;  217.525;    0.000
916.189; 2152.125;  196.525;    0.000
916.364; 2318.125;  236.525;    0.000
916.539; 2216.125;  192.525;    0.000
916.715; 2194.125;  181.525;    0.000
916.890; 2234.125;  185.525;    0.000
917.065; 2175.125;  166.525;    0.000
917.240; 2284.125;  182.525;    0.000
917.416; 2193.125;  188.525;    0.000
917.591; 2322.125;  185.525;    0.000
917.766; 2184.125;  187.525;    0.000
917.941; 2234.125;  181.525;    0.000
918.116; 2303.125;  207.525;    0.000
918.292; 2351.125;  140.525;    0.000
918.467; 2208.125;  187.525;    0.000
918.642; 2173.125;  208.525;    0.000
918.817; 2268.125;  203.525;    0.000
918.992; 2278.125;  162.525;    0.000
919.167; 2304.125;  206.525;    0.000
919.342; 2337.125;  188.525;    0.000
919.517; 2271.125;  190.525;    0.000
919.692; 2293.125;  174.525;    0.000
919.867; 2328.125;  181.525;    0.000
920.041; 2375.125;  179.525;    0.000
920.216; 2393.125;  186.525;    0.000
920.391; 2482.125;  209.525;    0.000
920.566; 2451.125;  205.525;    0.000
920.741; 2533.125;  205.525;    0.000
920.915; 2626.125;  206.525;    0.000
921.090; 2815.125;  219.525;    0.000
921.265; 3242.125;  185.525;    0.000
921.439; 3568.125;  171.525;    0.000
921.614; 3209.125;  197.525;    0.000
921.789; 2926.125;  189.525;    0.000
921.963; 2888.125;  210.525;    0.000
922.138; 2766.125;  171.525;    0.000
922.312; 2791.125;  194.525;    0.000
922.487; 2887.125;  231.525;    0.000
922.661; 2858.125;  179.525;    0.000
922.836; 3107.125;  213.525;    0.000
923.010; 3148.125;  182.525;    0.000
923.185; 2972.125;  239.525;    0.000
923.359; 2904.125;  200.525;    0.000
923.534; 2816.125;  232.525;    0.000
923.708; 2876.125;  221.525;    0.000
923.882; 2977.125;  193.525;    0.000
924.057; 2933.125;  204.525;    0.000
924.231; 2867.125;  172.525;    0.000
924.405; 2881.125;  202.525;    0.000
924.579; 2685.125;  207.525;    0.000
924.753; 2709.125;  167.525;    0.000
924.928; 2629.125;  202.525;    0.000
925.102; 2670.125;  200.525;    0.000
925.276; 2655.125;  185.525;    0.000
925.450; 2723.125;  170.525;    0.000
925.624; 2717.125;  176.525;    0.000
925.798; 2809.125;  221.525;    0.000
925.972; 2842.125;  162.525;    0.000
926.146; 3160.125;  207.525;    0.000
926.320; 3270.125;  185.525;    0.000
926.494; 3357.125;  192.525;    0.000
926.668; 3541.125;  179.525;    0.000
926.842; 3706.125;  181.525;    0.000
927.016; 3619.125;  224.525;    0.000
927.190; 3526.125;  193.525;    0.000
927.363; 3501.125;  194.525;    0.000
927.537; 3417.125;  210.525;    0.000
927.711; 3352.125;  153.525;    0.000
927.885; 3236.125;  184.525;    0.000
928.058; 3210.125;  197.525;    0.000
928.232; 3305.125;  219.525;    0.000
928.406; 3081.125;  175.525;    0.000
928.579; 3119.125;  179.525;    0.000
928.753; 2985.125;  208.525;    0.000
928.927; 2962.125;  163.525;    0.000
929.100; 2815.125;  138.525;    0.000
929.274; 2835.125;  160.525;    0.000
929.447; 2814.125;  152.525;    0.000
929.621; 2791.125;  168.525;    0.000
929.794; 2796.125;  152.525;    0.000
929.968; 2672.125;  163.525;    0.000
930.141; 2666.125;  164.525;    0.000
930.315; 2674.125;  170.525;    0.000
930.488; 2608.125;  216.525;    0.000
930.661; 2569.125;  184.525;    0.000
930.835; 2531.125;  156.525;    0.000
931.008; 2542.125;  206.525;    0.000
931.181; 2538.125;  163.525;    0.000
931.354; 2499.125;  198.525;    0.000
931.528; 2407.125;  156.525;    0.000
931.701; 2436.125;  170.525;    0.000
931.874; 2338.125;  167.525;    0.000
932.047; 2444.125;  146.525;    0.000
932.220; 2412.125;  159.525;    0.000
932.393; 2388.125;  186.525;    0.000
932.566; 2277.125;  147.525;    0.000
932.739; 2446.125;  192.525;    0.000
932.912; 2377.125;  197.525;    0.000
933.085; 2439.125;  176.525;    0.000
933.258; 2321.125;  171.525;    0.000
933.431; 2257.125;  150.525;    0.000
933.604; 2278.125;  176.525;    0.000
933.777; 2215.125;  215.525;    0.000
933.950; 2232.125;  164.525;    0.000
934.123; 2271.125;  174.525;    0.000
934.296; 2233.125;  203.525;    0.000
934.468; 2190.125;  208.525;    0.000
934.641; 2184.125;  182.525;    0.000
934.814; 2231.125;  170.525;    0.000
934.987; 2246.125;  183.525;    0.000
935.159; 2329.125;  154.525;    0.000
935.332; 2256.125;  178.525;    0.000
935.505; 2211.125;  213.525;    0.000
935.677; 2108.125;  173.525;    0.000
935.850; 2282.125;  190.525;    0.000
936.022; 2249.125;  205.525;    0.000
936.195; 2267.125;  201.525;    0.000
936.367; 2188.125;  189.525;    0.000
936.540; 2199.125;  179.525;    0.000
936.712; 2288.125;  195.525;    0.000
936.885; 2263.125;  207.525;    0.000
937.057; 2182.125;  163.525;    0.000
937.229; 2261.125;  175.525;    0.000
937.402; 2364.125;  168.525;    0.000
937.574; 2227.125;  136.525;    0.000
937.746; 2348.125;  166.525;    0.000
937.919; 2496.125;  178.525;    0.000
938.091; 2619.125;  192.525;    0.000
938.263; 2683.125;  164.525;    0.000
938.435; 2810.125;  204.525;    0.000
938.608; 3219.125;  153.525;    0.000
938.780; 3573.125;  159.525;    0.000
938.952; 3760.125;  160.525;    0.000
939.124; 3882.125;  156.525;    0.000
939.296; 4176.125;  110.525;    0.000
939.468; 4312.125;  135.525;    0.000
939.640; 3947.125;  144.525;    0.000
939.812; 3555.125;  232.525;    0.000
939.984; 3298.125;  128.525;    0.000
940.156; 3111.125;  195.525;    0.000
940.328; 3011.125;  226.525;    0.000
940.500; 2874.125;  146.525;    0.000
940.672; 2738.125;  190.525;    0.000
940.843; 2612.125;  156.525;    0.000
941.015; 2588.125;  200.525;    0.000
941.187; 2510.125;  159.525;    0.000
941.359; 2488.125;  183.525;    0.000
941.531; 2488.125;  137.525;    0.000
941.702; 2513.125;  186.525;    0.000
941.874; 2393.125;  164.525;    0.000
942.046; 2410.125;  202.525;    0.000
942.217; 2375.125;  146.525;    0.000
942.389; 2433.125;  165.525;    0.000
942.560; 2303.125;  191.525;    0.000
942.732; 2363.125;  240.525;    0.000
942.904; 2268.125;  173.525;    0.000
943.075; 2124.125;  157.525;    0.000
943.247; 2057.125;  155.525;    0.000
943.418; 2208.125;  164.525;    0.000
943.589; 2190.125;  150.525;    0.000
943.761; 2191.125;  143.525;    0.000
943.932; 2153.125;  151.525;    0.000
944.104; 2185.125;  194.525;    0.000
944.275; 2053.125;  154.525;    0.000
944.446; 2048.125;  169.525;    0.000
944.617; 2102.125;  138.525;    0.000
944.789; 2075.125;  158.525;    0.000
944.960; 2081.125;  197.525;    0.000
945.131; 1985.125;  139.525;    0.000
945.302; 2077.125;  169.525;    0.000
945.473; 1930.125;  149.525;    0.000
945.645; 1996.125;  171.525;    0.000
945.816; 2099.125;  167.525;    0.000
945.987; 2091.125;  156.525;    0.000
946.158; 2117.125;  185.525;    0.000
946.329; 2108.125;  201.525;    0.000
946.500; 2109.125;  182.525;    0.000
946.671; 2064.125;  156.525;    0.000
946.842; 2022.125;  190.525;    0.000
947.013; 2003.125;  159.525;    0.000
947.183; 1977.125;  209.525;    0.000
947.354; 1935.125;  171.525;    0.000
947.525; 1971.125;  180.525;    0.000
947.696; 1896.125;  163.525;    0.000
947.867; 1974.125;  168.525;    0.000
948.037; 1947.125;  153.525;    0.000
948.208; 1956.125;  178.525;    0.000
948.379; 2042.125;  192.525;    0.000
948.550; 1927.125;  180.525;    0.000
948.720; 1896.125;  196.525;    0.000
948.891; 1938.125;  173.525;    0.000
949.061; 1911.125;  207.525;    0.000
949.232; 1886.125;  176.525;    0.000
949.403; 1892.125;  152.525;    0.000
949.573; 1823.125;  186.525;    0.000
949.744; 1856.125;  181.525;    0.000
949.914; 1860.125;  174.525;    0.000
950.085; 1850.125;  146.525;    0.000
950.255; 1827.125;  162.525;    0.000
950.425; 1932.125;  189.525;    0.000
950.596; 1951.125;  175.525;    0.000
950.766; 1847.125;  209.525;    0.000
950.936; 1844.125;  201.525;    0.000
951.107; 1884.125;  141.525;    0.000
951.277; 1909.125;  211.525;    0.000
951.447; 1908.125;  218.525;    0.000
951.617; 1852.125;  191.525;    0.000
951.788; 1913.125;  193.525;    0.000
951.958; 1897.125;  217.525;    0.000
952.128; 1893.125;  192.525;    0.000
952.298; 1861.125;  237.525;    0.000
952.468; 1889.125;  194.525;    0.000
952.638; 1833.125;  201.525;    0.000
952.808; 1861.125;  203.525;    0.000
952.978; 1855.125;  216.525;    0.000
953.148; 1795.125;  209.525;    0.000
953.318; 1905.125;  213.525;    0.000
953.488; 1783.125;  161.525;    0.000
953.658; 1797.125;  222.525;    0.000
953.828; 1828.125;  196.525;    0.000
953.998; 1794.125;  227.525;    0.000
954.167; 1809.125;  163.525;    0.000
954.337; 1768.125;  201.525;    0.000
954.507; 1773.125;  227.525;    0.000
954.677; 1849.125;  204.525;    0.000
954.846; 1810.125;  210.525;    0.000
955.016; 1791.125;  198.525;    0.000
955.186; 1777.125;  203.525;    0.000
955.355; 1801.125;  198.525;    0.000
955.525; 1753.125;  198.525;    0.000
955.695; 1708.125;  187.525;    0.000
955.864; 1768.125;  243.525;    0.000
956.034; 1785.125;  192.525;    0.000
956.203; 1825.125;  259.525;    0.000
956.373; 1773.125;  185.525;    0.000
956.542; 1725.125;  230.525;    0.000
956.711; 1755.125;  218.525;    0.000
956.881; 1831.125;  232.525;    0.000
957.050; 1761.125;  246.525;    0.000
957.220; 1745.125;  229.525;    0.000
957.389; 1763.125;  211.525;    0.000
957.558; 1748.125;  173.525;    0.000
957.727; 1712.125;  226.525;    0.000
957.897; 1709.125;  209.525;    0.000
958.066; 1669.125;  217.525;    0.000
958.235; 1722.125;  160.525;    0.000
958.404; 1693.125;  199.525;    0.000
958.573; 1711.125;  223.525;    0.000
958.743; 1699.125;  189.525;    0.000
958.912; 1693.125;  199.525;    0.000
959.081; 1694.125;  216.525;    0.000
959.250; 1639.125;  192.525;    0.000
959.419; 1740.125;  216.525;    0.000
959.588; 1672.125;  209.525;    0.000
959.757; 1673.125;  194.525;    0.000
959.926; 1708.125;  200.525;    0.000
960.094; 1652.125;  174.525;    0.000
960.263; 1649.125;  218.525;    0.000
960.432; 1647.125;  173.525;    0.000
960.601; 1639.125;  177.525;    0.000
960.770; 1573.125;  188.525;    0.000
960.939; 1675.125;  167.525;    0.000
961.107; 1601.125;  195.525;    0.000
961.276; 1548.125;  183.525;    0.000
961.445; 1660.125;  195.525;    0.000
961.613; 1631.125;  198.525;    0.000
961.782; 1696.125;  224.525;    0.000
961.951; 1659.125;  178.525;    0.000
962.119; 1633.125;  214.525;    0.000
962.288; 1659.125;  174.525;    0.000
962.456; 1616.125;  197.525;    0.000
962.625; 1717.125;  212.525;    0.000
962.793; 1700.125;  183.525;    0.000
962.962; 1617.125;  189.525;    0.000
963.130; 1676.125;  151.525;    0.000
963.298; 1583.125;  197.525;    0.000
963.467; 1675.125;  202.525;    0.000
963.635; 1657.125;  172.525;    0.000
963.803; 1693.125;  203.525;    0.000
963.972; 1741.125;  204.525;    0.000
964.140; 1602.125;  193.525;    0.000
964.308; 1634.125;  159.525;    0.000
964.477; 1681.125;  142.525;    0.000
964.645; 1697.125;  202.525;    0.000
964.813; 1603.125;  158.525;    0.000
964.981; 1592.125;  179.525;    0.000
965.149; 1678.125;  176.525;    0.000
965.317; 1687.125;  229.525;    0.000
965.485; 1625.125;  179.525;    0.000
965.653; 1654.125;  205.525;    0.000
965.821; 1699.125;  196.525;    0.000
965.989; 1618.125;  202.525;    0.000
966.157; 1634.125;  199.525;    0.000
966.325; 1637.125;  178.525;    0.000
966.493; 1654.125;  177.525;    0.000
966.661; 1616.125;  172.525;    0.000
966.829; 1608.125;  167.525;    0.000
966.996; 1610.125;  202.525;    0.000
967.164; 1703.125;  175.525;    0.000
967.332; 1688.125;  207.525;    0.000
967.500; 1619.125;  170.525;    0.000
967.667; 1639.125;  222.525;    0.000
967.835; 1710.125;  245.525;    0.000
968.003; 1614.125;  180.525;    0.000
968.170; 1597.125;  222.525;    0.000
968.338; 1590.125;  183.525;    0.000
968.505; 1660.125;  197.525;    0.000
968.673; 1560.125;  209.525;    0.000
968.841; 1658.125;  162.525;    0.000
969.008; 1665.125;  187.525;    0.000
969.175; 1600.125;  204.525;    0.000
969.343; 1537.125;  157.525;    0.000
969.510; 1633.125;  189.525;    0.000
969.678; 1550.125;  153.525;    0.000
969.845; 1609.125;  190.525;    0.000
970.012; 1607.125;  162.525;    0.000
970.180; 1621.125;  223.525;    0.000
970.347; 1615.125;  195.525;    0.000
970.514; 1624.125;  185.525;    0.000
970.681; 1649.125;  187.525;    0.000
970.849; 1610.125;  183.525;    0.000
971.016; 1561.125;  168.525;    0.000
971.183; 1648.125;  160.525;    0.000
971.350; 1613.125;  193.525;    0.000
971.517; 1727.125;  202.525;    0.000
971.684; 1684.125;  242.525;    0.000
971.851; 1599.125;  192.525;    0.000
972.018; 1641.125;  194.525;    0.000
972.185; 1631.125;  193.525;    0.000
972.352; 1620.125;  187.525;    0.000
972.519; 1557.125;  233.525;    0.000
972.686; 1644.125;  186.525;    0.000
972.853; 1613.125;  165.525;    0.000
973.020; 1670.125;  183.525;    0.000
973.186; 1573.125;  186.525;    0.000
973.353; 1651.125;  177.525;    0.000
973.520; 1685.125;  203.525;    0.000
973.687; 1591.125;  211.525;    0.000
973.853; 1634.125;  194.525;    0.000
974.020; 1695.125;  201.525;    0.000
974.187; 1662.125;  187.525;    0.000
974.353; 1633.125;  188.525;    0.000
974.520; 1540.125;  136.525;    0.000
974.687; 1632.125;  169.525;    0.000
974.853; 1640.125;  207.525;    0.000
975.020; 1594.125;  190.525;    0.000
975.186; 1591.125;  182.525;    0.000
975.353; 1609.125;  202.525;    0.000
975.519; 1519.125;  189.525;    0.000
975.685; 1563.125;  176.525;    0.000
975.852; 1562.125;  175.525;    0.000
976.018; 1554.125;  155.525;    0.000
976.184; 1633.125;  179.525;    0.000
976.351; 1606.125;  191.525;    0.000
976.517; 1600.125;  246.525;    0.000
976.683; 1594.125;  222.525;    0.000
976.849; 1568.125;  216.525;    0.000
977.016; 1503.125;  212.525;    0.000
977.182; 1562.125;  192.525;    0.000
977.348; 1523.125;  145.525;    0.000
977.514; 1576.125;  195.525;    0.000
977.680; 1531.125;  210.525;    0.000
977.846; 1600.125;  172.525;    0.000
978.012; 1542.125;  190.525;    0.000
978.178; 1534.125;  201.525;    0.000
978.344; 1567.125;  190.525;    0.000
978.510; 1556.125;  199.525;    0.000
978.676; 1487.125;  174.525;    0.000
978.842; 1566.125;  195.525;    0.000
979.008; 1572.125;  205.525;    0.000
979.174; 1564.125;  187.525;    0.000
979.340; 1573.125;  194.525;    0.000
979.505; 1542.125;  221.525;    0.000
979.671; 1604.125;  178.525;    0.000
979.837; 1535.125;  215.525;    0.000
980.003; 1521.125;  176.525;    0.000
980.168; 1631.125;  185.525;    0.000
980.334; 1610.125;  165.525;    0.000
980.499; 1571.125;  231.525;    0.000
980.665; 1610.125;  238.525;    0.000
980.831; 1545.125;  194.525;    0.000
980.996; 1614.125;  169.525;    0.000
981.162; 1546.125;  199.525;    0.000
981.327; 1576.125;  158.525;    0.000
981.493; 1562.125;  193.525;    0.000
981.658; 1543.125;  181.525;    0.000
981.823; 1616.125;  199.525;    0.000
981.989; 1574.125;  186.525;    0.000
982.154; 1559.125;  225.525;    0.000
982.319; 1652.125;  191.525;    0.000
982.485; 1604.125;  205.525;    0.000
982.650; 1581.125;  234.525;    0.000
982.815; 1570.125;  193.525;    0.000
982.980; 1726.125;  177.525;    0.000
983.146; 1639.125;  212.525;    0.000
983.311; 1525.125;  177.525;    0.000
983.476; 1543.125;  185.525;    0.000
983.641; 1582.125;  149.525;    0.000
983.806; 1618.125;  175.525;    0.000
983.971; 1652.125;  234.525;    0.000
984.136; 1603.125;  191.525;    0.000
984.301; 1508.125;  215.525;    0.000
984.466; 1578.125;  207.525;    0.000
984.631; 1604.125;  206.525;    0.000
984.796; 1557.125;  229.525;    0.000
984.961; 1652.125;  220.525;    0.000
985.126; 1557.125;  204.525;    0.000
985.291; 1616.125;  210.525;    0.000
985.455; 1525.125;  193.525;    0.000
985.620; 1529.125;  207.525;    0.000
985.785; 1509.125;  188.525;    0.000
985.950; 1585.125;  168.525;    0.000
986.114; 1619.125;  239.525;    0.000
986.279; 1543.125;  223.525;    0.000
986.444; 1579.125;  154.525;    0.000
986.608; 1679.125;  232.525;    0.000
986.773; 1627.125;  214.525;    0.000
986.937; 1718.125;  220.525;    0.000
987.102; 1608.125;  224.525;    0.000
987.266; 1584.125;  157.525;    0.000
987.431; 1602.125;  246.525;    0.000
987.595; 1698.125;  203.525;    0.000
987.760; 1664.125;  202.525;    0.000
987.924; 1603.125;  208.525;    0.000
988.088; 1595.125;  169.525;    0.000
988.253; 1578.125;  237.525;    0.000
988.417; 1536.125;  202.525;    0.000
988.581; 1575.125;  215.525;    0.000
988.746; 1584.125;  210.525;    0.000
988.910; 1584.125;  191.525;    0.000
989.074; 1568.125;  197.525;    0.000
989.238; 1545.125;  191.525;    0.000
989.402; 1596.125;  222.525;    0.000
989.566; 1633.125;  221.525;    0.000
989.731; 1571.125;  216.525;    0.000
989.895; 1547.125;  183.525;    0.000
990.059; 1459.125;  150.525;    0.000
990.223; 1489.125;  183.525;    0.000
990.387; 1553.125;  241.525;    0.000
990.551; 1516.125;  198.525;    0.000
990.714; 1578.125;  176.525;    0.000
990.878; 1542.125;  203.525;    0.000
991.042; 1541.125;  146.525;    0.000
991.206; 1571.125;  199.525;    0.000
991.370; 1533.125;  223.525;    0.000
991.534; 1520.125;  158.525;    0.000
991.697; 1600.125;  182.525;    0.000
991.861; 1543.125;  195.525;    0.000
992.025; 1562.125;  206.525;    0.000
992.188; 1505.125;  174.525;    0.000
992.352; 1547.125;  183.525;    0.000
992.516; 1481.125;  181.525;    0.000
992.679; 1506.125;  162.525;    0.000
992.843; 1564.125;  173.525;    0.000
993.006; 1529.125;  189.525;    0.000
993.170; 1576.125;  200.525;    0.000
993.333; 1495.125;  167.525;    0.000
993.497; 1586.125;  217.525;    0.000
993.660; 1599.125;  179.525;    0.000
993.824; 1563.125;  195.525;    0.000
993.987; 1603.125;  186.525;    0.000
994.150; 1526.125;  164.525;    0.000
994.314; 1542.125;  215.525;    0.000
994.477; 1546.125;  186.525;    0.000
994.640; 1460.125;  192.525;    0.000
994.803; 1584.125;  215.525;    0.000
994.967; 1558.125;  208.525;    0.000
995.130; 1564.125;  196.525;    0.000
995.293; 1486.125;  221.525;    0.000
995.456; 1479.125;  164.525;    0.000
995.619; 1563.125;  224.525;    0.000
995.782; 1552.125;  184.525;    0.000
995.945; 1597.125;  220.525;    0.000
996.108; 1590.125;  187.525;    0.000
996.271; 1602.125;  192.525;    0.000
996.434; 1610.125;  162.525;    0.000
996.597; 1561.125;  148.525;    0.000
996.760; 1515.125;  186.525;    0.000
996.923; 1518.125;  154.525;    0.000
997.086; 1550.125;  156.525;    0.000
997.248; 1594.125;  215.525;    0.000
997.411; 1477.125;  160.525;    0.000
997.574; 1540.125;  159.525;    0.000
997.737; 1492.125;  179.525;    0.000
997.899; 1548.125;  184.525;    0.000
998.062; 1528.125;  180.525;    0.000
998.225; 1563.125;  168.525;    0.000
998.387; 1447.125;  192.525;    0.000
998.550; 1497.125;  178.525;    0.000
998.712; 1441.125;  192.525;    0.000
998.875; 1547.125;  230.525;    0.000
999.037; 1476.125;  200.525;    0.000
999.200; 1526.125;  196.525;    0.000
999.362; 1527.125;  173.525;    0.000
999.525; 1527.125;  196.525;    0.000
999.687; 1504.125;  159.525;    0.000
999.849; 1539.125;  180.525;    0.000
1000.012; 1530.125;  210.525;    0.000
1000.174; 1454.125;  175.525;    0.000
1000.336; 1576.125;  174.525;    0.000
1000.499; 1505.125;  180.525;    0.000
1000.661; 1558.125;  204.525;    0.000
1000.823; 1520.125;  181.525;    0.000
1000.985; 1606.125;  178.525;    0.000
1001.147; 1615.125;  215.525;    0.000
1001.309; 1571.125;  212.525;    0.000
1001.471; 1612.125;  192.525;    0.000
1001.633; 1593.125;  207.525;    0.000
1001.796; 1578.125;  211.525;    0.000
1001.958; 1662.125;  200.525;    0.000
1002.119; 1672.125;  210.525;    0.000
1002.281; 1755.125;  204.525;    0.000
1002.443; 1685.125;  230.525;    0.000
1002.605; 1868.125;  178.525;    0.000
1002.767; 1938.125;  228.525;    0.000
1002.929; 2041.125;  199.525;    0.000
1003.091; 2086.125;  220.525;    0.000
1003.252; 2191.125;  219.525;    0.000
1003.414; 2317.125;  213.525;    0.000
1003.576; 2348.125;  202.525;    0.000
1003.738; 2443.125;  184.525;    0.000
1003.899; 2554.125;  218.525;    0.000
1004.061; 2670.125;  210.525;    0.000
1004.222; 2765.125;  179.525;    0.000
1004.384; 2937.125;  183.525;    0.000
1004.546; 2982.125;  206.525;    0.000
1004.707; 2944.125;  191.525;    0.000
1004.869; 3034.125;  197.525;    0.000
1005.030; 2935.125;  186.525;    0.000
1005.191; 2911.125;  188.525;    0.000
1005.353; 2888.125;  215.525;    0.000
1005.514; 2719.125;  184.525;    0.000
1005.675; 2632.125;  209.525;    0.000
1005.837; 2568.125;  239.525;    0.000
1005.998; 2542.125;  218.525;    0.000
1006.159; 2441.125;  212.525;    0.000
1006.321; 2448.125;  220.525;    0.000
1006.482; 2501.125;  201.525;    0.000
1006.643; 2671.125;  222.525;    0.000
1006.804; 2764.125;  191.525;    0.000
1006.965; 2913.125;  214.525;    0.000
1007.126; 2827.125;  214.525;    0.000
1007.287; 2889.125;  243.525;    0.000
1007.448; 2922.125;  251.525;    0.000
1007.609; 2767.125;  244.525;    0.000
1007.770; 2623.125;  211.525;    0.000
1007.931; 2634.125;  225.525;    0.000
1008.092; 2601.125;  188.525;    0.000
1008.253; 2812.125;  224.525;    0.000
1008.414; 2798.125;  198.525;    0.000
1008.575; 2976.125;  244.525;    0.000
1008.736; 2878.125;  219.525;    0.000
1008.896; 2891.125;  206.525;    0.000
1009.057; 2781.125;  258.525;    0.000
1009.218; 2806.125;  209.525;    0.000
1009.379; 2781.125;  204.525;    0.000
1009.539; 2884.125;  242.525;    0.000
1009.700; 2960.125;  205.525;    0.000
1009.860; 2909.125;  211.525;    0.000
1010.021; 2838.125;  219.525;    0.000
1010.182; 2855.125;  206.525;    0.000
1010.342; 2877.125;  219.525;    0.000
1010.503; 2965.125;  231.525;    0.000
1010.663; 3117.125;  260.525;    0.000
1010.823; 3168.125;  200.525;    0.000
1010.984; 3210.125;  189.525;    0.000
1011.144; 3105.125;  234.525;    0.000
1011.305; 3295.125;  212.525;    0.000
1011.465; 3385.125;  202.525;    0.000
1011.625; 3427.125;  236.525;    0.000
1011.785; 3410.125;  203.525;    0.000
1011.946; 3397.125;  195.525;    0.000
1012.106; 3428.125;  176.525;    0.000
1012.266; 3435.125;  211.525;    0.000
1012.426; 3420.125;  244.525;    0.000
1012.586; 3492.125;  202.525;    0.000
1012.746; 3465.125;  234.525;    0.000
1012.906; 3291.125;  246.525;    0.000
1013.066; 3496.125;  232.525;    0.000
1013.226; 3559.125;  248.525;    0.000
1013.386; 3461.125;  231.525;    0.000
1013.546; 3359.125;  233.525;    0.000
1013.706; 3298.125;  211.525;    0.000
1013.866; 3365.125;  240.525;    0.000
1014.026; 3374.125;  188.525;    0.000
1014.186; 3383.125;  186.525;    0.000
1014.346; 3340.125;  203.525;    0.000
1014.505; 3482.125;  238.525;    0.000
1014.665; 3629.125;  206.525;    0.000
1014.825; 3454.125;  200.525;    0.000
1014.985; 3322.125;  215.525;    0.000
1015.144; 3535.125;  250.525;    0.000
1015.304; 4060.125;  195.525;    0.000
1015.464; 3705.125;  237.525;    0.000
1015.623; 3570.125;  232.525;    0.000
1015.783; 4064.125;  220.525;    0.000
1015.942; 4520.125;  219.525;    0.000
1016.102; 4325.125;  202.525;    0.000
1016.261; 4043.125;  225.525;    0.000
1016.420; 4518.125;  246.525;    0.000
1016.580; 5125.125;  226.525;    0.000
1016.739; 4975.125;  214.525;    0.000
1016.899; 4615.125;  205.525;    0.000
1017.058; 4826.125;  217.525;    0.000
1017.217; 5320.125;  199.525;    0.000
1017.376; 5133.125;  219.525;    0.000
1017.536; 4448.125;  209.525;    0.000
1017.695; 4460.125;  213.525;    0.000
1017.854; 4652.125;  187.525;    0.000
1018.013; 4609.125;  222.525;    0.000
1018.172; 4439.125;  204.525;    0.000
1018.331; 4235.125;  195.525;    0.000
1018.490; 4529.125;  213.525;    0.000
1018.649; 5023.125;  216.525;    0.000
1018.808; 5223.125;  227.525;    0.000
1018.967; 5110.125;  206.525;    0.000
1019.126; 4916.125;  206.525;    0.000
1019.285; 5157.125;  219.525;    0.000
1019.444; 5272.125;  218.525;    0.000
1019.603; 4942.125;  206.525;    0.000
1019.762; 4666.125;  189.525;    0.000
1019.921; 4767.125;  217.525;    0.000
1020.079; 4877.125;  200.525;    0.000
1020.238; 5673.125;  219.525;    0.000
1020.397; 5404.125;  227.525;    0.000
1020.555; 4746.125;  207.525;    0.000
1020.714; 4946.125;  253.525;    0.000
1020.873; 5455.125;  230.525;    0.000
1021.031; 5535.125;  232.525;    0.000
1021.190; 5001.125;  226.525;    0.000
1021.348; 4820.125;  224.525;    0.000
1021.507; 5228.125;  215.525;    0.000
1021.665; 5838.125;  233.525;    0.000
1021.824; 5590.125;  196.525;    0.000
1021.982; 5177.125;  215.525;    0.000
1022.141; 4961.125;  200.525;    0.000
1022.299; 5665.125;  200.525;    0.000
1022.457; 6054.125;  179.525;    0.000
1022.616; 5618.125;  226.525;    0.000
1022.774; 5019.125;  216.525;    0.000
1022.932; 5263.125;  212.525;    0.000
1023.090; 5931.125;  220.525;    0.000
1023.249; 6054.125;  194.525;    0.000
1023.407; 5710.125;  227.525;    0.000
1023.565; 5162.125;  190.525;    0.000
1023.723; 5446.125;  190.525;    0.000
1023.881; 6002.125;  214.525;    0.000
1024.039; 6082.125;  179.525;    0.000
1024.197; 5466.125;  274.525;    0.000
1024.355; 5454.125;  269.525;    0.000
1024.513; 5540.125;  259.525;    0.000
1024.671; 6254.125;  211.525;    0.000
1024.829; 6058.125;  230.525;    0.000
1024.987; 5750.125;  239.525;    0.000
1025.145; 5474.125;  231.525;    0.000
1025.302; 5643.125;  212.525;    0.000
1025.460; 6268.125;  224.525;    0.000
1025.618; 6126.125;  217.525;    0.000
1025.776; 6106.125;  232.525;    0.000
1025.933; 5534.125;  212.525;    0.000
1026.091; 5710.125;  214.525;    0.000
1026.249; 6191.125;  224.525;    0.000
1026.406; 6464.125;  219.525;    0.000
1026.564; 6172.125;  262.525;    0.000
1026.721; 5756.125;  206.525;    0.000
1026.879; 5468.125;  227.525;    0.000
1027.036; 6300.125;  234.525;    0.000
1027.194; 6609.125;  256.525;    0.000
1027.351; 6725.125;  229.525;    0.000
1027.509; 6033.125;  253.525;    0.000
1027.666; 5817.125;  248.525;    0.000
1027.823; 6181.125;  215.525;    0.000
1027.981; 6475.125;  248.525;    0.000
1028.138; 6849.125;  257.525;    0.000
1028.295; 6381.125;  215.525;    0.000
1028.452; 5891.125;  236.525;    0.000
1028.609; 5929.125;  240.525;    0.000
1028.767; 6532.125;  258.525;    0.000
1028.924; 6747.125;  211.525;    0.000
1029.081; 6677.125;  226.525;    0.000
1029.238; 6460.125;  228.525;    0.000
1029.395; 5931.125;  264.525;    0.000
1029.552; 6269.125;  227.525;    0.000
1029.709; 6816.125;  232.525;    0.000
1029.866; 7003.125;  223.525;    0.000
1030.023; 6635.125;  220.525;    0.000
1030.180; 6030.125;  222.525;    0.000
1030.337; 6121.125;  224.525;    0.000
1030.494; 6321.125;  228.525;    0.000
1030.650; 6964.125;  242.525;    0.000
1030.807; 7332.125;  214.525;    0.000
1030.964; 6808.125;  207.525;    0.000
1031.121; 6509.125;  236.525;    0.000
1031.277; 6165.125;  206.525;    0.000
1031.434; 6563.125;  249.525;    0.000
1031.591; 7321.125;  253.525;    0.000
1031.747; 7249.125;  240.525;    0.000
1031.904; 7349.125;  212.525;    0.000
1032.060; 6909.125;  185.525;    0.000
1032.217; 6788.125;  201.525;    0.000
1032.373; 7401.125;  207.525;    0.000
1032.530; 7449.125;  226.525;    0.000
1032.686; 8233.125;  226.525;    0.000
1032.843; 8241.125;  203.525;    0.000
1032.999; 7721.125;  233.525;    0.000
1033.155; 7897.125;  232.525;    0.000
1033.312; 7761.125;  239.525;    0.000
1033.468; 9071.125;  207.525;    0.000
1033.624; 9659.125;  238.525;    0.000
1033.780;10295.125;  255.525;    0.000
1033.937; 9899.125;  188.525;    0.000
1034.093; 9367.125;  244.525;    0.000
1034.249; 9248.125;  182.525;    0.000
1034.405; 9328.125;  251.525;    0.000
1034.561;10080.125;  250.525;    0.000
1034.717;10952.125;  208.525;    0.000
1034.873;10270.125;  210.525;    0.000
1035.029;10605.125;  245.525;    0.000
1035.185; 9749.125;  230.525;    0.000
1035.341; 9623.125;  209.525;    0.000
1035.497;10689.125;  244.525;    0.000
1035.653;10692.125;  229.525;    0.000
1035.809;12001.125;  275.525;    0.000
1035.964;12825.125;  203.525;    0.000
1036.120;11764.125;  215.525;    0.000
1036.276;12109.125;  228.525;    0.000
1036.432;11669.125;  183.525;    0.000
1036.587;10913.125;  214.525;    0.000
1036.743;12285.125;  240.525;    0.000
1036.899;13075.125;  202.525;    0.000
1037.054;13103.125;  182.525;    0.000
1037.210;14555.125;  228.525;    0.000
1037.365;14001.125;  239.525;    0.000
1037.521;13209.125;  230.525;    0.000
1037.676;13194.125;  217.525;    0.000
1037.832;12318.125;  235.525;    0.000
1037.987;12702.125;  210.525;    0.000
1038.143;12833.125;  206.525;    0.000
1038.298;14719.125;  177.525;    0.000
1038.453;14528.125;  215.525;    0.000
1038.609;15500.125;  210.525;    0.000
1038.764;15920.125;  227.525;    0.000
1038.919;14789.125;  197.525;    0.000
1039.074;14452.125;  183.525;    0.000
1039.229;13015.125;  218.525;    0.000
1039.385;13273.125;  251.525;    0.000
1039.540;13757.125;  222.525;    0.000
1039.695;14953.125;  215.525;    0.000
1039.850;16537.125;  204.525;    0.000
1040.005;17520.125;  241.525;    0.000
1040.160;18421.125;  180.525;    0.000
1040.315;17751.125;  197.525;    0.000
1040.470;16579.125;  180.525;    0.000
1040.625;15719.125;  196.525;    0.000
1040.780;15571.125;  245.525;    0.000
1040.935;15699.125;  204.525;    0.000
1041.089;16704.125;  213.525;    0.000
1041.244;19202.125;  200.525;    0.000
1041.399;20350.125;  212.525;    0.000
1041.554;21498.125;  239.525;    0.000
1041.708;22672.125;  238.525;    0.000
1041.863;23131.125;  213.525;    0.000
1042.018;21936.125;  236.525;    0.000
1042.172;20642.125;  238.525;    0.000
1042.327;19192.125;  254.525;    0.000
1042.481;20273.125;  197.525;    0.000
1042.636;20886.125;  205.525;    0.000
1042.791;20789.125;  218.525;    0.000
1042.945;24224.125;  261.525;    0.000
1043.099;26399.125;  201.525;    0.000
1043.254;25901.125;  191.525;    0.000
1043.408;26728.125;  279.525;    0.000
1043.563;28701.125;  203.525;    0.000
1043.717;26387.125;  229.525;    0.000
1043.871;25098.125;  213.525;    0.000
1044.025;24955.125;  240.525;    0.000
1044.180;23537.125;  220.525;    0.000
1044.334;23933.125;  268.525;    0.000
1044.488;25382.125;  261.525;    0.000
1044.642;27172.125;  205.525;    0.000
1044.796;29244.125;  240.525;    0.000
1044.950;33535.125;  258.525;    0.000
1045.104;36175.125;  218.525;    0.000
1045.258;35884.125;  213.525;    0.000
1045.412;35019.125;  223.525;    0.000
1045.566;33883.125;  240.525;    0.000
1045.720;32234.125;  235.525;    0.000
1045.874;30292.125;  221.525;    0.000
1046.028;28997.125;  247.525;    0.000
1046.182;29012.125;  200.525;    0.000
1046.336;29468.125;  220.525;    0.000
1046.489;29776.125;  228.525;    0.000
1046.643;30609.125;  249.525;    0.000
1046.797;33945.125;  230.525;    0.000
1046.951;35307.125;  234.525;    0.000
1047.104;35915.125;  262.525;    0.000
1047.258;36875.125;  210.525;    0.000
1047.411;39659.125;  235.525;    0.000
1047.565;39847.125;  237.525;    0.000
1047.719;37794.125;  237.525;    0.000
1047.872;35944.125;  225.525;    0.000
1048.026;33396.125;  237.525;    0.000
1048.179;34568.125;  220.525;    0.000
1048.332;34676.125;  219.525;    0.000
1048.486;33238.125;  195.525;    0.000
1048.639;33425.125;  213.525;    0.000
1048.792;34729.125;  245.525;    0.000
1048.946;38185.125;  234.525;    0.000
1049.099;39547.125;  226.525;    0.000
1049.252;41366.125;  282.525;    0.000
1049.406;38043.125;  255.525;    0.000
1049.559;41175.125;  223.525;    0.000
1049.712;46305.125;  253.525;    0.000
1049.865;48924.125;  271.525;    0.000
1050.018;47140.125;  241.525;    0.000
1050.171;42008.125;  202.525;    0.000
1050.324;41398.125;  250.525;    0.000
1050.477;42923.125;  251.525;    0.000
1050.630;45951.125;  216.525;    0.000
1050.783;46133.125;  205.525;    0.000
1050.936;44109.125;  219.525;    0.000
1051.089;42064.125;  247.525;    0.000
1051.242;42362.125;  238.525;    0.000
1051.394;48974.125;  252.525;    0.000
1051.547;52031.125;  245.525;    0.000
1051.700;47853.125;  206.525;    0.000
1051.853;45739.125;  270.525;    0.000
1052.005;49056.125;  245.525;    0.000
1052.158;52916.125;  290.525;    0.000
1052.311;55914.125;  237.525;    0.000
1052.463;53535.125;  271.525;    0.000
1052.616;48310.125;  255.525;    0.000
1052.768;43875.125;  257.525;    0.000
1052.921;42853.125;  289.525;    0.000
1053.073;46710.125;  287.525;    0.000
1053.226;52302.125;  268.525;    0.000
1053.378;59722.125;  294.525;    0.000
1053.531;62632.125;  255.525;    0.000
1053.683;58435.125;  293.525;    0.000
1053.835;53026.125;  274.525;    0.000
1053.988;40414.125;  282.525;    0.000
1054.140; 7262.125;  291.525;    0.000
1054.292; 1711.125;  292.525;    0.000
1054.444; 1282.125;  299.525;    0.000
1054.596; 1166.125;  319.525;    0.000
1054.749; 1110.125;  295.525;    0.000
1054.901; 1034.125;  266.525;    0.000
1055.053;  950.125;  300.525;    0.000
1055.205;  996.125;  290.525;    0.000
1055.357;  922.125;  304.525;    0.000
1055.509;  856.125;  292.525;    0.000
1055.661;  868.125;  339.525;    0.000
1055.813;  814.125;  306.525;    0.000
1055.965;  823.125;  293.525;    0.000
1056.116;  744.125;  300.525;    0.000
1056.268;  767.125;  306.525;    0.000
1056.420;  829.125;  288.525;    0.000

