
Integration time [ms]:   0.300
Averaging Nr. [scans]: 1
Smoothing Nr. [pixels]: 0
Data measured with spectrometer [name]: UV2
Wave   ;Sample   ;Dark     ;Reference
[nm]   ;[counts] ;[counts] ;[counts] 

353.533;  233.100;  178.050;    0.000
353.597;  261.100;  251.050;    0.000
353.660;  192.100;  213.050;    0.000
353.723;  195.100;  185.050;    0.000
353.786;  181.100;  191.050;    0.000
353.850;  252.100;  238.050;    0.000
353.913;  194.100;  181.050;    0.000
353.976;  221.100;  190.050;    0.000
354.039;  163.100;  184.050;    0.000
354.102;  228.100;  231.050;    0.000
354.166;  189.100;  188.050;    0.000
354.229;  206.100;  224.050;    0.000
354.292;  212.100;  186.050;    0.000
354.355;  189.100;  175.050;    0.000
354.418;  193.100;  191.050;    0.000
354.481;  210.100;  181.050;    0.000
354.545;  710.100;  193.050;    0.000
354.608;  765.100;  210.050;    0.000
354.671;  692.100;  183.050;    0.000
354.734;  788.100;  189.050;    0.000
354.797;  722.100;  168.050;    0.000
354.860;  834.100;  178.050;    0.000
354.923;  842.100;  236.050;    0.000
354.986;  783.100;  181.050;    0.000
355.050;  817.100;  168.050;    0.000
355.113;  840.100;  201.050;    0.000
355.176;  906.100;  206.050;    0.000
355.239;  870.100;  213.050;    0.000
355.302;  891.100;  198.050;    0.000
355.365;  886.100;  199.050;    0.000
355.428;  913.100;  200.050;    0.000
355.491;  884.100;  232.050;    0.000
355.554;  930.100;  184.050;    0.000
355.617;  911.100;  214.050;    0.000
355.680;  914.100;  191.050;    0.000
355.743;  922.100;  161.050;    0.000
355.806;  953.100;  153.050;    0.000
355.869;  960.100;  221.050;    0.000
355.932;  953.100;  152.050;    0.000
355.995;  970.100;  195.050;    0.000
356.058;  988.100;  172.050;    0.000
356.121;  992.100;  186.050;    0.000
356.184;  997.100;  196.050;    0.000
356.247; 1040.100;  183.050;    0.000
356.310;  944.100;  159.050;    0.000
356.373; 1067.100;  183.050;    0.000
356.436; 1085.100;  176.050;    0.000
356.498; 1100.100;  191.050;    0.000
356.561;  963.100;  145.050;    0.000
356.624; 1069.100;  187.050;    0.000
356.687; 1049.100;  181.050;    0.000
356.750; 1018.100;  227.050;    0.000
356.813; 1037.100;  147.050;    0.000
356.876; 1037.100;  184.050;    0.000
356.939; 1046.100;  141.050;    0.000
357.001; 1096.100;  188.050;    0.000
357.064; 1040.100;  173.050;    0.000
357.127; 1078.100;  159.050;    0.000
357.190; 1076.100;  185.050;    0.000
357.253; 1092.100;  180.050;    0.000
357.316; 1113.100;  199.050;    0.000
357.378; 1073.100;  196.050;    0.000
357.441; 1066.100;  175.050;    0.000
357.504; 1063.100;  164.050;    0.000
357.567; 1041.100;  145.050;    0.000
357.629; 1114.100;  205.050;    0.000
357.692; 1062.100;  175.050;    0.000
357.755; 1144.100;  205.050;    0.000
357.818; 1079.100;  141.050;    0.000
357.880; 1074.100;  170.050;    0.000
357.943; 1134.100;  152.050;    0.000
358.006; 1082.100;  145.050;    0.000
358.069; 1075.100;  164.050;    0.000
358.131; 1139.100;  148.050;    0.000
358.194; 1110.100;  122.050;    0.000
358.257; 1114.100;  147.050;    0.000
358.319; 1154.100;  156.050;    0.000
358.382; 1151.100;  193.050;    0.000
358.445; 1203.100;  155.050;    0.000
358.507; 1150.100;  160.050;    0.000
358.570; 1134.100;  159.050;    0.000
358.633; 1122.100;  163.050;    0.000
358.695; 1105.100;  174.050;    0.000
358.758; 1179.100;  127.050;    0.000
358.821; 1120.100;  165.050;    0.000
358.883; 1112.100;  145.050;    0.000
358.946; 1194.100;  127.050;    0.000
359.008; 1146.100;  180.050;    0.000
359.071; 1159.100;  173.050;    0.000
359.134; 1199.100;  150.050;    0.000
359.196; 1123.100;  158.050;    0.000
359.259; 1234.100;  159.050;    0.000
359.321; 1164.100;  159.050;    0.000
359.384; 1199.100;  182.050;    0.000
359.446; 1179.100;  140.050;    0.000
359.509; 1179.100;  146.050;    0.000
359.571; 1230.100;  133.050;    0.000
359.634; 1179.100;   93.050;    0.000
359.696; 1195.100;  142.050;    0.000
359.759; 1231.100;  161.050;    0.000
359.821; 1191.100;  110.050;    0.000
359.884; 1234.100;  114.050;    0.000
359.946; 1279.100;  180.050;    0.000
360.009; 1191.100;  158.050;    0.000
360.071; 1177.100;  116.050;    0.000
360.134; 1259.100;  170.050;    0.000
360.196; 1212.100;  128.050;    0.000
360.259; 1227.100;  157.050;    0.000
360.321; 1243.100;  122.050;    0.000
360.384; 1236.100;  119.050;    0.000
360.446; 1221.100;  122.050;    0.000
360.508; 1235.100;  195.050;    0.000
360.571; 1279.100;  128.050;    0.000
360.633; 1211.100;  172.050;    0.000
360.696; 1157.100;  115.050;    0.000
360.758; 1250.100;  162.050;    0.000
360.820; 1235.100;  149.050;    0.000
360.883; 1205.100;  151.050;    0.000
360.945; 1311.100;  149.050;    0.000
361.007; 1282.100;  135.050;    0.000
361.070; 1266.100;  162.050;    0.000
361.132; 1255.100;  198.050;    0.000
361.194; 1290.100;  141.050;    0.000
361.257; 1247.100;  154.050;    0.000
361.319; 1206.100;  147.050;    0.000
361.381; 1346.100;  154.050;    0.000
361.443; 1217.100;  144.050;    0.000
361.506; 1326.100;  164.050;    0.000
361.568; 1289.100;  148.050;    0.000
361.630; 1272.100;  127.050;    0.000
361.693; 1222.100;  158.050;    0.000
361.755; 1286.100;  161.050;    0.000
361.817; 1360.100;  173.050;    0.000
361.879; 1278.100;  159.050;    0.000
361.941; 1289.100;  153.050;    0.000
362.004; 1324.100;  148.050;    0.000
362.066; 1244.100;  150.050;    0.000
362.128; 1291.100;  132.050;    0.000
362.190; 1314.100;  207.050;    0.000
362.252; 1334.100;  142.050;    0.000
362.315; 1255.100;  153.050;    0.000
362.377; 1291.100;  164.050;    0.000
362.439; 1325.100;  155.050;    0.000
362.501; 1310.100;  157.050;    0.000
362.563; 1298.100;  188.050;    0.000
362.625; 1323.100;  194.050;    0.000
362.688; 1307.100;  159.050;    0.000
362.750; 1322.100;  205.050;    0.000
362.812; 1340.100;  148.050;    0.000
362.874; 1350.100;  173.050;    0.000
362.936; 1313.100;  152.050;    0.000
362.998; 1343.100;  145.050;    0.000
363.060; 1294.100;  184.050;    0.000
363.122; 1345.100;  147.050;    0.000
363.184; 1334.100;  136.050;    0.000
363.246; 1374.100;  171.050;    0.000
363.308; 1297.100;  154.050;    0.000
363.370; 1330.100;  175.050;    0.000
363.432; 1340.100;  139.050;    0.000
363.494; 1404.100;  163.050;    0.000
363.556; 1376.100;  117.050;    0.000
363.618; 1356.100;  126.050;    0.000
363.680; 1358.100;  147.050;    0.000
363.742; 1355.100;  161.050;    0.000
363.804; 1433.100;  159.050;    0.000
363.866; 1399.100;  170.050;    0.000
363.928; 1287.100;  122.050;    0.000
363.990; 1396.100;  167.050;    0.000
364.052; 1403.100;  180.050;    0.000
364.114; 1382.100;  119.050;    0.000
364.176; 1421.100;  184.050;    0.000
364.238; 1407.100;  180.050;    0.000
364.300; 1413.100;  159.050;    0.000
364.362; 1377.100;  163.050;    0.000
364.424; 1322.100;  139.050;    0.000
364.486; 1350.100;  189.050;    0.000
364.548; 1327.100;  167.050;    0.000
364.609; 1446.100;  165.050;    0.000
364.671; 1426.100;  171.050;    0.000
364.733; 1326.100;  165.050;    0.000
364.795; 1432.100;  122.050;    0.000
364.857; 1383.100;  147.050;    0.000
364.919; 1388.100;  104.050;    0.000
364.981; 1378.100;  143.050;    0.000
365.042; 1404.100;  166.050;    0.000
365.104; 1381.100;  162.050;    0.000
365.166; 1395.100;  155.050;    0.000
365.228; 1459.100;  179.050;    0.000
365.290; 1406.100;  133.050;    0.000
365.351; 1359.100;  142.050;    0.000
365.413; 1406.100;  144.050;    0.000
365.475; 1435.100;  139.050;    0.000
365.537; 1375.100;  181.050;    0.000
365.598; 1410.100;  166.050;    0.000
365.660; 1345.100;  130.050;    0.000
365.722; 1362.100;  177.050;    0.000
365.784; 1375.100;  149.050;    0.000
365.845; 1421.100;  156.050;    0.000
365.907; 1460.100;  122.050;    0.000
365.969; 1382.100;  140.050;    0.000
366.030; 1450.100;  156.050;    0.000
366.092; 1399.100;  140.050;    0.000
366.154; 1412.100;  169.050;    0.000
366.215; 1451.100;  170.050;    0.000
366.277; 1432.100;  143.050;    0.000
366.339; 1492.100;  139.050;    0.000
366.400; 1385.100;  139.050;    0.000
366.462; 1403.100;  140.050;    0.000
366.524; 1347.100;  150.050;    0.000
366.585; 1449.100;  163.050;    0.000
366.647; 1409.100;  193.050;    0.000
366.708; 1422.100;  135.050;    0.000
366.770; 1431.100;  165.050;    0.000
366.832; 1419.100;  168.050;    0.000
366.893; 1454.100;  157.050;    0.000
366.955; 1362.100;  132.050;    0.000
367.016; 1440.100;  127.050;    0.000
367.078; 1455.100;  146.050;    0.000
367.139; 1395.100;  129.050;    0.000
367.201; 1462.100;  148.050;    0.000
367.262; 1484.100;  165.050;    0.000
367.324; 1467.100;  171.050;    0.000
367.385; 1385.100;  118.050;    0.000
367.447; 1465.100;  144.050;    0.000
367.508; 1428.100;  135.050;    0.000
367.570; 1423.100;  160.050;    0.000
367.631; 1429.100;  157.050;    0.000
367.693; 1518.100;  168.050;    0.000
367.754; 1444.100;  139.050;    0.000
367.816; 1433.100;  141.050;    0.000
367.877; 1501.100;  195.050;    0.000
367.939; 1522.100;  166.050;    0.000
368.000; 1424.100;  127.050;    0.000
368.062; 1439.100;  143.050;    0.000
368.123; 1456.100;  156.050;    0.000
368.184; 1444.100;  179.050;    0.000
368.246; 1502.100;  168.050;    0.000
368.307; 1543.100;  203.050;    0.000
368.369; 1417.100;  149.050;    0.000
368.430; 1451.100;  121.050;    0.000
368.491; 1483.100;  131.050;    0.000
368.553; 1532.100;  161.050;    0.000
368.614; 1517.100;  157.050;    0.000
368.675; 1486.100;  152.050;    0.000
368.737; 1537.100;  168.050;    0.000
368.798; 1487.100;  147.050;    0.000
368.859; 1473.100;  174.050;    0.000
368.921; 1504.100;  168.050;    0.000
368.982; 1550.100;  151.050;    0.000
369.043; 1508.100;  169.050;    0.000
369.104; 1497.100;  149.050;    0.000
369.166; 1578.100;  178.050;    0.000
369.227; 1517.100;  149.050;    0.000
369.288; 1488.100;  131.050;    0.000
369.349; 1515.100;  128.050;    0.000
369.411; 1596.100;  198.050;    0.000
369.472; 1572.100;  156.050;    0.000
369.533; 1486.100;  142.050;    0.000
369.594; 1559.100;  125.050;    0.000
369.656; 1549.100;  153.050;    0.000
369.717; 1455.100;  124.050;    0.000
369.778; 1531.100;  163.050;    0.000
369.839; 1518.100;  130.050;    0.000
369.900; 1639.100;  170.050;    0.000
369.961; 1484.100;  142.050;    0.000
370.023; 1583.100;  197.050;    0.000
370.084; 1515.100;  151.050;    0.000
370.145; 1584.100;  128.050;    0.000
370.206; 1541.100;  152.050;    0.000
370.267; 1495.100;  154.050;    0.000
370.328; 1587.100;  154.050;    0.000
370.389; 1571.100;  173.050;    0.000
370.451; 1619.100;  191.050;    0.000
370.512; 1506.100;  155.050;    0.000
370.573; 1579.100;  134.050;    0.000
370.634; 1567.100;  160.050;    0.000
370.695; 1503.100;  124.050;    0.000
370.756; 1603.100;  169.050;    0.000
370.817; 1570.100;  169.050;    0.000
370.878; 1583.100;  200.050;    0.000
370.939; 1557.100;  157.050;    0.000
371.000; 1575.100;  131.050;    0.000
371.061; 1559.100;  136.050;    0.000
371.122; 1594.100;  176.050;    0.000
371.183; 1497.100;   81.050;    0.000
371.244; 1562.100;  156.050;    0.000
371.305; 1621.100;  131.050;    0.000
371.366; 1551.100;  161.050;    0.000
371.427; 1578.100;  127.050;    0.000
371.488; 1646.100;  184.050;    0.000
371.549; 1564.100;  159.050;    0.000
371.610; 1626.100;  147.050;    0.000
371.671; 1521.100;  132.050;    0.000
371.732; 1612.100;  163.050;    0.000
371.793; 1594.100;  179.050;    0.000
371.853; 1635.100;  179.050;    0.000
371.914; 1554.100;  149.050;    0.000
371.975; 1482.100;  117.050;    0.000
372.036; 1563.100;  141.050;    0.000
372.097; 1534.100;  101.050;    0.000
372.158; 1551.100;  115.050;    0.000
372.219; 1590.100;  174.050;    0.000
372.280; 1608.100;  134.050;    0.000
372.340; 1559.100;  180.050;    0.000
372.401; 1558.100;  166.050;    0.000
372.462; 1585.100;  171.050;    0.000
372.523; 1556.100;  132.050;    0.000
372.584; 1603.100;  182.050;    0.000
372.645; 1565.100;  149.050;    0.000
372.705; 1668.100;  182.050;    0.000
372.766; 1682.100;  145.050;    0.000
372.827; 1605.100;  161.050;    0.000
372.888; 1637.100;  156.050;    0.000
372.948; 1598.100;  158.050;    0.000
373.009; 1545.100;  178.050;    0.000
373.070; 1570.100;  166.050;    0.000
373.131; 1550.100;  154.050;    0.000
373.191; 1580.100;  193.050;    0.000
373.252; 1600.100;  148.050;    0.000
373.313; 1642.100;  152.050;    0.000
373.373; 1634.100;  156.050;    0.000
373.434; 1638.100;  166.050;    0.000
373.495; 1531.100;  152.050;    0.000
373.555; 1647.100;  145.050;    0.000
373.616; 1556.100;  141.050;    0.000
373.677; 1598.100;  169.050;    0.000
373.737; 1598.100;  166.050;    0.000
373.798; 1623.100;  151.050;    0.000
373.859; 1585.100;  170.050;    0.000
373.919; 1651.100;  206.050;    0.000
373.980; 1586.100;  140.050;    0.000
374.041; 1562.100;  148.050;    0.000
374.101; 1627.100;  165.050;    0.000
374.162; 1678.100;  166.050;    0.000
374.222; 1643.100;  156.050;    0.000
374.283; 1694.100;  161.050;    0.000
374.343; 1746.100;  185.050;    0.000
374.404; 1725.100;  148.050;    0.000
374.465; 1686.100;  162.050;    0.000
374.525; 1615.100;  177.050;    0.000
374.586; 1692.100;  164.050;    0.000
374.646; 1682.100;  180.050;    0.000
374.707; 1740.100;  203.050;    0.000
374.767; 1688.100;  148.050;    0.000
374.828; 1711.100;  142.050;    0.000
374.888; 1807.100;  187.050;    0.000
374.949; 1716.100;  137.050;    0.000
375.009; 1723.100;  155.050;    0.000
375.070; 1743.100;  165.050;    0.000
375.130; 1697.100;  168.050;    0.000
375.190; 1721.100;  157.050;    0.000
375.251; 1691.100;  206.050;    0.000
375.311; 1671.100;  141.050;    0.000
375.372; 1733.100;  144.050;    0.000
375.432; 1710.100;  153.050;    0.000
375.493; 1738.100;  168.050;    0.000
375.553; 1639.100;  146.050;    0.000
375.613; 1691.100;  142.050;    0.000
375.674; 1674.100;  153.050;    0.000
375.734; 1736.100;  166.050;    0.000
375.794; 1706.100;  145.050;    0.000
375.855; 1763.100;  162.050;    0.000
375.915; 1727.100;  162.050;    0.000
375.975; 1678.100;  144.050;    0.000
376.036; 1733.100;  128.050;    0.000
376.096; 1706.100;  122.050;    0.000
376.156; 1691.100;  140.050;    0.000
376.217; 1749.100;  158.050;    0.000
376.277; 1770.100;  163.050;    0.000
376.337; 1646.100;  139.050;    0.000
376.398; 1718.100;  176.050;    0.000
376.458; 1755.100;  143.050;    0.000
376.518; 1744.100;  136.050;    0.000
376.578; 1670.100;  177.050;    0.000
376.639; 1788.100;  163.050;    0.000
376.699; 1818.100;  183.050;    0.000
376.759; 1819.100;  169.050;    0.000
376.819; 1759.100;  147.050;    0.000
376.880; 1736.100;  188.050;    0.000
376.940; 1807.100;  185.050;    0.000
377.000; 1698.100;  131.050;    0.000
377.060; 1757.100;  182.050;    0.000
377.120; 1747.100;  165.050;    0.000
377.180; 1775.100;  169.050;    0.000
377.241; 1809.100;  146.050;    0.000
377.301; 1866.100;  183.050;    0.000
377.361; 1784.100;  124.050;    0.000
377.421; 1755.100;  186.050;    0.000
377.481; 1811.100;  178.050;    0.000
377.541; 1770.100;  140.050;    0.000
377.601; 1858.100;  175.050;    0.000
377.661; 1859.100;  169.050;    0.000
377.722; 1909.100;  144.050;    0.000
377.782; 1787.100;  182.050;    0.000
377.842; 1876.100;  161.050;    0.000
377.902; 1814.100;  151.050;    0.000
377.962; 1817.100;  134.050;    0.000
378.022; 1872.100;  153.050;    0.000
378.082; 1823.100;  178.050;    0.000
378.142; 1889.100;  118.050;    0.000
378.202; 1848.100;  153.050;    0.000
378.262; 1874.100;  166.050;    0.000
378.322; 1923.100;  174.050;    0.000
378.382; 1911.100;  148.050;    0.000
378.442; 1962.100;  190.050;    0.000
378.502; 1883.100;  136.050;    0.000
378.562; 1954.100;  130.050;    0.000
378.622; 1891.100;  188.050;    0.000
378.682; 1973.100;  163.050;    0.000
378.742; 1936.100;  150.050;    0.000
378.802; 1959.100;  127.050;    0.000
378.862; 1976.100;  186.050;    0.000
378.921; 2015.100;  203.050;    0.000
378.981; 1962.100;  177.050;    0.000
379.041; 1949.100;  134.050;    0.000
379.101; 2063.100;  167.050;    0.000
379.161; 1925.100;  130.050;    0.000
379.221; 2037.100;  169.050;    0.000
379.281; 2060.100;  162.050;    0.000
379.341; 2038.100;  134.050;    0.000
379.401; 2095.100;  151.050;    0.000
379.460; 2046.100;  190.050;    0.000
379.520; 1958.100;  158.050;    0.000
379.580; 2059.100;  162.050;    0.000
379.640; 2100.100;  146.050;    0.000
379.700; 2129.100;  167.050;    0.000
379.759; 2166.100;  194.050;    0.000
379.819; 1954.100;  176.050;    0.000
379.879; 2035.100;  140.050;    0.000
379.939; 2159.100;  184.050;    0.000
379.999; 2108.100;  165.050;    0.000
380.058; 2052.100;  194.050;    0.000
380.118; 2134.100;  137.050;    0.000
380.178; 2147.100;  139.050;    0.000
380.237; 2177.100;  139.050;    0.000
380.297; 2171.100;  160.050;    0.000
380.357; 2203.100;  194.050;    0.000
380.417; 2110.100;  174.050;    0.000
380.476; 2141.100;  153.050;    0.000
380.536; 2178.100;  169.050;    0.000
380.596; 2197.100;  159.050;    0.000
380.655; 2233.100;  178.050;    0.000
380.715; 2092.100;  196.050;    0.000
380.775; 2116.100;  202.050;    0.000
380.834; 2262.100;  186.050;    0.000
380.894; 2146.100;  167.050;    0.000
380.954; 2188.100;  150.050;    0.000
381.013; 2277.100;  187.050;    0.000
381.073; 2231.100;  114.050;    0.000
381.132; 2208.100;  176.050;    0.000
381.192; 2312.100;  197.050;    0.000
381.252; 2191.100;  172.050;    0.000
381.311; 2260.100;  155.050;    0.000
381.371; 2329.100;  172.050;    0.000
381.430; 2355.100;  143.050;    0.000
381.490; 2341.100;  136.050;    0.000
381.549; 2323.100;  131.050;    0.000
381.609; 2383.100;  203.050;    0.000
381.668; 2386.100;  135.050;    0.000
381.728; 2425.100;  163.050;    0.000
381.787; 2496.100;  195.050;    0.000
381.847; 2383.100;  185.050;    0.000
381.906; 2489.100;  187.050;    0.000
381.966; 2506.100;  153.050;    0.000
382.025; 2520.100;  175.050;    0.000
382.085; 2591.100;  195.050;    0.000
382.144; 2641.100;  210.050;    0.000
382.204; 2632.100;  201.050;    0.000
382.263; 2674.100;  178.050;    0.000
382.323; 2653.100;  151.050;    0.000
382.382; 2715.100;  147.050;    0.000
382.441; 2882.100;  144.050;    0.000
382.501; 2855.100;  156.050;    0.000
382.560; 2974.100;  160.050;    0.000
382.619; 3018.100;  173.050;    0.000
382.679; 3223.100;  167.050;    0.000
382.738; 3382.100;  189.050;    0.000
382.798; 3611.100;  181.050;    0.000
382.857; 3968.100;  161.050;    0.000
382.916; 4258.100;  162.050;    0.000
382.976; 4477.100;  169.050;    0.000
383.035; 4244.100;  174.050;    0.000
383.094; 4473.100;  178.050;    0.000
383.154; 5011.100;  188.050;    0.000
383.213; 5674.100;  162.050;    0.000
383.272; 5360.100;  144.050;    0.000
383.331; 4385.100;  144.050;    0.000
383.391; 4152.100;  198.050;    0.000
383.450; 4005.100;  185.050;    0.000
383.509; 3986.100;  132.050;    0.000
383.568; 4219.100;  171.050;    0.000
383.628; 4342.100;  171.050;    0.000
383.687; 4681.100;  172.050;    0.000
383.746; 5498.100;  144.050;    0.000
383.805; 6244.100;  177.050;    0.000
383.864; 5963.100;  145.050;    0.000
383.924; 4886.100;  203.050;    0.000
383.983; 4114.100;  153.050;    0.000
384.042; 3734.100;  171.050;    0.000
384.101; 3519.100;  186.050;    0.000
384.160; 3233.100;  132.050;    0.000
384.219; 3062.100;  157.050;    0.000
384.279; 2996.100;  166.050;    0.000
384.338; 2926.100;  141.050;    0.000
384.397; 2885.100;  142.050;    0.000
384.456; 2704.100;  155.050;    0.000
384.515; 2816.100;  158.050;    0.000
384.574; 2751.100;  208.050;    0.000
384.633; 2636.100;  158.050;    0.000
384.692; 2684.100;  162.050;    0.000
384.751; 2671.100;  179.050;    0.000
384.810; 2621.100;  150.050;    0.000
384.869; 2689.100;  147.050;    0.000
384.929; 2617.100;  132.050;    0.000
384.988; 2645.100;  166.050;    0.000
385.047; 2511.100;  161.050;    0.000
385.106; 2572.100;  180.050;    0.000
385.165; 2580.100;  123.050;    0.000
385.224; 2550.100;  153.050;    0.000
385.283; 2528.100;  158.050;    0.000
385.342; 2519.100;  184.050;    0.000
385.401; 2563.100;  191.050;    0.000
385.459; 2545.100;  143.050;    0.000
385.518; 2574.100;  152.050;    0.000
385.577; 2441.100;  134.050;    0.000
385.636; 2601.100;  187.050;    0.000
385.695; 2529.100;  141.050;    0.000
385.754; 2490.100;  143.050;    0.000
385.813; 2472.100;  145.050;    0.000
385.872; 2524.100;  116.050;    0.000
385.931; 2482.100;  147.050;    0.000
385.990; 2486.100;  170.050;    0.000
386.049; 2598.100;  189.050;    0.000
386.107; 2539.100;  122.050;    0.000
386.166; 2467.100;  155.050;    0.000
386.225; 2552.100;  173.050;    0.000
386.284; 2478.100;  138.050;    0.000
386.343; 2564.100;  216.050;    0.000
386.402; 2467.100;  162.050;    0.000
386.460; 2463.100;  131.050;    0.000
386.519; 2499.100;  122.050;    0.000
386.578; 2486.100;  140.050;    0.000
386.637; 2409.100;  169.050;    0.000
386.696; 2495.100;  176.050;    0.000
386.754; 2447.100;  127.050;    0.000
386.813; 2455.100;  138.050;    0.000
386.872; 2464.100;  135.050;    0.000
386.931; 2454.100;  170.050;    0.000
386.989; 2529.100;  167.050;    0.000
387.048; 2365.100;  131.050;    0.000
387.107; 2415.100;  176.050;    0.000
387.165; 2527.100;  139.050;    0.000
387.224; 2366.100;  150.050;    0.000
387.283; 2448.100;  169.050;    0.000
387.342; 2440.100;  191.050;    0.000
387.400; 2367.100;  131.050;    0.000
387.459; 2431.100;  139.050;    0.000
387.517; 2424.100;  214.050;    0.000
387.576; 2315.100;  146.050;    0.000
387.635; 2497.100;  161.050;    0.000
387.693; 2421.100;  197.050;    0.000
387.752; 2343.100;  159.050;    0.000
387.811; 2421.100;  144.050;    0.000
387.869; 2335.100;  172.050;    0.000
387.928; 2420.100;  160.050;    0.000
387.986; 2354.100;  192.050;    0.000
388.045; 2327.100;  121.050;    0.000
388.103; 2376.100;  129.050;    0.000
388.162; 2413.100;  169.050;    0.000
388.221; 2383.100;  171.050;    0.000
388.279; 2392.100;  135.050;    0.000
388.338; 2423.100;  222.050;    0.000
388.396; 2211.100;  168.050;    0.000
388.455; 2352.100;  178.050;    0.000
388.513; 2389.100;  151.050;    0.000
388.572; 2453.100;  147.050;    0.000
388.630; 2325.100;  158.050;    0.000
388.689; 2263.100;  163.050;    0.000
388.747; 2285.100;  180.050;    0.000
388.806; 2346.100;  119.050;    0.000
388.864; 2318.100;  159.050;    0.000
388.922; 2376.100;  152.050;    0.000
388.981; 2239.100;  125.050;    0.000
389.039; 2406.100;  151.050;    0.000
389.098; 2326.100;  151.050;    0.000
389.156; 2392.100;  175.050;    0.000
389.214; 2377.100;  133.050;    0.000
389.273; 2357.100;  142.050;    0.000
389.331; 2358.100;  179.050;    0.000
389.390; 2330.100;  179.050;    0.000
389.448; 2321.100;  159.050;    0.000
389.506; 2438.100;  140.050;    0.000
389.565; 2306.100;  160.050;    0.000
389.623; 2336.100;  181.050;    0.000
389.681; 2246.100;  181.050;    0.000
389.740; 2446.100;  187.050;    0.000
389.798; 2276.100;  163.050;    0.000
389.856; 2336.100;  185.050;    0.000
389.914; 2371.100;  170.050;    0.000
389.973; 2280.100;  150.050;    0.000
390.031; 2306.100;  149.050;    0.000
390.089; 2369.100;  191.050;    0.000
390.147; 2359.100;  126.050;    0.000
390.206; 2267.100;  174.050;    0.000
390.264; 2307.100;  164.050;    0.000
390.322; 2290.100;  150.050;    0.000
390.380; 2328.100;  137.050;    0.000
390.439; 2337.100;  176.050;    0.000
390.497; 2373.100;  188.050;    0.000
390.555; 2253.100;  143.050;    0.000
390.613; 2296.100;  174.050;    0.000
390.671; 2341.100;  208.050;    0.000
390.729; 2306.100;  135.050;    0.000
390.788; 2290.100;  169.050;    0.000
390.846; 2278.100;  173.050;    0.000
390.904; 2307.100;  176.050;    0.000
390.962; 2278.100;  179.050;    0.000
391.020; 2282.100;  201.050;    0.000
391.078; 2282.100;  192.050;    0.000
391.136; 2248.100;  170.050;    0.000
391.194; 2303.100;  163.050;    0.000
391.253; 2314.100;  203.050;    0.000
391.311; 2320.100;  170.050;    0.000
391.369; 2436.100;  191.050;    0.000
391.427; 2313.100;  226.050;    0.000
391.485; 2431.100;  181.050;    0.000
391.543; 2388.100;  177.050;    0.000
391.601; 2331.100;  150.050;    0.000
391.659; 2301.100;  201.050;    0.000
391.717; 2396.100;  166.050;    0.000
391.775; 2341.100;  200.050;    0.000
391.833; 2355.100;  180.050;    0.000
391.891; 2335.100;  172.050;    0.000
391.949; 2286.100;  174.050;    0.000
392.007; 2365.100;  194.050;    0.000
392.065; 2352.100;  161.050;    0.000
392.123; 2345.100;  159.050;    0.000
392.180; 2315.100;  193.050;    0.000
392.238; 2382.100;  188.050;    0.000
392.296; 2446.100;  206.050;    0.000
392.354; 2335.100;  170.050;    0.000
392.412; 2392.100;  207.050;    0.000
392.470; 2407.100;  168.050;    0.000
392.528; 2342.100;  185.050;    0.000
392.586; 2354.100;  154.050;    0.000
392.644; 2341.100;  190.050;    0.000
392.701; 2353.100;  195.050;    0.000
392.759; 2433.100;  229.050;    0.000
392.817; 2366.100;  176.050;    0.000
392.875; 2332.100;  198.050;    0.000
392.933; 2488.100;  174.050;    0.000
392.991; 2390.100;  237.050;    0.000
393.048; 2340.100;  212.050;    0.000
393.106; 2340.100;  191.050;    0.000
393.164; 2401.100;  136.050;    0.000
393.222; 2501.100;  164.050;    0.000
393.279; 2392.100;  208.050;    0.000
393.337; 2477.100;  203.050;    0.000
393.395; 2481.100;  191.050;    0.000
393.453; 2408.100;  153.050;    0.000
393.510; 2436.100;  171.050;    0.000
393.568; 2489.100;  203.050;    0.000
393.626; 2458.100;  169.050;    0.000
393.684; 2396.100;  201.050;    0.000
393.741; 2395.100;  172.050;    0.000
393.799; 2371.100;  149.050;    0.000
393.857; 2336.100;  151.050;    0.000
393.914; 2328.100;  192.050;    0.000
393.972; 2337.100;  176.050;    0.000
394.030; 2453.100;  165.050;    0.000
394.087; 2453.100;  192.050;    0.000
394.145; 2471.100;  183.050;    0.000
394.202; 2395.100;  161.050;    0.000
394.260; 2366.100;  135.050;    0.000
394.318; 2530.100;  188.050;    0.000
394.375; 2418.100;  163.050;    0.000
394.433; 2509.100;  151.050;    0.000
394.490; 2427.100;  190.050;    0.000
394.548; 2466.100;  157.050;    0.000
394.605; 2486.100;  205.050;    0.000
394.663; 2458.100;  173.050;    0.000
394.720; 2454.100;  171.050;    0.000
394.778; 2483.100;  190.050;    0.000
394.836; 2498.100;  134.050;    0.000
394.893; 2436.100;  142.050;    0.000
394.951; 2454.100;  192.050;    0.000
395.008; 2540.100;  149.050;    0.000
395.065; 2443.100;  194.050;    0.000
395.123; 2546.100;  160.050;    0.000
395.180; 2497.100;  178.050;    0.000
395.238; 2496.100;  191.050;    0.000
395.295; 2499.100;  160.050;    0.000
395.353; 2463.100;  162.050;    0.000
395.410; 2508.100;  165.050;    0.000
395.468; 2608.100;  190.050;    0.000
395.525; 2529.100;  173.050;    0.000
395.582; 2583.100;  161.050;    0.000
395.640; 2527.100;  200.050;    0.000
395.697; 2513.100;  198.050;    0.000
395.754; 2527.100;  136.050;    0.000
395.812; 2538.100;  172.050;    0.000
395.869; 2609.100;  172.050;    0.000
395.927; 2571.100;  145.050;    0.000
395.984; 2586.100;  220.050;    0.000
396.041; 2503.100;  137.050;    0.000
396.098; 2554.100;  161.050;    0.000
396.156; 2528.100;  159.050;    0.000
396.213; 2507.100;  200.050;    0.000
396.270; 2476.100;  209.050;    0.000
396.328; 2541.100;  162.050;    0.000
396.385; 2562.100;  186.050;    0.000
396.442; 2587.100;  177.050;    0.000
396.499; 2465.100;  183.050;    0.000
396.557; 2555.100;  182.050;    0.000
396.614; 2572.100;  186.050;    0.000
396.671; 2558.100;  144.050;    0.000
396.728; 2601.100;  176.050;    0.000
396.785; 2580.100;  169.050;    0.000
396.843; 2577.100;  134.050;    0.000
396.900; 2589.100;  184.050;    0.000
396.957; 2514.100;  197.050;    0.000
397.014; 2594.100;  187.050;    0.000
397.071; 2703.100;  186.050;    0.000
397.128; 2678.100;  200.050;    0.000
397.186; 2702.100;  175.050;    0.000
397.243; 2622.100;  154.050;    0.000
397.300; 2608.100;  191.050;    0.000
397.357; 2643.100;  238.050;    0.000
397.414; 2684.100;  161.050;    0.000
397.471; 2562.100;  135.050;    0.000
397.528; 2604.100;  158.050;    0.000
397.585; 2647.100;  159.050;    0.000
397.642; 2599.100;  180.050;    0.000
397.699; 2629.100;  170.050;    0.000
397.756; 2778.100;  175.050;    0.000
397.814; 2671.100;  182.050;    0.000
397.871; 2661.100;  173.050;    0.000
397.928; 2601.100;  173.050;    0.000
397.985; 2672.100;  176.050;    0.000
398.042; 2718.100;  189.050;    0.000
398.099; 2629.100;  160.050;    0.000
398.156; 2710.100;  218.050;    0.000
398.212; 2712.100;  194.050;    0.000
398.269; 2753.100;  199.050;    0.000
398.326; 2668.100;  188.050;    0.000
398.383; 2670.100;  187.050;    0.000
398.440; 2662.100;  174.050;    0.000
398.497; 2751.100;  214.050;    0.000
398.554; 2764.100;  181.050;    0.000
398.611; 2759.100;  195.050;    0.000
398.668; 2748.100;  145.050;    0.000
398.725; 2728.100;  178.050;    0.000
398.782; 2757.100;  210.050;    0.000
398.839; 2929.100;  216.050;    0.000
398.895; 2787.100;  189.050;    0.000
398.952; 2863.100;  206.050;    0.000
399.009; 2859.100;  142.050;    0.000
399.066; 2838.100;  192.050;    0.000
399.123; 2918.100;  181.050;    0.000
399.180; 2921.100;  200.050;    0.000
399.236; 3025.100;  156.050;    0.000
399.293; 2885.100;  194.050;    0.000
399.350; 2978.100;  167.050;    0.000
399.407; 2964.100;  192.050;    0.000
399.463; 3016.100;  161.050;    0.000
399.520; 3010.100;  149.050;    0.000
399.577; 3084.100;  156.050;    0.000
399.634; 3168.100;  195.050;    0.000
399.690; 2961.100;  163.050;    0.000
399.747; 3217.100;  192.050;    0.000
399.804; 3128.100;  212.050;    0.000
399.861; 3083.100;  203.050;    0.000
399.917; 3109.100;  221.050;    0.000
399.974; 3066.100;  221.050;    0.000
400.031; 2992.100;  195.050;    0.000
400.087; 3051.100;  159.050;    0.000
400.144; 3097.100;  201.050;    0.000
400.201; 3160.100;  206.050;    0.000
400.257; 3016.100;  168.050;    0.000
400.314; 2979.100;  183.050;    0.000
400.370; 3031.100;  209.050;    0.000
400.427; 2916.100;  192.050;    0.000
400.484; 2937.100;  150.050;    0.000
400.540; 2977.100;  213.050;    0.000
400.597; 3065.100;  161.050;    0.000
400.653; 2927.100;  170.050;    0.000
400.710; 2963.100;  173.050;    0.000
400.766; 3018.100;  204.050;    0.000
400.823; 2938.100;  194.050;    0.000
400.879; 2902.100;  188.050;    0.000
400.936; 2965.100;  172.050;    0.000
400.993; 2927.100;  154.050;    0.000
401.049; 2866.100;  157.050;    0.000
401.105; 2968.100;  214.050;    0.000
401.162; 2866.100;  195.050;    0.000
401.218; 2912.100;  195.050;    0.000
401.275; 2901.100;  182.050;    0.000
401.331; 2808.100;  188.050;    0.000
401.388; 2953.100;  194.050;    0.000
401.444; 2958.100;  175.050;    0.000
401.501; 2997.100;  169.050;    0.000
401.557; 2876.100;  176.050;    0.000
401.614; 2861.100;  153.050;    0.000
401.670; 2926.100;  178.050;    0.000
401.726; 2976.100;  179.050;    0.000
401.783; 2888.100;  198.050;    0.000
401.839; 2915.100;  179.050;    0.000
401.895; 2900.100;  154.050;    0.000
401.952; 2924.100;  138.050;    0.000
402.008; 2905.100;  135.050;    0.000
402.064; 2919.100;  154.050;    0.000
402.121; 3007.100;  199.050;    0.000
402.177; 2949.100;  126.050;    0.000
402.233; 2975.100;  190.050;    0.000
402.290; 2958.100;  175.050;    0.000
402.346; 2947.100;  200.050;    0.000
402.402; 3015.100;  191.050;    0.000
402.458; 2908.100;  172.050;    0.000
402.515; 2919.100;  186.050;    0.000
402.571; 2952.100;  189.050;    0.000
402.627; 2935.100;  151.050;    0.000
402.683; 2929.100;  187.050;    0.000
402.740; 3019.100;  147.050;    0.000
402.796; 2899.100;  176.050;    0.000
402.852; 3053.100;  200.050;    0.000
402.908; 2989.100;  201.050;    0.000
402.964; 2962.100;  153.050;    0.000
403.021; 3015.100;  165.050;    0.000
403.077; 3035.100;  195.050;    0.000
403.133; 2914.100;  139.050;    0.000
403.189; 3002.100;  166.050;    0.000
403.245; 3012.100;  194.050;    0.000
403.301; 3065.100;  210.050;    0.000
403.357; 3013.100;  187.050;    0.000
403.414; 2982.100;  195.050;    0.000
403.470; 3082.100;  150.050;    0.000
403.526; 3035.100;  158.050;    0.000
403.582; 3100.100;  184.050;    0.000
403.638; 3142.100;  171.050;    0.000
403.694; 3172.100;  197.050;    0.000
403.750; 3090.100;  196.050;    0.000
403.806; 3089.100;  192.050;    0.000
403.862; 3097.100;  169.050;    0.000
403.918; 3020.100;  199.050;    0.000
403.974; 3129.100;  156.050;    0.000
404.030; 2994.100;  193.050;    0.000
404.086; 3062.100;  161.050;    0.000
404.142; 3100.100;  172.050;    0.000
404.198; 3123.100;  195.050;    0.000
404.254; 3164.100;  167.050;    0.000
404.310; 3176.100;  156.050;    0.000
404.366; 3146.100;  144.050;    0.000
404.422; 3055.100;  161.050;    0.000
404.478; 3057.100;  179.050;    0.000
404.534; 3141.100;  163.050;    0.000
404.590; 3141.100;  183.050;    0.000
404.646; 3064.100;  155.050;    0.000
404.701; 2973.100;  142.050;    0.000
404.757; 3124.100;  175.050;    0.000
404.813; 3080.100;  153.050;    0.000
404.869; 3162.100;  199.050;    0.000
404.925; 3185.100;  153.050;    0.000
404.981; 3112.100;  174.050;    0.000
405.037; 3093.100;  185.050;    0.000
405.092; 3159.100;  166.050;    0.000
405.148; 3208.100;  161.050;    0.000
405.204; 3054.100;  170.050;    0.000
405.260; 3125.100;  154.050;    0.000
405.316; 3128.100;  128.050;    0.000
405.371; 3111.100;  142.050;    0.000
405.427; 3247.100;  196.050;    0.000
405.483; 3100.100;  172.050;    0.000
405.539; 3110.100;  182.050;    0.000
405.594; 3171.100;  153.050;    0.000
405.650; 3017.100;  124.050;    0.000
405.706; 3211.100;  189.050;    0.000
405.761; 3225.100;  165.050;    0.000
405.817; 3156.100;  152.050;    0.000
405.873; 3179.100;  174.050;    0.000
405.928; 3138.100;  167.050;    0.000
405.984; 3263.100;  210.050;    0.000
406.040; 3162.100;  160.050;    0.000
406.095; 3185.100;  163.050;    0.000
406.151; 3183.100;  208.050;    0.000
406.207; 3278.100;  177.050;    0.000
406.262; 3265.100;  176.050;    0.000
406.318; 3172.100;  157.050;    0.000
406.374; 3194.100;  141.050;    0.000
406.429; 3265.100;  189.050;    0.000
406.485; 3316.100;  190.050;    0.000
406.540; 3250.100;  155.050;    0.000
406.596; 3155.100;  182.050;    0.000
406.651; 3224.100;  200.050;    0.000
406.707; 3346.100;  130.050;    0.000
406.763; 3335.100;  174.050;    0.000
406.818; 3318.100;  151.050;    0.000
406.874; 3303.100;  122.050;    0.000
406.929; 3407.100;  153.050;    0.000
406.985; 3468.100;  198.050;    0.000
407.040; 3471.100;  174.050;    0.000
407.095; 3426.100;  161.050;    0.000
407.151; 3417.100;  184.050;    0.000
407.206; 3441.100;  188.050;    0.000
407.262; 3463.100;  180.050;    0.000
407.317; 3561.100;  186.050;    0.000
407.373; 3486.100;  200.050;    0.000
407.428; 3542.100;  211.050;    0.000
407.484; 3490.100;  193.050;    0.000
407.539; 3553.100;  167.050;    0.000
407.594; 3646.100;  178.050;    0.000
407.650; 3562.100;  171.050;    0.000
407.705; 3566.100;  153.050;    0.000
407.760; 3574.100;  196.050;    0.000
407.816; 3592.100;  205.050;    0.000
407.871; 3486.100;  232.050;    0.000
407.926; 3646.100;  215.050;    0.000
407.982; 3478.100;  154.050;    0.000
408.037; 3472.100;  217.050;    0.000
408.092; 3531.100;  190.050;    0.000
408.148; 3474.100;  181.050;    0.000
408.203; 3552.100;  203.050;    0.000
408.258; 3498.100;  154.050;    0.000
408.314; 3471.100;  198.050;    0.000
408.369; 3535.100;  156.050;    0.000
408.424; 3340.100;  216.050;    0.000
408.479; 3479.100;  191.050;    0.000
408.534; 3510.100;  200.050;    0.000
408.590; 3437.100;  182.050;    0.000
408.645; 3487.100;  141.050;    0.000
408.700; 3437.100;  209.050;    0.000
408.755; 3489.100;  205.050;    0.000
408.810; 3490.100;  171.050;    0.000
408.866; 3458.100;  200.050;    0.000
408.921; 3517.100;  188.050;    0.000
408.976; 3418.100;  156.050;    0.000
409.031; 3464.100;  164.050;    0.000
409.086; 3406.100;  155.050;    0.000
409.141; 3350.100;  205.050;    0.000
409.196; 3416.100;  173.050;    0.000
409.252; 3436.100;  179.050;    0.000
409.307; 3475.100;  131.050;    0.000
409.362; 3454.100;  173.050;    0.000
409.417; 3482.100;  120.050;    0.000
409.472; 3527.100;  198.050;    0.000
409.527; 3507.100;  153.050;    0.000
409.582; 3457.100;  177.050;    0.000
409.637; 3416.100;  184.050;    0.000
409.692; 3422.100;  203.050;    0.000
409.747; 3411.100;  158.050;    0.000
409.802; 3451.100;  212.050;    0.000
409.857; 3446.100;  192.050;    0.000
409.912; 3469.100;  179.050;    0.000
409.967; 3470.100;  177.050;    0.000
410.022; 3471.100;  204.050;    0.000
410.077; 3377.100;  175.050;    0.000
410.132; 3430.100;  207.050;    0.000
410.187; 3442.100;  169.050;    0.000
410.242; 3380.100;  186.050;    0.000
410.297; 3445.100;  185.050;    0.000
410.351; 3450.100;  191.050;    0.000
410.406; 3510.100;  215.050;    0.000
410.461; 3412.100;  190.050;    0.000
410.516; 3423.100;  172.050;    0.000
410.571; 3400.100;  190.050;    0.000
410.626; 3468.100;  189.050;    0.000
410.681; 3510.100;  191.050;    0.000
410.736; 3463.100;  166.050;    0.000
410.790; 3365.100;  179.050;    0.000
410.845; 3497.100;  196.050;    0.000
410.900; 3383.100;  168.050;    0.000
410.955; 3480.100;  173.050;    0.000
411.010; 3409.100;  162.050;    0.000
411.064; 3494.100;  205.050;    0.000
411.119; 3392.100;  203.050;    0.000
411.174; 3463.100;  207.050;    0.000
411.229; 3455.100;  218.050;    0.000
411.283; 3402.100;  218.050;    0.000
411.338; 3490.100;  180.050;    0.000
411.393; 3447.100;  191.050;    0.000
411.447; 3519.100;  207.050;    0.000
411.502; 3533.100;  204.050;    0.000
411.557; 3506.100;  208.050;    0.000
411.612; 3464.100;  191.050;    0.000
411.666; 3483.100;  233.050;    0.000
411.721; 3451.100;  193.050;    0.000
411.776; 3512.100;  195.050;    0.000
411.830; 3426.100;  229.050;    0.000
411.885; 3503.100;  181.050;    0.000
411.939; 3521.100;  214.050;    0.000
411.994; 3483.100;  140.050;    0.000
412.049; 3469.100;  205.050;    0.000
412.103; 3546.100;  232.050;    0.000
412.158; 3519.100;  228.050;    0.000
412.212; 3474.100;  204.050;    0.000
412.267; 3443.100;  203.050;    0.000
412.322; 3446.100;  212.050;    0.000
412.376; 3520.100;  195.050;    0.000
412.431; 3431.100;  197.050;    0.000
412.485; 3492.100;  235.050;    0.000
412.540; 3339.100;  197.050;    0.000
412.594; 3538.100;  199.050;    0.000
412.649; 3431.100;  195.050;    0.000
412.703; 3385.100;  214.050;    0.000
412.758; 3403.100;  213.050;    0.000
412.812; 3377.100;  154.050;    0.000
412.866; 3404.100;  159.050;    0.000
412.921; 3459.100;  207.050;    0.000
412.975; 3438.100;  194.050;    0.000
413.030; 3435.100;  214.050;    0.000
413.084; 3402.100;  174.050;    0.000
413.139; 3411.100;  211.050;    0.000
413.193; 3387.100;  223.050;    0.000
413.247; 3456.100;  198.050;    0.000
413.302; 3493.100;  184.050;    0.000
413.356; 3562.100;  194.050;    0.000
413.410; 3409.100;  219.050;    0.000
413.465; 3427.100;  209.050;    0.000
413.519; 3403.100;  178.050;    0.000
413.573; 3452.100;  189.050;    0.000
413.628; 3406.100;  184.050;    0.000
413.682; 3372.100;  189.050;    0.000
413.736; 3473.100;  196.050;    0.000
413.791; 3491.100;  208.050;    0.000
413.845; 3525.100;  206.050;    0.000
413.899; 3412.100;  193.050;    0.000
413.953; 3451.100;  176.050;    0.000
414.008; 3396.100;  163.050;    0.000
414.062; 3375.100;  195.050;    0.000
414.116; 3442.100;  176.050;    0.000
414.170; 3421.100;  218.050;    0.000
414.225; 3509.100;  183.050;    0.000
414.279; 3431.100;  191.050;    0.000
414.333; 3415.100;  215.050;    0.000
414.387; 3534.100;  187.050;    0.000
414.441; 3568.100;  182.050;    0.000
414.496; 3456.100;  205.050;    0.000
414.550; 3491.100;  203.050;    0.000
414.604; 3463.100;  223.050;    0.000
414.658; 3364.100;  159.050;    0.000
414.712; 3347.100;  194.050;    0.000
414.766; 3387.100;  232.050;    0.000
414.820; 3455.100;  235.050;    0.000
414.874; 3397.100;  169.050;    0.000
414.928; 3491.100;  207.050;    0.000
414.982; 3511.100;  174.050;    0.000
415.037; 3427.100;  173.050;    0.000
415.091; 3403.100;  219.050;    0.000
415.145; 3506.100;  174.050;    0.000
415.199; 3499.100;  207.050;    0.000
415.253; 3365.100;  228.050;    0.000
415.307; 3459.100;  182.050;    0.000
415.361; 3427.100;  219.050;    0.000
415.415; 3480.100;  218.050;    0.000
415.469; 3423.100;  233.050;    0.000
415.523; 3436.100;  203.050;    0.000
415.577; 3441.100;  186.050;    0.000
415.631; 3441.100;  215.050;    0.000
415.684; 3501.100;  212.050;    0.000
415.738; 3475.100;  206.050;    0.000
415.792; 3385.100;  219.050;    0.000
415.846; 3490.100;  208.050;    0.000
415.900; 3450.100;  203.050;    0.000
415.954; 3398.100;  237.050;    0.000
416.008; 3473.100;  242.050;    0.000
416.062; 3480.100;  197.050;    0.000
416.116; 3442.100;  189.050;    0.000
416.169; 3426.100;  199.050;    0.000
416.223; 3460.100;  230.050;    0.000
416.277; 3446.100;  226.050;    0.000
416.331; 3399.100;  254.050;    0.000
416.385; 3510.100;  204.050;    0.000
416.439; 3440.100;  201.050;    0.000
416.492; 3399.100;  238.050;    0.000
416.546; 3446.100;  234.050;    0.000
416.600; 3407.100;  244.050;    0.000
416.654; 3430.100;  233.050;    0.000
416.707; 3517.100;  214.050;    0.000
416.761; 3447.100;  214.050;    0.000
416.815; 3372.100;  192.050;    0.000
416.869; 3395.100;  225.050;    0.000
416.922; 3300.100;  214.050;    0.000
416.976; 3450.100;  206.050;    0.000
417.030; 3409.100;  226.050;    0.000
417.083; 3363.100;  207.050;    0.000
417.137; 3389.100;  236.050;    0.000
417.191; 3397.100;  208.050;    0.000
417.244; 3412.100;  260.050;    0.000
417.298; 3398.100;  222.050;    0.000
417.352; 3345.100;  191.050;    0.000
417.405; 3494.100;  229.050;    0.000
417.459; 3418.100;  249.050;    0.000
417.512; 3439.100;  259.050;    0.000
417.566; 3436.100;  220.050;    0.000
417.620; 3352.100;  229.050;    0.000
417.673; 3342.100;  190.050;    0.000
417.727; 3438.100;  204.050;    0.000
417.780; 3385.100;  223.050;    0.000
417.834; 3355.100;  213.050;    0.000
417.887; 3425.100;  238.050;    0.000
417.941; 3326.100;  244.050;    0.000
417.994; 3380.100;  247.050;    0.000
418.048; 3380.100;  225.050;    0.000
418.101; 3341.100;  210.050;    0.000
418.155; 3364.100;  224.050;    0.000
418.208; 3480.100;  229.050;    0.000
418.262; 3433.100;  255.050;    0.000
418.315; 3421.100;  248.050;    0.000
418.369; 3370.100;  212.050;    0.000
418.422; 3493.100;  241.050;    0.000
418.476; 3445.100;  220.050;    0.000
418.529; 3454.100;  257.050;    0.000
418.582; 3400.100;  203.050;    0.000
418.636; 3434.100;  221.050;    0.000
418.689; 3300.100;  202.050;    0.000
418.743; 3364.100;  227.050;    0.000
418.796; 3400.100;  226.050;    0.000
418.849; 3383.100;  199.050;    0.000
418.903; 3408.100;  234.050;    0.000
418.956; 3471.100;  236.050;    0.000
419.009; 3475.100;  305.050;    0.000
419.063; 3433.100;  216.050;    0.000
419.116; 3453.100;  245.050;    0.000
419.169; 3393.100;  208.050;    0.000
419.222; 3303.100;  233.050;    0.000
419.276; 3365.100;  244.050;    0.000
419.329; 3390.100;  197.050;    0.000
419.382; 3354.100;  222.050;    0.000
419.435; 3354.100;  199.050;    0.000
419.489; 3411.100;  226.050;    0.000
419.542; 3436.100;  223.050;    0.000
419.595; 3382.100;  204.050;    0.000
419.648; 3370.100;  234.050;    0.000
419.701; 3406.100;  211.050;    0.000
419.755; 3335.100;  184.050;    0.000
419.808; 3373.100;  223.050;    0.000
419.861; 3232.100;  197.050;    0.000
419.914; 3414.100;  258.050;    0.000
419.967; 3336.100;  205.050;    0.000
420.020; 3301.100;  195.050;    0.000
420.073; 3302.100;  191.050;    0.000
420.127; 3397.100;  256.050;    0.000
420.180; 3246.100;  232.050;    0.000
420.233; 3319.100;  200.050;    0.000
420.286; 3340.100;  207.050;    0.000
420.339; 3364.100;  223.050;    0.000
420.392; 3248.100;  243.050;    0.000
420.445; 3226.100;  195.050;    0.000
420.498; 3297.100;  239.050;    0.000
420.551; 3191.100;  201.050;    0.000
420.604; 3213.100;  245.050;    0.000
420.657; 3239.100;  221.050;    0.000
420.710; 3356.100;  223.050;    0.000
420.763; 3286.100;  241.050;    0.000
420.816; 3235.100;  198.050;    0.000
420.869; 3268.100;  210.050;    0.000
420.922; 3271.100;  206.050;    0.000
420.975; 3273.100;  239.050;    0.000
421.028; 3284.100;  248.050;    0.000
421.081; 3263.100;  236.050;    0.000
421.134; 3223.100;  208.050;    0.000
421.187; 3191.100;  216.050;    0.000
421.239; 3242.100;  199.050;    0.000
421.292; 3183.100;  255.050;    0.000
421.345; 3253.100;  241.050;    0.000
421.398; 3259.100;  221.050;    0.000
421.451; 3363.100;  237.050;    0.000
421.504; 3208.100;  225.050;    0.000
421.557; 3161.100;  213.050;    0.000
421.609; 3188.100;  178.050;    0.000
421.662; 3299.100;  206.050;    0.000
421.715; 3193.100;  212.050;    0.000
421.768; 3213.100;  236.050;    0.000
421.821; 3220.100;  228.050;    0.000
421.873; 3261.100;  200.050;    0.000
421.926; 3249.100;  226.050;    0.000
421.979; 3154.100;  221.050;    0.000
422.032; 3286.100;  219.050;    0.000
422.084; 3271.100;  253.050;    0.000
422.137; 3200.100;  195.050;    0.000
422.190; 3190.100;  192.050;    0.000
422.243; 3182.100;  236.050;    0.000
422.295; 3224.100;  205.050;    0.000
422.348; 3153.100;  198.050;    0.000
422.401; 3291.100;  245.050;    0.000
422.453; 3134.100;  241.050;    0.000
422.506; 3168.100;  255.050;    0.000
422.559; 3203.100;  188.050;    0.000
422.611; 3182.100;  236.050;    0.000
422.664; 3159.100;  218.050;    0.000
422.716; 3260.100;  210.050;    0.000
422.769; 3185.100;  209.050;    0.000
422.822; 3269.100;  213.050;    0.000
422.874; 3210.100;  227.050;    0.000
422.927; 3259.100;  272.050;    0.000
422.979; 3161.100;  204.050;    0.000
423.032; 3130.100;  210.050;    0.000
423.084; 3190.100;  236.050;    0.000
423.137; 3136.100;  223.050;    0.000
423.189; 3229.100;  253.050;    0.000
423.242; 3116.100;  185.050;    0.000
423.294; 3120.100;  232.050;    0.000
423.347; 3106.100;  213.050;    0.000
423.399; 3163.100;  227.050;    0.000
423.452; 3274.100;  236.050;    0.000
423.504; 3117.100;  232.050;    0.000
423.557; 3079.100;  195.050;    0.000
423.609; 3004.100;  238.050;    0.000
423.662; 3223.100;  207.050;    0.000
423.714; 3058.100;  231.050;    0.000
423.766; 3098.100;  211.050;    0.000
423.819; 3057.100;  207.050;    0.000
423.871; 3109.100;  228.050;    0.000
423.923; 3065.100;  223.050;    0.000
423.976; 3136.100;  217.050;    0.000
424.028; 3076.100;  231.050;    0.000
424.081; 3068.100;  219.050;    0.000
424.133; 3050.100;  255.050;    0.000
424.185; 3102.100;  199.050;    0.000
424.238; 3075.100;  238.050;    0.000
424.290; 3087.100;  209.050;    0.000
424.342; 3173.100;  213.050;    0.000
424.394; 3016.100;  215.050;    0.000
424.447; 2954.100;  265.050;    0.000
424.499; 3145.100;  238.050;    0.000
424.551; 3145.100;  256.050;    0.000
424.603; 2992.100;  222.050;    0.000
424.656; 3037.100;  227.050;    0.000
424.708; 3054.100;  250.050;    0.000
424.760; 3008.100;  228.050;    0.000
424.812; 3008.100;  249.050;    0.000
424.864; 3003.100;  222.050;    0.000
424.917; 3036.100;  235.050;    0.000
424.969; 3044.100;  266.050;    0.000
425.021; 3061.100;  233.050;    0.000
425.073; 3045.100;  194.050;    0.000
425.125; 3035.100;  256.050;    0.000
425.177; 3035.100;  225.050;    0.000
425.229; 2975.100;  242.050;    0.000
425.282; 3012.100;  236.050;    0.000
425.334; 3048.100;  250.050;    0.000
425.386; 3037.100;  231.050;    0.000
425.438; 3139.100;  216.050;    0.000
425.490; 3041.100;  240.050;    0.000
425.542; 3001.100;  231.050;    0.000
425.594; 3039.100;  206.050;    0.000
425.646; 2974.100;  201.050;    0.000
425.698; 2955.100;  193.050;    0.000
425.750; 3068.100;  241.050;    0.000
425.802; 3014.100;  199.050;    0.000
425.854; 2877.100;  216.050;    0.000
425.906; 3002.100;  220.050;    0.000
425.958; 3003.100;  200.050;    0.000
426.010; 2991.100;  214.050;    0.000
426.062; 3022.100;  245.050;    0.000
426.114; 2910.100;  241.050;    0.000
426.166; 3000.100;  241.050;    0.000
426.218; 3011.100;  255.050;    0.000
426.270; 3089.100;  228.050;    0.000
426.321; 3004.100;  222.050;    0.000
426.373; 2944.100;  218.050;    0.000
426.425; 2929.100;  258.050;    0.000
426.477; 2973.100;  225.050;    0.000
426.529; 2944.100;  223.050;    0.000
426.581; 2897.100;  198.050;    0.000
426.633; 2887.100;  228.050;    0.000
426.684; 2974.100;  210.050;    0.000
426.736; 2986.100;  208.050;    0.000
426.788; 2941.100;  231.050;    0.000
426.840; 2932.100;  212.050;    0.000
426.892; 2941.100;  221.050;    0.000
426.943; 2890.100;  240.050;    0.000
426.995; 2968.100;  243.050;    0.000
427.047; 2920.100;  231.050;    0.000
427.099; 2931.100;  189.050;    0.000
427.150; 2976.100;  212.050;    0.000
427.202; 2950.100;  219.050;    0.000
427.254; 2843.100;  203.050;    0.000
427.306; 2961.100;  217.050;    0.000
427.357; 2947.100;  232.050;    0.000
427.409; 2849.100;  251.050;    0.000
427.461; 2794.100;  185.050;    0.000
427.512; 2889.100;  239.050;    0.000
427.564; 2902.100;  208.050;    0.000
427.616; 2919.100;  233.050;    0.000
427.667; 2854.100;  223.050;    0.000
427.719; 2822.100;  206.050;    0.000
427.770; 2848.100;  195.050;    0.000
427.822; 2884.100;  223.050;    0.000
427.874; 2805.100;  232.050;    0.000
427.925; 2816.100;  209.050;    0.000
427.977; 2792.100;  208.050;    0.000
428.028; 2893.100;  187.050;    0.000
428.080; 2829.100;  209.050;    0.000
428.131; 2926.100;  237.050;    0.000
428.183; 2983.100;  200.050;    0.000
428.234; 2863.100;  215.050;    0.000
428.286; 2898.100;  229.050;    0.000
428.337; 2708.100;  206.050;    0.000
428.389; 2798.100;  216.050;    0.000
428.440; 2899.100;  287.050;    0.000
428.492; 2843.100;  269.050;    0.000
428.543; 2804.100;  234.050;    0.000
428.595; 2753.100;  214.050;    0.000
428.646; 2916.100;  229.050;    0.000
428.697; 2853.100;  249.050;    0.000
428.749; 2867.100;  250.050;    0.000
428.800; 2757.100;  242.050;    0.000
428.852; 2846.100;  232.050;    0.000
428.903; 2777.100;  196.050;    0.000
428.954; 2836.100;  226.050;    0.000
429.006; 2805.100;  232.050;    0.000
429.057; 2794.100;  188.050;    0.000
429.108; 2810.100;  237.050;    0.000
429.160; 2838.100;  221.050;    0.000
429.211; 2779.100;  222.050;    0.000
429.262; 2768.100;  215.050;    0.000
429.314; 2704.100;  225.050;    0.000
429.365; 2792.100;  220.050;    0.000
429.416; 2822.100;  242.050;    0.000
429.467; 2761.100;  220.050;    0.000
429.519; 2807.100;  217.050;    0.000
429.570; 2851.100;  248.050;    0.000
429.621; 2833.100;  233.050;    0.000
429.672; 2852.100;  220.050;    0.000
429.724; 2680.100;  179.050;    0.000
429.775; 2761.100;  218.050;    0.000
429.826; 2827.100;  197.050;    0.000
429.877; 2776.100;  206.050;    0.000
429.928; 2743.100;  229.050;    0.000
429.980; 2689.100;  207.050;    0.000
430.031; 2700.100;  264.050;    0.000
430.082; 2827.100;  210.050;    0.000
430.133; 2725.100;  218.050;    0.000
430.184; 2785.100;  246.050;    0.000
430.235; 2696.100;  201.050;    0.000
430.286; 2701.100;  207.050;    0.000
430.337; 2715.100;  224.050;    0.000
430.388; 2688.100;  216.050;    0.000
430.439; 2788.100;  210.050;    0.000
430.490; 2733.100;  208.050;    0.000
430.542; 2804.100;  211.050;    0.000
430.593; 2659.100;  203.050;    0.000
430.644; 2729.100;  235.050;    0.000
430.695; 2707.100;  200.050;    0.000
430.746; 2794.100;  215.050;    0.000
430.797; 2785.100;  235.050;    0.000
430.848; 2701.100;  197.050;    0.000
430.898; 2698.100;  209.050;    0.000
430.949; 2677.100;  231.050;    0.000
431.000; 2746.100;  227.050;    0.000
431.051; 2860.100;  225.050;    0.000
431.102; 2800.100;  180.050;    0.000
431.153; 2658.100;  248.050;    0.000
431.204; 2618.100;  185.050;    0.000
431.255; 2722.100;  199.050;    0.000
431.306; 2727.100;  228.050;    0.000
431.357; 2789.100;  237.050;    0.000
431.408; 2750.100;  223.050;    0.000
431.458; 2740.100;  240.050;    0.000
431.509; 2754.100;  207.050;    0.000
431.560; 2735.100;  219.050;    0.000
431.611; 2804.100;  206.050;    0.000
431.662; 2750.100;  253.050;    0.000
431.713; 2705.100;  199.050;    0.000
431.763; 2770.100;  197.050;    0.000
431.814; 2729.100;  205.050;    0.000
431.865; 2707.100;  218.050;    0.000
431.916; 2694.100;  202.050;    0.000
431.966; 2724.100;  203.050;    0.000
432.017; 2826.100;  244.050;    0.000
432.068; 2718.100;  246.050;    0.000
432.118; 2729.100;  212.050;    0.000
432.169; 2708.100;  214.050;    0.000
432.220; 2691.100;  241.050;    0.000
432.271; 2650.100;  237.050;    0.000
432.321; 2688.100;  246.050;    0.000
432.372; 2696.100;  257.050;    0.000
432.423; 2579.100;  198.050;    0.000
432.473; 2725.100;  202.050;    0.000
432.524; 2654.100;  242.050;    0.000
432.574; 2661.100;  202.050;    0.000
432.625; 2769.100;  212.050;    0.000
432.676; 2743.100;  242.050;    0.000
432.726; 2722.100;  268.050;    0.000
432.777; 2646.100;  228.050;    0.000
432.827; 2724.100;  230.050;    0.000
432.878; 2632.100;  221.050;    0.000
432.928; 2709.100;  218.050;    0.000
432.979; 2652.100;  243.050;    0.000
433.029; 2602.100;  217.050;    0.000
433.080; 2615.100;  208.050;    0.000
433.130; 2639.100;  236.050;    0.000
433.181; 2710.100;  282.050;    0.000
433.231; 2759.100;  257.050;    0.000
433.282; 2664.100;  268.050;    0.000
433.332; 2783.100;  241.050;    0.000
433.383; 2773.100;  271.050;    0.000
433.433; 2678.100;  262.050;    0.000
433.484; 2649.100;  266.050;    0.000
433.534; 2743.100;  217.050;    0.000
433.585; 2631.100;  230.050;    0.000
433.635; 2664.100;  245.050;    0.000
433.685; 2648.100;  250.050;    0.000
433.736; 2738.100;  308.050;    0.000
433.786; 2763.100;  242.050;    0.000
433.836; 2765.100;  256.050;    0.000
433.887; 2653.100;  250.050;    0.000
433.937; 2741.100;  250.050;    0.000
433.987; 2580.100;  219.050;    0.000
434.038; 2761.100;  248.050;    0.000
434.088; 2622.100;  231.050;    0.000
434.138; 2732.100;  266.050;    0.000
434.189; 2624.100;  240.050;    0.000
434.239; 2681.100;  245.050;    0.000
434.289; 2718.100;  285.050;    0.000
434.339; 2694.100;  255.050;    0.000
434.389; 2677.100;  242.050;    0.000
434.440; 2791.100;  273.050;    0.000
434.490; 2668.100;  272.050;    0.000
434.540; 2696.100;  264.050;    0.000
434.590; 2756.100;  233.050;    0.000
434.640; 2744.100;  244.050;    0.000
434.691; 2667.100;  226.050;    0.000
434.741; 2791.100;  253.050;    0.000
434.791; 2737.100;  269.050;    0.000
434.841; 2823.100;  252.050;    0.000
434.891; 2797.100;  281.050;    0.000
434.941; 2795.100;  296.050;    0.000
434.991; 2825.100;  264.050;    0.000
435.042; 2796.100;  262.050;    0.000
435.092; 2823.100;  237.050;    0.000
435.142; 2702.100;  232.050;    0.000
435.192; 2713.100;  251.050;    0.000
435.242; 2674.100;  251.050;    0.000
435.292; 2771.100;  246.050;    0.000
435.342; 2697.100;  236.050;    0.000
435.392; 2692.100;  273.050;    0.000
435.442; 2632.100;  273.050;    0.000
435.492; 2658.100;  273.050;    0.000
435.542; 2679.100;  242.050;    0.000
435.592; 2636.100;  213.050;    0.000
435.642; 2691.100;  248.050;    0.000
435.692; 2681.100;  242.050;    0.000
435.742; 2626.100;  222.050;    0.000
435.792; 2585.100;  260.050;    0.000
435.842; 2625.100;  266.050;    0.000
435.891; 2575.100;  227.050;    0.000
435.941; 2658.100;  228.050;    0.000
435.991; 2616.100;  282.050;    0.000
436.041; 2676.100;  231.050;    0.000
436.091; 2544.100;  250.050;    0.000
436.141; 2695.100;  221.050;    0.000
436.191; 2642.100;  223.050;    0.000
436.241; 2645.100;  250.050;    0.000
436.290; 2655.100;  243.050;    0.000
436.340; 2603.100;  236.050;    0.000
436.390; 2571.100;  260.050;    0.000
436.440; 2538.100;  253.050;    0.000
436.490; 2576.100;  236.050;    0.000
436.539; 2617.100;  249.050;    0.000
436.589; 2629.100;  231.050;    0.000
436.639; 2561.100;  237.050;    0.000
436.689; 2574.100;  222.050;    0.000
436.738; 2615.100;  263.050;    0.000
436.788; 2636.100;  230.050;    0.000
436.838; 2636.100;  281.050;    0.000
436.887; 2492.100;  230.050;    0.000
436.937; 2578.100;  250.050;    0.000
436.987; 2487.100;  251.050;    0.000
437.036; 2621.100;  238.050;    0.000
437.086; 2467.100;  234.050;    0.000
437.136; 2597.100;  250.050;    0.000
437.185; 2544.100;  228.050;    0.000
437.235; 2537.100;  309.050;    0.000
437.285; 2512.100;  246.050;    0.000
437.334; 2551.100;  262.050;    0.000
437.384; 2546.100;  228.050;    0.000
437.433; 2555.100;  241.050;    0.000
437.483; 2584.100;  220.050;    0.000
437.532; 2511.100;  252.050;    0.000
437.582; 2553.100;  270.050;    0.000
437.631; 2520.100;  251.050;    0.000
437.681; 2589.100;  284.050;    0.000
437.730; 2439.100;  239.050;    0.000
437.780; 2517.100;  221.050;    0.000
437.829; 2500.100;  254.050;    0.000
437.879; 2399.100;  221.050;    0.000
437.928; 2432.100;  205.050;    0.000
437.978; 2473.100;  223.050;    0.000
438.027; 2532.100;  262.050;    0.000
438.077; 2505.100;  280.050;    0.000
438.126; 2451.100;  254.050;    0.000
438.176; 2463.100;  230.050;    0.000
438.225; 2428.100;  227.050;    0.000
438.274; 2447.100;  264.050;    0.000
438.324; 2488.100;  233.050;    0.000
438.373; 2487.100;  238.050;    0.000
438.422; 2469.100;  260.050;    0.000
438.472; 2505.100;  223.050;    0.000
438.521; 2417.100;  213.050;    0.000
438.570; 2525.100;  236.050;    0.000
438.620; 2523.100;  282.050;    0.000
438.669; 2440.100;  209.050;    0.000
438.718; 2510.100;  245.050;    0.000
438.768; 2456.100;  238.050;    0.000
438.817; 2444.100;  259.050;    0.000
438.866; 2487.100;  232.050;    0.000
438.915; 2427.100;  288.050;    0.000
438.965; 2374.100;  228.050;    0.000
439.014; 2459.100;  246.050;    0.000
439.063; 2483.100;  287.050;    0.000
439.112; 2441.100;  217.050;    0.000
439.162; 2451.100;  275.050;    0.000
439.211; 2464.100;  287.050;    0.000
439.260; 2425.100;  238.050;    0.000
439.309; 2475.100;  225.050;    0.000
439.358; 2518.100;  248.050;    0.000
439.407; 2473.100;  237.050;    0.000
439.456; 2513.100;  223.050;    0.000
439.506; 2480.100;  266.050;    0.000
439.555; 2531.100;  260.050;    0.000
439.604; 2512.100;  233.050;    0.000
439.653; 2434.100;  242.050;    0.000
439.702; 2548.100;  255.050;    0.000
439.751; 2399.100;  202.050;    0.000
439.800; 2445.100;  247.050;    0.000
439.849; 2413.100;  250.050;    0.000
439.898; 2546.100;  216.050;    0.000
439.947; 2531.100;  231.050;    0.000
439.996; 2509.100;  272.050;    0.000
440.045; 2444.100;  217.050;    0.000
440.094; 2446.100;  220.050;    0.000
440.143; 2458.100;  245.050;    0.000
440.192; 2537.100;  267.050;    0.000
440.241; 2510.100;  263.050;    0.000
440.290; 2513.100;  246.050;    0.000
440.339; 2514.100;  225.050;    0.000
440.388; 2518.100;  256.050;    0.000
440.437; 2484.100;  253.050;    0.000
440.486; 2590.100;  249.050;    0.000
440.535; 2432.100;  232.050;    0.000
440.583; 2420.100;  220.050;    0.000
440.632; 2436.100;  239.050;    0.000
440.681; 2447.100;  236.050;    0.000
440.730; 2464.100;  282.050;    0.000
440.779; 2481.100;  245.050;    0.000
440.828; 2469.100;  213.050;    0.000
440.876; 2569.100;  231.050;    0.000
440.925; 2519.100;  271.050;    0.000
440.974; 2491.100;  240.050;    0.000
441.023; 2632.100;  214.050;    0.000
441.072; 2566.100;  236.050;    0.000
441.120; 2556.100;  271.050;    0.000
441.169; 2599.100;  281.050;    0.000
441.218; 2689.100;  255.050;    0.000
441.267; 2603.100;  272.050;    0.000
441.315; 2590.100;  229.050;    0.000
441.364; 2621.100;  241.050;    0.000
441.413; 2517.100;  224.050;    0.000
441.461; 2530.100;  241.050;    0.000
441.510; 2623.100;  289.050;    0.000
441.559; 2662.100;  222.050;    0.000
441.607; 2732.100;  242.050;    0.000
441.656; 2610.100;  255.050;    0.000
441.705; 2612.100;  260.050;    0.000
441.753; 2565.100;  290.050;    0.000
441.802; 2542.100;  264.050;    0.000
441.850; 2619.100;  224.050;    0.000
441.899; 2684.100;  275.050;    0.000
441.948; 2595.100;  227.050;    0.000
441.996; 2592.100;  216.050;    0.000
442.045; 2632.100;  271.050;    0.000
442.093; 2523.100;  227.050;    0.000
442.142; 2607.100;  273.050;    0.000
442.190; 2533.100;  257.050;    0.000
442.239; 2585.100;  269.050;    0.000
442.287; 2597.100;  257.050;    0.000
442.336; 2701.100;  237.050;    0.000
442.384; 2535.100;  214.050;    0.000
442.433; 2590.100;  272.050;    0.000
442.481; 2608.100;  258.050;    0.000
442.529; 2518.100;  242.050;    0.000
442.578; 2596.100;  278.050;    0.000
442.626; 2593.100;  264.050;    0.000
442.675; 2608.100;  293.050;    0.000
442.723; 2523.100;  244.050;    0.000
442.771; 2608.100;  232.050;    0.000
442.820; 2687.100;  266.050;    0.000
442.868; 2554.100;  253.050;    0.000
442.917; 2581.100;  250.050;    0.000
442.965; 2619.100;  279.050;    0.000
443.013; 2583.100;  253.050;    0.000
443.062; 2553.100;  282.050;    0.000
443.110; 2562.100;  258.050;    0.000
443.158; 2614.100;  246.050;    0.000
443.206; 2589.100;  255.050;    0.000
443.255; 2663.100;  296.050;    0.000
443.303; 2668.100;  272.050;    0.000
443.351; 2664.100;  270.050;    0.000
443.399; 2554.100;  258.050;    0.000
443.448; 2672.100;  265.050;    0.000
443.496; 2641.100;  219.050;    0.000
443.544; 2651.100;  205.050;    0.000
443.592; 2687.100;  266.050;    0.000
443.640; 2652.100;  260.050;    0.000
443.689; 2643.100;  232.050;    0.000
443.737; 2648.100;  281.050;    0.000
443.785; 2629.100;  248.050;    0.000
443.833; 2679.100;  286.050;    0.000
443.881; 2653.100;  225.050;    0.000
443.929; 2731.100;  255.050;    0.000
443.977; 2755.100;  248.050;    0.000
444.025; 2654.100;  255.050;    0.000
444.074; 2715.100;  266.050;    0.000
444.122; 2782.100;  266.050;    0.000
444.170; 2679.100;  207.050;    0.000
444.218; 2651.100;  253.050;    0.000
444.266; 2814.100;  263.050;    0.000
444.314; 2659.100;  272.050;    0.000
444.362; 2780.100;  272.050;    0.000
444.410; 2747.100;  255.050;    0.000
444.458; 2835.100;  288.050;    0.000
444.506; 2790.100;  263.050;    0.000
444.554; 2699.100;  243.050;    0.000
444.602; 2767.100;  285.050;    0.000
444.650; 2805.100;  273.050;    0.000
444.698; 2635.100;  221.050;    0.000
444.746; 2750.100;  243.050;    0.000
444.793; 2741.100;  217.050;    0.000
444.841; 2907.100;  262.050;    0.000
444.889; 2762.100;  264.050;    0.000
444.937; 2767.100;  226.050;    0.000
444.985; 2788.100;  257.050;    0.000
445.033; 2814.100;  264.050;    0.000
445.081; 2769.100;  264.050;    0.000
445.129; 2718.100;  187.050;    0.000
445.176; 2819.100;  212.050;    0.000
445.224; 2711.100;  198.050;    0.000
445.272; 2810.100;  265.050;    0.000
445.320; 2850.100;  239.050;    0.000
445.368; 2810.100;  245.050;    0.000
445.415; 2673.100;  215.050;    0.000
445.463; 2795.100;  202.050;    0.000
445.511; 2770.100;  234.050;    0.000
445.559; 2860.100;  269.050;    0.000
445.606; 2850.100;  214.050;    0.000
445.654; 2694.100;  227.050;    0.000
445.702; 2829.100;  276.050;    0.000
445.749; 2826.100;  256.050;    0.000
445.797; 2831.100;  236.050;    0.000
445.845; 2810.100;  230.050;    0.000
445.892; 2858.100;  233.050;    0.000
445.940; 2814.100;  257.050;    0.000
445.988; 2804.100;  253.050;    0.000
446.035; 2845.100;  265.050;    0.000
446.083; 2862.100;  254.050;    0.000
446.130; 2776.100;  228.050;    0.000
446.178; 2916.100;  256.050;    0.000
446.226; 2891.100;  238.050;    0.000
446.273; 2724.100;  228.050;    0.000
446.321; 2810.100;  220.050;    0.000
446.368; 2875.100;  249.050;    0.000
446.416; 2855.100;  221.050;    0.000
446.463; 2821.100;  232.050;    0.000
446.511; 2903.100;  243.050;    0.000
446.558; 2930.100;  217.050;    0.000
446.606; 2899.100;  256.050;    0.000
446.653; 2931.100;  238.050;    0.000
446.701; 2962.100;  259.050;    0.000
446.748; 2987.100;  227.050;    0.000
446.796; 2910.100;  236.050;    0.000
446.843; 2947.100;  241.050;    0.000
446.891; 3005.100;  292.050;    0.000
446.938; 3038.100;  219.050;    0.000
446.985; 3003.100;  255.050;    0.000
447.033; 3028.100;  237.050;    0.000
447.080; 3085.100;  278.050;    0.000
447.128; 2958.100;  237.050;    0.000
447.175; 3166.100;  247.050;    0.000
447.222; 3119.100;  235.050;    0.000
447.270; 3179.100;  274.050;    0.000
447.317; 3194.100;  222.050;    0.000
447.364; 3140.100;  230.050;    0.000
447.411; 3218.100;  297.050;    0.000
447.459; 3261.100;  243.050;    0.000
447.506; 3245.100;  202.050;    0.000
447.553; 3278.100;  232.050;    0.000
447.601; 3303.100;  262.050;    0.000
447.648; 3408.100;  254.050;    0.000
447.695; 3378.100;  287.050;    0.000
447.742; 3366.100;  232.050;    0.000
447.789; 3474.100;  257.050;    0.000
447.837; 3527.100;  260.050;    0.000
447.884; 3527.100;  272.050;    0.000
447.931; 3596.100;  241.050;    0.000
447.978; 3678.100;  241.050;    0.000
448.025; 3758.100;  264.050;    0.000
448.072; 3683.100;  279.050;    0.000
448.120; 3693.100;  263.050;    0.000
448.167; 3755.100;  284.050;    0.000
448.214; 3708.100;  252.050;    0.000
448.261; 3660.100;  247.050;    0.000
448.308; 3535.100;  249.050;    0.000
448.355; 3550.100;  263.050;    0.000
448.402; 3513.100;  251.050;    0.000
448.449; 3371.100;  257.050;    0.000
448.496; 3305.100;  243.050;    0.000
448.543; 3403.100;  274.050;    0.000
448.590; 3378.100;  299.050;    0.000
448.637; 3316.100;  259.050;    0.000
448.684; 3211.100;  266.050;    0.000
448.731; 3162.100;  261.050;    0.000
448.778; 3155.100;  292.050;    0.000
448.825; 3128.100;  253.050;    0.000
448.872; 3039.100;  253.050;    0.000
448.919; 3055.100;  218.050;    0.000
448.966; 3060.100;  254.050;    0.000
449.013; 3015.100;  263.050;    0.000
449.060; 3099.100;  282.050;    0.000
449.107; 2869.100;  244.050;    0.000
449.154; 3001.100;  236.050;    0.000
449.200; 2899.100;  226.050;    0.000
449.247; 3001.100;  273.050;    0.000
449.294; 2879.100;  270.050;    0.000
449.341; 2910.100;  283.050;    0.000
449.388; 2948.100;  261.050;    0.000
449.435; 2823.100;  254.050;    0.000
449.481; 2858.100;  318.050;    0.000
449.528; 2805.100;  274.050;    0.000
449.575; 2732.100;  251.050;    0.000
449.622; 2819.100;  276.050;    0.000
449.668; 2771.100;  242.050;    0.000
449.715; 2854.100;  286.050;    0.000
449.762; 2722.100;  268.050;    0.000
449.809; 2729.100;  285.050;    0.000
449.855; 2749.100;  277.050;    0.000
449.902; 2679.100;  246.050;    0.000
449.949; 2722.100;  268.050;    0.000
449.995; 2738.100;  289.050;    0.000
450.042; 2658.100;  256.050;    0.000
450.089; 2734.100;  290.050;    0.000
450.135; 2663.100;  300.050;    0.000
450.182; 2664.100;  317.050;    0.000
450.229; 2658.100;  282.050;    0.000
450.275; 2638.100;  307.050;    0.000
450.322; 2596.100;  260.050;    0.000
450.368; 2663.100;  315.050;    0.000
450.415; 2607.100;  306.050;    0.000
450.462; 2630.100;  314.050;    0.000
450.508; 2614.100;  303.050;    0.000
450.555; 2603.100;  281.050;    0.000
450.601; 2597.100;  291.050;    0.000
450.648; 2515.100;  288.050;    0.000
450.694; 2596.100;  290.050;    0.000
450.741; 2664.100;  303.050;    0.000
450.787; 2579.100;  298.050;    0.000
450.834; 2572.100;  265.050;    0.000
450.880; 2593.100;  273.050;    0.000
450.927; 2559.100;  312.050;    0.000
450.973; 2537.100;  303.050;    0.000
451.019; 2517.100;  222.050;    0.000
451.066; 2535.100;  284.050;    0.000
451.112; 2562.100;  296.050;    0.000
451.159; 2547.100;  299.050;    0.000
451.205; 2476.100;  311.050;    0.000
451.251; 2550.100;  306.050;    0.000
451.298; 2547.100;  281.050;    0.000
451.344; 2514.100;  311.050;    0.000
451.390; 2583.100;  331.050;    0.000
451.437; 2475.100;  303.050;    0.000
451.483; 2504.100;  284.050;    0.000
451.529; 2471.100;  310.050;    0.000
451.576; 2526.100;  301.050;    0.000
451.622; 2409.100;  275.050;    0.000
451.668; 2447.100;  269.050;    0.000
451.714; 2497.100;  277.050;    0.000
451.761; 2499.100;  298.050;    0.000
451.807; 2514.100;  316.050;    0.000
451.853; 2494.100;  301.050;    0.000
451.899; 2523.100;  292.050;    0.000
451.945; 2554.100;  324.050;    0.000
451.992; 2531.100;  292.050;    0.000
452.038; 2442.100;  261.050;    0.000
452.084; 2530.100;  286.050;    0.000
452.130; 2425.100;  301.050;    0.000
452.176; 2492.100;  287.050;    0.000
452.222; 2373.100;  265.050;    0.000
452.268; 2382.100;  268.050;    0.000
452.315; 2434.100;  272.050;    0.000
452.361; 2488.100;  258.050;    0.000
452.407; 2467.100;  279.050;    0.000
452.453; 2366.100;  252.050;    0.000
452.499; 2400.100;  305.050;    0.000
452.545; 2434.100;  263.050;    0.000
452.591; 2507.100;  284.050;    0.000
452.637; 2451.100;  289.050;    0.000
452.683; 2406.100;  249.050;    0.000
452.729; 2445.100;  290.050;    0.000
452.775; 2460.100;  315.050;    0.000
452.821; 2431.100;  271.050;    0.000
452.867; 2445.100;  258.050;    0.000
452.913; 2378.100;  256.050;    0.000
452.959; 2386.100;  266.050;    0.000
453.005; 2407.100;  299.050;    0.000
453.051; 2451.100;  299.050;    0.000
453.097; 2286.100;  268.050;    0.000
453.142; 2416.100;  251.050;    0.000
453.188; 2464.100;  284.050;    0.000
453.234; 2357.100;  285.050;    0.000
453.280; 2421.100;  263.050;    0.000
453.326; 2460.100;  273.050;    0.000
453.372; 2327.100;  253.050;    0.000
453.418; 2319.100;  269.050;    0.000
453.463; 2386.100;  250.050;    0.000
453.509; 2294.100;  289.050;    0.000
453.555; 2411.100;  262.050;    0.000
453.601; 2367.100;  274.050;    0.000
453.647; 2425.100;  306.050;    0.000
453.692; 2286.100;  264.050;    0.000
453.738; 2276.100;  312.050;    0.000
453.784; 2317.100;  300.050;    0.000
453.829; 2311.100;  284.050;    0.000
453.875; 2330.100;  270.050;    0.000
453.921; 2340.100;  237.050;    0.000
453.967; 2335.100;  263.050;    0.000
454.012; 2404.100;  295.050;    0.000
454.058; 2371.100;  293.050;    0.000
454.104; 2370.100;  264.050;    0.000
454.149; 2357.100;  282.050;    0.000
454.195; 2313.100;  277.050;    0.000
454.240; 2461.100;  307.050;    0.000
454.286; 2315.100;  282.050;    0.000
454.332; 2338.100;  291.050;    0.000
454.377; 2308.100;  302.050;    0.000
454.423; 2288.100;  276.050;    0.000
454.468; 2292.100;  281.050;    0.000
454.514; 2331.100;  290.050;    0.000
454.559; 2330.100;  289.050;    0.000
454.605; 2363.100;  258.050;    0.000
454.650; 2385.100;  281.050;    0.000
454.696; 2391.100;  308.050;    0.000
454.741; 2349.100;  288.050;    0.000
454.787; 2354.100;  284.050;    0.000
454.832; 2339.100;  306.050;    0.000
454.878; 2348.100;  288.050;    0.000
454.923; 2323.100;  287.050;    0.000
454.969; 2346.100;  325.050;    0.000
455.014; 2372.100;  323.050;    0.000
455.060; 2425.100;  290.050;    0.000
455.105; 2383.100;  285.050;    0.000
455.150; 2383.100;  303.050;    0.000
455.196; 2264.100;  282.050;    0.000
455.241; 2345.100;  281.050;    0.000
455.286; 2296.100;  290.050;    0.000
455.332; 2309.100;  280.050;    0.000
455.377; 2247.100;  243.050;    0.000
455.422; 2401.100;  308.050;    0.000
455.468; 2280.100;  308.050;    0.000
455.513; 2297.100;  290.050;    0.000
455.558; 2316.100;  211.050;    0.000
455.604; 2313.100;  289.050;    0.000
455.649; 2284.100;  297.050;    0.000
455.694; 2243.100;  287.050;    0.000
455.739; 2360.100;  296.050;    0.000
455.785; 2305.100;  315.050;    0.000
455.830; 2334.100;  328.050;    0.000
455.875; 2347.100;  310.050;    0.000
455.920; 2263.100;  261.050;    0.000
455.965; 2327.100;  277.050;    0.000
456.010; 2334.100;  317.050;    0.000
456.056; 2312.100;  299.050;    0.000
456.101; 2395.100;  262.050;    0.000
456.146; 2365.100;  318.050;    0.000
456.191; 2331.100;  274.050;    0.000
456.236; 2284.100;  274.050;    0.000
456.281; 2253.100;  275.050;    0.000
456.326; 2255.100;  256.050;    0.000
456.371; 2300.100;  260.050;    0.000
456.416; 2355.100;  304.050;    0.000
456.461; 2263.100;  278.050;    0.000
456.507; 2336.100;  299.050;    0.000
456.552; 2227.100;  305.050;    0.000
456.597; 2303.100;  271.050;    0.000
456.642; 2231.100;  273.050;    0.000
456.687; 2269.100;  290.050;    0.000
456.732; 2359.100;  327.050;    0.000
456.776; 2331.100;  284.050;    0.000
456.821; 2291.100;  321.050;    0.000
456.866; 2357.100;  272.050;    0.000
456.911; 2304.100;  232.050;    0.000
456.956; 2379.100;  263.050;    0.000
457.001; 2271.100;  277.050;    0.000
457.046; 2329.100;  284.050;    0.000
457.091; 2274.100;  269.050;    0.000
457.136; 2293.100;  269.050;    0.000
457.181; 2341.100;  275.050;    0.000
457.225; 2377.100;  310.050;    0.000
457.270; 2350.100;  295.050;    0.000
457.315; 2394.100;  284.050;    0.000
457.360; 2270.100;  264.050;    0.000
457.405; 2292.100;  273.050;    0.000
457.450; 2358.100;  284.050;    0.000
457.494; 2386.100;  273.050;    0.000
457.539; 2338.100;  287.050;    0.000
457.584; 2318.100;  279.050;    0.000
457.629; 2269.100;  288.050;    0.000
457.673; 2292.100;  297.050;    0.000
457.718; 2354.100;  270.050;    0.000
457.763; 2314.100;  295.050;    0.000
457.807; 2348.100;  321.050;    0.000
457.852; 2396.100;  293.050;    0.000
457.897; 2365.100;  282.050;    0.000
457.941; 2338.100;  320.050;    0.000
457.986; 2344.100;  295.050;    0.000
458.031; 2367.100;  314.050;    0.000
458.075; 2371.100;  280.050;    0.000
458.120; 2352.100;  314.050;    0.000
458.165; 2250.100;  289.050;    0.000
458.209; 2337.100;  289.050;    0.000
458.254; 2373.100;  272.050;    0.000
458.298; 2373.100;  305.050;    0.000
458.343; 2337.100;  284.050;    0.000
458.387; 2420.100;  340.050;    0.000
458.432; 2318.100;  306.050;    0.000
458.476; 2470.100;  311.050;    0.000
458.521; 2312.100;  304.050;    0.000
458.565; 2478.100;  329.050;    0.000
458.610; 2417.100;  287.050;    0.000
458.654; 2476.100;  300.050;    0.000
458.699; 2474.100;  295.050;    0.000
458.743; 2361.100;  269.050;    0.000
458.788; 2502.100;  294.050;    0.000
458.832; 2480.100;  301.050;    0.000
458.877; 2509.100;  303.050;    0.000
458.921; 2364.100;  259.050;    0.000
458.965; 2446.100;  308.050;    0.000
459.010; 2496.100;  330.050;    0.000
459.054; 2471.100;  298.050;    0.000
459.099; 2410.100;  303.050;    0.000
459.143; 2555.100;  333.050;    0.000
459.187; 2520.100;  291.050;    0.000
459.231; 2499.100;  316.050;    0.000
459.276; 2517.100;  294.050;    0.000
459.320; 2450.100;  291.050;    0.000
459.364; 2503.100;  318.050;    0.000
459.409; 2505.100;  325.050;    0.000
459.453; 2489.100;  293.050;    0.000
459.497; 2602.100;  354.050;    0.000
459.541; 2562.100;  313.050;    0.000
459.586; 2481.100;  282.050;    0.000
459.630; 2530.100;  286.050;    0.000
459.674; 2554.100;  292.050;    0.000
459.718; 2542.100;  280.050;    0.000
459.762; 2608.100;  304.050;    0.000
459.807; 2564.100;  352.050;    0.000
459.851; 2570.100;  300.050;    0.000
459.895; 2496.100;  311.050;    0.000
459.939; 2524.100;  303.050;    0.000
459.983; 2591.100;  299.050;    0.000
460.027; 2641.100;  307.050;    0.000
460.071; 2550.100;  313.050;    0.000
460.115; 2605.100;  325.050;    0.000
460.159; 2577.100;  331.050;    0.000
460.204; 2631.100;  301.050;    0.000
460.248; 2588.100;  329.050;    0.000
460.292; 2680.100;  310.050;    0.000
460.336; 2606.100;  304.050;    0.000
460.380; 2570.100;  313.050;    0.000
460.424; 2601.100;  300.050;    0.000
460.468; 2647.100;  338.050;    0.000
460.512; 2605.100;  310.050;    0.000
460.556; 2658.100;  337.050;    0.000
460.599; 2626.100;  310.050;    0.000
460.643; 2638.100;  303.050;    0.000
460.687; 2681.100;  316.050;    0.000
460.731; 2564.100;  292.050;    0.000
460.775; 2588.100;  294.050;    0.000
460.819; 2582.100;  310.050;    0.000
460.863; 2614.100;  349.050;    0.000
460.907; 2574.100;  265.050;    0.000
460.951; 2603.100;  325.050;    0.000
460.995; 2687.100;  338.050;    0.000
461.038; 2652.100;  304.050;    0.000
461.082; 2620.100;  312.050;    0.000
461.126; 2670.100;  358.050;    0.000
461.170; 2623.100;  306.050;    0.000
461.214; 2639.100;  330.050;    0.000
461.257; 2699.100;  311.050;    0.000
461.301; 2627.100;  303.050;    0.000
461.345; 2672.100;  310.050;    0.000
461.389; 2707.100;  296.050;    0.000
461.432; 2659.100;  304.050;    0.000
461.476; 2613.100;  305.050;    0.000
461.520; 2661.100;  319.050;    0.000
461.563; 2647.100;  294.050;    0.000
461.607; 2693.100;  295.050;    0.000
461.651; 2653.100;  335.050;    0.000
461.694; 2744.100;  276.050;    0.000
461.738; 2648.100;  327.050;    0.000
461.782; 2649.100;  288.050;    0.000
461.825; 2720.100;  319.050;    0.000
461.869; 2656.100;  305.050;    0.000
461.913; 2611.100;  281.050;    0.000
461.956; 2639.100;  281.050;    0.000
462.000; 2748.100;  339.050;    0.000
462.043; 2625.100;  347.050;    0.000
462.087; 2595.100;  314.050;    0.000
462.130; 2689.100;  332.050;    0.000
462.174; 2697.100;  332.050;    0.000
462.217; 2807.100;  299.050;    0.000
462.261; 2658.100;  323.050;    0.000
462.304; 2673.100;  286.050;    0.000
462.348; 2730.100;  305.050;    0.000
462.391; 2778.100;  293.050;    0.000
462.435; 2787.100;  365.050;    0.000
462.478; 2804.100;  329.050;    0.000
462.522; 2706.100;  316.050;    0.000
462.565; 2750.100;  328.050;    0.000
462.608; 2926.100;  350.050;    0.000
462.652; 2813.100;  328.050;    0.000
462.695; 2859.100;  358.050;    0.000
462.739; 2814.100;  317.050;    0.000
462.782; 2758.100;  329.050;    0.000
462.825; 2878.100;  368.050;    0.000
462.869; 2908.100;  343.050;    0.000
462.912; 2917.100;  404.050;    0.000
462.955; 2866.100;  328.050;    0.000
462.998; 3016.100;  340.050;    0.000
463.042; 2874.100;  361.050;    0.000
463.085; 2883.100;  337.050;    0.000
463.128; 2994.100;  373.050;    0.000
463.172; 2874.100;  347.050;    0.000
463.215;  377.100;  305.050;    0.000
463.258;  338.100;  324.050;    0.000
463.301;  311.100;  296.050;    0.000
463.344;  338.100;  332.050;    0.000
463.388;  316.100;  309.050;    0.000
463.431;  304.100;  298.050;    0.000
463.474;  318.100;  351.050;    0.000
463.517;  331.100;  319.050;    0.000
463.560;  324.100;  325.050;    0.000
463.603;  297.100;  330.050;    0.000
463.646;  343.100;  332.050;    0.000
463.690;  282.100;  325.050;    0.000
463.733;  341.100;  323.050;    0.000
463.776;  299.100;  276.050;    0.000
463.819;  320.100;  320.050;    0.000
463.862;  321.100;  275.050;    0.000

