
Integration time [ms]:   1.000
Averaging Nr. [scans]: 1
Smoothing Nr. [pixels]: 0
Data measured with spectrometer [name]: UV2
Wave   ;Sample   ;Dark     ;Reference
[nm]   ;[counts] ;[counts] ;[counts] 

353.533;  188.400;    0.000;    0.000
353.597;  234.400;    0.000;    0.000
353.660;  227.400;    0.000;    0.000
353.723;  224.400;    0.000;    0.000
353.786;  181.400;    0.000;    0.000
353.850;  247.400;    0.000;    0.000
353.913;  182.400;    0.000;    0.000
353.976;  202.400;    0.000;    0.000
354.039;  189.400;    0.000;    0.000
354.102;  223.400;    0.000;    0.000
354.166;  220.400;    0.000;    0.000
354.229;  242.400;    0.000;    0.000
354.292;  204.400;    0.000;    0.000
354.355;  205.400;    0.000;    0.000
354.418;  198.400;    0.000;    0.000
354.481;  229.400;    0.000;    0.000
354.545;  480.400;    0.000;    0.000
354.608;  515.400;    0.000;    0.000
354.671;  443.400;    0.000;    0.000
354.734;  512.400;    0.000;    0.000
354.797;  501.400;    0.000;    0.000
354.860;  471.400;    0.000;    0.000
354.923;  520.400;    0.000;    0.000
354.986;  504.400;    0.000;    0.000
355.050;  515.400;    0.000;    0.000
355.113;  513.400;    0.000;    0.000
355.176;  534.400;    0.000;    0.000
355.239;  509.400;    0.000;    0.000
355.302;  519.400;    0.000;    0.000
355.365;  570.400;    0.000;    0.000
355.428;  571.400;    0.000;    0.000
355.491;  580.400;    0.000;    0.000
355.554;  479.400;    0.000;    0.000
355.617;  534.400;    0.000;    0.000
355.680;  562.400;    0.000;    0.000
355.743;  536.400;    0.000;    0.000
355.806;  537.400;    0.000;    0.000
355.869;  544.400;    0.000;    0.000
355.932;  528.400;    0.000;    0.000
355.995;  564.400;    0.000;    0.000
356.058;  531.400;    0.000;    0.000
356.121;  589.400;    0.000;    0.000
356.184;  575.400;    0.000;    0.000
356.247;  581.400;    0.000;    0.000
356.310;  545.400;    0.000;    0.000
356.373;  560.400;    0.000;    0.000
356.436;  581.400;    0.000;    0.000
356.498;  588.400;    0.000;    0.000
356.561;  575.400;    0.000;    0.000
356.624;  579.400;    0.000;    0.000
356.687;  583.400;    0.000;    0.000
356.750;  573.400;    0.000;    0.000
356.813;  535.400;    0.000;    0.000
356.876;  602.400;    0.000;    0.000
356.939;  576.400;    0.000;    0.000
357.001;  588.400;    0.000;    0.000
357.064;  591.400;    0.000;    0.000
357.127;  558.400;    0.000;    0.000
357.190;  586.400;    0.000;    0.000
357.253;  615.400;    0.000;    0.000
357.316;  581.400;    0.000;    0.000
357.378;  584.400;    0.000;    0.000
357.441;  590.400;    0.000;    0.000
357.504;  580.400;    0.000;    0.000
357.567;  546.400;    0.000;    0.000
357.629;  587.400;    0.000;    0.000
357.692;  553.400;    0.000;    0.000
357.755;  574.400;    0.000;    0.000
357.818;  577.400;    0.000;    0.000
357.880;  576.400;    0.000;    0.000
357.943;  558.400;    0.000;    0.000
358.006;  591.400;    0.000;    0.000
358.069;  594.400;    0.000;    0.000
358.131;  563.400;    0.000;    0.000
358.194;  573.400;    0.000;    0.000
358.257;  612.400;    0.000;    0.000
358.319;  588.400;    0.000;    0.000
358.382;  594.400;    0.000;    0.000
358.445;  632.400;    0.000;    0.000
358.507;  623.400;    0.000;    0.000
358.570;  599.400;    0.000;    0.000
358.633;  621.400;    0.000;    0.000
358.695;  566.400;    0.000;    0.000
358.758;  627.400;    0.000;    0.000
358.821;  636.400;    0.000;    0.000
358.883;  620.400;    0.000;    0.000
358.946;  615.400;    0.000;    0.000
359.008;  624.400;    0.000;    0.000
359.071;  632.400;    0.000;    0.000
359.134;  561.400;    0.000;    0.000
359.196;  651.400;    0.000;    0.000
359.259;  624.400;    0.000;    0.000
359.321;  597.400;    0.000;    0.000
359.384;  599.400;    0.000;    0.000
359.446;  591.400;    0.000;    0.000
359.509;  644.400;    0.000;    0.000
359.571;  599.400;    0.000;    0.000
359.634;  671.400;    0.000;    0.000
359.696;  614.400;    0.000;    0.000
359.759;  614.400;    0.000;    0.000
359.821;  589.400;    0.000;    0.000
359.884;  650.400;    0.000;    0.000
359.946;  624.400;    0.000;    0.000
360.009;  660.400;    0.000;    0.000
360.071;  596.400;    0.000;    0.000
360.134;  685.400;    0.000;    0.000
360.196;  656.400;    0.000;    0.000
360.259;  591.400;    0.000;    0.000
360.321;  637.400;    0.000;    0.000
360.384;  589.400;    0.000;    0.000
360.446;  633.400;    0.000;    0.000
360.508;  639.400;    0.000;    0.000
360.571;  630.400;    0.000;    0.000
360.633;  641.400;    0.000;    0.000
360.696;  645.400;    0.000;    0.000
360.758;  609.400;    0.000;    0.000
360.820;  686.400;    0.000;    0.000
360.883;  644.400;    0.000;    0.000
360.945;  637.400;    0.000;    0.000
361.007;  677.400;    0.000;    0.000
361.070;  667.400;    0.000;    0.000
361.132;  676.400;    0.000;    0.000
361.194;  695.400;    0.000;    0.000
361.257;  681.400;    0.000;    0.000
361.319;  671.400;    0.000;    0.000
361.381;  648.400;    0.000;    0.000
361.443;  631.400;    0.000;    0.000
361.506;  696.400;    0.000;    0.000
361.568;  697.400;    0.000;    0.000
361.630;  662.400;    0.000;    0.000
361.693;  661.400;    0.000;    0.000
361.755;  684.400;    0.000;    0.000
361.817;  719.400;    0.000;    0.000
361.879;  699.400;    0.000;    0.000
361.941;  698.400;    0.000;    0.000
362.004;  665.400;    0.000;    0.000
362.066;  667.400;    0.000;    0.000
362.128;  674.400;    0.000;    0.000
362.190;  690.400;    0.000;    0.000
362.252;  656.400;    0.000;    0.000
362.315;  697.400;    0.000;    0.000
362.377;  666.400;    0.000;    0.000
362.439;  678.400;    0.000;    0.000
362.501;  672.400;    0.000;    0.000
362.563;  707.400;    0.000;    0.000
362.625;  711.400;    0.000;    0.000
362.688;  662.400;    0.000;    0.000
362.750;  722.400;    0.000;    0.000
362.812;  671.400;    0.000;    0.000
362.874;  690.400;    0.000;    0.000
362.936;  708.400;    0.000;    0.000
362.998;  688.400;    0.000;    0.000
363.060;  760.400;    0.000;    0.000
363.122;  676.400;    0.000;    0.000
363.184;  672.400;    0.000;    0.000
363.246;  691.400;    0.000;    0.000
363.308;  743.400;    0.000;    0.000
363.370;  711.400;    0.000;    0.000
363.432;  677.400;    0.000;    0.000
363.494;  709.400;    0.000;    0.000
363.556;  670.400;    0.000;    0.000
363.618;  694.400;    0.000;    0.000
363.680;  702.400;    0.000;    0.000
363.742;  773.400;    0.000;    0.000
363.804;  723.400;    0.000;    0.000
363.866;  768.400;    0.000;    0.000
363.928;  716.400;    0.000;    0.000
363.990;  776.400;    0.000;    0.000
364.052;  699.400;    0.000;    0.000
364.114;  736.400;    0.000;    0.000
364.176;  721.400;    0.000;    0.000
364.238;  781.400;    0.000;    0.000
364.300;  735.400;    0.000;    0.000
364.362;  766.400;    0.000;    0.000
364.424;  679.400;    0.000;    0.000
364.486;  745.400;    0.000;    0.000
364.548;  733.400;    0.000;    0.000
364.609;  802.400;    0.000;    0.000
364.671;  770.400;    0.000;    0.000
364.733;  750.400;    0.000;    0.000
364.795;  767.400;    0.000;    0.000
364.857;  715.400;    0.000;    0.000
364.919;  692.400;    0.000;    0.000
364.981;  738.400;    0.000;    0.000
365.042;  766.400;    0.000;    0.000
365.104;  706.400;    0.000;    0.000
365.166;  728.400;    0.000;    0.000
365.228;  731.400;    0.000;    0.000
365.290;  708.400;    0.000;    0.000
365.351;  726.400;    0.000;    0.000
365.413;  806.400;    0.000;    0.000
365.475;  689.400;    0.000;    0.000
365.537;  792.400;    0.000;    0.000
365.598;  811.400;    0.000;    0.000
365.660;  718.400;    0.000;    0.000
365.722;  774.400;    0.000;    0.000
365.784;  739.400;    0.000;    0.000
365.845;  723.400;    0.000;    0.000
365.907;  714.400;    0.000;    0.000
365.969;  772.400;    0.000;    0.000
366.030;  758.400;    0.000;    0.000
366.092;  702.400;    0.000;    0.000
366.154;  768.400;    0.000;    0.000
366.215;  808.400;    0.000;    0.000
366.277;  739.400;    0.000;    0.000
366.339;  756.400;    0.000;    0.000
366.400;  768.400;    0.000;    0.000
366.462;  759.400;    0.000;    0.000
366.524;  751.400;    0.000;    0.000
366.585;  764.400;    0.000;    0.000
366.647;  819.400;    0.000;    0.000
366.708;  691.400;    0.000;    0.000
366.770;  796.400;    0.000;    0.000
366.832;  792.400;    0.000;    0.000
366.893;  767.400;    0.000;    0.000
366.955;  768.400;    0.000;    0.000
367.016;  838.400;    0.000;    0.000
367.078;  763.400;    0.000;    0.000
367.139;  745.400;    0.000;    0.000
367.201;  848.400;    0.000;    0.000
367.262;  793.400;    0.000;    0.000
367.324;  794.400;    0.000;    0.000
367.385;  748.400;    0.000;    0.000
367.447;  817.400;    0.000;    0.000
367.508;  773.400;    0.000;    0.000
367.570;  783.400;    0.000;    0.000
367.631;  752.400;    0.000;    0.000
367.693;  733.400;    0.000;    0.000
367.754;  765.400;    0.000;    0.000
367.816;  729.400;    0.000;    0.000
367.877;  834.400;    0.000;    0.000
367.939;  825.400;    0.000;    0.000
368.000;  781.400;    0.000;    0.000
368.062;  777.400;    0.000;    0.000
368.123;  805.400;    0.000;    0.000
368.184;  802.400;    0.000;    0.000
368.246;  813.400;    0.000;    0.000
368.307;  829.400;    0.000;    0.000
368.369;  779.400;    0.000;    0.000
368.430;  813.400;    0.000;    0.000
368.491;  776.400;    0.000;    0.000
368.553;  823.400;    0.000;    0.000
368.614;  803.400;    0.000;    0.000
368.675;  790.400;    0.000;    0.000
368.737;  745.400;    0.000;    0.000
368.798;  809.400;    0.000;    0.000
368.859;  842.400;    0.000;    0.000
368.921;  818.400;    0.000;    0.000
368.982;  848.400;    0.000;    0.000
369.043;  829.400;    0.000;    0.000
369.104;  811.400;    0.000;    0.000
369.166;  864.400;    0.000;    0.000
369.227;  842.400;    0.000;    0.000
369.288;  829.400;    0.000;    0.000
369.349;  861.400;    0.000;    0.000
369.411;  866.400;    0.000;    0.000
369.472;  857.400;    0.000;    0.000
369.533;  850.400;    0.000;    0.000
369.594;  829.400;    0.000;    0.000
369.656;  885.400;    0.000;    0.000
369.717;  792.400;    0.000;    0.000
369.778;  785.400;    0.000;    0.000
369.839;  880.400;    0.000;    0.000
369.900;  861.400;    0.000;    0.000
369.961;  823.400;    0.000;    0.000
370.023;  847.400;    0.000;    0.000
370.084;  879.400;    0.000;    0.000
370.145;  835.400;    0.000;    0.000
370.206;  861.400;    0.000;    0.000
370.267;  830.400;    0.000;    0.000
370.328;  860.400;    0.000;    0.000
370.389;  786.400;    0.000;    0.000
370.451;  828.400;    0.000;    0.000
370.512;  853.400;    0.000;    0.000
370.573;  854.400;    0.000;    0.000
370.634;  879.400;    0.000;    0.000
370.695;  836.400;    0.000;    0.000
370.756;  829.400;    0.000;    0.000
370.817;  921.400;    0.000;    0.000
370.878;  966.400;    0.000;    0.000
370.939;  850.400;    0.000;    0.000
371.000;  837.400;    0.000;    0.000
371.061;  915.400;    0.000;    0.000
371.122;  849.400;    0.000;    0.000
371.183;  832.400;    0.000;    0.000
371.244;  828.400;    0.000;    0.000
371.305;  883.400;    0.000;    0.000
371.366;  894.400;    0.000;    0.000
371.427;  847.400;    0.000;    0.000
371.488;  885.400;    0.000;    0.000
371.549;  839.400;    0.000;    0.000
371.610;  884.400;    0.000;    0.000
371.671;  858.400;    0.000;    0.000
371.732;  870.400;    0.000;    0.000
371.793;  887.400;    0.000;    0.000
371.853;  828.400;    0.000;    0.000
371.914;  881.400;    0.000;    0.000
371.975;  846.400;    0.000;    0.000
372.036;  904.400;    0.000;    0.000
372.097;  874.400;    0.000;    0.000
372.158;  899.400;    0.000;    0.000
372.219;  851.400;    0.000;    0.000
372.280;  886.400;    0.000;    0.000
372.340;  877.400;    0.000;    0.000
372.401;  896.400;    0.000;    0.000
372.462;  914.400;    0.000;    0.000
372.523;  856.400;    0.000;    0.000
372.584;  870.400;    0.000;    0.000
372.645;  927.400;    0.000;    0.000
372.705;  955.400;    0.000;    0.000
372.766;  918.400;    0.000;    0.000
372.827;  923.400;    0.000;    0.000
372.888;  912.400;    0.000;    0.000
372.948;  950.400;    0.000;    0.000
373.009;  914.400;    0.000;    0.000
373.070;  944.400;    0.000;    0.000
373.131;  854.400;    0.000;    0.000
373.191;  975.400;    0.000;    0.000
373.252;  890.400;    0.000;    0.000
373.313;  868.400;    0.000;    0.000
373.373;  849.400;    0.000;    0.000
373.434;  910.400;    0.000;    0.000
373.495;  908.400;    0.000;    0.000
373.555;  938.400;    0.000;    0.000
373.616;  877.400;    0.000;    0.000
373.677;  879.400;    0.000;    0.000
373.737;  922.400;    0.000;    0.000
373.798;  885.400;    0.000;    0.000
373.859;  916.400;    0.000;    0.000
373.919;  967.400;    0.000;    0.000
373.980;  976.400;    0.000;    0.000
374.041;  886.400;    0.000;    0.000
374.101;  901.400;    0.000;    0.000
374.162;  945.400;    0.000;    0.000
374.222;  934.400;    0.000;    0.000
374.283;  965.400;    0.000;    0.000
374.343;  984.400;    0.000;    0.000
374.404;  921.400;    0.000;    0.000
374.465; 1017.400;    0.000;    0.000
374.525;  932.400;    0.000;    0.000
374.586;  963.400;    0.000;    0.000
374.646;  999.400;    0.000;    0.000
374.707;  975.400;    0.000;    0.000
374.767;  909.400;    0.000;    0.000
374.828;  973.400;    0.000;    0.000
374.888;  950.400;    0.000;    0.000
374.949;  966.400;    0.000;    0.000
375.009;  982.400;    0.000;    0.000
375.070;  965.400;    0.000;    0.000
375.130; 1009.400;    0.000;    0.000
375.190;  990.400;    0.000;    0.000
375.251; 1024.400;    0.000;    0.000
375.311;  972.400;    0.000;    0.000
375.372;  983.400;    0.000;    0.000
375.432; 1019.400;    0.000;    0.000
375.493;  980.400;    0.000;    0.000
375.553; 1053.400;    0.000;    0.000
375.613;  969.400;    0.000;    0.000
375.674; 1028.400;    0.000;    0.000
375.734;  958.400;    0.000;    0.000
375.794;  993.400;    0.000;    0.000
375.855;  929.400;    0.000;    0.000
375.915;  955.400;    0.000;    0.000
375.975;  959.400;    0.000;    0.000
376.036; 1002.400;    0.000;    0.000
376.096; 1051.400;    0.000;    0.000
376.156;  943.400;    0.000;    0.000
376.217; 1012.400;    0.000;    0.000
376.277; 1002.400;    0.000;    0.000
376.337;  986.400;    0.000;    0.000
376.398; 1018.400;    0.000;    0.000
376.458; 1042.400;    0.000;    0.000
376.518;  933.400;    0.000;    0.000
376.578; 1012.400;    0.000;    0.000
376.639; 1008.400;    0.000;    0.000
376.699; 1000.400;    0.000;    0.000
376.759;  998.400;    0.000;    0.000
376.819;  997.400;    0.000;    0.000
376.880; 1027.400;    0.000;    0.000
376.940; 1023.400;    0.000;    0.000
377.000; 1025.400;    0.000;    0.000
377.060; 1026.400;    0.000;    0.000
377.120; 1009.400;    0.000;    0.000
377.180; 1040.400;    0.000;    0.000
377.241; 1028.400;    0.000;    0.000
377.301; 1087.400;    0.000;    0.000
377.361;  990.400;    0.000;    0.000
377.421;  993.400;    0.000;    0.000
377.481; 1013.400;    0.000;    0.000
377.541; 1015.400;    0.000;    0.000
377.601; 1084.400;    0.000;    0.000
377.661; 1072.400;    0.000;    0.000
377.722; 1063.400;    0.000;    0.000
377.782; 1069.400;    0.000;    0.000
377.842; 1114.400;    0.000;    0.000
377.902; 1059.400;    0.000;    0.000
377.962; 1087.400;    0.000;    0.000
378.022; 1048.400;    0.000;    0.000
378.082; 1087.400;    0.000;    0.000
378.142; 1104.400;    0.000;    0.000
378.202; 1082.400;    0.000;    0.000
378.262; 1116.400;    0.000;    0.000
378.322; 1125.400;    0.000;    0.000
378.382; 1104.400;    0.000;    0.000
378.442; 1123.400;    0.000;    0.000
378.502; 1084.400;    0.000;    0.000
378.562; 1095.400;    0.000;    0.000
378.622; 1095.400;    0.000;    0.000
378.682; 1099.400;    0.000;    0.000
378.742; 1096.400;    0.000;    0.000
378.802; 1143.400;    0.000;    0.000
378.862; 1132.400;    0.000;    0.000
378.921; 1092.400;    0.000;    0.000
378.981; 1176.400;    0.000;    0.000
379.041; 1145.400;    0.000;    0.000
379.101; 1176.400;    0.000;    0.000
379.161; 1143.400;    0.000;    0.000
379.221; 1137.400;    0.000;    0.000
379.281; 1183.400;    0.000;    0.000
379.341; 1207.400;    0.000;    0.000
379.401; 1101.400;    0.000;    0.000
379.460; 1182.400;    0.000;    0.000
379.520; 1199.400;    0.000;    0.000
379.580; 1146.400;    0.000;    0.000
379.640; 1164.400;    0.000;    0.000
379.700; 1211.400;    0.000;    0.000
379.759; 1210.400;    0.000;    0.000
379.819; 1224.400;    0.000;    0.000
379.879; 1210.400;    0.000;    0.000
379.939; 1201.400;    0.000;    0.000
379.999; 1226.400;    0.000;    0.000
380.058; 1230.400;    0.000;    0.000
380.118; 1213.400;    0.000;    0.000
380.178; 1306.400;    0.000;    0.000
380.237; 1213.400;    0.000;    0.000
380.297; 1222.400;    0.000;    0.000
380.357; 1232.400;    0.000;    0.000
380.417; 1229.400;    0.000;    0.000
380.476; 1290.400;    0.000;    0.000
380.536; 1277.400;    0.000;    0.000
380.596; 1262.400;    0.000;    0.000
380.655; 1289.400;    0.000;    0.000
380.715; 1273.400;    0.000;    0.000
380.775; 1332.400;    0.000;    0.000
380.834; 1317.400;    0.000;    0.000
380.894; 1258.400;    0.000;    0.000
380.954; 1227.400;    0.000;    0.000
381.013; 1357.400;    0.000;    0.000
381.073; 1305.400;    0.000;    0.000
381.132; 1309.400;    0.000;    0.000
381.192; 1328.400;    0.000;    0.000
381.252; 1350.400;    0.000;    0.000
381.311; 1323.400;    0.000;    0.000
381.371; 1377.400;    0.000;    0.000
381.430; 1337.400;    0.000;    0.000
381.490; 1393.400;    0.000;    0.000
381.549; 1338.400;    0.000;    0.000
381.609; 1374.400;    0.000;    0.000
381.668; 1423.400;    0.000;    0.000
381.728; 1341.400;    0.000;    0.000
381.787; 1421.400;    0.000;    0.000
381.847; 1396.400;    0.000;    0.000
381.906; 1394.400;    0.000;    0.000
381.966; 1350.400;    0.000;    0.000
382.025; 1429.400;    0.000;    0.000
382.085; 1439.400;    0.000;    0.000
382.144; 1465.400;    0.000;    0.000
382.204; 1558.400;    0.000;    0.000
382.263; 1486.400;    0.000;    0.000
382.323; 1597.400;    0.000;    0.000
382.382; 1546.400;    0.000;    0.000
382.441; 1551.400;    0.000;    0.000
382.501; 1616.400;    0.000;    0.000
382.560; 1646.400;    0.000;    0.000
382.619; 1639.400;    0.000;    0.000
382.679; 1764.400;    0.000;    0.000
382.738; 1894.400;    0.000;    0.000
382.798; 2023.400;    0.000;    0.000
382.857; 2154.400;    0.000;    0.000
382.916; 2302.400;    0.000;    0.000
382.976; 2203.400;    0.000;    0.000
383.035; 2226.400;    0.000;    0.000
383.094; 2442.400;    0.000;    0.000
383.154; 2738.400;    0.000;    0.000
383.213; 2794.400;    0.000;    0.000
383.272; 2570.400;    0.000;    0.000
383.331; 2204.400;    0.000;    0.000
383.391; 2100.400;    0.000;    0.000
383.450; 2098.400;    0.000;    0.000
383.509; 2186.400;    0.000;    0.000
383.568; 2312.400;    0.000;    0.000
383.628; 2373.400;    0.000;    0.000
383.687; 2629.400;    0.000;    0.000
383.746; 2980.400;    0.000;    0.000
383.805; 3148.400;    0.000;    0.000
383.864; 2761.400;    0.000;    0.000
383.924; 2417.400;    0.000;    0.000
383.983; 2097.400;    0.000;    0.000
384.042; 1949.400;    0.000;    0.000
384.101; 1897.400;    0.000;    0.000
384.160; 1675.400;    0.000;    0.000
384.219; 1701.400;    0.000;    0.000
384.279; 1697.400;    0.000;    0.000
384.338; 1625.400;    0.000;    0.000
384.397; 1585.400;    0.000;    0.000
384.456; 1584.400;    0.000;    0.000
384.515; 1609.400;    0.000;    0.000
384.574; 1565.400;    0.000;    0.000
384.633; 1519.400;    0.000;    0.000
384.692; 1527.400;    0.000;    0.000
384.751; 1513.400;    0.000;    0.000
384.810; 1511.400;    0.000;    0.000
384.869; 1493.400;    0.000;    0.000
384.929; 1454.400;    0.000;    0.000
384.988; 1526.400;    0.000;    0.000
385.047; 1453.400;    0.000;    0.000
385.106; 1500.400;    0.000;    0.000
385.165; 1505.400;    0.000;    0.000
385.224; 1496.400;    0.000;    0.000
385.283; 1440.400;    0.000;    0.000
385.342; 1525.400;    0.000;    0.000
385.401; 1449.400;    0.000;    0.000
385.459; 1447.400;    0.000;    0.000
385.518; 1417.400;    0.000;    0.000
385.577; 1437.400;    0.000;    0.000
385.636; 1435.400;    0.000;    0.000
385.695; 1441.400;    0.000;    0.000
385.754; 1488.400;    0.000;    0.000
385.813; 1449.400;    0.000;    0.000
385.872; 1405.400;    0.000;    0.000
385.931; 1458.400;    0.000;    0.000
385.990; 1487.400;    0.000;    0.000
386.049; 1497.400;    0.000;    0.000
386.107; 1341.400;    0.000;    0.000
386.166; 1415.400;    0.000;    0.000
386.225; 1382.400;    0.000;    0.000
386.284; 1476.400;    0.000;    0.000
386.343; 1517.400;    0.000;    0.000
386.402; 1447.400;    0.000;    0.000
386.460; 1374.400;    0.000;    0.000
386.519; 1484.400;    0.000;    0.000
386.578; 1461.400;    0.000;    0.000
386.637; 1445.400;    0.000;    0.000
386.696; 1412.400;    0.000;    0.000
386.754; 1450.400;    0.000;    0.000
386.813; 1441.400;    0.000;    0.000
386.872; 1393.400;    0.000;    0.000
386.931; 1481.400;    0.000;    0.000
386.989; 1401.400;    0.000;    0.000
387.048; 1424.400;    0.000;    0.000
387.107; 1479.400;    0.000;    0.000
387.165; 1457.400;    0.000;    0.000
387.224; 1371.400;    0.000;    0.000
387.283; 1439.400;    0.000;    0.000
387.342; 1489.400;    0.000;    0.000
387.400; 1410.400;    0.000;    0.000
387.459; 1389.400;    0.000;    0.000
387.517; 1418.400;    0.000;    0.000
387.576; 1388.400;    0.000;    0.000
387.635; 1383.400;    0.000;    0.000
387.693; 1404.400;    0.000;    0.000
387.752; 1439.400;    0.000;    0.000
387.811; 1352.400;    0.000;    0.000
387.869; 1383.400;    0.000;    0.000
387.928; 1466.400;    0.000;    0.000
387.986; 1385.400;    0.000;    0.000
388.045; 1354.400;    0.000;    0.000
388.103; 1393.400;    0.000;    0.000
388.162; 1320.400;    0.000;    0.000
388.221; 1406.400;    0.000;    0.000
388.279; 1353.400;    0.000;    0.000
388.338; 1424.400;    0.000;    0.000
388.396; 1319.400;    0.000;    0.000
388.455; 1353.400;    0.000;    0.000
388.513; 1338.400;    0.000;    0.000
388.572; 1393.400;    0.000;    0.000
388.630; 1505.400;    0.000;    0.000
388.689; 1328.400;    0.000;    0.000
388.747; 1435.400;    0.000;    0.000
388.806; 1398.400;    0.000;    0.000
388.864; 1363.400;    0.000;    0.000
388.922; 1395.400;    0.000;    0.000
388.981; 1339.400;    0.000;    0.000
389.039; 1358.400;    0.000;    0.000
389.098; 1434.400;    0.000;    0.000
389.156; 1462.400;    0.000;    0.000
389.214; 1444.400;    0.000;    0.000
389.273; 1312.400;    0.000;    0.000
389.331; 1340.400;    0.000;    0.000
389.390; 1402.400;    0.000;    0.000
389.448; 1352.400;    0.000;    0.000
389.506; 1405.400;    0.000;    0.000
389.565; 1437.400;    0.000;    0.000
389.623; 1397.400;    0.000;    0.000
389.681; 1316.400;    0.000;    0.000
389.740; 1489.400;    0.000;    0.000
389.798; 1371.400;    0.000;    0.000
389.856; 1383.400;    0.000;    0.000
389.914; 1373.400;    0.000;    0.000
389.973; 1415.400;    0.000;    0.000
390.031; 1391.400;    0.000;    0.000
390.089; 1430.400;    0.000;    0.000
390.147; 1406.400;    0.000;    0.000
390.206; 1393.400;    0.000;    0.000
390.264; 1400.400;    0.000;    0.000
390.322; 1320.400;    0.000;    0.000
390.380; 1368.400;    0.000;    0.000
390.439; 1348.400;    0.000;    0.000
390.497; 1347.400;    0.000;    0.000
390.555; 1359.400;    0.000;    0.000
390.613; 1407.400;    0.000;    0.000
390.671; 1347.400;    0.000;    0.000
390.729; 1361.400;    0.000;    0.000
390.788; 1384.400;    0.000;    0.000
390.846; 1454.400;    0.000;    0.000
390.904; 1388.400;    0.000;    0.000
390.962; 1412.400;    0.000;    0.000
391.020; 1429.400;    0.000;    0.000
391.078; 1371.400;    0.000;    0.000
391.136; 1406.400;    0.000;    0.000
391.194; 1417.400;    0.000;    0.000
391.253; 1409.400;    0.000;    0.000
391.311; 1425.400;    0.000;    0.000
391.369; 1478.400;    0.000;    0.000
391.427; 1452.400;    0.000;    0.000
391.485; 1511.400;    0.000;    0.000
391.543; 1427.400;    0.000;    0.000
391.601; 1375.400;    0.000;    0.000
391.659; 1444.400;    0.000;    0.000
391.717; 1433.400;    0.000;    0.000
391.775; 1370.400;    0.000;    0.000
391.833; 1402.400;    0.000;    0.000
391.891; 1422.400;    0.000;    0.000
391.949; 1389.400;    0.000;    0.000
392.007; 1459.400;    0.000;    0.000
392.065; 1442.400;    0.000;    0.000
392.123; 1368.400;    0.000;    0.000
392.180; 1432.400;    0.000;    0.000
392.238; 1413.400;    0.000;    0.000
392.296; 1370.400;    0.000;    0.000
392.354; 1402.400;    0.000;    0.000
392.412; 1507.400;    0.000;    0.000
392.470; 1409.400;    0.000;    0.000
392.528; 1387.400;    0.000;    0.000
392.586; 1478.400;    0.000;    0.000
392.644; 1394.400;    0.000;    0.000
392.701; 1412.400;    0.000;    0.000
392.759; 1519.400;    0.000;    0.000
392.817; 1476.400;    0.000;    0.000
392.875; 1394.400;    0.000;    0.000
392.933; 1470.400;    0.000;    0.000
392.991; 1467.400;    0.000;    0.000
393.048; 1504.400;    0.000;    0.000
393.106; 1503.400;    0.000;    0.000
393.164; 1486.400;    0.000;    0.000
393.222; 1522.400;    0.000;    0.000
393.279; 1624.400;    0.000;    0.000
393.337; 1621.400;    0.000;    0.000
393.395; 1504.400;    0.000;    0.000
393.453; 1462.400;    0.000;    0.000
393.510; 1446.400;    0.000;    0.000
393.568; 1511.400;    0.000;    0.000
393.626; 1399.400;    0.000;    0.000
393.684; 1527.400;    0.000;    0.000
393.741; 1478.400;    0.000;    0.000
393.799; 1444.400;    0.000;    0.000
393.857; 1400.400;    0.000;    0.000
393.914; 1502.400;    0.000;    0.000
393.972; 1406.400;    0.000;    0.000
394.030; 1492.400;    0.000;    0.000
394.087; 1471.400;    0.000;    0.000
394.145; 1479.400;    0.000;    0.000
394.202; 1440.400;    0.000;    0.000
394.260; 1422.400;    0.000;    0.000
394.318; 1467.400;    0.000;    0.000
394.375; 1524.400;    0.000;    0.000
394.433; 1436.400;    0.000;    0.000
394.490; 1495.400;    0.000;    0.000
394.548; 1402.400;    0.000;    0.000
394.605; 1510.400;    0.000;    0.000
394.663; 1395.400;    0.000;    0.000
394.720; 1523.400;    0.000;    0.000
394.778; 1502.400;    0.000;    0.000
394.836; 1458.400;    0.000;    0.000
394.893; 1500.400;    0.000;    0.000
394.951; 1468.400;    0.000;    0.000
395.008; 1500.400;    0.000;    0.000
395.065; 1470.400;    0.000;    0.000
395.123; 1530.400;    0.000;    0.000
395.180; 1549.400;    0.000;    0.000
395.238; 1459.400;    0.000;    0.000
395.295; 1509.400;    0.000;    0.000
395.353; 1468.400;    0.000;    0.000
395.410; 1520.400;    0.000;    0.000
395.468; 1525.400;    0.000;    0.000
395.525; 1520.400;    0.000;    0.000
395.582; 1501.400;    0.000;    0.000
395.640; 1601.400;    0.000;    0.000
395.697; 1519.400;    0.000;    0.000
395.754; 1465.400;    0.000;    0.000
395.812; 1567.400;    0.000;    0.000
395.869; 1583.400;    0.000;    0.000
395.927; 1477.400;    0.000;    0.000
395.984; 1580.400;    0.000;    0.000
396.041; 1505.400;    0.000;    0.000
396.098; 1564.400;    0.000;    0.000
396.156; 1554.400;    0.000;    0.000
396.213; 1535.400;    0.000;    0.000
396.270; 1527.400;    0.000;    0.000
396.328; 1563.400;    0.000;    0.000
396.385; 1579.400;    0.000;    0.000
396.442; 1516.400;    0.000;    0.000
396.499; 1528.400;    0.000;    0.000
396.557; 1578.400;    0.000;    0.000
396.614; 1588.400;    0.000;    0.000
396.671; 1574.400;    0.000;    0.000
396.728; 1605.400;    0.000;    0.000
396.785; 1609.400;    0.000;    0.000
396.843; 1584.400;    0.000;    0.000
396.900; 1533.400;    0.000;    0.000
396.957; 1570.400;    0.000;    0.000
397.014; 1609.400;    0.000;    0.000
397.071; 1575.400;    0.000;    0.000
397.128; 1517.400;    0.000;    0.000
397.186; 1597.400;    0.000;    0.000
397.243; 1610.400;    0.000;    0.000
397.300; 1563.400;    0.000;    0.000
397.357; 1592.400;    0.000;    0.000
397.414; 1575.400;    0.000;    0.000
397.471; 1591.400;    0.000;    0.000
397.528; 1546.400;    0.000;    0.000
397.585; 1608.400;    0.000;    0.000
397.642; 1569.400;    0.000;    0.000
397.699; 1658.400;    0.000;    0.000
397.756; 1590.400;    0.000;    0.000
397.814; 1600.400;    0.000;    0.000
397.871; 1573.400;    0.000;    0.000
397.928; 1571.400;    0.000;    0.000
397.985; 1546.400;    0.000;    0.000
398.042; 1596.400;    0.000;    0.000
398.099; 1587.400;    0.000;    0.000
398.156; 1629.400;    0.000;    0.000
398.212; 1662.400;    0.000;    0.000
398.269; 1644.400;    0.000;    0.000
398.326; 1535.400;    0.000;    0.000
398.383; 1650.400;    0.000;    0.000
398.440; 1665.400;    0.000;    0.000
398.497; 1604.400;    0.000;    0.000
398.554; 1611.400;    0.000;    0.000
398.611; 1632.400;    0.000;    0.000
398.668; 1632.400;    0.000;    0.000
398.725; 1657.400;    0.000;    0.000
398.782; 1719.400;    0.000;    0.000
398.839; 1742.400;    0.000;    0.000
398.895; 1663.400;    0.000;    0.000
398.952; 1661.400;    0.000;    0.000
399.009; 1635.400;    0.000;    0.000
399.066; 1748.400;    0.000;    0.000
399.123; 1678.400;    0.000;    0.000
399.180; 1744.400;    0.000;    0.000
399.236; 1711.400;    0.000;    0.000
399.293; 1788.400;    0.000;    0.000
399.350; 1813.400;    0.000;    0.000
399.407; 1730.400;    0.000;    0.000
399.463; 1779.400;    0.000;    0.000
399.520; 1750.400;    0.000;    0.000
399.577; 1827.400;    0.000;    0.000
399.634; 1785.400;    0.000;    0.000
399.690; 1824.400;    0.000;    0.000
399.747; 1878.400;    0.000;    0.000
399.804; 1812.400;    0.000;    0.000
399.861; 1776.400;    0.000;    0.000
399.917; 1809.400;    0.000;    0.000
399.974; 1827.400;    0.000;    0.000
400.031; 1826.400;    0.000;    0.000
400.087; 1759.400;    0.000;    0.000
400.144; 1739.400;    0.000;    0.000
400.201; 1747.400;    0.000;    0.000
400.257; 1732.400;    0.000;    0.000
400.314; 1786.400;    0.000;    0.000
400.370; 1730.400;    0.000;    0.000
400.427; 1786.400;    0.000;    0.000
400.484; 1790.400;    0.000;    0.000
400.540; 1803.400;    0.000;    0.000
400.597; 1804.400;    0.000;    0.000
400.653; 1788.400;    0.000;    0.000
400.710; 1758.400;    0.000;    0.000
400.766; 1790.400;    0.000;    0.000
400.823; 1744.400;    0.000;    0.000
400.879; 1803.400;    0.000;    0.000
400.936; 1703.400;    0.000;    0.000
400.993; 1736.400;    0.000;    0.000
401.049; 1728.400;    0.000;    0.000
401.105; 1781.400;    0.000;    0.000
401.162; 1774.400;    0.000;    0.000
401.218; 1778.400;    0.000;    0.000
401.275; 1719.400;    0.000;    0.000
401.331; 1779.400;    0.000;    0.000
401.388; 1793.400;    0.000;    0.000
401.444; 1800.400;    0.000;    0.000
401.501; 1770.400;    0.000;    0.000
401.557; 1704.400;    0.000;    0.000
401.614; 1736.400;    0.000;    0.000
401.670; 1783.400;    0.000;    0.000
401.726; 1781.400;    0.000;    0.000
401.783; 1696.400;    0.000;    0.000
401.839; 1771.400;    0.000;    0.000
401.895; 1795.400;    0.000;    0.000
401.952; 1764.400;    0.000;    0.000
402.008; 1719.400;    0.000;    0.000
402.064; 1713.400;    0.000;    0.000
402.121; 1672.400;    0.000;    0.000
402.177; 1820.400;    0.000;    0.000
402.233; 1769.400;    0.000;    0.000
402.290; 1738.400;    0.000;    0.000
402.346; 1847.400;    0.000;    0.000
402.402; 1763.400;    0.000;    0.000
402.458; 1771.400;    0.000;    0.000
402.515; 1839.400;    0.000;    0.000
402.571; 1796.400;    0.000;    0.000
402.627; 1746.400;    0.000;    0.000
402.683; 1818.400;    0.000;    0.000
402.740; 1796.400;    0.000;    0.000
402.796; 1836.400;    0.000;    0.000
402.852; 1825.400;    0.000;    0.000
402.908; 1792.400;    0.000;    0.000
402.964; 1808.400;    0.000;    0.000
403.021; 1789.400;    0.000;    0.000
403.077; 1841.400;    0.000;    0.000
403.133; 1803.400;    0.000;    0.000
403.189; 1801.400;    0.000;    0.000
403.245; 1813.400;    0.000;    0.000
403.301; 1859.400;    0.000;    0.000
403.357; 1733.400;    0.000;    0.000
403.414; 1774.400;    0.000;    0.000
403.470; 1861.400;    0.000;    0.000
403.526; 1743.400;    0.000;    0.000
403.582; 1814.400;    0.000;    0.000
403.638; 1887.400;    0.000;    0.000
403.694; 1900.400;    0.000;    0.000
403.750; 1893.400;    0.000;    0.000
403.806; 1846.400;    0.000;    0.000
403.862; 1908.400;    0.000;    0.000
403.918; 1908.400;    0.000;    0.000
403.974; 1909.400;    0.000;    0.000
404.030; 1871.400;    0.000;    0.000
404.086; 1854.400;    0.000;    0.000
404.142; 1905.400;    0.000;    0.000
404.198; 1909.400;    0.000;    0.000
404.254; 1893.400;    0.000;    0.000
404.310; 1780.400;    0.000;    0.000
404.366; 1818.400;    0.000;    0.000
404.422; 1921.400;    0.000;    0.000
404.478; 1837.400;    0.000;    0.000
404.534; 1853.400;    0.000;    0.000
404.590; 1873.400;    0.000;    0.000
404.646; 1802.400;    0.000;    0.000
404.701; 1883.400;    0.000;    0.000
404.757; 1907.400;    0.000;    0.000
404.813; 1841.400;    0.000;    0.000
404.869; 1887.400;    0.000;    0.000
404.925; 1954.400;    0.000;    0.000
404.981; 1850.400;    0.000;    0.000
405.037; 1900.400;    0.000;    0.000
405.092; 1905.400;    0.000;    0.000
405.148; 1896.400;    0.000;    0.000
405.204; 1910.400;    0.000;    0.000
405.260; 1910.400;    0.000;    0.000
405.316; 1855.400;    0.000;    0.000
405.371; 1937.400;    0.000;    0.000
405.427; 1899.400;    0.000;    0.000
405.483; 1982.400;    0.000;    0.000
405.539; 1896.400;    0.000;    0.000
405.594; 1998.400;    0.000;    0.000
405.650; 1969.400;    0.000;    0.000
405.706; 1952.400;    0.000;    0.000
405.761; 1934.400;    0.000;    0.000
405.817; 1929.400;    0.000;    0.000
405.873; 1974.400;    0.000;    0.000
405.928; 1911.400;    0.000;    0.000
405.984; 2031.400;    0.000;    0.000
406.040; 1942.400;    0.000;    0.000
406.095; 1941.400;    0.000;    0.000
406.151; 1992.400;    0.000;    0.000
406.207; 1994.400;    0.000;    0.000
406.262; 1898.400;    0.000;    0.000
406.318; 1906.400;    0.000;    0.000
406.374; 1967.400;    0.000;    0.000
406.429; 1971.400;    0.000;    0.000
406.485; 2106.400;    0.000;    0.000
406.540; 1970.400;    0.000;    0.000
406.596; 2018.400;    0.000;    0.000
406.651; 2056.400;    0.000;    0.000
406.707; 2004.400;    0.000;    0.000
406.763; 1940.400;    0.000;    0.000
406.818; 2012.400;    0.000;    0.000
406.874; 1954.400;    0.000;    0.000
406.929; 2089.400;    0.000;    0.000
406.985; 2029.400;    0.000;    0.000
407.040; 2105.400;    0.000;    0.000
407.095; 2159.400;    0.000;    0.000
407.151; 2068.400;    0.000;    0.000
407.206; 2115.400;    0.000;    0.000
407.262; 2121.400;    0.000;    0.000
407.317; 2179.400;    0.000;    0.000
407.373; 2186.400;    0.000;    0.000
407.428; 2217.400;    0.000;    0.000
407.484; 2138.400;    0.000;    0.000
407.539; 2123.400;    0.000;    0.000
407.594; 2236.400;    0.000;    0.000
407.650; 2084.400;    0.000;    0.000
407.705; 2157.400;    0.000;    0.000
407.760; 2264.400;    0.000;    0.000
407.816; 2152.400;    0.000;    0.000
407.871; 2171.400;    0.000;    0.000
407.926; 2119.400;    0.000;    0.000
407.982; 2127.400;    0.000;    0.000
408.037; 2109.400;    0.000;    0.000
408.092; 2111.400;    0.000;    0.000
408.148; 2076.400;    0.000;    0.000
408.203; 2152.400;    0.000;    0.000
408.258; 2126.400;    0.000;    0.000
408.314; 2171.400;    0.000;    0.000
408.369; 2132.400;    0.000;    0.000
408.424; 2147.400;    0.000;    0.000
408.479; 2059.400;    0.000;    0.000
408.534; 2162.400;    0.000;    0.000
408.590; 2120.400;    0.000;    0.000
408.645; 2109.400;    0.000;    0.000
408.700; 2136.400;    0.000;    0.000
408.755; 2156.400;    0.000;    0.000
408.810; 2160.400;    0.000;    0.000
408.866; 2151.400;    0.000;    0.000
408.921; 2147.400;    0.000;    0.000
408.976; 2161.400;    0.000;    0.000
409.031; 2125.400;    0.000;    0.000
409.086; 2231.400;    0.000;    0.000
409.141; 2090.400;    0.000;    0.000
409.196; 2198.400;    0.000;    0.000
409.252; 2143.400;    0.000;    0.000
409.307; 2101.400;    0.000;    0.000
409.362; 2194.400;    0.000;    0.000
409.417; 2024.400;    0.000;    0.000
409.472; 2252.400;    0.000;    0.000
409.527; 2150.400;    0.000;    0.000
409.582; 2229.400;    0.000;    0.000
409.637; 2120.400;    0.000;    0.000
409.692; 2141.400;    0.000;    0.000
409.747; 2171.400;    0.000;    0.000
409.802; 2194.400;    0.000;    0.000
409.857; 2231.400;    0.000;    0.000
409.912; 2135.400;    0.000;    0.000
409.967; 2157.400;    0.000;    0.000
410.022; 2148.400;    0.000;    0.000
410.077; 2126.400;    0.000;    0.000
410.132; 2226.400;    0.000;    0.000
410.187; 2164.400;    0.000;    0.000
410.242; 2147.400;    0.000;    0.000
410.297; 2145.400;    0.000;    0.000
410.351; 2150.400;    0.000;    0.000
410.406; 2150.400;    0.000;    0.000
410.461; 2153.400;    0.000;    0.000
410.516; 2138.400;    0.000;    0.000
410.571; 2221.400;    0.000;    0.000
410.626; 2226.400;    0.000;    0.000
410.681; 2232.400;    0.000;    0.000
410.736; 2161.400;    0.000;    0.000
410.790; 2204.400;    0.000;    0.000
410.845; 2165.400;    0.000;    0.000
410.900; 2198.400;    0.000;    0.000
410.955; 2151.400;    0.000;    0.000
411.010; 2159.400;    0.000;    0.000
411.064; 2191.400;    0.000;    0.000
411.119; 2201.400;    0.000;    0.000
411.174; 2190.400;    0.000;    0.000
411.229; 2142.400;    0.000;    0.000
411.283; 2160.400;    0.000;    0.000
411.338; 2142.400;    0.000;    0.000
411.393; 2177.400;    0.000;    0.000
411.447; 2144.400;    0.000;    0.000
411.502; 2250.400;    0.000;    0.000
411.557; 2175.400;    0.000;    0.000
411.612; 2188.400;    0.000;    0.000
411.666; 2185.400;    0.000;    0.000
411.721; 2193.400;    0.000;    0.000
411.776; 2198.400;    0.000;    0.000
411.830; 2194.400;    0.000;    0.000
411.885; 2159.400;    0.000;    0.000
411.939; 2233.400;    0.000;    0.000
411.994; 2163.400;    0.000;    0.000
412.049; 2224.400;    0.000;    0.000
412.103; 2174.400;    0.000;    0.000
412.158; 2230.400;    0.000;    0.000
412.212; 2191.400;    0.000;    0.000
412.267; 2200.400;    0.000;    0.000
412.322; 2263.400;    0.000;    0.000
412.376; 2252.400;    0.000;    0.000
412.431; 2228.400;    0.000;    0.000
412.485; 2224.400;    0.000;    0.000
412.540; 2193.400;    0.000;    0.000
412.594; 2182.400;    0.000;    0.000
412.649; 2237.400;    0.000;    0.000
412.703; 2289.400;    0.000;    0.000
412.758; 2231.400;    0.000;    0.000
412.812; 2213.400;    0.000;    0.000
412.866; 2166.400;    0.000;    0.000
412.921; 2227.400;    0.000;    0.000
412.975; 2155.400;    0.000;    0.000
413.030; 2102.400;    0.000;    0.000
413.084; 2203.400;    0.000;    0.000
413.139; 2242.400;    0.000;    0.000
413.193; 2188.400;    0.000;    0.000
413.247; 2258.400;    0.000;    0.000
413.302; 2230.400;    0.000;    0.000
413.356; 2252.400;    0.000;    0.000
413.410; 2158.400;    0.000;    0.000
413.465; 2191.400;    0.000;    0.000
413.519; 2272.400;    0.000;    0.000
413.573; 2178.400;    0.000;    0.000
413.628; 2229.400;    0.000;    0.000
413.682; 2206.400;    0.000;    0.000
413.736; 2272.400;    0.000;    0.000
413.791; 2251.400;    0.000;    0.000
413.845; 2312.400;    0.000;    0.000
413.899; 2333.400;    0.000;    0.000
413.953; 2156.400;    0.000;    0.000
414.008; 2149.400;    0.000;    0.000
414.062; 2258.400;    0.000;    0.000
414.116; 2213.400;    0.000;    0.000
414.170; 2259.400;    0.000;    0.000
414.225; 2201.400;    0.000;    0.000
414.279; 2241.400;    0.000;    0.000
414.333; 2316.400;    0.000;    0.000
414.387; 2251.400;    0.000;    0.000
414.441; 2196.400;    0.000;    0.000
414.496; 2249.400;    0.000;    0.000
414.550; 2221.400;    0.000;    0.000
414.604; 2313.400;    0.000;    0.000
414.658; 2212.400;    0.000;    0.000
414.712; 2285.400;    0.000;    0.000
414.766; 2237.400;    0.000;    0.000
414.820; 2319.400;    0.000;    0.000
414.874; 2227.400;    0.000;    0.000
414.928; 2319.400;    0.000;    0.000
414.982; 2211.400;    0.000;    0.000
415.037; 2227.400;    0.000;    0.000
415.091; 2296.400;    0.000;    0.000
415.145; 2134.400;    0.000;    0.000
415.199; 2276.400;    0.000;    0.000
415.253; 2270.400;    0.000;    0.000
415.307; 2224.400;    0.000;    0.000
415.361; 2219.400;    0.000;    0.000
415.415; 2254.400;    0.000;    0.000
415.469; 2317.400;    0.000;    0.000
415.523; 2230.400;    0.000;    0.000
415.577; 2211.400;    0.000;    0.000
415.631; 2244.400;    0.000;    0.000
415.684; 2232.400;    0.000;    0.000
415.738; 2255.400;    0.000;    0.000
415.792; 2300.400;    0.000;    0.000
415.846; 2316.400;    0.000;    0.000
415.900; 2221.400;    0.000;    0.000
415.954; 2277.400;    0.000;    0.000
416.008; 2306.400;    0.000;    0.000
416.062; 2275.400;    0.000;    0.000
416.116; 2251.400;    0.000;    0.000
416.169; 2253.400;    0.000;    0.000
416.223; 2297.400;    0.000;    0.000
416.277; 2262.400;    0.000;    0.000
416.331; 2260.400;    0.000;    0.000
416.385; 2298.400;    0.000;    0.000
416.439; 2191.400;    0.000;    0.000
416.492; 2243.400;    0.000;    0.000
416.546; 2298.400;    0.000;    0.000
416.600; 2289.400;    0.000;    0.000
416.654; 2268.400;    0.000;    0.000
416.707; 2296.400;    0.000;    0.000
416.761; 2244.400;    0.000;    0.000
416.815; 2216.400;    0.000;    0.000
416.869; 2335.400;    0.000;    0.000
416.922; 2325.400;    0.000;    0.000
416.976; 2261.400;    0.000;    0.000
417.030; 2345.400;    0.000;    0.000
417.083; 2211.400;    0.000;    0.000
417.137; 2224.400;    0.000;    0.000
417.191; 2191.400;    0.000;    0.000
417.244; 2279.400;    0.000;    0.000
417.298; 2199.400;    0.000;    0.000
417.352; 2274.400;    0.000;    0.000
417.405; 2303.400;    0.000;    0.000
417.459; 2356.400;    0.000;    0.000
417.512; 2268.400;    0.000;    0.000
417.566; 2286.400;    0.000;    0.000
417.620; 2244.400;    0.000;    0.000
417.673; 2270.400;    0.000;    0.000
417.727; 2301.400;    0.000;    0.000
417.780; 2243.400;    0.000;    0.000
417.834; 2370.400;    0.000;    0.000
417.887; 2243.400;    0.000;    0.000
417.941; 2288.400;    0.000;    0.000
417.994; 2301.400;    0.000;    0.000
418.048; 2246.400;    0.000;    0.000
418.101; 2284.400;    0.000;    0.000
418.155; 2336.400;    0.000;    0.000
418.208; 2291.400;    0.000;    0.000
418.262; 2267.400;    0.000;    0.000
418.315; 2300.400;    0.000;    0.000
418.369; 2303.400;    0.000;    0.000
418.422; 2277.400;    0.000;    0.000
418.476; 2238.400;    0.000;    0.000
418.529; 2252.400;    0.000;    0.000
418.582; 2329.400;    0.000;    0.000
418.636; 2258.400;    0.000;    0.000
418.689; 2307.400;    0.000;    0.000
418.743; 2276.400;    0.000;    0.000
418.796; 2297.400;    0.000;    0.000
418.849; 2255.400;    0.000;    0.000
418.903; 2302.400;    0.000;    0.000
418.956; 2286.400;    0.000;    0.000
419.009; 2385.400;    0.000;    0.000
419.063; 2307.400;    0.000;    0.000
419.116; 2274.400;    0.000;    0.000
419.169; 2266.400;    0.000;    0.000
419.222; 2180.400;    0.000;    0.000
419.276; 2229.400;    0.000;    0.000
419.329; 2240.400;    0.000;    0.000
419.382; 2228.400;    0.000;    0.000
419.435; 2302.400;    0.000;    0.000
419.489; 2225.400;    0.000;    0.000
419.542; 2245.400;    0.000;    0.000
419.595; 2271.400;    0.000;    0.000
419.648; 2259.400;    0.000;    0.000
419.701; 2194.400;    0.000;    0.000
419.755; 2229.400;    0.000;    0.000
419.808; 2189.400;    0.000;    0.000
419.861; 2150.400;    0.000;    0.000
419.914; 2236.400;    0.000;    0.000
419.967; 2302.400;    0.000;    0.000
420.020; 2241.400;    0.000;    0.000
420.073; 2175.400;    0.000;    0.000
420.127; 2294.400;    0.000;    0.000
420.180; 2223.400;    0.000;    0.000
420.233; 2172.400;    0.000;    0.000
420.286; 2201.400;    0.000;    0.000
420.339; 2234.400;    0.000;    0.000
420.392; 2242.400;    0.000;    0.000
420.445; 2298.400;    0.000;    0.000
420.498; 2175.400;    0.000;    0.000
420.551; 2141.400;    0.000;    0.000
420.604; 2306.400;    0.000;    0.000
420.657; 2148.400;    0.000;    0.000
420.710; 2220.400;    0.000;    0.000
420.763; 2264.400;    0.000;    0.000
420.816; 2239.400;    0.000;    0.000
420.869; 2166.400;    0.000;    0.000
420.922; 2219.400;    0.000;    0.000
420.975; 2243.400;    0.000;    0.000
421.028; 2313.400;    0.000;    0.000
421.081; 2168.400;    0.000;    0.000
421.134; 2214.400;    0.000;    0.000
421.187; 2198.400;    0.000;    0.000
421.239; 2238.400;    0.000;    0.000
421.292; 2137.400;    0.000;    0.000
421.345; 2203.400;    0.000;    0.000
421.398; 2186.400;    0.000;    0.000
421.451; 2214.400;    0.000;    0.000
421.504; 2160.400;    0.000;    0.000
421.557; 2187.400;    0.000;    0.000
421.609; 2170.400;    0.000;    0.000
421.662; 2216.400;    0.000;    0.000
421.715; 2170.400;    0.000;    0.000
421.768; 2217.400;    0.000;    0.000
421.821; 2174.400;    0.000;    0.000
421.873; 2132.400;    0.000;    0.000
421.926; 2203.400;    0.000;    0.000
421.979; 2266.400;    0.000;    0.000
422.032; 2199.400;    0.000;    0.000
422.084; 2282.400;    0.000;    0.000
422.137; 2097.400;    0.000;    0.000
422.190; 2170.400;    0.000;    0.000
422.243; 2170.400;    0.000;    0.000
422.295; 2216.400;    0.000;    0.000
422.348; 2134.400;    0.000;    0.000
422.401; 2195.400;    0.000;    0.000
422.453; 2226.400;    0.000;    0.000
422.506; 2196.400;    0.000;    0.000
422.559; 2069.400;    0.000;    0.000
422.611; 2190.400;    0.000;    0.000
422.664; 2190.400;    0.000;    0.000
422.716; 2220.400;    0.000;    0.000
422.769; 2169.400;    0.000;    0.000
422.822; 2145.400;    0.000;    0.000
422.874; 2168.400;    0.000;    0.000
422.927; 2266.400;    0.000;    0.000
422.979; 2167.400;    0.000;    0.000
423.032; 2143.400;    0.000;    0.000
423.084; 2163.400;    0.000;    0.000
423.137; 2173.400;    0.000;    0.000
423.189; 2226.400;    0.000;    0.000
423.242; 2148.400;    0.000;    0.000
423.294; 2166.400;    0.000;    0.000
423.347; 2104.400;    0.000;    0.000
423.399; 2085.400;    0.000;    0.000
423.452; 2072.400;    0.000;    0.000
423.504; 2201.400;    0.000;    0.000
423.557; 2200.400;    0.000;    0.000
423.609; 2131.400;    0.000;    0.000
423.662; 2155.400;    0.000;    0.000
423.714; 2143.400;    0.000;    0.000
423.766; 2161.400;    0.000;    0.000
423.819; 2139.400;    0.000;    0.000
423.871; 2156.400;    0.000;    0.000
423.923; 2078.400;    0.000;    0.000
423.976; 2126.400;    0.000;    0.000
424.028; 2137.400;    0.000;    0.000
424.081; 2182.400;    0.000;    0.000
424.133; 2127.400;    0.000;    0.000
424.185; 2170.400;    0.000;    0.000
424.238; 2168.400;    0.000;    0.000
424.290; 2159.400;    0.000;    0.000
424.342; 2184.400;    0.000;    0.000
424.394; 2150.400;    0.000;    0.000
424.447; 2230.400;    0.000;    0.000
424.499; 2127.400;    0.000;    0.000
424.551; 2160.400;    0.000;    0.000
424.603; 2123.400;    0.000;    0.000
424.656; 2164.400;    0.000;    0.000
424.708; 2188.400;    0.000;    0.000
424.760; 2130.400;    0.000;    0.000
424.812; 2163.400;    0.000;    0.000
424.864; 2106.400;    0.000;    0.000
424.917; 2159.400;    0.000;    0.000
424.969; 2185.400;    0.000;    0.000
425.021; 2194.400;    0.000;    0.000
425.073; 2122.400;    0.000;    0.000
425.125; 2112.400;    0.000;    0.000
425.177; 2132.400;    0.000;    0.000
425.229; 2105.400;    0.000;    0.000
425.282; 2116.400;    0.000;    0.000
425.334; 2162.400;    0.000;    0.000
425.386; 2183.400;    0.000;    0.000
425.438; 2137.400;    0.000;    0.000
425.490; 2091.400;    0.000;    0.000
425.542; 2115.400;    0.000;    0.000
425.594; 2092.400;    0.000;    0.000
425.646; 2130.400;    0.000;    0.000
425.698; 2119.400;    0.000;    0.000
425.750; 2092.400;    0.000;    0.000
425.802; 2122.400;    0.000;    0.000
425.854; 2165.400;    0.000;    0.000
425.906; 2052.400;    0.000;    0.000
425.958; 2090.400;    0.000;    0.000
426.010; 2119.400;    0.000;    0.000
426.062; 2064.400;    0.000;    0.000
426.114; 2127.400;    0.000;    0.000
426.166; 2101.400;    0.000;    0.000
426.218; 2128.400;    0.000;    0.000
426.270; 2128.400;    0.000;    0.000
426.321; 2091.400;    0.000;    0.000
426.373; 2082.400;    0.000;    0.000
426.425; 2141.400;    0.000;    0.000
426.477; 2135.400;    0.000;    0.000
426.529; 2059.400;    0.000;    0.000
426.581; 2088.400;    0.000;    0.000
426.633; 2152.400;    0.000;    0.000
426.684; 2073.400;    0.000;    0.000
426.736; 2132.400;    0.000;    0.000
426.788; 2084.400;    0.000;    0.000
426.840; 2005.400;    0.000;    0.000
426.892; 2109.400;    0.000;    0.000
426.943; 2041.400;    0.000;    0.000
426.995; 2075.400;    0.000;    0.000
427.047; 2017.400;    0.000;    0.000
427.099; 2077.400;    0.000;    0.000
427.150; 2047.400;    0.000;    0.000
427.202; 2085.400;    0.000;    0.000
427.254; 2016.400;    0.000;    0.000
427.306; 2011.400;    0.000;    0.000
427.357; 2073.400;    0.000;    0.000
427.409; 1946.400;    0.000;    0.000
427.461; 1939.400;    0.000;    0.000
427.512; 2087.400;    0.000;    0.000
427.564; 2020.400;    0.000;    0.000
427.616; 2077.400;    0.000;    0.000
427.667; 2080.400;    0.000;    0.000
427.719; 2048.400;    0.000;    0.000
427.770; 2022.400;    0.000;    0.000
427.822; 1987.400;    0.000;    0.000
427.874; 1913.400;    0.000;    0.000
427.925; 2073.400;    0.000;    0.000
427.977; 2029.400;    0.000;    0.000
428.028; 2036.400;    0.000;    0.000
428.080; 2016.400;    0.000;    0.000
428.131; 2007.400;    0.000;    0.000
428.183; 2057.400;    0.000;    0.000
428.234; 2065.400;    0.000;    0.000
428.286; 2021.400;    0.000;    0.000
428.337; 2069.400;    0.000;    0.000
428.389; 1988.400;    0.000;    0.000
428.440; 2061.400;    0.000;    0.000
428.492; 2065.400;    0.000;    0.000
428.543; 1959.400;    0.000;    0.000
428.595; 1957.400;    0.000;    0.000
428.646; 2119.400;    0.000;    0.000
428.697; 2051.400;    0.000;    0.000
428.749; 2011.400;    0.000;    0.000
428.800; 2062.400;    0.000;    0.000
428.852; 2073.400;    0.000;    0.000
428.903; 1998.400;    0.000;    0.000
428.954; 1982.400;    0.000;    0.000
429.006; 2020.400;    0.000;    0.000
429.057; 1954.400;    0.000;    0.000
429.108; 1939.400;    0.000;    0.000
429.160; 1920.400;    0.000;    0.000
429.211; 1924.400;    0.000;    0.000
429.262; 1947.400;    0.000;    0.000
429.314; 2028.400;    0.000;    0.000
429.365; 2028.400;    0.000;    0.000
429.416; 2043.400;    0.000;    0.000
429.467; 1989.400;    0.000;    0.000
429.519; 2008.400;    0.000;    0.000
429.570; 1977.400;    0.000;    0.000
429.621; 2037.400;    0.000;    0.000
429.672; 2034.400;    0.000;    0.000
429.724; 2053.400;    0.000;    0.000
429.775; 2019.400;    0.000;    0.000
429.826; 1909.400;    0.000;    0.000
429.877; 2019.400;    0.000;    0.000
429.928; 1908.400;    0.000;    0.000
429.980; 1979.400;    0.000;    0.000
430.031; 1944.400;    0.000;    0.000
430.082; 2029.400;    0.000;    0.000
430.133; 1996.400;    0.000;    0.000
430.184; 2029.400;    0.000;    0.000
430.235; 1996.400;    0.000;    0.000
430.286; 1901.400;    0.000;    0.000
430.337; 1951.400;    0.000;    0.000
430.388; 1957.400;    0.000;    0.000
430.439; 2013.400;    0.000;    0.000
430.490; 1917.400;    0.000;    0.000
430.542; 1973.400;    0.000;    0.000
430.593; 1988.400;    0.000;    0.000
430.644; 1993.400;    0.000;    0.000
430.695; 1939.400;    0.000;    0.000
430.746; 1917.400;    0.000;    0.000
430.797; 1903.400;    0.000;    0.000
430.848; 1969.400;    0.000;    0.000
430.898; 1975.400;    0.000;    0.000
430.949; 1890.400;    0.000;    0.000
431.000; 1927.400;    0.000;    0.000
431.051; 1978.400;    0.000;    0.000
431.102; 1931.400;    0.000;    0.000
431.153; 1962.400;    0.000;    0.000
431.204; 2016.400;    0.000;    0.000
431.255; 1946.400;    0.000;    0.000
431.306; 1980.400;    0.000;    0.000
431.357; 2000.400;    0.000;    0.000
431.408; 1996.400;    0.000;    0.000
431.458; 1903.400;    0.000;    0.000
431.509; 1880.400;    0.000;    0.000
431.560; 2025.400;    0.000;    0.000
431.611; 1943.400;    0.000;    0.000
431.662; 1997.400;    0.000;    0.000
431.713; 1928.400;    0.000;    0.000
431.763; 1961.400;    0.000;    0.000
431.814; 1967.400;    0.000;    0.000
431.865; 2024.400;    0.000;    0.000
431.916; 1939.400;    0.000;    0.000
431.966; 2003.400;    0.000;    0.000
432.017; 1999.400;    0.000;    0.000
432.068; 1988.400;    0.000;    0.000
432.118; 1927.400;    0.000;    0.000
432.169; 2028.400;    0.000;    0.000
432.220; 1924.400;    0.000;    0.000
432.271; 1984.400;    0.000;    0.000
432.321; 1955.400;    0.000;    0.000
432.372; 1960.400;    0.000;    0.000
432.423; 1967.400;    0.000;    0.000
432.473; 1921.400;    0.000;    0.000
432.524; 1983.400;    0.000;    0.000
432.574; 1938.400;    0.000;    0.000
432.625; 1953.400;    0.000;    0.000
432.676; 1960.400;    0.000;    0.000
432.726; 1973.400;    0.000;    0.000
432.777; 1972.400;    0.000;    0.000
432.827; 1896.400;    0.000;    0.000
432.878; 1923.400;    0.000;    0.000
432.928; 1955.400;    0.000;    0.000
432.979; 1981.400;    0.000;    0.000
433.029; 1939.400;    0.000;    0.000
433.080; 2025.400;    0.000;    0.000
433.130; 1982.400;    0.000;    0.000
433.181; 1986.400;    0.000;    0.000
433.231; 1929.400;    0.000;    0.000
433.282; 1958.400;    0.000;    0.000
433.332; 1981.400;    0.000;    0.000
433.383; 2066.400;    0.000;    0.000
433.433; 1998.400;    0.000;    0.000
433.484; 1933.400;    0.000;    0.000
433.534; 1886.400;    0.000;    0.000
433.585; 1927.400;    0.000;    0.000
433.635; 2010.400;    0.000;    0.000
433.685; 2004.400;    0.000;    0.000
433.736; 2053.400;    0.000;    0.000
433.786; 1978.400;    0.000;    0.000
433.836; 1982.400;    0.000;    0.000
433.887; 1944.400;    0.000;    0.000
433.937; 1913.400;    0.000;    0.000
433.987; 1935.400;    0.000;    0.000
434.038; 1954.400;    0.000;    0.000
434.088; 1880.400;    0.000;    0.000
434.138; 2025.400;    0.000;    0.000
434.189; 1931.400;    0.000;    0.000
434.239; 1978.400;    0.000;    0.000
434.289; 2064.400;    0.000;    0.000
434.339; 1977.400;    0.000;    0.000
434.389; 2049.400;    0.000;    0.000
434.440; 1994.400;    0.000;    0.000
434.490; 2054.400;    0.000;    0.000
434.540; 1985.400;    0.000;    0.000
434.590; 2041.400;    0.000;    0.000
434.640; 1957.400;    0.000;    0.000
434.691; 2028.400;    0.000;    0.000
434.741; 2022.400;    0.000;    0.000
434.791; 2075.400;    0.000;    0.000
434.841; 1987.400;    0.000;    0.000
434.891; 2093.400;    0.000;    0.000
434.941; 2007.400;    0.000;    0.000
434.991; 2084.400;    0.000;    0.000
435.042; 2010.400;    0.000;    0.000
435.092; 2072.400;    0.000;    0.000
435.142; 2083.400;    0.000;    0.000
435.192; 1924.400;    0.000;    0.000
435.242; 2011.400;    0.000;    0.000
435.292; 1964.400;    0.000;    0.000
435.342; 2019.400;    0.000;    0.000
435.392; 1948.400;    0.000;    0.000
435.442; 1947.400;    0.000;    0.000
435.492; 1910.400;    0.000;    0.000
435.542; 1807.400;    0.000;    0.000
435.592; 1906.400;    0.000;    0.000
435.642; 1989.400;    0.000;    0.000
435.692; 1994.400;    0.000;    0.000
435.742; 1978.400;    0.000;    0.000
435.792; 1968.400;    0.000;    0.000
435.842; 1986.400;    0.000;    0.000
435.891; 1951.400;    0.000;    0.000
435.941; 1934.400;    0.000;    0.000
435.991; 1954.400;    0.000;    0.000
436.041; 1881.400;    0.000;    0.000
436.091; 1946.400;    0.000;    0.000
436.141; 1926.400;    0.000;    0.000
436.191; 2006.400;    0.000;    0.000
436.241; 1902.400;    0.000;    0.000
436.290; 1915.400;    0.000;    0.000
436.340; 1858.400;    0.000;    0.000
436.390; 1970.400;    0.000;    0.000
436.440; 1870.400;    0.000;    0.000
436.490; 1886.400;    0.000;    0.000
436.539; 1874.400;    0.000;    0.000
436.589; 1940.400;    0.000;    0.000
436.639; 1950.400;    0.000;    0.000
436.689; 1924.400;    0.000;    0.000
436.738; 1994.400;    0.000;    0.000
436.788; 1828.400;    0.000;    0.000
436.838; 1937.400;    0.000;    0.000
436.887; 2016.400;    0.000;    0.000
436.937; 1905.400;    0.000;    0.000
436.987; 1888.400;    0.000;    0.000
437.036; 1991.400;    0.000;    0.000
437.086; 2017.400;    0.000;    0.000
437.136; 1935.400;    0.000;    0.000
437.185; 1845.400;    0.000;    0.000
437.235; 1989.400;    0.000;    0.000
437.285; 1982.400;    0.000;    0.000
437.334; 1949.400;    0.000;    0.000
437.384; 1856.400;    0.000;    0.000
437.433; 2029.400;    0.000;    0.000
437.483; 1973.400;    0.000;    0.000
437.532; 1944.400;    0.000;    0.000
437.582; 1969.400;    0.000;    0.000
437.631; 1937.400;    0.000;    0.000
437.681; 1955.400;    0.000;    0.000
437.730; 1941.400;    0.000;    0.000
437.780; 1939.400;    0.000;    0.000
437.829; 1923.400;    0.000;    0.000
437.879; 1979.400;    0.000;    0.000
437.928; 1884.400;    0.000;    0.000
437.978; 1931.400;    0.000;    0.000
438.027; 1996.400;    0.000;    0.000
438.077; 2008.400;    0.000;    0.000
438.126; 1986.400;    0.000;    0.000
438.176; 1949.400;    0.000;    0.000
438.225; 1958.400;    0.000;    0.000
438.274; 1971.400;    0.000;    0.000
438.324; 1981.400;    0.000;    0.000
438.373; 1876.400;    0.000;    0.000
438.422; 1925.400;    0.000;    0.000
438.472; 1844.400;    0.000;    0.000
438.521; 1882.400;    0.000;    0.000
438.570; 1881.400;    0.000;    0.000
438.620; 1953.400;    0.000;    0.000
438.669; 2021.400;    0.000;    0.000
438.718; 1937.400;    0.000;    0.000
438.768; 1918.400;    0.000;    0.000
438.817; 1965.400;    0.000;    0.000
438.866; 1927.400;    0.000;    0.000
438.915; 1969.400;    0.000;    0.000
438.965; 1891.400;    0.000;    0.000
439.014; 1882.400;    0.000;    0.000
439.063; 1937.400;    0.000;    0.000
439.112; 1870.400;    0.000;    0.000
439.162; 1921.400;    0.000;    0.000
439.211; 1976.400;    0.000;    0.000
439.260; 2008.400;    0.000;    0.000
439.309; 1931.400;    0.000;    0.000
439.358; 1968.400;    0.000;    0.000
439.407; 2017.400;    0.000;    0.000
439.456; 1951.400;    0.000;    0.000
439.506; 1919.400;    0.000;    0.000
439.555; 1984.400;    0.000;    0.000
439.604; 1947.400;    0.000;    0.000
439.653; 2005.400;    0.000;    0.000
439.702; 1976.400;    0.000;    0.000
439.751; 1870.400;    0.000;    0.000
439.800; 1977.400;    0.000;    0.000
439.849; 1886.400;    0.000;    0.000
439.898; 1921.400;    0.000;    0.000
439.947; 1875.400;    0.000;    0.000
439.996; 1946.400;    0.000;    0.000
440.045; 1951.400;    0.000;    0.000
440.094; 1912.400;    0.000;    0.000
440.143; 2025.400;    0.000;    0.000
440.192; 2012.400;    0.000;    0.000
440.241; 1970.400;    0.000;    0.000
440.290; 2036.400;    0.000;    0.000
440.339; 1955.400;    0.000;    0.000
440.388; 1907.400;    0.000;    0.000
440.437; 1941.400;    0.000;    0.000
440.486; 1920.400;    0.000;    0.000
440.535; 1957.400;    0.000;    0.000
440.583; 1934.400;    0.000;    0.000
440.632; 1972.400;    0.000;    0.000
440.681; 2005.400;    0.000;    0.000
440.730; 1955.400;    0.000;    0.000
440.779; 2017.400;    0.000;    0.000
440.828; 1924.400;    0.000;    0.000
440.876; 1961.400;    0.000;    0.000
440.925; 1975.400;    0.000;    0.000
440.974; 1946.400;    0.000;    0.000
441.023; 1967.400;    0.000;    0.000
441.072; 2009.400;    0.000;    0.000
441.120; 2035.400;    0.000;    0.000
441.169; 2078.400;    0.000;    0.000
441.218; 2014.400;    0.000;    0.000
441.267; 2094.400;    0.000;    0.000
441.315; 2023.400;    0.000;    0.000
441.364; 2008.400;    0.000;    0.000
441.413; 1962.400;    0.000;    0.000
441.461; 1988.400;    0.000;    0.000
441.510; 2016.400;    0.000;    0.000
441.559; 2050.400;    0.000;    0.000
441.607; 2091.400;    0.000;    0.000
441.656; 2038.400;    0.000;    0.000
441.705; 2101.400;    0.000;    0.000
441.753; 2105.400;    0.000;    0.000
441.802; 2008.400;    0.000;    0.000
441.850; 2044.400;    0.000;    0.000
441.899; 2000.400;    0.000;    0.000
441.948; 2151.400;    0.000;    0.000
441.996; 1959.400;    0.000;    0.000
442.045; 2015.400;    0.000;    0.000
442.093; 2103.400;    0.000;    0.000
442.142; 2031.400;    0.000;    0.000
442.190; 2004.400;    0.000;    0.000
442.239; 2028.400;    0.000;    0.000
442.287; 2074.400;    0.000;    0.000
442.336; 2080.400;    0.000;    0.000
442.384; 2036.400;    0.000;    0.000
442.433; 2095.400;    0.000;    0.000
442.481; 2061.400;    0.000;    0.000
442.529; 2070.400;    0.000;    0.000
442.578; 2001.400;    0.000;    0.000
442.626; 1925.400;    0.000;    0.000
442.675; 2030.400;    0.000;    0.000
442.723; 2067.400;    0.000;    0.000
442.771; 2030.400;    0.000;    0.000
442.820; 2083.400;    0.000;    0.000
442.868; 2071.400;    0.000;    0.000
442.917; 1920.400;    0.000;    0.000
442.965; 2048.400;    0.000;    0.000
443.013; 1982.400;    0.000;    0.000
443.062; 2038.400;    0.000;    0.000
443.110; 2022.400;    0.000;    0.000
443.158; 2141.400;    0.000;    0.000
443.206; 2045.400;    0.000;    0.000
443.255; 2098.400;    0.000;    0.000
443.303; 2034.400;    0.000;    0.000
443.351; 2000.400;    0.000;    0.000
443.399; 1949.400;    0.000;    0.000
443.448; 2141.400;    0.000;    0.000
443.496; 2084.400;    0.000;    0.000
443.544; 1972.400;    0.000;    0.000
443.592; 2127.400;    0.000;    0.000
443.640; 2079.400;    0.000;    0.000
443.689; 2013.400;    0.000;    0.000
443.737; 2185.400;    0.000;    0.000
443.785; 2127.400;    0.000;    0.000
443.833; 2134.400;    0.000;    0.000
443.881; 2092.400;    0.000;    0.000
443.929; 2121.400;    0.000;    0.000
443.977; 2167.400;    0.000;    0.000
444.025; 2126.400;    0.000;    0.000
444.074; 2148.400;    0.000;    0.000
444.122; 2103.400;    0.000;    0.000
444.170; 2183.400;    0.000;    0.000
444.218; 2110.400;    0.000;    0.000
444.266; 2142.400;    0.000;    0.000
444.314; 2149.400;    0.000;    0.000
444.362; 2126.400;    0.000;    0.000
444.410; 2136.400;    0.000;    0.000
444.458; 2106.400;    0.000;    0.000
444.506; 2158.400;    0.000;    0.000
444.554; 2073.400;    0.000;    0.000
444.602; 2172.400;    0.000;    0.000
444.650; 2151.400;    0.000;    0.000
444.698; 2198.400;    0.000;    0.000
444.746; 2116.400;    0.000;    0.000
444.793; 2071.400;    0.000;    0.000
444.841; 2257.400;    0.000;    0.000
444.889; 2086.400;    0.000;    0.000
444.937; 2184.400;    0.000;    0.000
444.985; 2191.400;    0.000;    0.000
445.033; 2116.400;    0.000;    0.000
445.081; 2171.400;    0.000;    0.000
445.129; 2112.400;    0.000;    0.000
445.176; 2153.400;    0.000;    0.000
445.224; 2140.400;    0.000;    0.000
445.272; 2171.400;    0.000;    0.000
445.320; 2152.400;    0.000;    0.000
445.368; 2187.400;    0.000;    0.000
445.415; 2093.400;    0.000;    0.000
445.463; 2135.400;    0.000;    0.000
445.511; 2130.400;    0.000;    0.000
445.559; 2221.400;    0.000;    0.000
445.606; 2232.400;    0.000;    0.000
445.654; 2191.400;    0.000;    0.000
445.702; 2084.400;    0.000;    0.000
445.749; 2186.400;    0.000;    0.000
445.797; 2197.400;    0.000;    0.000
445.845; 2209.400;    0.000;    0.000
445.892; 2170.400;    0.000;    0.000
445.940; 2215.400;    0.000;    0.000
445.988; 2114.400;    0.000;    0.000
446.035; 2159.400;    0.000;    0.000
446.083; 2191.400;    0.000;    0.000
446.130; 2106.400;    0.000;    0.000
446.178; 2250.400;    0.000;    0.000
446.226; 2120.400;    0.000;    0.000
446.273; 2178.400;    0.000;    0.000
446.321; 2214.400;    0.000;    0.000
446.368; 2148.400;    0.000;    0.000
446.416; 2290.400;    0.000;    0.000
446.463; 2195.400;    0.000;    0.000
446.511; 2166.400;    0.000;    0.000
446.558; 2224.400;    0.000;    0.000
446.606; 2345.400;    0.000;    0.000
446.653; 2234.400;    0.000;    0.000
446.701; 2204.400;    0.000;    0.000
446.748; 2288.400;    0.000;    0.000
446.796; 2231.400;    0.000;    0.000
446.843; 2279.400;    0.000;    0.000
446.891; 2360.400;    0.000;    0.000
446.938; 2405.400;    0.000;    0.000
446.985; 2367.400;    0.000;    0.000
447.033; 2342.400;    0.000;    0.000
447.080; 2328.400;    0.000;    0.000
447.128; 2393.400;    0.000;    0.000
447.175; 2405.400;    0.000;    0.000
447.222; 2364.400;    0.000;    0.000
447.270; 2394.400;    0.000;    0.000
447.317; 2341.400;    0.000;    0.000
447.364; 2361.400;    0.000;    0.000
447.411; 2449.400;    0.000;    0.000
447.459; 2401.400;    0.000;    0.000
447.506; 2444.400;    0.000;    0.000
447.553; 2443.400;    0.000;    0.000
447.601; 2523.400;    0.000;    0.000
447.648; 2559.400;    0.000;    0.000
447.695; 2521.400;    0.000;    0.000
447.742; 2401.400;    0.000;    0.000
447.789; 2604.400;    0.000;    0.000
447.837; 2660.400;    0.000;    0.000
447.884; 2678.400;    0.000;    0.000
447.931; 2741.400;    0.000;    0.000
447.978; 2699.400;    0.000;    0.000
448.025; 2681.400;    0.000;    0.000
448.072; 2647.400;    0.000;    0.000
448.120; 2708.400;    0.000;    0.000
448.167; 2635.400;    0.000;    0.000
448.214; 2626.400;    0.000;    0.000
448.261; 2609.400;    0.000;    0.000
448.308; 2598.400;    0.000;    0.000
448.355; 2593.400;    0.000;    0.000
448.402; 2572.400;    0.000;    0.000
448.449; 2490.400;    0.000;    0.000
448.496; 2533.400;    0.000;    0.000
448.543; 2512.400;    0.000;    0.000
448.590; 2443.400;    0.000;    0.000
448.637; 2439.400;    0.000;    0.000
448.684; 2518.400;    0.000;    0.000
448.731; 2367.400;    0.000;    0.000
448.778; 2471.400;    0.000;    0.000
448.825; 2318.400;    0.000;    0.000
448.872; 2348.400;    0.000;    0.000
448.919; 2414.400;    0.000;    0.000
448.966; 2500.400;    0.000;    0.000
449.013; 2386.400;    0.000;    0.000
449.060; 2402.400;    0.000;    0.000
449.107; 2235.400;    0.000;    0.000
449.154; 2314.400;    0.000;    0.000
449.200; 2235.400;    0.000;    0.000
449.247; 2244.400;    0.000;    0.000
449.294; 2316.400;    0.000;    0.000
449.341; 2256.400;    0.000;    0.000
449.388; 2198.400;    0.000;    0.000
449.435; 2276.400;    0.000;    0.000
449.481; 2189.400;    0.000;    0.000
449.528; 2233.400;    0.000;    0.000
449.575; 2253.400;    0.000;    0.000
449.622; 2280.400;    0.000;    0.000
449.668; 2247.400;    0.000;    0.000
449.715; 2263.400;    0.000;    0.000
449.762; 2281.400;    0.000;    0.000
449.809; 2177.400;    0.000;    0.000
449.855; 2221.400;    0.000;    0.000
449.902; 2162.400;    0.000;    0.000
449.949; 2192.400;    0.000;    0.000
449.995; 2235.400;    0.000;    0.000
450.042; 2175.400;    0.000;    0.000
450.089; 2209.400;    0.000;    0.000
450.135; 2206.400;    0.000;    0.000
450.182; 2141.400;    0.000;    0.000
450.229; 2108.400;    0.000;    0.000
450.275; 2182.400;    0.000;    0.000
450.322; 2123.400;    0.000;    0.000
450.368; 2134.400;    0.000;    0.000
450.415; 2219.400;    0.000;    0.000
450.462; 2149.400;    0.000;    0.000
450.508; 2112.400;    0.000;    0.000
450.555; 2138.400;    0.000;    0.000
450.601; 2188.400;    0.000;    0.000
450.648; 2128.400;    0.000;    0.000
450.694; 2079.400;    0.000;    0.000
450.741; 2231.400;    0.000;    0.000
450.787; 2100.400;    0.000;    0.000
450.834; 2215.400;    0.000;    0.000
450.880; 2107.400;    0.000;    0.000
450.927; 2082.400;    0.000;    0.000
450.973; 2156.400;    0.000;    0.000
451.019; 2083.400;    0.000;    0.000
451.066; 2096.400;    0.000;    0.000
451.112; 2132.400;    0.000;    0.000
451.159; 2112.400;    0.000;    0.000
451.205; 2107.400;    0.000;    0.000
451.251; 2000.400;    0.000;    0.000
451.298; 2085.400;    0.000;    0.000
451.344; 2207.400;    0.000;    0.000
451.390; 2135.400;    0.000;    0.000
451.437; 2124.400;    0.000;    0.000
451.483; 2079.400;    0.000;    0.000
451.529; 2115.400;    0.000;    0.000
451.576; 2128.400;    0.000;    0.000
451.622; 2052.400;    0.000;    0.000
451.668; 2073.400;    0.000;    0.000
451.714; 2104.400;    0.000;    0.000
451.761; 2074.400;    0.000;    0.000
451.807; 2121.400;    0.000;    0.000
451.853; 2021.400;    0.000;    0.000
451.899; 2225.400;    0.000;    0.000
451.945; 2103.400;    0.000;    0.000
451.992; 2094.400;    0.000;    0.000
452.038; 2153.400;    0.000;    0.000
452.084; 2035.400;    0.000;    0.000
452.130; 2161.400;    0.000;    0.000
452.176; 2026.400;    0.000;    0.000
452.222; 2002.400;    0.000;    0.000
452.268; 2001.400;    0.000;    0.000
452.315; 2008.400;    0.000;    0.000
452.361; 2029.400;    0.000;    0.000
452.407; 2034.400;    0.000;    0.000
452.453; 1992.400;    0.000;    0.000
452.499; 2109.400;    0.000;    0.000
452.545; 2005.400;    0.000;    0.000
452.591; 2013.400;    0.000;    0.000
452.637; 2074.400;    0.000;    0.000
452.683; 2067.400;    0.000;    0.000
452.729; 2037.400;    0.000;    0.000
452.775; 1987.400;    0.000;    0.000
452.821; 1969.400;    0.000;    0.000
452.867; 2040.400;    0.000;    0.000
452.913; 2018.400;    0.000;    0.000
452.959; 2003.400;    0.000;    0.000
453.005; 2082.400;    0.000;    0.000
453.051; 2053.400;    0.000;    0.000
453.097; 2077.400;    0.000;    0.000
453.142; 1998.400;    0.000;    0.000
453.188; 2002.400;    0.000;    0.000
453.234; 2076.400;    0.000;    0.000
453.280; 1985.400;    0.000;    0.000
453.326; 1987.400;    0.000;    0.000
453.372; 1986.400;    0.000;    0.000
453.418; 2018.400;    0.000;    0.000
453.463; 2025.400;    0.000;    0.000
453.509; 2021.400;    0.000;    0.000
453.555; 2078.400;    0.000;    0.000
453.601; 2080.400;    0.000;    0.000
453.647; 2062.400;    0.000;    0.000
453.692; 1927.400;    0.000;    0.000
453.738; 2021.400;    0.000;    0.000
453.784; 2028.400;    0.000;    0.000
453.829; 2079.400;    0.000;    0.000
453.875; 1992.400;    0.000;    0.000
453.921; 1900.400;    0.000;    0.000
453.967; 1971.400;    0.000;    0.000
454.012; 2059.400;    0.000;    0.000
454.058; 2046.400;    0.000;    0.000
454.104; 2039.400;    0.000;    0.000
454.149; 2065.400;    0.000;    0.000
454.195; 1950.400;    0.000;    0.000
454.240; 2036.400;    0.000;    0.000
454.286; 2014.400;    0.000;    0.000
454.332; 2060.400;    0.000;    0.000
454.377; 2151.400;    0.000;    0.000
454.423; 2078.400;    0.000;    0.000
454.468; 2019.400;    0.000;    0.000
454.514; 2054.400;    0.000;    0.000
454.559; 2017.400;    0.000;    0.000
454.605; 1996.400;    0.000;    0.000
454.650; 1902.400;    0.000;    0.000
454.696; 2016.400;    0.000;    0.000
454.741; 2064.400;    0.000;    0.000
454.787; 1959.400;    0.000;    0.000
454.832; 2025.400;    0.000;    0.000
454.878; 2012.400;    0.000;    0.000
454.923; 2017.400;    0.000;    0.000
454.969; 1949.400;    0.000;    0.000
455.014; 2014.400;    0.000;    0.000
455.060; 2035.400;    0.000;    0.000
455.105; 1969.400;    0.000;    0.000
455.150; 2075.400;    0.000;    0.000
455.196; 1989.400;    0.000;    0.000
455.241; 2034.400;    0.000;    0.000
455.286; 2058.400;    0.000;    0.000
455.332; 1959.400;    0.000;    0.000
455.377; 1966.400;    0.000;    0.000
455.422; 2081.400;    0.000;    0.000
455.468; 1998.400;    0.000;    0.000
455.513; 1964.400;    0.000;    0.000
455.558; 2054.400;    0.000;    0.000
455.604; 1914.400;    0.000;    0.000
455.649; 2009.400;    0.000;    0.000
455.694; 2012.400;    0.000;    0.000
455.739; 2041.400;    0.000;    0.000
455.785; 2076.400;    0.000;    0.000
455.830; 2044.400;    0.000;    0.000
455.875; 2133.400;    0.000;    0.000
455.920; 1995.400;    0.000;    0.000
455.965; 1969.400;    0.000;    0.000
456.010; 2095.400;    0.000;    0.000
456.056; 1999.400;    0.000;    0.000
456.101; 2069.400;    0.000;    0.000
456.146; 2076.400;    0.000;    0.000
456.191; 1999.400;    0.000;    0.000
456.236; 1990.400;    0.000;    0.000
456.281; 1952.400;    0.000;    0.000
456.326; 1959.400;    0.000;    0.000
456.371; 2073.400;    0.000;    0.000
456.416; 2046.400;    0.000;    0.000
456.461; 2092.400;    0.000;    0.000
456.507; 2059.400;    0.000;    0.000
456.552; 2082.400;    0.000;    0.000
456.597; 2021.400;    0.000;    0.000
456.642; 2028.400;    0.000;    0.000
456.687; 2059.400;    0.000;    0.000
456.732; 2050.400;    0.000;    0.000
456.776; 2044.400;    0.000;    0.000
456.821; 2053.400;    0.000;    0.000
456.866; 2037.400;    0.000;    0.000
456.911; 1990.400;    0.000;    0.000
456.956; 1976.400;    0.000;    0.000
457.001; 2099.400;    0.000;    0.000
457.046; 2073.400;    0.000;    0.000
457.091; 2125.400;    0.000;    0.000
457.136; 1990.400;    0.000;    0.000
457.181; 2049.400;    0.000;    0.000
457.225; 2026.400;    0.000;    0.000
457.270; 2013.400;    0.000;    0.000
457.315; 2093.400;    0.000;    0.000
457.360; 2030.400;    0.000;    0.000
457.405; 2023.400;    0.000;    0.000
457.450; 2118.400;    0.000;    0.000
457.494; 1963.400;    0.000;    0.000
457.539; 1997.400;    0.000;    0.000
457.584; 1984.400;    0.000;    0.000
457.629; 2042.400;    0.000;    0.000
457.673; 2064.400;    0.000;    0.000
457.718; 2090.400;    0.000;    0.000
457.763; 2133.400;    0.000;    0.000
457.807; 2031.400;    0.000;    0.000
457.852; 2094.400;    0.000;    0.000
457.897; 2079.400;    0.000;    0.000
457.941; 2152.400;    0.000;    0.000
457.986; 2119.400;    0.000;    0.000
458.031; 2050.400;    0.000;    0.000
458.075; 2088.400;    0.000;    0.000
458.120; 2188.400;    0.000;    0.000
458.165; 2041.400;    0.000;    0.000
458.209; 2038.400;    0.000;    0.000
458.254; 2106.400;    0.000;    0.000
458.298; 2113.400;    0.000;    0.000
458.343; 2113.400;    0.000;    0.000
458.387; 2051.400;    0.000;    0.000
458.432; 2062.400;    0.000;    0.000
458.476; 2112.400;    0.000;    0.000
458.521; 2127.400;    0.000;    0.000
458.565; 2063.400;    0.000;    0.000
458.610; 2120.400;    0.000;    0.000
458.654; 2176.400;    0.000;    0.000
458.699; 2099.400;    0.000;    0.000
458.743; 2122.400;    0.000;    0.000
458.788; 2114.400;    0.000;    0.000
458.832; 2197.400;    0.000;    0.000
458.877; 2175.400;    0.000;    0.000
458.921; 2126.400;    0.000;    0.000
458.965; 2132.400;    0.000;    0.000
459.010; 2092.400;    0.000;    0.000
459.054; 2085.400;    0.000;    0.000
459.099; 2074.400;    0.000;    0.000
459.143; 2166.400;    0.000;    0.000
459.187; 2179.400;    0.000;    0.000
459.231; 2219.400;    0.000;    0.000
459.276; 2145.400;    0.000;    0.000
459.320; 2230.400;    0.000;    0.000
459.364; 2112.400;    0.000;    0.000
459.409; 2182.400;    0.000;    0.000
459.453; 2156.400;    0.000;    0.000
459.497; 2281.400;    0.000;    0.000
459.541; 2200.400;    0.000;    0.000
459.586; 2105.400;    0.000;    0.000
459.630; 2198.400;    0.000;    0.000
459.674; 2233.400;    0.000;    0.000
459.718; 2279.400;    0.000;    0.000
459.762; 2223.400;    0.000;    0.000
459.807; 2315.400;    0.000;    0.000
459.851; 2148.400;    0.000;    0.000
459.895; 2145.400;    0.000;    0.000
459.939; 2164.400;    0.000;    0.000
459.983; 2182.400;    0.000;    0.000
460.027; 2198.400;    0.000;    0.000
460.071; 2251.400;    0.000;    0.000
460.115; 2239.400;    0.000;    0.000
460.159; 2307.400;    0.000;    0.000
460.204; 2248.400;    0.000;    0.000
460.248; 2234.400;    0.000;    0.000
460.292; 2224.400;    0.000;    0.000
460.336; 2234.400;    0.000;    0.000
460.380; 2174.400;    0.000;    0.000
460.424; 2267.400;    0.000;    0.000
460.468; 2244.400;    0.000;    0.000
460.512; 2231.400;    0.000;    0.000
460.556; 2244.400;    0.000;    0.000
460.599; 2234.400;    0.000;    0.000
460.643; 2204.400;    0.000;    0.000
460.687; 2231.400;    0.000;    0.000
460.731; 2272.400;    0.000;    0.000
460.775; 2235.400;    0.000;    0.000
460.819; 2246.400;    0.000;    0.000
460.863; 2223.400;    0.000;    0.000
460.907; 2082.400;    0.000;    0.000
460.951; 2163.400;    0.000;    0.000
460.995; 2282.400;    0.000;    0.000
461.038; 2214.400;    0.000;    0.000
461.082; 2208.400;    0.000;    0.000
461.126; 2256.400;    0.000;    0.000
461.170; 2266.400;    0.000;    0.000
461.214; 2196.400;    0.000;    0.000
461.257; 2246.400;    0.000;    0.000
461.301; 2243.400;    0.000;    0.000
461.345; 2205.400;    0.000;    0.000
461.389; 2274.400;    0.000;    0.000
461.432; 2315.400;    0.000;    0.000
461.476; 2228.400;    0.000;    0.000
461.520; 2270.400;    0.000;    0.000
461.563; 2239.400;    0.000;    0.000
461.607; 2206.400;    0.000;    0.000
461.651; 2274.400;    0.000;    0.000
461.694; 2159.400;    0.000;    0.000
461.738; 2238.400;    0.000;    0.000
461.782; 2288.400;    0.000;    0.000
461.825; 2230.400;    0.000;    0.000
461.869; 2336.400;    0.000;    0.000
461.913; 2340.400;    0.000;    0.000
461.956; 2272.400;    0.000;    0.000
462.000; 2313.400;    0.000;    0.000
462.043; 2194.400;    0.000;    0.000
462.087; 2231.400;    0.000;    0.000
462.130; 2217.400;    0.000;    0.000
462.174; 2353.400;    0.000;    0.000
462.217; 2319.400;    0.000;    0.000
462.261; 2352.400;    0.000;    0.000
462.304; 2308.400;    0.000;    0.000
462.348; 2357.400;    0.000;    0.000
462.391; 2353.400;    0.000;    0.000
462.435; 2348.400;    0.000;    0.000
462.478; 2273.400;    0.000;    0.000
462.522; 2365.400;    0.000;    0.000
462.565; 2383.400;    0.000;    0.000
462.608; 2381.400;    0.000;    0.000
462.652; 2321.400;    0.000;    0.000
462.695; 2405.400;    0.000;    0.000
462.739; 2323.400;    0.000;    0.000
462.782; 2368.400;    0.000;    0.000
462.825; 2327.400;    0.000;    0.000
462.869; 2405.400;    0.000;    0.000
462.912; 2443.400;    0.000;    0.000
462.955; 2340.400;    0.000;    0.000
462.998; 2327.400;    0.000;    0.000
463.042; 2354.400;    0.000;    0.000
463.085; 2389.400;    0.000;    0.000
463.128; 2354.400;    0.000;    0.000
463.172; 2273.400;    0.000;    0.000
463.215;  516.400;    0.000;    0.000
463.258;  340.400;    0.000;    0.000
463.301;  335.400;    0.000;    0.000
463.344;  376.400;    0.000;    0.000
463.388;  361.400;    0.000;    0.000
463.431;  337.400;    0.000;    0.000
463.474;  377.400;    0.000;    0.000
463.517;  330.400;    0.000;    0.000
463.560;  369.400;    0.000;    0.000
463.603;  353.400;    0.000;    0.000
463.646;  351.400;    0.000;    0.000
463.690;  339.400;    0.000;    0.000
463.733;  348.400;    0.000;    0.000
463.776;  323.400;    0.000;    0.000
463.819;  327.400;    0.000;    0.000
463.862;  330.400;    0.000;    0.000

