
Integration time [ms]:   1.000
Averaging Nr. [scans]: 1
Smoothing Nr. [pixels]: 0
Data measured with spectrometer [name]: UV1
Wave   ;Sample   ;Dark     ;Reference
[nm]   ;[counts] ;[counts] ;[counts] 

236.381;  147.000;    0.000;    0.000
236.451;  180.000;    0.000;    0.000
236.520;  186.000;    0.000;    0.000
236.590;  193.000;    0.000;    0.000
236.660;  172.000;    0.000;    0.000
236.730;  200.000;    0.000;    0.000
236.799;  182.000;    0.000;    0.000
236.869;  189.000;    0.000;    0.000
236.939;  191.000;    0.000;    0.000
237.009;  204.000;    0.000;    0.000
237.078;  198.000;    0.000;    0.000
237.148;  157.000;    0.000;    0.000
237.218;  167.000;    0.000;    0.000
237.287;  192.000;    0.000;    0.000
237.357;  192.000;    0.000;    0.000
237.427;  167.000;    0.000;    0.000
237.496;  437.000;    0.000;    0.000
237.566;  440.000;    0.000;    0.000
237.636;  382.000;    0.000;    0.000
237.705;  450.000;    0.000;    0.000
237.775;  416.000;    0.000;    0.000
237.845;  463.000;    0.000;    0.000
237.914;  408.000;    0.000;    0.000
237.984;  485.000;    0.000;    0.000
238.054;  433.000;    0.000;    0.000
238.123;  418.000;    0.000;    0.000
238.193;  440.000;    0.000;    0.000
238.263;  430.000;    0.000;    0.000
238.332;  395.000;    0.000;    0.000
238.402;  441.000;    0.000;    0.000
238.471;  443.000;    0.000;    0.000
238.541;  394.000;    0.000;    0.000
238.611;  407.000;    0.000;    0.000
238.680;  386.000;    0.000;    0.000
238.750;  403.000;    0.000;    0.000
238.819;  386.000;    0.000;    0.000
238.889;  453.000;    0.000;    0.000
238.958;  412.000;    0.000;    0.000
239.028;  381.000;    0.000;    0.000
239.097;  440.000;    0.000;    0.000
239.167;  441.000;    0.000;    0.000
239.237;  471.000;    0.000;    0.000
239.306;  416.000;    0.000;    0.000
239.376;  409.000;    0.000;    0.000
239.445;  450.000;    0.000;    0.000
239.515;  457.000;    0.000;    0.000
239.584;  458.000;    0.000;    0.000
239.654;  406.000;    0.000;    0.000
239.723;  453.000;    0.000;    0.000
239.793;  379.000;    0.000;    0.000
239.862;  397.000;    0.000;    0.000
239.932;  425.000;    0.000;    0.000
240.001;  421.000;    0.000;    0.000
240.070;  453.000;    0.000;    0.000
240.140;  418.000;    0.000;    0.000
240.209;  449.000;    0.000;    0.000
240.279;  413.000;    0.000;    0.000
240.348;  397.000;    0.000;    0.000
240.418;  431.000;    0.000;    0.000
240.487;  399.000;    0.000;    0.000
240.556;  407.000;    0.000;    0.000
240.626;  437.000;    0.000;    0.000
240.695;  445.000;    0.000;    0.000
240.765;  430.000;    0.000;    0.000
240.834;  384.000;    0.000;    0.000
240.903;  420.000;    0.000;    0.000
240.973;  417.000;    0.000;    0.000
241.042;  421.000;    0.000;    0.000
241.112;  447.000;    0.000;    0.000
241.181;  468.000;    0.000;    0.000
241.250;  452.000;    0.000;    0.000
241.320;  457.000;    0.000;    0.000
241.389;  415.000;    0.000;    0.000
241.458;  480.000;    0.000;    0.000
241.528;  422.000;    0.000;    0.000
241.597;  452.000;    0.000;    0.000
241.666;  407.000;    0.000;    0.000
241.736;  456.000;    0.000;    0.000
241.805;  396.000;    0.000;    0.000
241.874;  387.000;    0.000;    0.000
241.943;  402.000;    0.000;    0.000
242.013;  442.000;    0.000;    0.000
242.082;  398.000;    0.000;    0.000
242.151;  422.000;    0.000;    0.000
242.221;  414.000;    0.000;    0.000
242.290;  453.000;    0.000;    0.000
242.359;  377.000;    0.000;    0.000
242.428;  517.000;    0.000;    0.000
242.498;  371.000;    0.000;    0.000
242.567;  461.000;    0.000;    0.000
242.636;  387.000;    0.000;    0.000
242.705;  437.000;    0.000;    0.000
242.774;  421.000;    0.000;    0.000
242.844;  402.000;    0.000;    0.000
242.913;  407.000;    0.000;    0.000
242.982;  448.000;    0.000;    0.000
243.051;  431.000;    0.000;    0.000
243.120;  475.000;    0.000;    0.000
243.190;  439.000;    0.000;    0.000
243.259;  410.000;    0.000;    0.000
243.328;  392.000;    0.000;    0.000
243.397;  400.000;    0.000;    0.000
243.466;  374.000;    0.000;    0.000
243.535;  422.000;    0.000;    0.000
243.605;  401.000;    0.000;    0.000
243.674;  432.000;    0.000;    0.000
243.743;  432.000;    0.000;    0.000
243.812;  395.000;    0.000;    0.000
243.881;  387.000;    0.000;    0.000
243.950;  367.000;    0.000;    0.000
244.019;  410.000;    0.000;    0.000
244.088;  416.000;    0.000;    0.000
244.158;  418.000;    0.000;    0.000
244.227;  406.000;    0.000;    0.000
244.296;  428.000;    0.000;    0.000
244.365;  429.000;    0.000;    0.000
244.434;  362.000;    0.000;    0.000
244.503;  401.000;    0.000;    0.000
244.572;  397.000;    0.000;    0.000
244.641;  396.000;    0.000;    0.000
244.710;  427.000;    0.000;    0.000
244.779;  433.000;    0.000;    0.000
244.848;  387.000;    0.000;    0.000
244.917;  447.000;    0.000;    0.000
244.986;  384.000;    0.000;    0.000
245.055;  414.000;    0.000;    0.000
245.124;  389.000;    0.000;    0.000
245.193;  410.000;    0.000;    0.000
245.262;  398.000;    0.000;    0.000
245.331;  422.000;    0.000;    0.000
245.400;  359.000;    0.000;    0.000
245.469;  407.000;    0.000;    0.000
245.538;  437.000;    0.000;    0.000
245.607;  475.000;    0.000;    0.000
245.676;  433.000;    0.000;    0.000
245.745;  380.000;    0.000;    0.000
245.814;  392.000;    0.000;    0.000
245.883;  467.000;    0.000;    0.000
245.952;  448.000;    0.000;    0.000
246.021;  421.000;    0.000;    0.000
246.090;  452.000;    0.000;    0.000
246.159;  406.000;    0.000;    0.000
246.227;  406.000;    0.000;    0.000
246.296;  452.000;    0.000;    0.000
246.365;  435.000;    0.000;    0.000
246.434;  460.000;    0.000;    0.000
246.503;  425.000;    0.000;    0.000
246.572;  453.000;    0.000;    0.000
246.641;  386.000;    0.000;    0.000
246.710;  414.000;    0.000;    0.000
246.779;  424.000;    0.000;    0.000
246.847;  431.000;    0.000;    0.000
246.916;  409.000;    0.000;    0.000
246.985;  397.000;    0.000;    0.000
247.054;  387.000;    0.000;    0.000
247.123;  380.000;    0.000;    0.000
247.192;  362.000;    0.000;    0.000
247.260;  405.000;    0.000;    0.000
247.329;  395.000;    0.000;    0.000
247.398;  414.000;    0.000;    0.000
247.467;  452.000;    0.000;    0.000
247.536;  429.000;    0.000;    0.000
247.604;  447.000;    0.000;    0.000
247.673;  410.000;    0.000;    0.000
247.742;  379.000;    0.000;    0.000
247.811;  440.000;    0.000;    0.000
247.879;  417.000;    0.000;    0.000
247.948;  394.000;    0.000;    0.000
248.017;  441.000;    0.000;    0.000
248.086;  438.000;    0.000;    0.000
248.154;  458.000;    0.000;    0.000
248.223;  407.000;    0.000;    0.000
248.292;  409.000;    0.000;    0.000
248.361;  441.000;    0.000;    0.000
248.429;  395.000;    0.000;    0.000
248.498;  413.000;    0.000;    0.000
248.567;  428.000;    0.000;    0.000
248.635;  445.000;    0.000;    0.000
248.704;  435.000;    0.000;    0.000
248.773;  430.000;    0.000;    0.000
248.841;  383.000;    0.000;    0.000
248.910;  380.000;    0.000;    0.000
248.979;  417.000;    0.000;    0.000
249.047;  418.000;    0.000;    0.000
249.116;  401.000;    0.000;    0.000
249.185;  418.000;    0.000;    0.000
249.253;  374.000;    0.000;    0.000
249.322;  407.000;    0.000;    0.000
249.390;  395.000;    0.000;    0.000
249.459;  429.000;    0.000;    0.000
249.528;  437.000;    0.000;    0.000
249.596;  403.000;    0.000;    0.000
249.665;  380.000;    0.000;    0.000
249.733;  366.000;    0.000;    0.000
249.802;  371.000;    0.000;    0.000
249.871;  387.000;    0.000;    0.000
249.939;  352.000;    0.000;    0.000
250.008;  384.000;    0.000;    0.000
250.076;  461.000;    0.000;    0.000
250.145;  378.000;    0.000;    0.000
250.213;  358.000;    0.000;    0.000
250.282;  370.000;    0.000;    0.000
250.350;  378.000;    0.000;    0.000
250.419;  431.000;    0.000;    0.000
250.487;  355.000;    0.000;    0.000
250.556;  345.000;    0.000;    0.000
250.624;  413.000;    0.000;    0.000
250.693;  375.000;    0.000;    0.000
250.761;  344.000;    0.000;    0.000
250.830;  390.000;    0.000;    0.000
250.898;  345.000;    0.000;    0.000
250.967;  371.000;    0.000;    0.000
251.035;  330.000;    0.000;    0.000
251.104;  384.000;    0.000;    0.000
251.172;  349.000;    0.000;    0.000
251.241;  339.000;    0.000;    0.000
251.309;  364.000;    0.000;    0.000
251.378;  363.000;    0.000;    0.000
251.446;  362.000;    0.000;    0.000
251.514;  403.000;    0.000;    0.000
251.583;  366.000;    0.000;    0.000
251.651;  350.000;    0.000;    0.000
251.720;  346.000;    0.000;    0.000
251.788;  395.000;    0.000;    0.000
251.856;  288.000;    0.000;    0.000
251.925;  377.000;    0.000;    0.000
251.993;  329.000;    0.000;    0.000
252.062;  415.000;    0.000;    0.000
252.130;  354.000;    0.000;    0.000
252.198;  336.000;    0.000;    0.000
252.267;  329.000;    0.000;    0.000
252.335;  319.000;    0.000;    0.000
252.403;  326.000;    0.000;    0.000
252.472;  315.000;    0.000;    0.000
252.540;  320.000;    0.000;    0.000
252.608;  333.000;    0.000;    0.000
252.677;  330.000;    0.000;    0.000
252.745;  393.000;    0.000;    0.000
252.813;  312.000;    0.000;    0.000
252.881;  290.000;    0.000;    0.000
252.950;  313.000;    0.000;    0.000
253.018;  315.000;    0.000;    0.000
253.086;  293.000;    0.000;    0.000
253.155;  348.000;    0.000;    0.000
253.223;  317.000;    0.000;    0.000
253.291;  321.000;    0.000;    0.000
253.359;  330.000;    0.000;    0.000
253.428;  379.000;    0.000;    0.000
253.496;  314.000;    0.000;    0.000
253.564;  279.000;    0.000;    0.000
253.632;  287.000;    0.000;    0.000
253.700;  293.000;    0.000;    0.000
253.769;  326.000;    0.000;    0.000
253.837;  329.000;    0.000;    0.000
253.905;  330.000;    0.000;    0.000
253.973;  334.000;    0.000;    0.000
254.041;  303.000;    0.000;    0.000
254.110;  291.000;    0.000;    0.000
254.178;  285.000;    0.000;    0.000
254.246;  293.000;    0.000;    0.000
254.314;  305.000;    0.000;    0.000
254.382;  304.000;    0.000;    0.000
254.450;  328.000;    0.000;    0.000
254.518;  299.000;    0.000;    0.000
254.587;  311.000;    0.000;    0.000
254.655;  325.000;    0.000;    0.000
254.723;  274.000;    0.000;    0.000
254.791;  296.000;    0.000;    0.000
254.859;  322.000;    0.000;    0.000
254.927;  342.000;    0.000;    0.000
254.995;  275.000;    0.000;    0.000
255.063;  289.000;    0.000;    0.000
255.131;  288.000;    0.000;    0.000
255.199;  307.000;    0.000;    0.000
255.267;  297.000;    0.000;    0.000
255.336;  318.000;    0.000;    0.000
255.404;  275.000;    0.000;    0.000
255.472;  304.000;    0.000;    0.000
255.540;  286.000;    0.000;    0.000
255.608;  329.000;    0.000;    0.000
255.676;  339.000;    0.000;    0.000
255.744;  354.000;    0.000;    0.000
255.812;  302.000;    0.000;    0.000
255.880;  353.000;    0.000;    0.000
255.948;  321.000;    0.000;    0.000
256.016;  358.000;    0.000;    0.000
256.084;  323.000;    0.000;    0.000
256.152;  285.000;    0.000;    0.000
256.220;  321.000;    0.000;    0.000
256.288;  279.000;    0.000;    0.000
256.356;  323.000;    0.000;    0.000
256.424;  292.000;    0.000;    0.000
256.491;  271.000;    0.000;    0.000
256.559;  335.000;    0.000;    0.000
256.627;  322.000;    0.000;    0.000
256.695;  272.000;    0.000;    0.000
256.763;  364.000;    0.000;    0.000
256.831;  322.000;    0.000;    0.000
256.899;  316.000;    0.000;    0.000
256.967;  253.000;    0.000;    0.000
257.035;  280.000;    0.000;    0.000
257.103;  330.000;    0.000;    0.000
257.171;  247.000;    0.000;    0.000
257.238;  292.000;    0.000;    0.000
257.306;  279.000;    0.000;    0.000
257.374;  294.000;    0.000;    0.000
257.442;  255.000;    0.000;    0.000
257.510;  308.000;    0.000;    0.000
257.578;  262.000;    0.000;    0.000
257.646;  336.000;    0.000;    0.000
257.713;  259.000;    0.000;    0.000
257.781;  312.000;    0.000;    0.000
257.849;  338.000;    0.000;    0.000
257.917;  313.000;    0.000;    0.000
257.985;  300.000;    0.000;    0.000
258.052;  324.000;    0.000;    0.000
258.120;  310.000;    0.000;    0.000
258.188;  359.000;    0.000;    0.000
258.256;  331.000;    0.000;    0.000
258.324;  376.000;    0.000;    0.000
258.391;  336.000;    0.000;    0.000
258.459;  341.000;    0.000;    0.000
258.527;  302.000;    0.000;    0.000
258.595;  326.000;    0.000;    0.000
258.662;  286.000;    0.000;    0.000
258.730;  360.000;    0.000;    0.000
258.798;  341.000;    0.000;    0.000
258.865;  341.000;    0.000;    0.000
258.933;  347.000;    0.000;    0.000
259.001;  367.000;    0.000;    0.000
259.069;  312.000;    0.000;    0.000
259.136;  347.000;    0.000;    0.000
259.204;  339.000;    0.000;    0.000
259.272;  338.000;    0.000;    0.000
259.339;  378.000;    0.000;    0.000
259.407;  390.000;    0.000;    0.000
259.475;  344.000;    0.000;    0.000
259.542;  354.000;    0.000;    0.000
259.610;  363.000;    0.000;    0.000
259.677;  403.000;    0.000;    0.000
259.745;  335.000;    0.000;    0.000
259.813;  406.000;    0.000;    0.000
259.880;  379.000;    0.000;    0.000
259.948;  406.000;    0.000;    0.000
260.016;  354.000;    0.000;    0.000
260.083;  406.000;    0.000;    0.000
260.151;  379.000;    0.000;    0.000
260.218;  430.000;    0.000;    0.000
260.286;  379.000;    0.000;    0.000
260.353;  383.000;    0.000;    0.000
260.421;  355.000;    0.000;    0.000
260.489;  454.000;    0.000;    0.000
260.556;  389.000;    0.000;    0.000
260.624;  416.000;    0.000;    0.000
260.691;  392.000;    0.000;    0.000
260.759;  442.000;    0.000;    0.000
260.826;  349.000;    0.000;    0.000
260.894;  401.000;    0.000;    0.000
260.961;  418.000;    0.000;    0.000
261.029;  380.000;    0.000;    0.000
261.096;  409.000;    0.000;    0.000
261.164;  415.000;    0.000;    0.000
261.231;  469.000;    0.000;    0.000
261.299;  437.000;    0.000;    0.000
261.366;  428.000;    0.000;    0.000
261.434;  433.000;    0.000;    0.000
261.501;  456.000;    0.000;    0.000
261.568;  469.000;    0.000;    0.000
261.636;  485.000;    0.000;    0.000
261.703;  504.000;    0.000;    0.000
261.771;  453.000;    0.000;    0.000
261.838;  436.000;    0.000;    0.000
261.906;  437.000;    0.000;    0.000
261.973;  417.000;    0.000;    0.000
262.040;  498.000;    0.000;    0.000
262.108;  455.000;    0.000;    0.000
262.175;  438.000;    0.000;    0.000
262.243;  471.000;    0.000;    0.000
262.310;  489.000;    0.000;    0.000
262.377;  417.000;    0.000;    0.000
262.445;  540.000;    0.000;    0.000
262.512;  493.000;    0.000;    0.000
262.579;  456.000;    0.000;    0.000
262.647;  489.000;    0.000;    0.000
262.714;  537.000;    0.000;    0.000
262.781;  504.000;    0.000;    0.000
262.849;  455.000;    0.000;    0.000
262.916;  540.000;    0.000;    0.000
262.983;  593.000;    0.000;    0.000
263.051;  529.000;    0.000;    0.000
263.118;  520.000;    0.000;    0.000
263.185;  568.000;    0.000;    0.000
263.252;  544.000;    0.000;    0.000
263.320;  521.000;    0.000;    0.000
263.387;  501.000;    0.000;    0.000
263.454;  524.000;    0.000;    0.000
263.522;  530.000;    0.000;    0.000
263.589;  582.000;    0.000;    0.000
263.656;  515.000;    0.000;    0.000
263.723;  549.000;    0.000;    0.000
263.790;  570.000;    0.000;    0.000
263.858;  543.000;    0.000;    0.000
263.925;  535.000;    0.000;    0.000
263.992;  524.000;    0.000;    0.000
264.059;  549.000;    0.000;    0.000
264.126;  593.000;    0.000;    0.000
264.194;  548.000;    0.000;    0.000
264.261;  604.000;    0.000;    0.000
264.328;  606.000;    0.000;    0.000
264.395;  621.000;    0.000;    0.000
264.462;  589.000;    0.000;    0.000
264.529;  598.000;    0.000;    0.000
264.597;  628.000;    0.000;    0.000
264.664;  617.000;    0.000;    0.000
264.731;  593.000;    0.000;    0.000
264.798;  549.000;    0.000;    0.000
264.865;  577.000;    0.000;    0.000
264.932;  600.000;    0.000;    0.000
264.999;  607.000;    0.000;    0.000
265.066;  559.000;    0.000;    0.000
265.133;  631.000;    0.000;    0.000
265.201;  635.000;    0.000;    0.000
265.268;  572.000;    0.000;    0.000
265.335;  604.000;    0.000;    0.000
265.402;  642.000;    0.000;    0.000
265.469;  562.000;    0.000;    0.000
265.536;  670.000;    0.000;    0.000
265.603;  646.000;    0.000;    0.000
265.670;  616.000;    0.000;    0.000
265.737;  701.000;    0.000;    0.000
265.804;  623.000;    0.000;    0.000
265.871;  693.000;    0.000;    0.000
265.938;  649.000;    0.000;    0.000
266.005;  676.000;    0.000;    0.000
266.072;  677.000;    0.000;    0.000
266.139;  680.000;    0.000;    0.000
266.206;  627.000;    0.000;    0.000
266.273;  693.000;    0.000;    0.000
266.340;  692.000;    0.000;    0.000
266.407;  669.000;    0.000;    0.000
266.474;  654.000;    0.000;    0.000
266.541;  634.000;    0.000;    0.000
266.608;  687.000;    0.000;    0.000
266.675;  680.000;    0.000;    0.000
266.742;  699.000;    0.000;    0.000
266.808;  683.000;    0.000;    0.000
266.875;  673.000;    0.000;    0.000
266.942;  670.000;    0.000;    0.000
267.009;  658.000;    0.000;    0.000
267.076;  708.000;    0.000;    0.000
267.143;  710.000;    0.000;    0.000
267.210;  695.000;    0.000;    0.000
267.277;  689.000;    0.000;    0.000
267.344;  677.000;    0.000;    0.000
267.410;  708.000;    0.000;    0.000
267.477;  739.000;    0.000;    0.000
267.544;  736.000;    0.000;    0.000
267.611;  773.000;    0.000;    0.000
267.678;  731.000;    0.000;    0.000
267.745;  704.000;    0.000;    0.000
267.811;  712.000;    0.000;    0.000
267.878;  666.000;    0.000;    0.000
267.945;  743.000;    0.000;    0.000
268.012;  734.000;    0.000;    0.000
268.079;  690.000;    0.000;    0.000
268.145;  714.000;    0.000;    0.000
268.212;  677.000;    0.000;    0.000
268.279;  720.000;    0.000;    0.000
268.346;  741.000;    0.000;    0.000
268.412;  725.000;    0.000;    0.000
268.479;  741.000;    0.000;    0.000
268.546;  705.000;    0.000;    0.000
268.613;  756.000;    0.000;    0.000
268.679;  701.000;    0.000;    0.000
268.746;  717.000;    0.000;    0.000
268.813;  711.000;    0.000;    0.000
268.879;  711.000;    0.000;    0.000
268.946;  722.000;    0.000;    0.000
269.013;  701.000;    0.000;    0.000
269.079;  741.000;    0.000;    0.000
269.146;  740.000;    0.000;    0.000
269.213;  708.000;    0.000;    0.000
269.280;  737.000;    0.000;    0.000
269.346;  769.000;    0.000;    0.000
269.413;  679.000;    0.000;    0.000
269.479;  730.000;    0.000;    0.000
269.546;  716.000;    0.000;    0.000
269.613;  661.000;    0.000;    0.000
269.679;  699.000;    0.000;    0.000
269.746;  686.000;    0.000;    0.000
269.813;  727.000;    0.000;    0.000
269.879;  768.000;    0.000;    0.000
269.946;  709.000;    0.000;    0.000
270.012;  708.000;    0.000;    0.000
270.079;  721.000;    0.000;    0.000
270.145;  784.000;    0.000;    0.000
270.212;  744.000;    0.000;    0.000
270.279;  747.000;    0.000;    0.000
270.345;  738.000;    0.000;    0.000
270.412;  763.000;    0.000;    0.000
270.478;  710.000;    0.000;    0.000
270.545;  722.000;    0.000;    0.000
270.611;  726.000;    0.000;    0.000
270.678;  737.000;    0.000;    0.000
270.744;  656.000;    0.000;    0.000
270.811;  693.000;    0.000;    0.000
270.877;  683.000;    0.000;    0.000
270.944;  691.000;    0.000;    0.000
271.010;  689.000;    0.000;    0.000
271.077;  694.000;    0.000;    0.000
271.143;  697.000;    0.000;    0.000
271.210;  734.000;    0.000;    0.000
271.276;  714.000;    0.000;    0.000
271.342;  719.000;    0.000;    0.000
271.409;  751.000;    0.000;    0.000
271.475;  699.000;    0.000;    0.000
271.542;  753.000;    0.000;    0.000
271.608;  741.000;    0.000;    0.000
271.675;  720.000;    0.000;    0.000
271.741;  718.000;    0.000;    0.000
271.807;  702.000;    0.000;    0.000
271.874;  763.000;    0.000;    0.000
271.940;  765.000;    0.000;    0.000
272.007;  716.000;    0.000;    0.000
272.073;  757.000;    0.000;    0.000
272.139;  711.000;    0.000;    0.000
272.206;  718.000;    0.000;    0.000
272.272;  779.000;    0.000;    0.000
272.338;  782.000;    0.000;    0.000
272.405;  739.000;    0.000;    0.000
272.471;  748.000;    0.000;    0.000
272.537;  737.000;    0.000;    0.000
272.604;  746.000;    0.000;    0.000
272.670;  763.000;    0.000;    0.000
272.736;  764.000;    0.000;    0.000
272.802;  766.000;    0.000;    0.000
272.869;  749.000;    0.000;    0.000
272.935;  757.000;    0.000;    0.000
273.001;  682.000;    0.000;    0.000
273.068;  706.000;    0.000;    0.000
273.134;  723.000;    0.000;    0.000
273.200;  795.000;    0.000;    0.000
273.266;  719.000;    0.000;    0.000
273.333;  787.000;    0.000;    0.000
273.399;  711.000;    0.000;    0.000
273.465;  758.000;    0.000;    0.000
273.531;  786.000;    0.000;    0.000
273.597;  762.000;    0.000;    0.000
273.664;  782.000;    0.000;    0.000
273.730;  746.000;    0.000;    0.000
273.796;  765.000;    0.000;    0.000
273.862;  809.000;    0.000;    0.000
273.928;  743.000;    0.000;    0.000
273.995;  755.000;    0.000;    0.000
274.061;  797.000;    0.000;    0.000
274.127;  819.000;    0.000;    0.000
274.193;  733.000;    0.000;    0.000
274.259;  776.000;    0.000;    0.000
274.325;  742.000;    0.000;    0.000
274.391;  773.000;    0.000;    0.000
274.457;  768.000;    0.000;    0.000
274.524;  807.000;    0.000;    0.000
274.590;  706.000;    0.000;    0.000
274.656;  753.000;    0.000;    0.000
274.722;  805.000;    0.000;    0.000
274.788;  816.000;    0.000;    0.000
274.854;  816.000;    0.000;    0.000
274.920;  841.000;    0.000;    0.000
274.986;  793.000;    0.000;    0.000
275.052;  789.000;    0.000;    0.000
275.118;  788.000;    0.000;    0.000
275.184;  840.000;    0.000;    0.000
275.250;  759.000;    0.000;    0.000
275.316;  803.000;    0.000;    0.000
275.382;  805.000;    0.000;    0.000
275.448;  810.000;    0.000;    0.000
275.514;  836.000;    0.000;    0.000
275.580;  868.000;    0.000;    0.000
275.646;  826.000;    0.000;    0.000
275.712;  861.000;    0.000;    0.000
275.778;  845.000;    0.000;    0.000
275.844;  900.000;    0.000;    0.000
275.910;  904.000;    0.000;    0.000
275.976;  949.000;    0.000;    0.000
276.042;  931.000;    0.000;    0.000
276.108;  949.000;    0.000;    0.000
276.174;  970.000;    0.000;    0.000
276.240;  914.000;    0.000;    0.000
276.306;  945.000;    0.000;    0.000
276.372;  944.000;    0.000;    0.000
276.437;  941.000;    0.000;    0.000
276.503;  981.000;    0.000;    0.000
276.569; 1037.000;    0.000;    0.000
276.635; 1025.000;    0.000;    0.000
276.701; 1018.000;    0.000;    0.000
276.767; 1035.000;    0.000;    0.000
276.833; 1069.000;    0.000;    0.000
276.899; 1045.000;    0.000;    0.000
276.964; 1083.000;    0.000;    0.000
277.030; 1165.000;    0.000;    0.000
277.096; 1108.000;    0.000;    0.000
277.162; 1157.000;    0.000;    0.000
277.228; 1225.000;    0.000;    0.000
277.293; 1262.000;    0.000;    0.000
277.359; 1233.000;    0.000;    0.000
277.425; 1352.000;    0.000;    0.000
277.491; 1363.000;    0.000;    0.000
277.557; 1521.000;    0.000;    0.000
277.622; 1975.000;    0.000;    0.000
277.688; 2201.000;    0.000;    0.000
277.754; 2200.000;    0.000;    0.000
277.820; 2390.000;    0.000;    0.000
277.885; 2567.000;    0.000;    0.000
277.951; 3348.000;    0.000;    0.000
278.017; 3273.000;    0.000;    0.000
278.083; 2624.000;    0.000;    0.000
278.148; 2627.000;    0.000;    0.000
278.214; 2478.000;    0.000;    0.000
278.280; 2644.000;    0.000;    0.000
278.345; 2671.000;    0.000;    0.000
278.411; 2324.000;    0.000;    0.000
278.477; 2344.000;    0.000;    0.000
278.542; 2509.000;    0.000;    0.000
278.608; 2710.000;    0.000;    0.000
278.674; 2804.000;    0.000;    0.000
278.739; 3198.000;    0.000;    0.000
278.805; 3528.000;    0.000;    0.000
278.871; 4089.000;    0.000;    0.000
278.936; 4981.000;    0.000;    0.000
279.002; 6688.000;    0.000;    0.000
279.067; 9471.000;    0.000;    0.000
279.133; 9766.000;    0.000;    0.000
279.199; 8737.000;    0.000;    0.000
279.264; 8729.000;    0.000;    0.000
279.330; 9738.000;    0.000;    0.000
279.395;11816.000;    0.000;    0.000
279.461;14459.000;    0.000;    0.000
279.527;15639.000;    0.000;    0.000
279.592;15911.000;    0.000;    0.000
279.658;14643.000;    0.000;    0.000
279.723;13648.000;    0.000;    0.000
279.789;14292.000;    0.000;    0.000
279.854;13354.000;    0.000;    0.000
279.920;11216.000;    0.000;    0.000
279.985;10050.000;    0.000;    0.000
280.051;10022.000;    0.000;    0.000
280.116;10960.000;    0.000;    0.000
280.182;13647.000;    0.000;    0.000
280.247;15510.000;    0.000;    0.000
280.313;14869.000;    0.000;    0.000
280.378;12023.000;    0.000;    0.000
280.444; 9056.000;    0.000;    0.000
280.509; 7270.000;    0.000;    0.000
280.574; 5955.000;    0.000;    0.000
280.640; 5101.000;    0.000;    0.000
280.705; 4650.000;    0.000;    0.000
280.771; 4140.000;    0.000;    0.000
280.836; 3833.000;    0.000;    0.000
280.902; 3426.000;    0.000;    0.000
280.967; 3317.000;    0.000;    0.000
281.032; 3199.000;    0.000;    0.000
281.098; 2888.000;    0.000;    0.000
281.163; 2743.000;    0.000;    0.000
281.229; 2659.000;    0.000;    0.000
281.294; 2481.000;    0.000;    0.000
281.359; 2440.000;    0.000;    0.000
281.425; 2398.000;    0.000;    0.000
281.490; 2304.000;    0.000;    0.000
281.555; 2256.000;    0.000;    0.000
281.621; 2121.000;    0.000;    0.000
281.686; 2052.000;    0.000;    0.000
281.751; 2109.000;    0.000;    0.000
281.816; 1904.000;    0.000;    0.000
281.882; 1838.000;    0.000;    0.000
281.947; 1867.000;    0.000;    0.000
282.012; 1764.000;    0.000;    0.000
282.078; 1737.000;    0.000;    0.000
282.143; 1768.000;    0.000;    0.000
282.208; 1747.000;    0.000;    0.000
282.273; 1736.000;    0.000;    0.000
282.339; 1656.000;    0.000;    0.000
282.404; 1561.000;    0.000;    0.000
282.469; 1598.000;    0.000;    0.000
282.534; 1590.000;    0.000;    0.000
282.600; 1482.000;    0.000;    0.000
282.665; 1516.000;    0.000;    0.000
282.730; 1493.000;    0.000;    0.000
282.795; 1427.000;    0.000;    0.000
282.860; 1449.000;    0.000;    0.000
282.926; 1401.000;    0.000;    0.000
282.991; 1400.000;    0.000;    0.000
283.056; 1451.000;    0.000;    0.000
283.121; 1440.000;    0.000;    0.000
283.186; 1405.000;    0.000;    0.000
283.251; 1421.000;    0.000;    0.000
283.316; 1418.000;    0.000;    0.000
283.382; 1342.000;    0.000;    0.000
283.447; 1400.000;    0.000;    0.000
283.512; 1371.000;    0.000;    0.000
283.577; 1395.000;    0.000;    0.000
283.642; 1311.000;    0.000;    0.000
283.707; 1305.000;    0.000;    0.000
283.772; 1268.000;    0.000;    0.000
283.837; 1270.000;    0.000;    0.000
283.902; 1286.000;    0.000;    0.000
283.967; 1346.000;    0.000;    0.000
284.032; 1191.000;    0.000;    0.000
284.097; 1378.000;    0.000;    0.000
284.163; 1311.000;    0.000;    0.000
284.228; 1309.000;    0.000;    0.000
284.293; 1321.000;    0.000;    0.000
284.358; 1352.000;    0.000;    0.000
284.423; 1339.000;    0.000;    0.000
284.488; 1382.000;    0.000;    0.000
284.553; 1477.000;    0.000;    0.000
284.618; 1401.000;    0.000;    0.000
284.683; 1374.000;    0.000;    0.000
284.748; 1514.000;    0.000;    0.000
284.812; 1643.000;    0.000;    0.000
284.877; 1737.000;    0.000;    0.000
284.942; 1877.000;    0.000;    0.000
285.007; 2237.000;    0.000;    0.000
285.072; 2859.000;    0.000;    0.000
285.137; 4298.000;    0.000;    0.000
285.202; 6039.000;    0.000;    0.000
285.267; 6341.000;    0.000;    0.000
285.332; 4471.000;    0.000;    0.000
285.397; 3174.000;    0.000;    0.000
285.462; 2449.000;    0.000;    0.000
285.527; 2052.000;    0.000;    0.000
285.591; 1897.000;    0.000;    0.000
285.656; 1758.000;    0.000;    0.000
285.721; 1543.000;    0.000;    0.000
285.786; 1627.000;    0.000;    0.000
285.851; 1438.000;    0.000;    0.000
285.916; 1503.000;    0.000;    0.000
285.981; 1449.000;    0.000;    0.000
286.045; 1390.000;    0.000;    0.000
286.110; 1344.000;    0.000;    0.000
286.175; 1339.000;    0.000;    0.000
286.240; 1394.000;    0.000;    0.000
286.305; 1311.000;    0.000;    0.000
286.369; 1259.000;    0.000;    0.000
286.434; 1342.000;    0.000;    0.000
286.499; 1274.000;    0.000;    0.000
286.564; 1259.000;    0.000;    0.000
286.628; 1270.000;    0.000;    0.000
286.693; 1326.000;    0.000;    0.000
286.758; 1229.000;    0.000;    0.000
286.823; 1265.000;    0.000;    0.000
286.887; 1228.000;    0.000;    0.000
286.952; 1267.000;    0.000;    0.000
287.017; 1215.000;    0.000;    0.000
287.082; 1235.000;    0.000;    0.000
287.146; 1247.000;    0.000;    0.000
287.211; 1202.000;    0.000;    0.000
287.276; 1156.000;    0.000;    0.000
287.340; 1140.000;    0.000;    0.000
287.405; 1166.000;    0.000;    0.000
287.470; 1180.000;    0.000;    0.000
287.534; 1227.000;    0.000;    0.000
287.599; 1198.000;    0.000;    0.000
287.663; 1140.000;    0.000;    0.000
287.728; 1143.000;    0.000;    0.000
287.793; 1204.000;    0.000;    0.000
287.857; 1184.000;    0.000;    0.000
287.922; 1153.000;    0.000;    0.000
287.987; 1200.000;    0.000;    0.000
288.051; 1184.000;    0.000;    0.000
288.116; 1172.000;    0.000;    0.000
288.180; 1222.000;    0.000;    0.000
288.245; 1135.000;    0.000;    0.000
288.309; 1134.000;    0.000;    0.000
288.374; 1178.000;    0.000;    0.000
288.439; 1210.000;    0.000;    0.000
288.503; 1199.000;    0.000;    0.000
288.568; 1232.000;    0.000;    0.000
288.632; 1129.000;    0.000;    0.000
288.697; 1199.000;    0.000;    0.000
288.761; 1175.000;    0.000;    0.000
288.826; 1128.000;    0.000;    0.000
288.890; 1188.000;    0.000;    0.000
288.955; 1131.000;    0.000;    0.000
289.019; 1092.000;    0.000;    0.000
289.084; 1184.000;    0.000;    0.000
289.148; 1152.000;    0.000;    0.000
289.212; 1194.000;    0.000;    0.000
289.277; 1208.000;    0.000;    0.000
289.341; 1126.000;    0.000;    0.000
289.406; 1124.000;    0.000;    0.000
289.470; 1184.000;    0.000;    0.000
289.535; 1205.000;    0.000;    0.000
289.599; 1246.000;    0.000;    0.000
289.663; 1155.000;    0.000;    0.000
289.728; 1166.000;    0.000;    0.000
289.792; 1172.000;    0.000;    0.000
289.857; 1245.000;    0.000;    0.000
289.921; 1201.000;    0.000;    0.000
289.985; 1150.000;    0.000;    0.000
290.050; 1183.000;    0.000;    0.000
290.114; 1136.000;    0.000;    0.000
290.178; 1171.000;    0.000;    0.000
290.243; 1153.000;    0.000;    0.000
290.307; 1135.000;    0.000;    0.000
290.371; 1176.000;    0.000;    0.000
290.436; 1276.000;    0.000;    0.000
290.500; 1152.000;    0.000;    0.000
290.564; 1215.000;    0.000;    0.000
290.629; 1150.000;    0.000;    0.000
290.693; 1196.000;    0.000;    0.000
290.757; 1242.000;    0.000;    0.000
290.821; 1262.000;    0.000;    0.000
290.886; 1200.000;    0.000;    0.000
290.950; 1211.000;    0.000;    0.000
291.014; 1202.000;    0.000;    0.000
291.078; 1215.000;    0.000;    0.000
291.143; 1207.000;    0.000;    0.000
291.207; 1286.000;    0.000;    0.000
291.271; 1250.000;    0.000;    0.000
291.335; 1203.000;    0.000;    0.000
291.399; 1338.000;    0.000;    0.000
291.464; 1310.000;    0.000;    0.000
291.528; 1437.000;    0.000;    0.000
291.592; 1413.000;    0.000;    0.000
291.656; 1402.000;    0.000;    0.000
291.720; 1343.000;    0.000;    0.000
291.784; 1415.000;    0.000;    0.000
291.849; 1365.000;    0.000;    0.000
291.913; 1343.000;    0.000;    0.000
291.977; 1323.000;    0.000;    0.000
292.041; 1322.000;    0.000;    0.000
292.105; 1408.000;    0.000;    0.000
292.169; 1381.000;    0.000;    0.000
292.233; 1412.000;    0.000;    0.000
292.297; 1364.000;    0.000;    0.000
292.361; 1481.000;    0.000;    0.000
292.425; 1468.000;    0.000;    0.000
292.490; 1475.000;    0.000;    0.000
292.554; 1560.000;    0.000;    0.000
292.618; 1640.000;    0.000;    0.000
292.682; 1801.000;    0.000;    0.000
292.746; 1936.000;    0.000;    0.000
292.810; 2472.000;    0.000;    0.000
292.874; 3380.000;    0.000;    0.000
292.938; 3614.000;    0.000;    0.000
293.002; 3171.000;    0.000;    0.000
293.066; 2832.000;    0.000;    0.000
293.130; 2706.000;    0.000;    0.000
293.194; 2534.000;    0.000;    0.000
293.258; 2447.000;    0.000;    0.000
293.322; 2256.000;    0.000;    0.000
293.386; 2380.000;    0.000;    0.000
293.450; 2495.000;    0.000;    0.000
293.514; 2759.000;    0.000;    0.000
293.577; 3574.000;    0.000;    0.000
293.641; 4906.000;    0.000;    0.000
293.705; 5880.000;    0.000;    0.000
293.769; 5256.000;    0.000;    0.000
293.833; 4600.000;    0.000;    0.000
293.897; 3987.000;    0.000;    0.000
293.961; 3569.000;    0.000;    0.000
294.025; 3056.000;    0.000;    0.000
294.089; 2818.000;    0.000;    0.000
294.152; 2684.000;    0.000;    0.000
294.216; 2464.000;    0.000;    0.000
294.280; 2377.000;    0.000;    0.000
294.344; 2254.000;    0.000;    0.000
294.408; 2099.000;    0.000;    0.000
294.472; 2072.000;    0.000;    0.000
294.536; 2000.000;    0.000;    0.000
294.599; 1929.000;    0.000;    0.000
294.663; 1879.000;    0.000;    0.000
294.727; 1950.000;    0.000;    0.000
294.791; 1782.000;    0.000;    0.000
294.855; 1768.000;    0.000;    0.000
294.918; 1807.000;    0.000;    0.000
294.982; 1698.000;    0.000;    0.000
295.046; 1709.000;    0.000;    0.000
295.110; 1691.000;    0.000;    0.000
295.173; 1610.000;    0.000;    0.000
295.237; 1618.000;    0.000;    0.000
295.301; 1571.000;    0.000;    0.000
295.364; 1525.000;    0.000;    0.000
295.428; 1572.000;    0.000;    0.000
295.492; 1581.000;    0.000;    0.000
295.556; 1557.000;    0.000;    0.000
295.619; 1580.000;    0.000;    0.000
295.683; 1599.000;    0.000;    0.000
295.747; 1506.000;    0.000;    0.000
295.810; 1611.000;    0.000;    0.000
295.874; 1549.000;    0.000;    0.000
295.938; 1546.000;    0.000;    0.000
296.001; 1498.000;    0.000;    0.000
296.065; 1543.000;    0.000;    0.000
296.128; 1454.000;    0.000;    0.000
296.192; 1443.000;    0.000;    0.000
296.256; 1419.000;    0.000;    0.000
296.319; 1409.000;    0.000;    0.000
296.383; 1380.000;    0.000;    0.000
296.447; 1477.000;    0.000;    0.000
296.510; 1468.000;    0.000;    0.000
296.574; 1524.000;    0.000;    0.000
296.637; 1415.000;    0.000;    0.000
296.701; 1472.000;    0.000;    0.000
296.764; 1423.000;    0.000;    0.000
296.828; 1474.000;    0.000;    0.000
296.891; 1410.000;    0.000;    0.000
296.955; 1400.000;    0.000;    0.000
297.018; 1440.000;    0.000;    0.000
297.082; 1426.000;    0.000;    0.000
297.145; 1415.000;    0.000;    0.000
297.209; 1415.000;    0.000;    0.000
297.272; 1374.000;    0.000;    0.000
297.336; 1376.000;    0.000;    0.000
297.399; 1381.000;    0.000;    0.000
297.463; 1426.000;    0.000;    0.000
297.526; 1376.000;    0.000;    0.000
297.590; 1361.000;    0.000;    0.000
297.653; 1436.000;    0.000;    0.000
297.717; 1335.000;    0.000;    0.000
297.780; 1395.000;    0.000;    0.000
297.843; 1414.000;    0.000;    0.000
297.907; 1357.000;    0.000;    0.000
297.970; 1352.000;    0.000;    0.000
298.034; 1382.000;    0.000;    0.000
298.097; 1432.000;    0.000;    0.000
298.160; 1367.000;    0.000;    0.000
298.224; 1349.000;    0.000;    0.000
298.287; 1362.000;    0.000;    0.000
298.350; 1399.000;    0.000;    0.000
298.414; 1386.000;    0.000;    0.000
298.477; 1352.000;    0.000;    0.000
298.540; 1419.000;    0.000;    0.000
298.604; 1359.000;    0.000;    0.000
298.667; 1296.000;    0.000;    0.000
298.730; 1379.000;    0.000;    0.000
298.794; 1342.000;    0.000;    0.000
298.857; 1332.000;    0.000;    0.000
298.920; 1372.000;    0.000;    0.000
298.984; 1404.000;    0.000;    0.000
299.047; 1366.000;    0.000;    0.000
299.110; 1347.000;    0.000;    0.000
299.173; 1322.000;    0.000;    0.000
299.237; 1398.000;    0.000;    0.000
299.300; 1394.000;    0.000;    0.000
299.363; 1411.000;    0.000;    0.000
299.426; 1356.000;    0.000;    0.000
299.489; 1301.000;    0.000;    0.000
299.553; 1319.000;    0.000;    0.000
299.616; 1407.000;    0.000;    0.000
299.679; 1294.000;    0.000;    0.000
299.742; 1332.000;    0.000;    0.000
299.805; 1367.000;    0.000;    0.000
299.868; 1326.000;    0.000;    0.000
299.932; 1324.000;    0.000;    0.000
299.995; 1389.000;    0.000;    0.000
300.058; 1344.000;    0.000;    0.000
300.121; 1316.000;    0.000;    0.000
300.184; 1313.000;    0.000;    0.000
300.247; 1296.000;    0.000;    0.000
300.310; 1435.000;    0.000;    0.000
300.374; 1358.000;    0.000;    0.000
300.437; 1362.000;    0.000;    0.000
300.500; 1287.000;    0.000;    0.000
300.563; 1350.000;    0.000;    0.000
300.626; 1352.000;    0.000;    0.000
300.689; 1357.000;    0.000;    0.000
300.752; 1233.000;    0.000;    0.000
300.815; 1334.000;    0.000;    0.000
300.878; 1295.000;    0.000;    0.000
300.941; 1408.000;    0.000;    0.000
301.004; 1283.000;    0.000;    0.000
301.067; 1347.000;    0.000;    0.000
301.130; 1371.000;    0.000;    0.000
301.193; 1352.000;    0.000;    0.000
301.256; 1320.000;    0.000;    0.000
301.319; 1348.000;    0.000;    0.000
301.382; 1346.000;    0.000;    0.000
301.445; 1326.000;    0.000;    0.000
301.508; 1328.000;    0.000;    0.000
301.571; 1296.000;    0.000;    0.000
301.634; 1328.000;    0.000;    0.000
301.697; 1331.000;    0.000;    0.000
301.760; 1371.000;    0.000;    0.000
301.823; 1270.000;    0.000;    0.000
301.885; 1304.000;    0.000;    0.000
301.948; 1404.000;    0.000;    0.000
302.011; 1394.000;    0.000;    0.000
302.074; 1386.000;    0.000;    0.000
302.137; 1311.000;    0.000;    0.000
302.200; 1350.000;    0.000;    0.000
302.263; 1410.000;    0.000;    0.000
302.326; 1361.000;    0.000;    0.000
302.388; 1433.000;    0.000;    0.000
302.451; 1348.000;    0.000;    0.000
302.514; 1319.000;    0.000;    0.000
302.577; 1311.000;    0.000;    0.000
302.640; 1419.000;    0.000;    0.000
302.703; 1367.000;    0.000;    0.000
302.765; 1398.000;    0.000;    0.000
302.828; 1398.000;    0.000;    0.000
302.891; 1348.000;    0.000;    0.000
302.954; 1334.000;    0.000;    0.000
303.016; 1350.000;    0.000;    0.000
303.079; 1363.000;    0.000;    0.000
303.142; 1455.000;    0.000;    0.000
303.205; 1406.000;    0.000;    0.000
303.267; 1447.000;    0.000;    0.000
303.330; 1355.000;    0.000;    0.000
303.393; 1424.000;    0.000;    0.000
303.456; 1434.000;    0.000;    0.000
303.518; 1387.000;    0.000;    0.000
303.581; 1440.000;    0.000;    0.000
303.644; 1392.000;    0.000;    0.000
303.706; 1470.000;    0.000;    0.000
303.769; 1443.000;    0.000;    0.000
303.832; 1318.000;    0.000;    0.000
303.894; 1410.000;    0.000;    0.000
303.957; 1430.000;    0.000;    0.000
304.020; 1383.000;    0.000;    0.000
304.082; 1384.000;    0.000;    0.000
304.145; 1417.000;    0.000;    0.000
304.207; 1453.000;    0.000;    0.000
304.270; 1451.000;    0.000;    0.000
304.333; 1456.000;    0.000;    0.000
304.395; 1408.000;    0.000;    0.000
304.458; 1415.000;    0.000;    0.000
304.520; 1469.000;    0.000;    0.000
304.583; 1468.000;    0.000;    0.000
304.646; 1388.000;    0.000;    0.000
304.708; 1520.000;    0.000;    0.000
304.771; 1442.000;    0.000;    0.000
304.833; 1477.000;    0.000;    0.000
304.896; 1500.000;    0.000;    0.000
304.958; 1424.000;    0.000;    0.000
305.021; 1506.000;    0.000;    0.000
305.083; 1477.000;    0.000;    0.000
305.146; 1531.000;    0.000;    0.000
305.208; 1506.000;    0.000;    0.000
305.271; 1472.000;    0.000;    0.000
305.333; 1549.000;    0.000;    0.000
305.396; 1541.000;    0.000;    0.000
305.458; 1558.000;    0.000;    0.000
305.520; 1551.000;    0.000;    0.000
305.583; 1490.000;    0.000;    0.000
305.645; 1535.000;    0.000;    0.000
305.708; 1517.000;    0.000;    0.000
305.770; 1573.000;    0.000;    0.000
305.833; 1476.000;    0.000;    0.000
305.895; 1413.000;    0.000;    0.000
305.957; 1460.000;    0.000;    0.000
306.020; 1459.000;    0.000;    0.000
306.082; 1549.000;    0.000;    0.000
306.144; 1506.000;    0.000;    0.000
306.207; 1485.000;    0.000;    0.000
306.269; 1544.000;    0.000;    0.000
306.331; 1550.000;    0.000;    0.000
306.394; 1467.000;    0.000;    0.000
306.456; 1509.000;    0.000;    0.000
306.518; 1567.000;    0.000;    0.000
306.581; 1556.000;    0.000;    0.000
306.643; 1521.000;    0.000;    0.000
306.705; 1534.000;    0.000;    0.000
306.768; 1551.000;    0.000;    0.000
306.830; 1566.000;    0.000;    0.000
306.892; 1494.000;    0.000;    0.000
306.954; 1563.000;    0.000;    0.000
307.017; 1573.000;    0.000;    0.000
307.079; 1558.000;    0.000;    0.000
307.141; 1583.000;    0.000;    0.000
307.203; 1651.000;    0.000;    0.000
307.266; 1600.000;    0.000;    0.000
307.328; 1609.000;    0.000;    0.000
307.390; 1667.000;    0.000;    0.000
307.452; 1680.000;    0.000;    0.000
307.514; 1662.000;    0.000;    0.000
307.577; 1686.000;    0.000;    0.000
307.639; 1625.000;    0.000;    0.000
307.701; 1708.000;    0.000;    0.000
307.763; 1634.000;    0.000;    0.000
307.825; 1677.000;    0.000;    0.000
307.887; 1705.000;    0.000;    0.000
307.949; 1619.000;    0.000;    0.000
308.012; 1708.000;    0.000;    0.000
308.074; 1645.000;    0.000;    0.000
308.136; 1655.000;    0.000;    0.000
308.198; 1659.000;    0.000;    0.000
308.260; 1676.000;    0.000;    0.000
308.322; 1688.000;    0.000;    0.000
308.384; 1647.000;    0.000;    0.000
308.446; 1780.000;    0.000;    0.000
308.508; 1752.000;    0.000;    0.000
308.570; 1738.000;    0.000;    0.000
308.632; 1726.000;    0.000;    0.000
308.694; 1762.000;    0.000;    0.000
308.756; 1792.000;    0.000;    0.000
308.818; 1752.000;    0.000;    0.000
308.880; 1787.000;    0.000;    0.000
308.942; 1885.000;    0.000;    0.000
309.004; 1849.000;    0.000;    0.000
309.066; 1862.000;    0.000;    0.000
309.128; 1800.000;    0.000;    0.000
309.190; 1988.000;    0.000;    0.000
309.252; 1957.000;    0.000;    0.000
309.314; 1905.000;    0.000;    0.000
309.376; 1985.000;    0.000;    0.000
309.438; 1952.000;    0.000;    0.000
309.500; 2012.000;    0.000;    0.000
309.562; 1899.000;    0.000;    0.000
309.624; 2009.000;    0.000;    0.000
309.686; 2023.000;    0.000;    0.000
309.747; 2020.000;    0.000;    0.000
309.809; 2152.000;    0.000;    0.000
309.871; 1996.000;    0.000;    0.000
309.933; 2021.000;    0.000;    0.000
309.995; 1974.000;    0.000;    0.000
310.057; 1966.000;    0.000;    0.000
310.119; 1926.000;    0.000;    0.000
310.180; 1854.000;    0.000;    0.000
310.242; 1841.000;    0.000;    0.000
310.304; 1933.000;    0.000;    0.000
310.366; 1845.000;    0.000;    0.000
310.428; 1817.000;    0.000;    0.000
310.489; 1781.000;    0.000;    0.000
310.551; 1797.000;    0.000;    0.000
310.613; 1771.000;    0.000;    0.000
310.675; 1829.000;    0.000;    0.000
310.737; 1853.000;    0.000;    0.000
310.798; 1821.000;    0.000;    0.000
310.860; 1901.000;    0.000;    0.000
310.922; 1798.000;    0.000;    0.000
310.983; 1773.000;    0.000;    0.000
311.045; 1775.000;    0.000;    0.000
311.107; 1787.000;    0.000;    0.000
311.169; 1773.000;    0.000;    0.000
311.230; 1835.000;    0.000;    0.000
311.292; 1821.000;    0.000;    0.000
311.354; 1858.000;    0.000;    0.000
311.415; 1822.000;    0.000;    0.000
311.477; 1807.000;    0.000;    0.000
311.539; 1884.000;    0.000;    0.000
311.600; 1803.000;    0.000;    0.000
311.662; 1851.000;    0.000;    0.000
311.724; 1795.000;    0.000;    0.000
311.785; 1872.000;    0.000;    0.000
311.847; 1780.000;    0.000;    0.000
311.908; 1804.000;    0.000;    0.000
311.970; 1834.000;    0.000;    0.000
312.032; 1812.000;    0.000;    0.000
312.093; 1792.000;    0.000;    0.000
312.155; 1826.000;    0.000;    0.000
312.216; 1860.000;    0.000;    0.000
312.278; 1883.000;    0.000;    0.000
312.339; 1852.000;    0.000;    0.000
312.401; 1790.000;    0.000;    0.000
312.462; 1805.000;    0.000;    0.000
312.524; 1820.000;    0.000;    0.000
312.585; 1832.000;    0.000;    0.000
312.647; 1846.000;    0.000;    0.000
312.708; 1871.000;    0.000;    0.000
312.770; 1885.000;    0.000;    0.000
312.831; 1874.000;    0.000;    0.000
312.893; 1838.000;    0.000;    0.000
312.954; 1909.000;    0.000;    0.000
313.016; 1832.000;    0.000;    0.000
313.077; 1787.000;    0.000;    0.000
313.139; 1775.000;    0.000;    0.000
313.200; 1859.000;    0.000;    0.000
313.261; 1923.000;    0.000;    0.000
313.323; 1902.000;    0.000;    0.000
313.384; 1888.000;    0.000;    0.000
313.446; 1884.000;    0.000;    0.000
313.507; 1852.000;    0.000;    0.000
313.568; 1876.000;    0.000;    0.000
313.630; 1859.000;    0.000;    0.000
313.691; 1870.000;    0.000;    0.000
313.752; 1926.000;    0.000;    0.000
313.814; 1894.000;    0.000;    0.000
313.875; 1852.000;    0.000;    0.000
313.936; 1962.000;    0.000;    0.000
313.998; 1871.000;    0.000;    0.000
314.059; 1835.000;    0.000;    0.000
314.120; 1893.000;    0.000;    0.000
314.182; 1876.000;    0.000;    0.000
314.243; 1885.000;    0.000;    0.000
314.304; 1888.000;    0.000;    0.000
314.365; 1930.000;    0.000;    0.000
314.427; 1865.000;    0.000;    0.000
314.488; 1926.000;    0.000;    0.000
314.549; 1915.000;    0.000;    0.000
314.610; 1960.000;    0.000;    0.000
314.672; 1881.000;    0.000;    0.000
314.733; 1887.000;    0.000;    0.000
314.794; 1827.000;    0.000;    0.000
314.855; 1934.000;    0.000;    0.000
314.917; 1884.000;    0.000;    0.000
314.978; 1927.000;    0.000;    0.000
315.039; 1862.000;    0.000;    0.000
315.100; 1930.000;    0.000;    0.000
315.161; 1917.000;    0.000;    0.000
315.222; 1958.000;    0.000;    0.000
315.283; 1872.000;    0.000;    0.000
315.345; 1953.000;    0.000;    0.000
315.406; 1883.000;    0.000;    0.000
315.467; 1947.000;    0.000;    0.000
315.528; 1935.000;    0.000;    0.000
315.589; 1966.000;    0.000;    0.000
315.650; 1969.000;    0.000;    0.000
315.711; 1918.000;    0.000;    0.000
315.772; 1948.000;    0.000;    0.000
315.833; 1862.000;    0.000;    0.000
315.894; 1937.000;    0.000;    0.000
315.955; 1881.000;    0.000;    0.000
316.016; 1903.000;    0.000;    0.000
316.078; 1856.000;    0.000;    0.000
316.139; 1875.000;    0.000;    0.000
316.200; 1931.000;    0.000;    0.000
316.261; 1975.000;    0.000;    0.000
316.322; 1852.000;    0.000;    0.000
316.383; 1880.000;    0.000;    0.000
316.444; 1930.000;    0.000;    0.000
316.504; 1982.000;    0.000;    0.000
316.565; 1912.000;    0.000;    0.000
316.626; 1938.000;    0.000;    0.000
316.687; 1924.000;    0.000;    0.000
316.748; 2013.000;    0.000;    0.000
316.809; 1955.000;    0.000;    0.000
316.870; 1942.000;    0.000;    0.000
316.931; 1989.000;    0.000;    0.000
316.992; 2010.000;    0.000;    0.000
317.053; 1929.000;    0.000;    0.000
317.114; 2038.000;    0.000;    0.000
317.175; 1979.000;    0.000;    0.000
317.235; 2011.000;    0.000;    0.000
317.296; 1993.000;    0.000;    0.000
317.357; 1977.000;    0.000;    0.000
317.418; 2073.000;    0.000;    0.000
317.479; 2026.000;    0.000;    0.000
317.540; 1944.000;    0.000;    0.000
317.601; 1935.000;    0.000;    0.000
317.661; 1963.000;    0.000;    0.000
317.722; 1871.000;    0.000;    0.000
317.783; 1917.000;    0.000;    0.000
317.844; 2042.000;    0.000;    0.000
317.904; 1988.000;    0.000;    0.000
317.965; 1896.000;    0.000;    0.000
318.026; 2042.000;    0.000;    0.000
318.087; 1877.000;    0.000;    0.000
318.148; 1917.000;    0.000;    0.000
318.208; 2030.000;    0.000;    0.000
318.269; 1936.000;    0.000;    0.000
318.330; 1973.000;    0.000;    0.000
318.390; 1987.000;    0.000;    0.000
318.451; 1975.000;    0.000;    0.000
318.512; 1977.000;    0.000;    0.000
318.572; 1946.000;    0.000;    0.000
318.633; 2067.000;    0.000;    0.000
318.694; 1990.000;    0.000;    0.000
318.754; 1990.000;    0.000;    0.000
318.815; 2003.000;    0.000;    0.000
318.876; 2005.000;    0.000;    0.000
318.936; 1954.000;    0.000;    0.000
318.997; 1913.000;    0.000;    0.000
319.058; 1983.000;    0.000;    0.000
319.118; 1990.000;    0.000;    0.000
319.179; 1917.000;    0.000;    0.000
319.239; 2015.000;    0.000;    0.000
319.300; 2045.000;    0.000;    0.000
319.361; 2004.000;    0.000;    0.000
319.421; 1945.000;    0.000;    0.000
319.482; 1889.000;    0.000;    0.000
319.542; 1984.000;    0.000;    0.000
319.603; 1921.000;    0.000;    0.000
319.663; 1972.000;    0.000;    0.000
319.724; 1973.000;    0.000;    0.000
319.784; 1967.000;    0.000;    0.000
319.845; 2016.000;    0.000;    0.000
319.905; 2069.000;    0.000;    0.000
319.966; 2008.000;    0.000;    0.000
320.026; 2043.000;    0.000;    0.000
320.087; 1996.000;    0.000;    0.000
320.147; 2068.000;    0.000;    0.000
320.208; 2023.000;    0.000;    0.000
320.268; 2016.000;    0.000;    0.000
320.329; 2034.000;    0.000;    0.000
320.389; 2030.000;    0.000;    0.000
320.449; 2040.000;    0.000;    0.000
320.510; 2028.000;    0.000;    0.000
320.570; 2056.000;    0.000;    0.000
320.631; 2027.000;    0.000;    0.000
320.691; 2021.000;    0.000;    0.000
320.751; 1978.000;    0.000;    0.000
320.812; 2068.000;    0.000;    0.000
320.872; 2040.000;    0.000;    0.000
320.932; 2092.000;    0.000;    0.000
320.993; 2033.000;    0.000;    0.000
321.053; 2093.000;    0.000;    0.000
321.113; 2082.000;    0.000;    0.000
321.174; 2040.000;    0.000;    0.000
321.234; 2056.000;    0.000;    0.000
321.294; 1967.000;    0.000;    0.000
321.355; 2063.000;    0.000;    0.000
321.415; 2037.000;    0.000;    0.000
321.475; 2020.000;    0.000;    0.000
321.535; 2116.000;    0.000;    0.000
321.596; 2072.000;    0.000;    0.000
321.656; 2094.000;    0.000;    0.000
321.716; 2029.000;    0.000;    0.000
321.776; 2108.000;    0.000;    0.000
321.837; 2062.000;    0.000;    0.000
321.897; 2102.000;    0.000;    0.000
321.957; 2087.000;    0.000;    0.000
322.017; 2045.000;    0.000;    0.000
322.077; 2130.000;    0.000;    0.000
322.138; 2123.000;    0.000;    0.000
322.198; 2057.000;    0.000;    0.000
322.258; 2138.000;    0.000;    0.000
322.318; 2061.000;    0.000;    0.000
322.378; 2105.000;    0.000;    0.000
322.438; 2078.000;    0.000;    0.000
322.499; 2101.000;    0.000;    0.000
322.559; 2021.000;    0.000;    0.000
322.619; 2077.000;    0.000;    0.000
322.679; 2127.000;    0.000;    0.000
322.739; 2089.000;    0.000;    0.000
322.799; 2051.000;    0.000;    0.000
322.859; 2115.000;    0.000;    0.000
322.919; 2041.000;    0.000;    0.000
322.979; 2078.000;    0.000;    0.000
323.039; 2013.000;    0.000;    0.000
323.099; 2008.000;    0.000;    0.000
323.159; 2120.000;    0.000;    0.000
323.219; 2023.000;    0.000;    0.000
323.279; 2095.000;    0.000;    0.000
323.339; 2071.000;    0.000;    0.000
323.399; 2056.000;    0.000;    0.000
323.459; 2052.000;    0.000;    0.000
323.519; 2164.000;    0.000;    0.000
323.579; 2140.000;    0.000;    0.000
323.639; 2218.000;    0.000;    0.000
323.699; 2152.000;    0.000;    0.000
323.759; 2128.000;    0.000;    0.000
323.819; 2212.000;    0.000;    0.000
323.879; 2224.000;    0.000;    0.000
323.939; 2151.000;    0.000;    0.000
323.999; 2102.000;    0.000;    0.000
324.059; 2124.000;    0.000;    0.000
324.119; 2102.000;    0.000;    0.000
324.178; 2076.000;    0.000;    0.000
324.238; 2092.000;    0.000;    0.000
324.298; 2061.000;    0.000;    0.000
324.358; 2094.000;    0.000;    0.000
324.418; 2145.000;    0.000;    0.000
324.478; 2114.000;    0.000;    0.000
324.538; 2066.000;    0.000;    0.000
324.597; 2119.000;    0.000;    0.000
324.657; 2175.000;    0.000;    0.000
324.717; 2099.000;    0.000;    0.000
324.777; 2031.000;    0.000;    0.000
324.837; 2047.000;    0.000;    0.000
324.896; 2104.000;    0.000;    0.000
324.956; 2162.000;    0.000;    0.000
325.016; 2108.000;    0.000;    0.000
325.076; 2152.000;    0.000;    0.000
325.135; 2074.000;    0.000;    0.000
325.195; 2136.000;    0.000;    0.000
325.255; 2019.000;    0.000;    0.000
325.315; 2114.000;    0.000;    0.000
325.374; 2204.000;    0.000;    0.000
325.434; 2069.000;    0.000;    0.000
325.494; 2142.000;    0.000;    0.000
325.553; 2128.000;    0.000;    0.000
325.613; 2179.000;    0.000;    0.000
325.673; 2034.000;    0.000;    0.000
325.732; 2121.000;    0.000;    0.000
325.792; 2079.000;    0.000;    0.000
325.852; 2080.000;    0.000;    0.000
325.911; 2142.000;    0.000;    0.000
325.971; 2165.000;    0.000;    0.000
326.031; 2141.000;    0.000;    0.000
326.090; 2100.000;    0.000;    0.000
326.150; 2036.000;    0.000;    0.000
326.209; 2119.000;    0.000;    0.000
326.269; 2013.000;    0.000;    0.000
326.328; 2135.000;    0.000;    0.000
326.388; 2116.000;    0.000;    0.000
326.448; 2260.000;    0.000;    0.000
326.507; 2140.000;    0.000;    0.000
326.567; 2147.000;    0.000;    0.000
326.626; 2196.000;    0.000;    0.000
326.686; 2036.000;    0.000;    0.000
326.745; 2166.000;    0.000;    0.000
326.805; 2104.000;    0.000;    0.000
326.864; 2116.000;    0.000;    0.000
326.924; 2166.000;    0.000;    0.000
326.983; 2052.000;    0.000;    0.000
327.043; 2109.000;    0.000;    0.000
327.102; 2144.000;    0.000;    0.000
327.161; 2170.000;    0.000;    0.000
327.221; 2147.000;    0.000;    0.000
327.280; 2170.000;    0.000;    0.000
327.340; 2145.000;    0.000;    0.000
327.399; 2126.000;    0.000;    0.000
327.459; 2149.000;    0.000;    0.000
327.518; 2154.000;    0.000;    0.000
327.577; 2081.000;    0.000;    0.000
327.637; 2167.000;    0.000;    0.000
327.696; 2123.000;    0.000;    0.000
327.755; 2117.000;    0.000;    0.000
327.815; 2107.000;    0.000;    0.000
327.874; 2195.000;    0.000;    0.000
327.933; 2100.000;    0.000;    0.000
327.993; 2180.000;    0.000;    0.000
328.052; 2145.000;    0.000;    0.000
328.111; 2128.000;    0.000;    0.000
328.171; 2092.000;    0.000;    0.000
328.230; 2136.000;    0.000;    0.000
328.289; 2196.000;    0.000;    0.000
328.349; 2161.000;    0.000;    0.000
328.408; 2158.000;    0.000;    0.000
328.467; 2222.000;    0.000;    0.000
328.526; 2210.000;    0.000;    0.000
328.586; 2166.000;    0.000;    0.000
328.645; 2179.000;    0.000;    0.000
328.704; 2113.000;    0.000;    0.000
328.763; 2199.000;    0.000;    0.000
328.822; 2167.000;    0.000;    0.000
328.882; 2167.000;    0.000;    0.000
328.941; 2270.000;    0.000;    0.000
329.000; 2161.000;    0.000;    0.000
329.059; 2240.000;    0.000;    0.000
329.118; 2196.000;    0.000;    0.000
329.177; 2188.000;    0.000;    0.000
329.237; 2225.000;    0.000;    0.000
329.296; 2167.000;    0.000;    0.000
329.355; 2214.000;    0.000;    0.000
329.414; 2168.000;    0.000;    0.000
329.473; 2156.000;    0.000;    0.000
329.532; 2217.000;    0.000;    0.000
329.591; 2228.000;    0.000;    0.000
329.650; 2249.000;    0.000;    0.000
329.709; 2218.000;    0.000;    0.000
329.768; 2326.000;    0.000;    0.000
329.827; 2371.000;    0.000;    0.000
329.886; 2468.000;    0.000;    0.000
329.945; 2425.000;    0.000;    0.000
330.004; 2427.000;    0.000;    0.000
330.063; 2501.000;    0.000;    0.000
330.122; 2548.000;    0.000;    0.000
330.181; 2674.000;    0.000;    0.000
330.240; 2593.000;    0.000;    0.000
330.299; 2570.000;    0.000;    0.000
330.358; 2391.000;    0.000;    0.000
330.417; 2286.000;    0.000;    0.000
330.476; 2281.000;    0.000;    0.000
330.535; 2325.000;    0.000;    0.000
330.594; 2343.000;    0.000;    0.000
330.653; 2258.000;    0.000;    0.000
330.712; 2241.000;    0.000;    0.000
330.771; 2183.000;    0.000;    0.000
330.830; 2151.000;    0.000;    0.000
330.889; 2256.000;    0.000;    0.000
330.948; 2325.000;    0.000;    0.000
331.006; 2219.000;    0.000;    0.000
331.065; 2250.000;    0.000;    0.000
331.124; 2186.000;    0.000;    0.000
331.183; 2234.000;    0.000;    0.000
331.242; 2203.000;    0.000;    0.000
331.301; 2180.000;    0.000;    0.000
331.359; 2161.000;    0.000;    0.000
331.418; 2141.000;    0.000;    0.000
331.477; 2185.000;    0.000;    0.000
331.536; 2216.000;    0.000;    0.000
331.595; 2238.000;    0.000;    0.000
331.653; 2197.000;    0.000;    0.000
331.712; 2123.000;    0.000;    0.000
331.771; 2139.000;    0.000;    0.000
331.830; 2214.000;    0.000;    0.000
331.888; 2133.000;    0.000;    0.000
331.947; 2147.000;    0.000;    0.000
332.006; 2136.000;    0.000;    0.000
332.065; 2120.000;    0.000;    0.000
332.123; 2113.000;    0.000;    0.000
332.182; 2137.000;    0.000;    0.000
332.241; 2254.000;    0.000;    0.000
332.299; 2140.000;    0.000;    0.000
332.358; 2230.000;    0.000;    0.000
332.417; 2231.000;    0.000;    0.000
332.475; 2241.000;    0.000;    0.000
332.534; 2333.000;    0.000;    0.000
332.592; 2166.000;    0.000;    0.000
332.651; 2259.000;    0.000;    0.000
332.710; 2258.000;    0.000;    0.000
332.768; 2153.000;    0.000;    0.000
332.827; 2173.000;    0.000;    0.000
332.885; 2115.000;    0.000;    0.000
332.944; 2160.000;    0.000;    0.000
333.003; 2123.000;    0.000;    0.000
333.061; 2189.000;    0.000;    0.000
333.120; 2335.000;    0.000;    0.000
333.178; 2470.000;    0.000;    0.000
333.237; 2360.000;    0.000;    0.000
333.295; 2434.000;    0.000;    0.000
333.354; 2409.000;    0.000;    0.000
333.412; 2398.000;    0.000;    0.000
333.471; 2457.000;    0.000;    0.000
333.529; 2478.000;    0.000;    0.000
333.588; 2465.000;    0.000;    0.000
333.646; 2591.000;    0.000;    0.000
333.705; 2505.000;    0.000;    0.000
333.763; 2449.000;    0.000;    0.000
333.822; 2491.000;    0.000;    0.000
333.880; 2425.000;    0.000;    0.000
333.938; 2498.000;    0.000;    0.000
333.997; 2511.000;    0.000;    0.000
334.055; 2511.000;    0.000;    0.000
334.114; 2474.000;    0.000;    0.000
334.172; 2465.000;    0.000;    0.000
334.230; 2389.000;    0.000;    0.000
334.289; 2370.000;    0.000;    0.000
334.347; 2410.000;    0.000;    0.000
334.405; 2359.000;    0.000;    0.000
334.464; 2341.000;    0.000;    0.000
334.522; 2381.000;    0.000;    0.000
334.580; 2341.000;    0.000;    0.000
334.639; 2291.000;    0.000;    0.000
334.697; 2422.000;    0.000;    0.000
334.755; 2399.000;    0.000;    0.000
334.814; 2371.000;    0.000;    0.000
334.872; 2331.000;    0.000;    0.000
334.930; 2326.000;    0.000;    0.000
334.988; 2319.000;    0.000;    0.000
335.047; 2392.000;    0.000;    0.000
335.105; 2396.000;    0.000;    0.000
335.163; 2264.000;    0.000;    0.000
335.221; 2407.000;    0.000;    0.000
335.280; 2404.000;    0.000;    0.000
335.338; 2370.000;    0.000;    0.000
335.396; 2400.000;    0.000;    0.000
335.454; 2262.000;    0.000;    0.000
335.512; 2354.000;    0.000;    0.000
335.570; 2348.000;    0.000;    0.000
335.629; 2419.000;    0.000;    0.000
335.687; 2534.000;    0.000;    0.000
335.745; 2515.000;    0.000;    0.000
335.803; 2655.000;    0.000;    0.000
335.861; 2610.000;    0.000;    0.000
335.919; 2562.000;    0.000;    0.000
335.977; 2539.000;    0.000;    0.000
336.035; 2426.000;    0.000;    0.000
336.094; 2452.000;    0.000;    0.000
336.152; 2353.000;    0.000;    0.000
336.210; 2493.000;    0.000;    0.000
336.268; 2560.000;    0.000;    0.000
336.326; 2603.000;    0.000;    0.000
336.384; 2586.000;    0.000;    0.000
336.442; 2547.000;    0.000;    0.000
336.500; 2479.000;    0.000;    0.000
336.558; 2496.000;    0.000;    0.000
336.616; 2590.000;    0.000;    0.000
336.674; 2479.000;    0.000;    0.000
336.732; 2514.000;    0.000;    0.000
336.790; 2444.000;    0.000;    0.000
336.848; 2552.000;    0.000;    0.000
336.906; 2497.000;    0.000;    0.000
336.964; 2472.000;    0.000;    0.000
337.022; 2411.000;    0.000;    0.000
337.080; 2616.000;    0.000;    0.000
337.138; 2496.000;    0.000;    0.000
337.195; 2533.000;    0.000;    0.000
337.253; 2516.000;    0.000;    0.000
337.311; 2592.000;    0.000;    0.000
337.369; 2510.000;    0.000;    0.000
337.427; 2430.000;    0.000;    0.000
337.485; 2371.000;    0.000;    0.000
337.543; 2380.000;    0.000;    0.000
337.601; 2402.000;    0.000;    0.000
337.658; 2331.000;    0.000;    0.000
337.716; 2395.000;    0.000;    0.000
337.774; 2360.000;    0.000;    0.000
337.832; 2338.000;    0.000;    0.000
337.890; 2301.000;    0.000;    0.000
337.947; 2308.000;    0.000;    0.000
338.005; 2326.000;    0.000;    0.000
338.063; 2378.000;    0.000;    0.000
338.121; 2399.000;    0.000;    0.000
338.178; 2403.000;    0.000;    0.000
338.236; 2384.000;    0.000;    0.000
338.294; 2431.000;    0.000;    0.000
338.352; 2461.000;    0.000;    0.000
338.409; 2424.000;    0.000;    0.000
338.467; 2398.000;    0.000;    0.000
338.525; 2376.000;    0.000;    0.000
338.583; 2312.000;    0.000;    0.000
338.640; 2319.000;    0.000;    0.000
338.698; 2362.000;    0.000;    0.000
338.756; 2451.000;    0.000;    0.000
338.813; 2482.000;    0.000;    0.000
338.871; 2576.000;    0.000;    0.000
338.928; 2564.000;    0.000;    0.000
338.986; 2547.000;    0.000;    0.000
339.044; 2482.000;    0.000;    0.000
339.101; 2473.000;    0.000;    0.000
339.159; 2406.000;    0.000;    0.000
339.216; 2488.000;    0.000;    0.000
339.274; 2428.000;    0.000;    0.000
339.332; 2511.000;    0.000;    0.000
339.389; 2431.000;    0.000;    0.000
339.447; 2413.000;    0.000;    0.000
339.504; 2470.000;    0.000;    0.000
339.562; 2416.000;    0.000;    0.000
339.619; 2518.000;    0.000;    0.000
339.677; 2344.000;    0.000;    0.000
339.734; 2429.000;    0.000;    0.000
339.792; 2485.000;    0.000;    0.000
339.849; 2488.000;    0.000;    0.000
339.907; 2481.000;    0.000;    0.000
339.964; 2450.000;    0.000;    0.000
340.022; 2479.000;    0.000;    0.000
340.079; 2417.000;    0.000;    0.000
340.137; 2374.000;    0.000;    0.000
340.194; 2459.000;    0.000;    0.000
340.252; 2417.000;    0.000;    0.000
340.309; 2446.000;    0.000;    0.000
340.366; 2421.000;    0.000;    0.000
340.424; 2429.000;    0.000;    0.000
340.481; 2438.000;    0.000;    0.000
340.538; 2525.000;    0.000;    0.000
340.596; 2433.000;    0.000;    0.000
340.653; 2491.000;    0.000;    0.000
340.711; 2509.000;    0.000;    0.000
340.768; 2617.000;    0.000;    0.000
340.825; 2535.000;    0.000;    0.000
340.883; 2523.000;    0.000;    0.000
340.940; 2598.000;    0.000;    0.000
340.997; 2453.000;    0.000;    0.000
341.054; 2427.000;    0.000;    0.000
341.112; 2464.000;    0.000;    0.000
341.169; 2588.000;    0.000;    0.000
341.226; 2503.000;    0.000;    0.000
341.284; 2587.000;    0.000;    0.000
341.341; 2568.000;    0.000;    0.000
341.398; 2508.000;    0.000;    0.000
341.455; 2616.000;    0.000;    0.000
341.512; 2580.000;    0.000;    0.000
341.570; 2524.000;    0.000;    0.000
341.627; 2558.000;    0.000;    0.000
341.684; 2520.000;    0.000;    0.000
341.741; 2556.000;    0.000;    0.000
341.798; 2636.000;    0.000;    0.000
341.856; 2544.000;    0.000;    0.000
341.913; 2557.000;    0.000;    0.000
341.970; 2544.000;    0.000;    0.000
342.027; 2660.000;    0.000;    0.000
342.084; 2540.000;    0.000;    0.000
342.141; 2618.000;    0.000;    0.000
342.198; 2651.000;    0.000;    0.000
342.255; 2570.000;    0.000;    0.000
342.313; 2512.000;    0.000;    0.000
342.370; 2482.000;    0.000;    0.000
342.427; 2397.000;    0.000;    0.000
342.484; 2432.000;    0.000;    0.000
342.541; 2399.000;    0.000;    0.000
342.598; 2480.000;    0.000;    0.000
342.655; 2487.000;    0.000;    0.000
342.712; 2507.000;    0.000;    0.000
342.769; 2452.000;    0.000;    0.000
342.826; 2480.000;    0.000;    0.000
342.883; 2386.000;    0.000;    0.000
342.940; 2376.000;    0.000;    0.000
342.997; 2496.000;    0.000;    0.000
343.054; 2462.000;    0.000;    0.000
343.111; 2440.000;    0.000;    0.000
343.168; 2417.000;    0.000;    0.000
343.225; 2548.000;    0.000;    0.000
343.282; 2476.000;    0.000;    0.000
343.339; 2489.000;    0.000;    0.000
343.395; 2582.000;    0.000;    0.000
343.452; 2635.000;    0.000;    0.000
343.509; 2550.000;    0.000;    0.000
343.566; 2610.000;    0.000;    0.000
343.623; 2545.000;    0.000;    0.000
343.680; 2459.000;    0.000;    0.000
343.737; 2552.000;    0.000;    0.000
343.794; 2517.000;    0.000;    0.000
343.850; 2565.000;    0.000;    0.000
343.907; 2575.000;    0.000;    0.000
343.964; 2560.000;    0.000;    0.000
344.021; 2584.000;    0.000;    0.000
344.078; 2599.000;    0.000;    0.000
344.134; 2665.000;    0.000;    0.000
344.191; 2604.000;    0.000;    0.000
344.248; 2612.000;    0.000;    0.000
344.305; 2636.000;    0.000;    0.000
344.361; 2596.000;    0.000;    0.000
344.418; 2621.000;    0.000;    0.000
344.475; 2578.000;    0.000;    0.000
344.532; 2552.000;    0.000;    0.000
344.588; 2608.000;    0.000;    0.000
344.645; 2594.000;    0.000;    0.000
344.702; 2579.000;    0.000;    0.000
344.758; 2655.000;    0.000;    0.000
344.815; 2528.000;    0.000;    0.000
344.872; 2590.000;    0.000;    0.000
344.928; 2621.000;    0.000;    0.000
344.985; 2546.000;    0.000;    0.000
345.042; 2588.000;    0.000;    0.000
345.098; 2674.000;    0.000;    0.000
345.155; 2631.000;    0.000;    0.000
345.212; 2613.000;    0.000;    0.000
345.268; 2581.000;    0.000;    0.000
345.325; 2568.000;    0.000;    0.000
345.381; 2689.000;    0.000;    0.000
345.438; 2652.000;    0.000;    0.000
345.495; 2719.000;    0.000;    0.000
345.551; 2745.000;    0.000;    0.000
345.608; 2688.000;    0.000;    0.000
345.664; 2661.000;    0.000;    0.000
345.721; 2618.000;    0.000;    0.000
345.777; 2448.000;    0.000;    0.000
345.834; 2477.000;    0.000;    0.000
345.890; 2520.000;    0.000;    0.000
345.947; 2507.000;    0.000;    0.000
346.003; 2583.000;    0.000;    0.000
346.060; 2498.000;    0.000;    0.000
346.116; 2637.000;    0.000;    0.000
346.173; 2558.000;    0.000;    0.000
346.229; 2546.000;    0.000;    0.000
346.285; 2518.000;    0.000;    0.000
346.342; 2535.000;    0.000;    0.000
346.398; 2581.000;    0.000;    0.000
346.455; 2601.000;    0.000;    0.000
346.511; 2671.000;    0.000;    0.000
346.567; 2639.000;    0.000;    0.000
346.624; 2696.000;    0.000;    0.000
346.680; 2625.000;    0.000;    0.000
346.737; 2691.000;    0.000;    0.000
346.793; 2736.000;    0.000;    0.000
346.849; 2800.000;    0.000;    0.000
346.906; 2810.000;    0.000;    0.000
346.962; 2875.000;    0.000;    0.000
347.018; 2796.000;    0.000;    0.000
347.074; 2760.000;    0.000;    0.000
347.131; 2702.000;    0.000;    0.000
347.187; 2739.000;    0.000;    0.000
347.243; 2778.000;    0.000;    0.000
347.300; 2706.000;    0.000;    0.000
347.356; 2666.000;    0.000;    0.000
347.412; 2537.000;    0.000;    0.000
347.468; 2584.000;    0.000;    0.000
347.524; 2527.000;    0.000;    0.000
347.581; 2553.000;    0.000;    0.000
347.637; 2579.000;    0.000;    0.000
347.693; 2555.000;    0.000;    0.000
347.749; 2616.000;    0.000;    0.000
347.805; 2610.000;    0.000;    0.000
347.862; 2605.000;    0.000;    0.000
347.918; 2550.000;    0.000;    0.000
347.974; 2560.000;    0.000;    0.000
348.030; 2600.000;    0.000;    0.000
348.086; 2653.000;    0.000;    0.000
348.142; 2573.000;    0.000;    0.000
348.198; 2583.000;    0.000;    0.000
348.254; 2692.000;    0.000;    0.000
348.311; 2646.000;    0.000;    0.000
348.367; 2601.000;    0.000;    0.000
348.423; 2571.000;    0.000;    0.000
348.479; 2558.000;    0.000;    0.000
348.535; 2548.000;    0.000;    0.000
348.591; 2565.000;    0.000;    0.000
348.647; 2555.000;    0.000;    0.000
348.703; 2674.000;    0.000;    0.000
348.759; 2585.000;    0.000;    0.000
348.815; 2664.000;    0.000;    0.000
348.871; 2623.000;    0.000;    0.000
348.927; 2676.000;    0.000;    0.000
348.983; 2653.000;    0.000;    0.000
349.039; 2561.000;    0.000;    0.000
349.095; 2610.000;    0.000;    0.000
349.151; 2682.000;    0.000;    0.000
349.207; 2614.000;    0.000;    0.000
349.263; 2661.000;    0.000;    0.000
349.319; 2619.000;    0.000;    0.000
349.374; 2733.000;    0.000;    0.000
349.430; 2631.000;    0.000;    0.000
349.486; 2669.000;    0.000;    0.000
349.542; 2719.000;    0.000;    0.000
349.598; 2662.000;    0.000;    0.000
349.654; 2707.000;    0.000;    0.000
349.710; 2744.000;    0.000;    0.000
349.766; 2625.000;    0.000;    0.000
349.821; 2638.000;    0.000;    0.000
349.877; 2685.000;    0.000;    0.000
349.933; 2594.000;    0.000;    0.000
349.989; 2692.000;    0.000;    0.000
350.045; 2659.000;    0.000;    0.000
350.100; 2645.000;    0.000;    0.000
350.156; 2681.000;    0.000;    0.000
350.212; 2637.000;    0.000;    0.000
350.268; 2638.000;    0.000;    0.000
350.323; 2578.000;    0.000;    0.000
350.379; 2607.000;    0.000;    0.000
350.435; 2623.000;    0.000;    0.000
350.491; 2591.000;    0.000;    0.000
350.546; 2601.000;    0.000;    0.000
350.602; 2591.000;    0.000;    0.000
350.658; 2602.000;    0.000;    0.000
350.713; 2654.000;    0.000;    0.000
350.769; 2642.000;    0.000;    0.000
350.825; 2637.000;    0.000;    0.000
350.880; 2554.000;    0.000;    0.000
350.936; 2711.000;    0.000;    0.000
350.992; 2583.000;    0.000;    0.000
351.047; 2553.000;    0.000;    0.000
351.103; 2501.000;    0.000;    0.000
351.158; 2575.000;    0.000;    0.000
351.214; 2606.000;    0.000;    0.000
351.270; 2570.000;    0.000;    0.000
351.325; 2587.000;    0.000;    0.000
351.381; 2617.000;    0.000;    0.000
351.436; 2586.000;    0.000;    0.000
351.492; 2755.000;    0.000;    0.000
351.547; 2771.000;    0.000;    0.000
351.603; 2770.000;    0.000;    0.000
351.658; 2693.000;    0.000;    0.000
351.714; 2745.000;    0.000;    0.000
351.769; 2798.000;    0.000;    0.000
351.825; 2736.000;    0.000;    0.000
351.880; 2769.000;    0.000;    0.000
351.936; 2779.000;    0.000;    0.000
351.991; 2781.000;    0.000;    0.000
352.047; 2795.000;    0.000;    0.000
352.102; 2724.000;    0.000;    0.000
352.158; 2709.000;    0.000;    0.000
352.213; 2714.000;    0.000;    0.000
352.268; 2655.000;    0.000;    0.000
352.324; 2586.000;    0.000;    0.000
352.379; 2668.000;    0.000;    0.000
352.434; 2663.000;    0.000;    0.000
352.490; 2611.000;    0.000;    0.000
352.545; 2676.000;    0.000;    0.000
352.601; 2667.000;    0.000;    0.000
352.656; 2624.000;    0.000;    0.000
352.711; 2584.000;    0.000;    0.000
352.767; 2590.000;    0.000;    0.000
352.822; 2576.000;    0.000;    0.000
352.877; 2646.000;    0.000;    0.000
352.932; 2566.000;    0.000;    0.000
352.988; 2700.000;    0.000;    0.000
353.043; 2645.000;    0.000;    0.000
353.098; 2776.000;    0.000;    0.000
353.153; 2657.000;    0.000;    0.000
353.209; 2689.000;    0.000;    0.000
353.264; 2574.000;    0.000;    0.000
353.319; 2559.000;    0.000;    0.000
353.374; 2552.000;    0.000;    0.000
353.430; 2621.000;    0.000;    0.000
353.485; 2563.000;    0.000;    0.000
353.540; 2599.000;    0.000;    0.000
353.595; 2622.000;    0.000;    0.000
353.650; 2560.000;    0.000;    0.000
353.705; 2493.000;    0.000;    0.000
353.761; 2532.000;    0.000;    0.000
353.816; 2508.000;    0.000;    0.000
353.871; 2611.000;    0.000;    0.000
353.926; 2500.000;    0.000;    0.000
353.981; 2473.000;    0.000;    0.000
354.036; 2528.000;    0.000;    0.000
354.091; 2514.000;    0.000;    0.000
354.146; 2520.000;    0.000;    0.000
354.201; 2556.000;    0.000;    0.000
354.256; 2587.000;    0.000;    0.000
354.311; 2542.000;    0.000;    0.000
354.367; 2553.000;    0.000;    0.000
354.422; 2708.000;    0.000;    0.000
354.477; 2566.000;    0.000;    0.000
354.532; 2614.000;    0.000;    0.000
354.587; 2593.000;    0.000;    0.000
354.642; 2583.000;    0.000;    0.000
354.697; 2644.000;    0.000;    0.000
354.751; 2639.000;    0.000;    0.000
354.806; 2707.000;    0.000;    0.000
354.861; 2719.000;    0.000;    0.000
354.916; 2706.000;    0.000;    0.000
354.971; 2606.000;    0.000;    0.000
355.026; 2524.000;    0.000;    0.000
355.081; 2594.000;    0.000;    0.000
355.136; 2436.000;    0.000;    0.000
355.191; 2525.000;    0.000;    0.000
355.246; 2543.000;    0.000;    0.000
355.301; 2542.000;    0.000;    0.000
355.355; 2621.000;    0.000;    0.000
355.410; 2580.000;    0.000;    0.000
355.465; 2541.000;    0.000;    0.000
355.520; 2610.000;    0.000;    0.000
355.575; 2529.000;    0.000;    0.000
355.630; 2571.000;    0.000;    0.000
355.684; 2476.000;    0.000;    0.000
355.739; 2555.000;    0.000;    0.000
355.794; 2625.000;    0.000;    0.000
355.849; 2465.000;    0.000;    0.000
355.904; 2522.000;    0.000;    0.000
355.958; 2498.000;    0.000;    0.000
356.013; 2540.000;    0.000;    0.000
356.068; 2487.000;    0.000;    0.000
356.123; 2593.000;    0.000;    0.000
356.177; 2545.000;    0.000;    0.000
356.232; 2675.000;    0.000;    0.000
356.287; 2572.000;    0.000;    0.000
356.341; 2610.000;    0.000;    0.000
356.396; 2625.000;    0.000;    0.000
356.451; 2553.000;    0.000;    0.000
356.505; 2574.000;    0.000;    0.000
356.560; 2560.000;    0.000;    0.000
356.615; 2463.000;    0.000;    0.000
356.669; 2511.000;    0.000;    0.000
356.724; 2647.000;    0.000;    0.000
356.778; 2561.000;    0.000;    0.000
356.833; 2550.000;    0.000;    0.000
356.888; 2574.000;    0.000;    0.000
356.942; 2562.000;    0.000;    0.000
356.997; 2642.000;    0.000;    0.000
357.051; 2505.000;    0.000;    0.000
357.106; 2449.000;    0.000;    0.000
357.160; 2507.000;    0.000;    0.000
357.215; 2481.000;    0.000;    0.000
357.269; 2433.000;    0.000;    0.000
357.324; 2507.000;    0.000;    0.000
357.378; 2577.000;    0.000;    0.000
357.433; 2468.000;    0.000;    0.000
357.487; 2413.000;    0.000;    0.000
357.542; 2395.000;    0.000;    0.000
357.596; 2582.000;    0.000;    0.000
357.651; 2589.000;    0.000;    0.000
357.705; 2484.000;    0.000;    0.000
357.760; 2441.000;    0.000;    0.000
357.814; 2514.000;    0.000;    0.000
357.868; 2469.000;    0.000;    0.000
357.923; 2447.000;    0.000;    0.000
357.977; 2494.000;    0.000;    0.000
358.032; 2553.000;    0.000;    0.000
358.086; 2569.000;    0.000;    0.000
358.140; 2471.000;    0.000;    0.000
358.195; 2556.000;    0.000;    0.000
358.249; 2507.000;    0.000;    0.000
358.303; 2323.000;    0.000;    0.000
358.358; 2417.000;    0.000;    0.000
358.412; 2484.000;    0.000;    0.000
358.466; 2480.000;    0.000;    0.000
358.521; 2464.000;    0.000;    0.000
358.575; 2376.000;    0.000;    0.000
358.629; 2345.000;    0.000;    0.000
358.683; 2466.000;    0.000;    0.000
358.738; 2410.000;    0.000;    0.000
358.792; 2338.000;    0.000;    0.000
358.846; 2408.000;    0.000;    0.000
358.900; 2479.000;    0.000;    0.000
358.954; 2511.000;    0.000;    0.000
359.009; 2459.000;    0.000;    0.000
359.063; 2409.000;    0.000;    0.000
359.117; 2566.000;    0.000;    0.000
359.171; 2472.000;    0.000;    0.000
359.225; 2476.000;    0.000;    0.000
359.280; 2490.000;    0.000;    0.000
359.334; 2505.000;    0.000;    0.000
359.388; 2541.000;    0.000;    0.000
359.442; 2378.000;    0.000;    0.000
359.496; 2404.000;    0.000;    0.000
359.550; 2377.000;    0.000;    0.000
359.604; 2343.000;    0.000;    0.000
359.658; 2411.000;    0.000;    0.000
359.712; 2381.000;    0.000;    0.000
359.766; 2456.000;    0.000;    0.000
359.820; 2417.000;    0.000;    0.000
359.875; 2306.000;    0.000;    0.000
359.929; 2430.000;    0.000;    0.000
359.983; 2435.000;    0.000;    0.000
360.037; 2418.000;    0.000;    0.000
360.091; 2305.000;    0.000;    0.000
360.145; 2401.000;    0.000;    0.000
360.199; 2387.000;    0.000;    0.000
360.253; 2406.000;    0.000;    0.000
360.306; 2465.000;    0.000;    0.000
360.360; 2419.000;    0.000;    0.000
360.414; 2301.000;    0.000;    0.000
360.468; 2444.000;    0.000;    0.000
360.522; 2425.000;    0.000;    0.000
360.576; 2389.000;    0.000;    0.000
360.630; 2372.000;    0.000;    0.000
360.684; 2437.000;    0.000;    0.000
360.738; 2404.000;    0.000;    0.000
360.792; 2437.000;    0.000;    0.000
360.846; 2379.000;    0.000;    0.000
360.899; 2416.000;    0.000;    0.000
360.953; 2355.000;    0.000;    0.000
361.007; 2398.000;    0.000;    0.000
361.061; 2451.000;    0.000;    0.000
361.115; 2366.000;    0.000;    0.000
361.168; 2382.000;    0.000;    0.000
361.222; 2384.000;    0.000;    0.000
361.276; 2443.000;    0.000;    0.000
361.330; 2322.000;    0.000;    0.000
361.384; 2373.000;    0.000;    0.000
361.437; 2419.000;    0.000;    0.000
361.491; 2432.000;    0.000;    0.000
361.545; 2356.000;    0.000;    0.000
361.599; 2271.000;    0.000;    0.000
361.652; 2393.000;    0.000;    0.000
361.706; 2366.000;    0.000;    0.000
361.760; 2320.000;    0.000;    0.000
361.813; 2436.000;    0.000;    0.000
361.867; 2396.000;    0.000;    0.000
361.921; 2341.000;    0.000;    0.000
361.974; 2349.000;    0.000;    0.000
362.028; 2350.000;    0.000;    0.000
362.082; 2308.000;    0.000;    0.000
362.135; 2270.000;    0.000;    0.000
362.189; 2377.000;    0.000;    0.000
362.242; 2407.000;    0.000;    0.000
362.296; 2373.000;    0.000;    0.000
362.350; 2348.000;    0.000;    0.000
362.403; 2363.000;    0.000;    0.000
362.457; 2385.000;    0.000;    0.000
362.510; 2316.000;    0.000;    0.000
362.564; 2329.000;    0.000;    0.000
362.617; 2244.000;    0.000;    0.000
362.671; 2330.000;    0.000;    0.000
362.724; 2185.000;    0.000;    0.000
362.778; 2368.000;    0.000;    0.000
362.831; 2301.000;    0.000;    0.000
362.885; 2246.000;    0.000;    0.000
362.938; 2147.000;    0.000;    0.000
362.992;  429.000;    0.000;    0.000
363.045;  298.000;    0.000;    0.000
363.099;  285.000;    0.000;    0.000
363.152;  289.000;    0.000;    0.000
363.205;  314.000;    0.000;    0.000
363.259;  321.000;    0.000;    0.000
363.312;  327.000;    0.000;    0.000
363.366;  315.000;    0.000;    0.000
363.419;  299.000;    0.000;    0.000
363.472;  323.000;    0.000;    0.000
363.526;  301.000;    0.000;    0.000
363.579;  308.000;    0.000;    0.000
363.632;  284.000;    0.000;    0.000
363.686;  288.000;    0.000;    0.000
363.739;  290.000;    0.000;    0.000
363.792;  281.000;    0.000;    0.000

