
Integration time [ms]:   0.300
Averaging Nr. [scans]: 1
Smoothing Nr. [pixels]: 0
Data measured with spectrometer [name]: UV1
Wave   ;Sample   ;Dark     ;Reference
[nm]   ;[counts] ;[counts] ;[counts] 

236.381;  159.350;  160.350;    0.000
236.451;  194.350;  198.350;    0.000
236.520;  165.350;  179.350;    0.000
236.590;  206.350;  205.350;    0.000
236.660;  221.350;  199.350;    0.000
236.730;  193.350;  178.350;    0.000
236.799;  220.350;  201.350;    0.000
236.869;  180.350;  197.350;    0.000
236.939;  172.350;  180.350;    0.000
237.009;  162.350;  165.350;    0.000
237.078;  206.350;  191.350;    0.000
237.148;  185.350;  146.350;    0.000
237.218;  223.350;  142.350;    0.000
237.287;  183.350;  190.350;    0.000
237.357;  176.350;  182.350;    0.000
237.427;  196.350;  139.350;    0.000
237.496;  916.350;  221.350;    0.000
237.566;  869.350;  183.350;    0.000
237.636;  855.350;  157.350;    0.000
237.705; 1005.350;  189.350;    0.000
237.775;  871.350;  169.350;    0.000
237.845;  903.350;  156.350;    0.000
237.914;  810.350;  185.350;    0.000
237.984;  853.350;  194.350;    0.000
238.054;  868.350;  138.350;    0.000
238.123;  903.350;  166.350;    0.000
238.193;  889.350;  174.350;    0.000
238.263;  862.350;  158.350;    0.000
238.332;  876.350;  167.350;    0.000
238.402;  911.350;  173.350;    0.000
238.471;  867.350;  153.350;    0.000
238.541;  876.350;  167.350;    0.000
238.611;  872.350;  165.350;    0.000
238.680;  831.350;  157.350;    0.000
238.750;  875.350;  152.350;    0.000
238.819;  871.350;  190.350;    0.000
238.889;  879.350;  151.350;    0.000
238.958;  821.350;  166.350;    0.000
239.028;  921.350;  180.350;    0.000
239.097;  843.350;  170.350;    0.000
239.167;  917.350;  177.350;    0.000
239.237;  899.350;  195.350;    0.000
239.306;  884.350;  145.350;    0.000
239.376;  878.350;  158.350;    0.000
239.445;  917.350;  187.350;    0.000
239.515;  924.350;  160.350;    0.000
239.584;  849.350;  173.350;    0.000
239.654;  859.350;  184.350;    0.000
239.723;  870.350;  195.350;    0.000
239.793;  860.350;  183.350;    0.000
239.862;  873.350;  190.350;    0.000
239.932;  820.350;  168.350;    0.000
240.001;  903.350;  164.350;    0.000
240.070;  922.350;  183.350;    0.000
240.140;  869.350;  175.350;    0.000
240.209;  886.350;  135.350;    0.000
240.279;  869.350;  176.350;    0.000
240.348;  889.350;  184.350;    0.000
240.418;  834.350;  157.350;    0.000
240.487;  872.350;  189.350;    0.000
240.556;  844.350;  157.350;    0.000
240.626;  870.350;  174.350;    0.000
240.695;  826.350;  180.350;    0.000
240.765;  852.350;  152.350;    0.000
240.834;  801.350;  136.350;    0.000
240.903;  889.350;  196.350;    0.000
240.973;  836.350;  183.350;    0.000
241.042;  846.350;  150.350;    0.000
241.112;  845.350;  168.350;    0.000
241.181;  868.350;  152.350;    0.000
241.250;  812.350;  132.350;    0.000
241.320;  847.350;  209.350;    0.000
241.389;  852.350;  169.350;    0.000
241.458;  856.350;  204.350;    0.000
241.528;  841.350;  176.350;    0.000
241.597;  821.350;  170.350;    0.000
241.666;  835.350;  168.350;    0.000
241.736;  839.350;  172.350;    0.000
241.805;  821.350;  160.350;    0.000
241.874;  826.350;  176.350;    0.000
241.943;  862.350;  165.350;    0.000
242.013;  871.350;  206.350;    0.000
242.082;  807.350;  162.350;    0.000
242.151;  850.350;  180.350;    0.000
242.221;  808.350;  154.350;    0.000
242.290;  850.350;  122.350;    0.000
242.359;  797.350;  121.350;    0.000
242.428;  877.350;  187.350;    0.000
242.498;  866.350;  140.350;    0.000
242.567;  849.350;  173.350;    0.000
242.636;  842.350;  155.350;    0.000
242.705;  846.350;  108.350;    0.000
242.774;  844.350;  145.350;    0.000
242.844;  808.350;  162.350;    0.000
242.913;  810.350;  178.350;    0.000
242.982;  850.350;  163.350;    0.000
243.051;  808.350;  138.350;    0.000
243.120;  819.350;  172.350;    0.000
243.190;  801.350;  155.350;    0.000
243.259;  796.350;  159.350;    0.000
243.328;  790.350;  173.350;    0.000
243.397;  803.350;  175.350;    0.000
243.466;  787.350;  170.350;    0.000
243.535;  772.350;  161.350;    0.000
243.605;  807.350;  149.350;    0.000
243.674;  846.350;  162.350;    0.000
243.743;  865.350;  175.350;    0.000
243.812;  795.350;  159.350;    0.000
243.881;  845.350;  158.350;    0.000
243.950;  843.350;  154.350;    0.000
244.019;  798.350;  185.350;    0.000
244.088;  782.350;  175.350;    0.000
244.158;  841.350;  167.350;    0.000
244.227;  858.350;  159.350;    0.000
244.296;  783.350;  143.350;    0.000
244.365;  852.350;  182.350;    0.000
244.434;  874.350;  117.350;    0.000
244.503;  776.350;  109.350;    0.000
244.572;  790.350;  147.350;    0.000
244.641;  759.350;  129.350;    0.000
244.710;  765.350;  159.350;    0.000
244.779;  770.350;  166.350;    0.000
244.848;  723.350;  122.350;    0.000
244.917;  812.350;  167.350;    0.000
244.986;  769.350;  158.350;    0.000
245.055;  796.350;  175.350;    0.000
245.124;  762.350;  153.350;    0.000
245.193;  775.350;  155.350;    0.000
245.262;  731.350;  137.350;    0.000
245.331;  742.350;  145.350;    0.000
245.400;  753.350;  107.350;    0.000
245.469;  780.350;  162.350;    0.000
245.538;  799.350;  165.350;    0.000
245.607;  781.350;  178.350;    0.000
245.676;  716.350;  166.350;    0.000
245.745;  690.350;  169.350;    0.000
245.814;  743.350;  155.350;    0.000
245.883;  731.350;  186.350;    0.000
245.952;  726.350;  165.350;    0.000
246.021;  793.350;  169.350;    0.000
246.090;  808.350;  170.350;    0.000
246.159;  699.350;  155.350;    0.000
246.227;  707.350;  161.350;    0.000
246.296;  722.350;  142.350;    0.000
246.365;  762.350;  160.350;    0.000
246.434;  787.350;  199.350;    0.000
246.503;  709.350;  155.350;    0.000
246.572;  765.350;  206.350;    0.000
246.641;  712.350;  177.350;    0.000
246.710;  740.350;  178.350;    0.000
246.779;  769.350;  193.350;    0.000
246.847;  754.350;  147.350;    0.000
246.916;  724.350;  131.350;    0.000
246.985;  773.350;  168.350;    0.000
247.054;  695.350;  143.350;    0.000
247.123;  650.350;  130.350;    0.000
247.192;  694.350;  175.350;    0.000
247.260;  735.350;  171.350;    0.000
247.329;  672.350;  162.350;    0.000
247.398;  709.350;  163.350;    0.000
247.467;  694.350;  155.350;    0.000
247.536;  744.350;  149.350;    0.000
247.604;  725.350;  191.350;    0.000
247.673;  719.350;  193.350;    0.000
247.742;  724.350;  159.350;    0.000
247.811;  708.350;  167.350;    0.000
247.879;  663.350;  176.350;    0.000
247.948;  698.350;  157.350;    0.000
248.017;  709.350;  150.350;    0.000
248.086;  729.350;  153.350;    0.000
248.154;  741.350;  157.350;    0.000
248.223;  695.350;  198.350;    0.000
248.292;  658.350;  188.350;    0.000
248.361;  692.350;  157.350;    0.000
248.429;  690.350;  138.350;    0.000
248.498;  682.350;  166.350;    0.000
248.567;  643.350;  179.350;    0.000
248.635;  696.350;  210.350;    0.000
248.704;  701.350;  168.350;    0.000
248.773;  662.350;  147.350;    0.000
248.841;  732.350;  155.350;    0.000
248.910;  741.350;  183.350;    0.000
248.979;  667.350;  171.350;    0.000
249.047;  602.350;  152.350;    0.000
249.116;  714.350;  155.350;    0.000
249.185;  727.350;  217.350;    0.000
249.253;  658.350;  149.350;    0.000
249.322;  683.350;  167.350;    0.000
249.390;  686.350;  182.350;    0.000
249.459;  676.350;  173.350;    0.000
249.528;  667.350;  162.350;    0.000
249.596;  704.350;  162.350;    0.000
249.665;  601.350;  163.350;    0.000
249.733;  672.350;  147.350;    0.000
249.802;  713.350;  170.350;    0.000
249.871;  667.350;  179.350;    0.000
249.939;  655.350;  179.350;    0.000
250.008;  678.350;  201.350;    0.000
250.076;  693.350;  189.350;    0.000
250.145;  688.350;  171.350;    0.000
250.213;  677.350;  161.350;    0.000
250.282;  627.350;  171.350;    0.000
250.350;  646.350;  138.350;    0.000
250.419;  662.350;  172.350;    0.000
250.487;  651.350;  207.350;    0.000
250.556;  680.350;  160.350;    0.000
250.624;  685.350;  187.350;    0.000
250.693;  650.350;  141.350;    0.000
250.761;  694.350;  182.350;    0.000
250.830;  715.350;  203.350;    0.000
250.898;  663.350;  160.350;    0.000
250.967;  636.350;  143.350;    0.000
251.035;  586.350;  142.350;    0.000
251.104;  664.350;  159.350;    0.000
251.172;  631.350;  189.350;    0.000
251.241;  621.350;  134.350;    0.000
251.309;  631.350;  179.350;    0.000
251.378;  648.350;  203.350;    0.000
251.446;  613.350;  151.350;    0.000
251.514;  681.350;  176.350;    0.000
251.583;  628.350;  173.350;    0.000
251.651;  625.350;  163.350;    0.000
251.720;  653.350;  151.350;    0.000
251.788;  684.350;  205.350;    0.000
251.856;  604.350;  126.350;    0.000
251.925;  653.350;  118.350;    0.000
251.993;  662.350;  139.350;    0.000
252.062;  652.350;  161.350;    0.000
252.130;  597.350;  180.350;    0.000
252.198;  607.350;  141.350;    0.000
252.267;  612.350;  145.350;    0.000
252.335;  544.350;  159.350;    0.000
252.403;  583.350;  158.350;    0.000
252.472;  568.350;  142.350;    0.000
252.540;  607.350;  162.350;    0.000
252.608;  633.350;  180.350;    0.000
252.677;  565.350;  137.350;    0.000
252.745;  589.350;  183.350;    0.000
252.813;  633.350;  151.350;    0.000
252.881;  557.350;  109.350;    0.000
252.950;  566.350;  174.350;    0.000
253.018;  612.350;  136.350;    0.000
253.086;  558.350;  149.350;    0.000
253.155;  558.350;  127.350;    0.000
253.223;  542.350;  156.350;    0.000
253.291;  546.350;  163.350;    0.000
253.359;  523.350;  174.350;    0.000
253.428;  566.350;  174.350;    0.000
253.496;  492.350;  161.350;    0.000
253.564;  538.350;  128.350;    0.000
253.632;  510.350;  153.350;    0.000
253.700;  539.350;  185.350;    0.000
253.769;  566.350;  163.350;    0.000
253.837;  543.350;  176.350;    0.000
253.905;  494.350;  164.350;    0.000
253.973;  530.350;  156.350;    0.000
254.041;  485.350;  154.350;    0.000
254.110;  536.350;  165.350;    0.000
254.178;  483.350;  148.350;    0.000
254.246;  528.350;  138.350;    0.000
254.314;  514.350;  164.350;    0.000
254.382;  514.350;  167.350;    0.000
254.450;  525.350;  134.350;    0.000
254.518;  559.350;  192.350;    0.000
254.587;  497.350;  139.350;    0.000
254.655;  554.350;  162.350;    0.000
254.723;  484.350;  131.350;    0.000
254.791;  530.350;  181.350;    0.000
254.859;  547.350;  146.350;    0.000
254.927;  518.350;  189.350;    0.000
254.995;  504.350;  141.350;    0.000
255.063;  551.350;  181.350;    0.000
255.131;  498.350;  156.350;    0.000
255.199;  573.350;  175.350;    0.000
255.267;  530.350;  120.350;    0.000
255.336;  555.350;  186.350;    0.000
255.404;  483.350;  134.350;    0.000
255.472;  558.350;  172.350;    0.000
255.540;  516.350;  157.350;    0.000
255.608;  500.350;  186.350;    0.000
255.676;  511.350;  155.350;    0.000
255.744;  511.350;  143.350;    0.000
255.812;  536.350;  134.350;    0.000
255.880;  579.350;  188.350;    0.000
255.948;  547.350;  163.350;    0.000
256.016;  543.350;  175.350;    0.000
256.084;  573.350;  191.350;    0.000
256.152;  581.350;  187.350;    0.000
256.220;  573.350;  152.350;    0.000
256.288;  509.350;  141.350;    0.000
256.356;  607.350;  139.350;    0.000
256.424;  552.350;  121.350;    0.000
256.491;  564.350;  139.350;    0.000
256.559;  618.350;  144.350;    0.000
256.627;  566.350;  158.350;    0.000
256.695;  591.350;  121.350;    0.000
256.763;  607.350;  150.350;    0.000
256.831;  579.350;  181.350;    0.000
256.899;  580.350;  146.350;    0.000
256.967;  598.350;   71.350;    0.000
257.035;  617.350;  164.350;    0.000
257.103;  661.350;  191.350;    0.000
257.171;  603.350;  140.350;    0.000
257.238;  641.350;  165.350;    0.000
257.306;  638.350;  127.350;    0.000
257.374;  678.350;  120.350;    0.000
257.442;  634.350;  139.350;    0.000
257.510;  717.350;  158.350;    0.000
257.578;  696.350;  164.350;    0.000
257.646;  728.350;  151.350;    0.000
257.713;  628.350;  136.350;    0.000
257.781;  686.350;  137.350;    0.000
257.849;  696.350;  151.350;    0.000
257.917;  715.350;  154.350;    0.000
257.985;  643.350;  113.350;    0.000
258.052;  727.350;  140.350;    0.000
258.120;  664.350;  176.350;    0.000
258.188;  693.350;  157.350;    0.000
258.256;  747.350;  153.350;    0.000
258.324;  799.350;  184.350;    0.000
258.391;  777.350;  144.350;    0.000
258.459;  783.350;  162.350;    0.000
258.527;  772.350;  154.350;    0.000
258.595;  767.350;  122.350;    0.000
258.662;  755.350;  164.350;    0.000
258.730;  790.350;  114.350;    0.000
258.798;  765.350;  131.350;    0.000
258.865;  847.350;  171.350;    0.000
258.933;  833.350;  145.350;    0.000
259.001;  841.350;  150.350;    0.000
259.069;  796.350;  123.350;    0.000
259.136;  828.350;  139.350;    0.000
259.204;  855.350;  165.350;    0.000
259.272;  836.350;  114.350;    0.000
259.339;  846.350;  179.350;    0.000
259.407;  901.350;  153.350;    0.000
259.475;  923.350;  143.350;    0.000
259.542;  905.350;  136.350;    0.000
259.610;  885.350;  133.350;    0.000
259.677;  972.350;  159.350;    0.000
259.745;  874.350;  130.350;    0.000
259.813;  953.350;  175.350;    0.000
259.880; 1026.350;  158.350;    0.000
259.948; 1010.350;  124.350;    0.000
260.016;  985.350;  105.350;    0.000
260.083; 1028.350;  169.350;    0.000
260.151; 1018.350;  133.350;    0.000
260.218;  972.350;  143.350;    0.000
260.286; 1032.350;  134.350;    0.000
260.353;  998.350;  160.350;    0.000
260.421; 1021.350;  128.350;    0.000
260.489; 1098.350;  150.350;    0.000
260.556; 1037.350;  179.350;    0.000
260.624; 1123.350;  113.350;    0.000
260.691; 1076.350;  128.350;    0.000
260.759; 1130.350;  146.350;    0.000
260.826;  976.350;  111.350;    0.000
260.894; 1076.350;  115.350;    0.000
260.961; 1097.350;  138.350;    0.000
261.029; 1149.350;  152.350;    0.000
261.096; 1182.350;  175.350;    0.000
261.164; 1169.350;  131.350;    0.000
261.231; 1177.350;  141.350;    0.000
261.299; 1234.350;  125.350;    0.000
261.366; 1188.350;  142.350;    0.000
261.434; 1162.350;  133.350;    0.000
261.501; 1206.350;  137.350;    0.000
261.568; 1176.350;  184.350;    0.000
261.636; 1306.350;  138.350;    0.000
261.703; 1295.350;  161.350;    0.000
261.771; 1222.350;  160.350;    0.000
261.838; 1254.350;  178.350;    0.000
261.906; 1303.350;  128.350;    0.000
261.973; 1292.350;  139.350;    0.000
262.040; 1317.350;  148.350;    0.000
262.108; 1284.350;  130.350;    0.000
262.175; 1312.350;  117.350;    0.000
262.243; 1353.350;  174.350;    0.000
262.310; 1417.350;  145.350;    0.000
262.377; 1302.350;  108.350;    0.000
262.445; 1277.350;  147.350;    0.000
262.512; 1363.350;  124.350;    0.000
262.579; 1412.350;  127.350;    0.000
262.647; 1326.350;  166.350;    0.000
262.714; 1454.350;  150.350;    0.000
262.781; 1418.350;  121.350;    0.000
262.849; 1403.350;  126.350;    0.000
262.916; 1405.350;  119.350;    0.000
262.983; 1506.350;  155.350;    0.000
263.051; 1410.350;  137.350;    0.000
263.118; 1474.350;  160.350;    0.000
263.185; 1467.350;  151.350;    0.000
263.252; 1484.350;  167.350;    0.000
263.320; 1462.350;  123.350;    0.000
263.387; 1458.350;  134.350;    0.000
263.454; 1532.350;  144.350;    0.000
263.522; 1425.350;  153.350;    0.000
263.589; 1505.350;  161.350;    0.000
263.656; 1490.350;  117.350;    0.000
263.723; 1498.350;  101.350;    0.000
263.790; 1551.350;  128.350;    0.000
263.858; 1588.350;  142.350;    0.000
263.925; 1562.350;  182.350;    0.000
263.992; 1592.350;  146.350;    0.000
264.059; 1624.350;  132.350;    0.000
264.126; 1661.350;  154.350;    0.000
264.194; 1627.350;  153.350;    0.000
264.261; 1652.350;  157.350;    0.000
264.328; 1635.350;  171.350;    0.000
264.395; 1645.350;  166.350;    0.000
264.462; 1618.350;  165.350;    0.000
264.529; 1767.350;  124.350;    0.000
264.597; 1657.350;  120.350;    0.000
264.664; 1719.350;  159.350;    0.000
264.731; 1668.350;  145.350;    0.000
264.798; 1646.350;  100.350;    0.000
264.865; 1687.350;  166.350;    0.000
264.932; 1730.350;  132.350;    0.000
264.999; 1785.350;  137.350;    0.000
265.066; 1721.350;  124.350;    0.000
265.133; 1792.350;  162.350;    0.000
265.201; 1721.350;  163.350;    0.000
265.268; 1744.350;  174.350;    0.000
265.335; 1724.350;  132.350;    0.000
265.402; 1754.350;  116.350;    0.000
265.469; 1757.350;  121.350;    0.000
265.536; 1770.350;  157.350;    0.000
265.603; 1849.350;  151.350;    0.000
265.670; 1769.350;  164.350;    0.000
265.737; 1850.350;  142.350;    0.000
265.804; 1792.350;  146.350;    0.000
265.871; 1896.350;  168.350;    0.000
265.938; 1880.350;  131.350;    0.000
266.005; 1910.350;  208.350;    0.000
266.072; 1890.350;  125.350;    0.000
266.139; 1919.350;  161.350;    0.000
266.206; 1901.350;  134.350;    0.000
266.273; 1861.350;  155.350;    0.000
266.340; 1934.350;  122.350;    0.000
266.407; 1880.350;  134.350;    0.000
266.474; 1865.350;  126.350;    0.000
266.541; 1812.350;  153.350;    0.000
266.608; 1876.350;  129.350;    0.000
266.675; 1938.350;  185.350;    0.000
266.742; 1931.350;  153.350;    0.000
266.808; 2002.350;  169.350;    0.000
266.875; 1961.350;  156.350;    0.000
266.942; 1923.350;  172.350;    0.000
267.009; 1972.350;  150.350;    0.000
267.076; 1997.350;  184.350;    0.000
267.143; 2006.350;  170.350;    0.000
267.210; 1974.350;  132.350;    0.000
267.277; 1927.350;  146.350;    0.000
267.344; 1919.350;  159.350;    0.000
267.410; 1928.350;  174.350;    0.000
267.477; 2020.350;  169.350;    0.000
267.544; 2040.350;  130.350;    0.000
267.611; 1909.350;  169.350;    0.000
267.678; 2053.350;  197.350;    0.000
267.745; 2053.350;  185.350;    0.000
267.811; 1967.350;  160.350;    0.000
267.878; 2051.350;  143.350;    0.000
267.945; 1998.350;  126.350;    0.000
268.012; 1968.350;  172.350;    0.000
268.079; 2022.350;  156.350;    0.000
268.145; 2093.350;  128.350;    0.000
268.212; 2049.350;  107.350;    0.000
268.279; 1956.350;  135.350;    0.000
268.346; 2105.350;  166.350;    0.000
268.412; 2050.350;  150.350;    0.000
268.479; 2056.350;  176.350;    0.000
268.546; 2054.350;  119.350;    0.000
268.613; 1995.350;  201.350;    0.000
268.679; 2060.350;  141.350;    0.000
268.746; 2012.350;  177.350;    0.000
268.813; 2051.350;  134.350;    0.000
268.879; 2024.350;  141.350;    0.000
268.946; 2013.350;  172.350;    0.000
269.013; 1977.350;  150.350;    0.000
269.079; 1995.350;  124.350;    0.000
269.146; 1979.350;  135.350;    0.000
269.213; 2067.350;  200.350;    0.000
269.280; 2024.350;  142.350;    0.000
269.346; 2020.350;  153.350;    0.000
269.413; 1973.350;  140.350;    0.000
269.479; 2073.350;  171.350;    0.000
269.546; 2019.350;  156.350;    0.000
269.613; 1965.350;  145.350;    0.000
269.679; 2035.350;  168.350;    0.000
269.746; 1960.350;  136.350;    0.000
269.813; 1994.350;  153.350;    0.000
269.879; 2045.350;  162.350;    0.000
269.946; 1998.350;  156.350;    0.000
270.012; 2017.350;  178.350;    0.000
270.079; 2051.350;  132.350;    0.000
270.145; 2062.350;  146.350;    0.000
270.212; 2052.350;  145.350;    0.000
270.279; 1998.350;  184.350;    0.000
270.345; 1974.350;  143.350;    0.000
270.412; 2035.350;  158.350;    0.000
270.478; 1892.350;  143.350;    0.000
270.545; 1973.350;  150.350;    0.000
270.611; 2048.350;  156.350;    0.000
270.678; 1988.350;  121.350;    0.000
270.744; 2077.350;  161.350;    0.000
270.811; 1985.350;  173.350;    0.000
270.877; 1968.350;  115.350;    0.000
270.944; 1991.350;  114.350;    0.000
271.010; 1969.350;  122.350;    0.000
271.077; 2034.350;  142.350;    0.000
271.143; 1948.350;  152.350;    0.000
271.210; 2029.350;  135.350;    0.000
271.276; 2025.350;  107.350;    0.000
271.342; 1992.350;  173.350;    0.000
271.409; 1976.350;  171.350;    0.000
271.475; 1937.350;  136.350;    0.000
271.542; 1952.350;  121.350;    0.000
271.608; 1926.350;  133.350;    0.000
271.675; 1975.350;  136.350;    0.000
271.741; 1911.350;  151.350;    0.000
271.807; 1978.350;  130.350;    0.000
271.874; 1925.350;  168.350;    0.000
271.940; 1916.350;  156.350;    0.000
272.007; 1917.350;  122.350;    0.000
272.073; 2001.350;  121.350;    0.000
272.139; 1942.350;  137.350;    0.000
272.206; 1954.350;  152.350;    0.000
272.272; 1955.350;  162.350;    0.000
272.338; 2002.350;  197.350;    0.000
272.405; 1936.350;  144.350;    0.000
272.471; 1994.350;  160.350;    0.000
272.537; 1920.350;  142.350;    0.000
272.604; 1953.350;  141.350;    0.000
272.670; 1970.350;  182.350;    0.000
272.736; 1961.350;  126.350;    0.000
272.802; 2062.350;  146.350;    0.000
272.869; 1919.350;  163.350;    0.000
272.935; 1890.350;  132.350;    0.000
273.001; 1914.350;  119.350;    0.000
273.068; 1980.350;  137.350;    0.000
273.134; 1996.350;  155.350;    0.000
273.200; 1937.350;  165.350;    0.000
273.266; 1966.350;  156.350;    0.000
273.333; 1984.350;  143.350;    0.000
273.399; 1977.350;  128.350;    0.000
273.465; 2025.350;  167.350;    0.000
273.531; 1894.350;  122.350;    0.000
273.597; 2012.350;  182.350;    0.000
273.664; 2053.350;  177.350;    0.000
273.730; 2036.350;  124.350;    0.000
273.796; 2058.350;  143.350;    0.000
273.862; 2080.350;  155.350;    0.000
273.928; 1991.350;  137.350;    0.000
273.995; 2016.350;  188.350;    0.000
274.061; 2091.350;  154.350;    0.000
274.127; 2030.350;  161.350;    0.000
274.193; 2031.350;   95.350;    0.000
274.259; 2053.350;  128.350;    0.000
274.325; 2099.350;  146.350;    0.000
274.391; 2025.350;  113.350;    0.000
274.457; 2042.350;  150.350;    0.000
274.524; 2065.350;  165.350;    0.000
274.590; 2044.350;  140.350;    0.000
274.656; 2061.350;  165.350;    0.000
274.722; 2000.350;  118.350;    0.000
274.788; 2038.350;  143.350;    0.000
274.854; 2074.350;  150.350;    0.000
274.920; 2049.350;   88.350;    0.000
274.986; 2104.350;  178.350;    0.000
275.052; 2083.350;  145.350;    0.000
275.118; 2086.350;  105.350;    0.000
275.184; 2208.350;  129.350;    0.000
275.250; 2172.350;  138.350;    0.000
275.316; 2139.350;  173.350;    0.000
275.382; 2101.350;  106.350;    0.000
275.448; 2168.350;  160.350;    0.000
275.514; 2229.350;  162.350;    0.000
275.580; 2055.350;  135.350;    0.000
275.646; 2169.350;  120.350;    0.000
275.712; 2188.350;  157.350;    0.000
275.778; 2287.350;  128.350;    0.000
275.844; 2392.350;  117.350;    0.000
275.910; 2253.350;  121.350;    0.000
275.976; 2388.350;  172.350;    0.000
276.042; 2311.350;  114.350;    0.000
276.108; 2401.350;  200.350;    0.000
276.174; 2287.350;  132.350;    0.000
276.240; 2464.350;  128.350;    0.000
276.306; 2313.350;  124.350;    0.000
276.372; 2367.350;  133.350;    0.000
276.437; 2356.350;  146.350;    0.000
276.503; 2383.350;  136.350;    0.000
276.569; 2529.350;  162.350;    0.000
276.635; 2514.350;  128.350;    0.000
276.701; 2637.350;  148.350;    0.000
276.767; 2699.350;  155.350;    0.000
276.833; 2691.350;  128.350;    0.000
276.899; 2758.350;  145.350;    0.000
276.964; 2748.350;  124.350;    0.000
277.030; 2824.350;  130.350;    0.000
277.096; 2763.350;  139.350;    0.000
277.162; 2915.350;  164.350;    0.000
277.228; 3006.350;  108.350;    0.000
277.293; 2971.350;  138.350;    0.000
277.359; 3067.350;  123.350;    0.000
277.425; 3305.350;  183.350;    0.000
277.491; 3329.350;  144.350;    0.000
277.557; 3986.350;  130.350;    0.000
277.622; 5001.350;  151.350;    0.000
277.688; 5005.350;  169.350;    0.000
277.754; 5290.350;  199.350;    0.000
277.820; 5710.350;  170.350;    0.000
277.885; 6854.350;  173.350;    0.000
277.951; 8336.350;  187.350;    0.000
278.017; 7072.350;  152.350;    0.000
278.083; 6104.350;  137.350;    0.000
278.148; 6024.350;  147.350;    0.000
278.214; 6148.350;  162.350;    0.000
278.280; 6375.350;  171.350;    0.000
278.345; 5733.350;  174.350;    0.000
278.411; 5289.350;  152.350;    0.000
278.477; 5473.350;  173.350;    0.000
278.542; 5783.350;  161.350;    0.000
278.608; 6213.350;  155.350;    0.000
278.674; 6748.350;  169.350;    0.000
278.739; 7306.350;  142.350;    0.000
278.805; 8310.350;  164.350;    0.000
278.871; 9753.350;  160.350;    0.000
278.936;12216.350;  121.350;    0.000
279.002;18435.350;  166.350;    0.000
279.067;24446.350;  199.350;    0.000
279.133;23474.350;  150.350;    0.000
279.199;21402.350;  154.350;    0.000
279.264;21885.350;  154.350;    0.000
279.330;26137.350;  159.350;    0.000
279.395;36072.352;  143.350;    0.000
279.461;54200.352;  173.350;    0.000
279.527;65080.352;  163.350;    0.000
279.592;55242.352;  167.350;    0.000
279.658;40918.352;  189.350;    0.000
279.723;38553.352;  153.350;    0.000
279.789;40611.352;  174.350;    0.000
279.854;35775.352;  129.350;    0.000
279.920;28392.350;  165.350;    0.000
279.985;25672.350;  152.350;    0.000
280.051;25922.350;  164.350;    0.000
280.116;31867.350;  187.350;    0.000
280.182;48575.352;  160.350;    0.000
280.247;58061.352;  124.350;    0.000
280.313;45355.352;  154.350;    0.000
280.378;28132.350;  152.350;    0.000
280.444;20155.350;  165.350;    0.000
280.509;15685.350;  164.350;    0.000
280.574;13344.350;  160.350;    0.000
280.640;11355.350;  167.350;    0.000
280.705;10309.350;  190.350;    0.000
280.771; 9237.350;  154.350;    0.000
280.836; 8672.350;  158.350;    0.000
280.902; 8119.350;  124.350;    0.000
280.967; 7483.350;  179.350;    0.000
281.032; 7220.350;  187.350;    0.000
281.098; 6788.350;  155.350;    0.000
281.163; 6319.350;  133.350;    0.000
281.229; 6259.350;  170.350;    0.000
281.294; 5871.350;  175.350;    0.000
281.359; 5807.350;  163.350;    0.000
281.425; 5381.350;  161.350;    0.000
281.490; 5367.350;  162.350;    0.000
281.555; 5229.350;  137.350;    0.000
281.621; 4985.350;  163.350;    0.000
281.686; 5017.350;  155.350;    0.000
281.751; 4818.350;  158.350;    0.000
281.816; 4529.350;  139.350;    0.000
281.882; 4620.350;  150.350;    0.000
281.947; 4332.350;  165.350;    0.000
282.012; 4186.350;  171.350;    0.000
282.078; 4214.350;  177.350;    0.000
282.143; 4178.350;  149.350;    0.000
282.208; 4063.350;  181.350;    0.000
282.273; 4085.350;  166.350;    0.000
282.339; 3876.350;  165.350;    0.000
282.404; 3940.350;  166.350;    0.000
282.469; 3798.350;  150.350;    0.000
282.534; 3829.350;  176.350;    0.000
282.600; 3770.350;  117.350;    0.000
282.665; 3721.350;  134.350;    0.000
282.730; 3709.350;  155.350;    0.000
282.795; 3866.350;  193.350;    0.000
282.860; 3740.350;  160.350;    0.000
282.926; 3710.350;  174.350;    0.000
282.991; 3560.350;  161.350;    0.000
283.056; 3594.350;  157.350;    0.000
283.121; 3612.350;  178.350;    0.000
283.186; 3721.350;  152.350;    0.000
283.251; 3498.350;  167.350;    0.000
283.316; 3551.350;  186.350;    0.000
283.382; 3516.350;  148.350;    0.000
283.447; 3541.350;  191.350;    0.000
283.512; 3400.350;  132.350;    0.000
283.577; 3472.350;  179.350;    0.000
283.642; 3487.350;  185.350;    0.000
283.707; 3445.350;  136.350;    0.000
283.772; 3432.350;  119.350;    0.000
283.837; 3441.350;  136.350;    0.000
283.902; 3401.350;  135.350;    0.000
283.967; 3459.350;  146.350;    0.000
284.032; 3484.350;  140.350;    0.000
284.097; 3485.350;  199.350;    0.000
284.163; 3514.350;  144.350;    0.000
284.228; 3506.350;  183.350;    0.000
284.293; 3443.350;  141.350;    0.000
284.358; 3493.350;  146.350;    0.000
284.423; 3508.350;  127.350;    0.000
284.488; 3744.350;  186.350;    0.000
284.553; 3660.350;  155.350;    0.000
284.618; 3863.350;  118.350;    0.000
284.683; 3838.350;  145.350;    0.000
284.748; 4013.350;  139.350;    0.000
284.812; 4215.350;  147.350;    0.000
284.877; 4641.350;  123.350;    0.000
284.942; 5233.350;  153.350;    0.000
285.007; 6050.350;  168.350;    0.000
285.072; 8316.350;  181.350;    0.000
285.137;14227.350;  147.350;    0.000
285.202;18446.350;  175.350;    0.000
285.267;14752.350;  182.350;    0.000
285.332; 9646.350;  136.350;    0.000
285.397; 7397.350;  138.350;    0.000
285.462; 6003.350;  151.350;    0.000
285.527; 5298.350;  159.350;    0.000
285.591; 4875.350;  177.350;    0.000
285.656; 4568.350;  144.350;    0.000
285.721; 4328.350;  125.350;    0.000
285.786; 4125.350;  169.350;    0.000
285.851; 3984.350;  175.350;    0.000
285.916; 3889.350;  164.350;    0.000
285.981; 3739.350;  134.350;    0.000
286.045; 3853.350;  154.350;    0.000
286.110; 3612.350;  136.350;    0.000
286.175; 3607.350;  155.350;    0.000
286.240; 3530.350;  138.350;    0.000
286.305; 3557.350;  213.350;    0.000
286.369; 3598.350;  221.350;    0.000
286.434; 3515.350;  172.350;    0.000
286.499; 3479.350;  161.350;    0.000
286.564; 3480.350;  189.350;    0.000
286.628; 3370.350;  144.350;    0.000
286.693; 3322.350;  176.350;    0.000
286.758; 3351.350;  168.350;    0.000
286.823; 3345.350;  142.350;    0.000
286.887; 3341.350;  134.350;    0.000
286.952; 3370.350;  180.350;    0.000
287.017; 3364.350;  204.350;    0.000
287.082; 3393.350;  120.350;    0.000
287.146; 3372.350;  173.350;    0.000
287.211; 3288.350;  167.350;    0.000
287.276; 3286.350;  164.350;    0.000
287.340; 3267.350;  138.350;    0.000
287.405; 3344.350;  172.350;    0.000
287.470; 3063.350;  142.350;    0.000
287.534; 3219.350;  155.350;    0.000
287.599; 3162.350;  166.350;    0.000
287.663; 3205.350;  171.350;    0.000
287.728; 3199.350;  190.350;    0.000
287.793; 3227.350;  197.350;    0.000
287.857; 3199.350;  165.350;    0.000
287.922; 3196.350;  147.350;    0.000
287.987; 3160.350;  167.350;    0.000
288.051; 3307.350;  151.350;    0.000
288.116; 3243.350;  154.350;    0.000
288.180; 3325.350;  186.350;    0.000
288.245; 3209.350;  161.350;    0.000
288.309; 3137.350;  177.350;    0.000
288.374; 3235.350;  151.350;    0.000
288.439; 3239.350;  169.350;    0.000
288.503; 3190.350;  133.350;    0.000
288.568; 3216.350;  206.350;    0.000
288.632; 3234.350;  192.350;    0.000
288.697; 3185.350;  183.350;    0.000
288.761; 3097.350;  148.350;    0.000
288.826; 3226.350;  136.350;    0.000
288.890; 3179.350;  185.350;    0.000
288.955; 3150.350;  150.350;    0.000
289.019; 3176.350;  165.350;    0.000
289.084; 3176.350;  150.350;    0.000
289.148; 3162.350;  146.350;    0.000
289.212; 3095.350;  172.350;    0.000
289.277; 3100.350;  177.350;    0.000
289.341; 3165.350;  190.350;    0.000
289.406; 3129.350;  117.350;    0.000
289.470; 3114.350;  173.350;    0.000
289.535; 3137.350;  170.350;    0.000
289.599; 3155.350;  154.350;    0.000
289.663; 3128.350;  173.350;    0.000
289.728; 3100.350;  176.350;    0.000
289.792; 3136.350;  138.350;    0.000
289.857; 3080.350;  203.350;    0.000
289.921; 3145.350;  143.350;    0.000
289.985; 3109.350;  150.350;    0.000
290.050; 3035.350;  170.350;    0.000
290.114; 3061.350;  125.350;    0.000
290.178; 3131.350;  161.350;    0.000
290.243; 3134.350;  119.350;    0.000
290.307; 3084.350;  169.350;    0.000
290.371; 3145.350;  169.350;    0.000
290.436; 3200.350;  170.350;    0.000
290.500; 3041.350;  144.350;    0.000
290.564; 3258.350;  179.350;    0.000
290.629; 3073.350;  166.350;    0.000
290.693; 3066.350;  156.350;    0.000
290.757; 3077.350;  147.350;    0.000
290.821; 3168.350;  170.350;    0.000
290.886; 3096.350;  167.350;    0.000
290.950; 3126.350;  187.350;    0.000
291.014; 3124.350;  164.350;    0.000
291.078; 3212.350;  115.350;    0.000
291.143; 3095.350;  149.350;    0.000
291.207; 3189.350;  163.350;    0.000
291.271; 3202.350;  177.350;    0.000
291.335; 3211.350;  148.350;    0.000
291.399; 3247.350;  155.350;    0.000
291.464; 3397.350;  114.350;    0.000
291.528; 3514.350;  153.350;    0.000
291.592; 3424.350;  156.350;    0.000
291.656; 3303.350;  170.350;    0.000
291.720; 3367.350;  159.350;    0.000
291.784; 3288.350;  159.350;    0.000
291.849; 3320.350;  154.350;    0.000
291.913; 3219.350;  118.350;    0.000
291.977; 3261.350;  157.350;    0.000
292.041; 3299.350;  163.350;    0.000
292.105; 3349.350;  135.350;    0.000
292.169; 3285.350;  155.350;    0.000
292.233; 3391.350;  163.350;    0.000
292.297; 3488.350;  144.350;    0.000
292.361; 3417.350;  143.350;    0.000
292.425; 3382.350;  177.350;    0.000
292.490; 3490.350;  159.350;    0.000
292.554; 3627.350;  137.350;    0.000
292.618; 3751.350;  144.350;    0.000
292.682; 3844.350;  169.350;    0.000
292.746; 4406.350;  166.350;    0.000
292.810; 5344.350;  147.350;    0.000
292.874; 6381.350;  160.350;    0.000
292.938; 6387.350;  174.350;    0.000
293.002; 5893.350;  148.350;    0.000
293.066; 5412.350;  115.350;    0.000
293.130; 5035.350;  133.350;    0.000
293.194; 4794.350;  148.350;    0.000
293.258; 4713.350;  167.350;    0.000
293.322; 4706.350;  166.350;    0.000
293.386; 4815.350;  193.350;    0.000
293.450; 5081.350;  142.350;    0.000
293.514; 5596.350;  170.350;    0.000
293.577; 6942.350;  153.350;    0.000
293.641; 8926.350;  171.350;    0.000
293.705; 9751.350;  168.350;    0.000
293.769; 8650.350;  155.350;    0.000
293.833; 7523.350;  161.350;    0.000
293.897; 6632.350;  124.350;    0.000
293.961; 6168.350;  165.350;    0.000
294.025; 5731.350;  118.350;    0.000
294.089; 5244.350;  125.350;    0.000
294.152; 4883.350;  160.350;    0.000
294.216; 4933.350;  160.350;    0.000
294.280; 4447.350;  158.350;    0.000
294.344; 4411.350;  119.350;    0.000
294.408; 4179.350;  168.350;    0.000
294.472; 3991.350;  156.350;    0.000
294.536; 3994.350;  192.350;    0.000
294.599; 3977.350;  171.350;    0.000
294.663; 3739.350;  139.350;    0.000
294.727; 3755.350;  136.350;    0.000
294.791; 3731.350;  118.350;    0.000
294.855; 3714.350;  118.350;    0.000
294.918; 3540.350;  127.350;    0.000
294.982; 3515.350;  167.350;    0.000
295.046; 3493.350;  178.350;    0.000
295.110; 3429.350;  157.350;    0.000
295.173; 3434.350;  101.350;    0.000
295.237; 3479.350;  145.350;    0.000
295.301; 3365.350;  135.350;    0.000
295.364; 3384.350;  185.350;    0.000
295.428; 3326.350;  112.350;    0.000
295.492; 3398.350;  142.350;    0.000
295.556; 3305.350;  170.350;    0.000
295.619; 3424.350;  193.350;    0.000
295.683; 3241.350;  144.350;    0.000
295.747; 3210.350;  152.350;    0.000
295.810; 3244.350;  139.350;    0.000
295.874; 3202.350;  157.350;    0.000
295.938; 3199.350;  128.350;    0.000
296.001; 3108.350;  164.350;    0.000
296.065; 3030.350;  184.350;    0.000
296.128; 3163.350;  127.350;    0.000
296.192; 3060.350;  166.350;    0.000
296.256; 3123.350;  154.350;    0.000
296.319; 3129.350;  128.350;    0.000
296.383; 3018.350;  146.350;    0.000
296.447; 3109.350;  155.350;    0.000
296.510; 3039.350;  177.350;    0.000
296.574; 3043.350;  169.350;    0.000
296.637; 3000.350;  140.350;    0.000
296.701; 3054.350;  181.350;    0.000
296.764; 2996.350;  131.350;    0.000
296.828; 3111.350;  194.350;    0.000
296.891; 3025.350;  146.350;    0.000
296.955; 3019.350;  160.350;    0.000
297.018; 3032.350;  174.350;    0.000
297.082; 3021.350;  153.350;    0.000
297.145; 2925.350;  133.350;    0.000
297.209; 2886.350;  149.350;    0.000
297.272; 2885.350;  150.350;    0.000
297.336; 2999.350;  119.350;    0.000
297.399; 2854.350;  160.350;    0.000
297.463; 2838.350;  158.350;    0.000
297.526; 3050.350;  160.350;    0.000
297.590; 2970.350;  173.350;    0.000
297.653; 2947.350;  121.350;    0.000
297.717; 2912.350;  168.350;    0.000
297.780; 2892.350;  131.350;    0.000
297.843; 2876.350;  154.350;    0.000
297.907; 2988.350;  126.350;    0.000
297.970; 2935.350;  180.350;    0.000
298.034; 2875.350;  140.350;    0.000
298.097; 2899.350;  207.350;    0.000
298.160; 2889.350;  177.350;    0.000
298.224; 2853.350;  165.350;    0.000
298.287; 2781.350;  160.350;    0.000
298.350; 2809.350;  176.350;    0.000
298.414; 2757.350;  155.350;    0.000
298.477; 2794.350;  132.350;    0.000
298.540; 2872.350;  162.350;    0.000
298.604; 2876.350;  180.350;    0.000
298.667; 2802.350;  208.350;    0.000
298.730; 2876.350;  177.350;    0.000
298.794; 2870.350;  126.350;    0.000
298.857; 2897.350;  171.350;    0.000
298.920; 2715.350;  124.350;    0.000
298.984; 2774.350;  146.350;    0.000
299.047; 2755.350;  140.350;    0.000
299.110; 2700.350;  159.350;    0.000
299.173; 2716.350;  177.350;    0.000
299.237; 2625.350;  196.350;    0.000
299.300; 2746.350;  121.350;    0.000
299.363; 2745.350;  172.350;    0.000
299.426; 2621.350;  117.350;    0.000
299.489; 2737.350;  138.350;    0.000
299.553; 2652.350;  198.350;    0.000
299.616; 2628.350;  158.350;    0.000
299.679; 2632.350;  148.350;    0.000
299.742; 2606.350;  138.350;    0.000
299.805; 2742.350;  157.350;    0.000
299.868; 2633.350;  183.350;    0.000
299.932; 2579.350;  137.350;    0.000
299.995; 2595.350;  152.350;    0.000
300.058; 2614.350;  171.350;    0.000
300.121; 2574.350;  172.350;    0.000
300.184; 2592.350;  161.350;    0.000
300.247; 2553.350;  156.350;    0.000
300.310; 2605.350;  154.350;    0.000
300.374; 2502.350;  147.350;    0.000
300.437; 2568.350;  144.350;    0.000
300.500; 2573.350;  152.350;    0.000
300.563; 2584.350;  160.350;    0.000
300.626; 2596.350;  167.350;    0.000
300.689; 2604.350;  193.350;    0.000
300.752; 2527.350;  134.350;    0.000
300.815; 2494.350;  194.350;    0.000
300.878; 2549.350;  156.350;    0.000
300.941; 2579.350;  177.350;    0.000
301.004; 2543.350;  160.350;    0.000
301.067; 2603.350;  153.350;    0.000
301.130; 2464.350;  167.350;    0.000
301.193; 2528.350;  156.350;    0.000
301.256; 2611.350;  176.350;    0.000
301.319; 2575.350;  172.350;    0.000
301.382; 2483.350;  150.350;    0.000
301.445; 2613.350;  183.350;    0.000
301.508; 2495.350;  118.350;    0.000
301.571; 2461.350;  142.350;    0.000
301.634; 2493.350;  164.350;    0.000
301.697; 2517.350;  169.350;    0.000
301.760; 2552.350;  197.350;    0.000
301.823; 2379.350;  155.350;    0.000
301.885; 2570.350;  165.350;    0.000
301.948; 2444.350;  168.350;    0.000
302.011; 2510.350;  172.350;    0.000
302.074; 2583.350;  182.350;    0.000
302.137; 2493.350;  161.350;    0.000
302.200; 2568.350;  174.350;    0.000
302.263; 2503.350;  158.350;    0.000
302.326; 2426.350;  168.350;    0.000
302.388; 2599.350;  165.350;    0.000
302.451; 2528.350;  158.350;    0.000
302.514; 2505.350;  181.350;    0.000
302.577; 2425.350;  147.350;    0.000
302.640; 2482.350;  178.350;    0.000
302.703; 2409.350;  164.350;    0.000
302.765; 2449.350;  149.350;    0.000
302.828; 2476.350;  192.350;    0.000
302.891; 2418.350;  201.350;    0.000
302.954; 2432.350;  135.350;    0.000
303.016; 2502.350;  180.350;    0.000
303.079; 2508.350;  192.350;    0.000
303.142; 2483.350;  176.350;    0.000
303.205; 2468.350;  176.350;    0.000
303.267; 2485.350;  163.350;    0.000
303.330; 2454.350;  162.350;    0.000
303.393; 2443.350;  164.350;    0.000
303.456; 2495.350;  180.350;    0.000
303.518; 2447.350;  162.350;    0.000
303.581; 2452.350;  137.350;    0.000
303.644; 2366.350;  135.350;    0.000
303.706; 2485.350;  170.350;    0.000
303.769; 2513.350;  216.350;    0.000
303.832; 2521.350;  143.350;    0.000
303.894; 2533.350;  162.350;    0.000
303.957; 2424.350;  149.350;    0.000
304.020; 2460.350;  111.350;    0.000
304.082; 2434.350;  158.350;    0.000
304.145; 2590.350;  149.350;    0.000
304.207; 2512.350;  169.350;    0.000
304.270; 2441.350;  170.350;    0.000
304.333; 2507.350;  185.350;    0.000
304.395; 2568.350;  179.350;    0.000
304.458; 2452.350;  174.350;    0.000
304.520; 2537.350;  160.350;    0.000
304.583; 2504.350;  175.350;    0.000
304.646; 2483.350;  160.350;    0.000
304.708; 2487.350;  173.350;    0.000
304.771; 2437.350;  115.350;    0.000
304.833; 2556.350;  172.350;    0.000
304.896; 2531.350;  187.350;    0.000
304.958; 2513.350;  142.350;    0.000
305.021; 2423.350;  164.350;    0.000
305.083; 2476.350;  139.350;    0.000
305.146; 2563.350;  162.350;    0.000
305.208; 2513.350;  135.350;    0.000
305.271; 2466.350;  159.350;    0.000
305.333; 2567.350;  210.350;    0.000
305.396; 2539.350;  151.350;    0.000
305.458; 2509.350;  195.350;    0.000
305.520; 2536.350;  179.350;    0.000
305.583; 2486.350;  157.350;    0.000
305.645; 2545.350;  187.350;    0.000
305.708; 2471.350;  159.350;    0.000
305.770; 2574.350;  189.350;    0.000
305.833; 2463.350;  147.350;    0.000
305.895; 2444.350;  154.350;    0.000
305.957; 2450.350;  143.350;    0.000
306.020; 2449.350;  133.350;    0.000
306.082; 2508.350;  146.350;    0.000
306.144; 2623.350;  171.350;    0.000
306.207; 2509.350;  151.350;    0.000
306.269; 2550.350;  169.350;    0.000
306.331; 2518.350;  162.350;    0.000
306.394; 2521.350;  171.350;    0.000
306.456; 2449.350;  155.350;    0.000
306.518; 2476.350;  183.350;    0.000
306.581; 2460.350;  180.350;    0.000
306.643; 2468.350;  199.350;    0.000
306.705; 2546.350;  163.350;    0.000
306.768; 2556.350;  183.350;    0.000
306.830; 2525.350;  183.350;    0.000
306.892; 2525.350;  190.350;    0.000
306.954; 2535.350;  161.350;    0.000
307.017; 2586.350;  151.350;    0.000
307.079; 2553.350;  147.350;    0.000
307.141; 2526.350;  179.350;    0.000
307.203; 2468.350;  143.350;    0.000
307.266; 2561.350;  142.350;    0.000
307.328; 2646.350;  161.350;    0.000
307.390; 2608.350;  189.350;    0.000
307.452; 2574.350;  155.350;    0.000
307.514; 2595.350;  211.350;    0.000
307.577; 2610.350;  201.350;    0.000
307.639; 2732.350;  192.350;    0.000
307.701; 2747.350;  162.350;    0.000
307.763; 2658.350;  155.350;    0.000
307.825; 2701.350;  193.350;    0.000
307.887; 2660.350;  214.350;    0.000
307.949; 2679.350;  208.350;    0.000
308.012; 2639.350;  175.350;    0.000
308.074; 2648.350;  155.350;    0.000
308.136; 2626.350;  172.350;    0.000
308.198; 2683.350;  171.350;    0.000
308.260; 2753.350;  182.350;    0.000
308.322; 2689.350;  177.350;    0.000
308.384; 2765.350;  207.350;    0.000
308.446; 2626.350;  170.350;    0.000
308.508; 2779.350;  177.350;    0.000
308.570; 2744.350;  195.350;    0.000
308.632; 2678.350;  190.350;    0.000
308.694; 2646.350;  161.350;    0.000
308.756; 2734.350;  173.350;    0.000
308.818; 2809.350;  190.350;    0.000
308.880; 2811.350;  197.350;    0.000
308.942; 2900.350;  223.350;    0.000
309.004; 2896.350;  176.350;    0.000
309.066; 2922.350;  182.350;    0.000
309.128; 2850.350;  185.350;    0.000
309.190; 2971.350;  166.350;    0.000
309.252; 3077.350;  191.350;    0.000
309.314; 3031.350;  208.350;    0.000
309.376; 3080.350;  205.350;    0.000
309.438; 3050.350;  166.350;    0.000
309.500; 2955.350;  195.350;    0.000
309.562; 2942.350;  163.350;    0.000
309.624; 2963.350;  162.350;    0.000
309.686; 3101.350;  194.350;    0.000
309.747; 3060.350;  179.350;    0.000
309.809; 3009.350;  211.350;    0.000
309.871; 2912.350;  191.350;    0.000
309.933; 2807.350;  151.350;    0.000
309.995; 2866.350;  179.350;    0.000
310.057; 2871.350;  175.350;    0.000
310.119; 2824.350;  161.350;    0.000
310.180; 2793.350;  167.350;    0.000
310.242; 2807.350;  171.350;    0.000
310.304; 2796.350;  209.350;    0.000
310.366; 2827.350;  229.350;    0.000
310.428; 2711.350;  132.350;    0.000
310.489; 2744.350;  165.350;    0.000
310.551; 2757.350;  193.350;    0.000
310.613; 2653.350;  182.350;    0.000
310.675; 2695.350;  186.350;    0.000
310.737; 2725.350;  192.350;    0.000
310.798; 2757.350;  194.350;    0.000
310.860; 2698.350;  220.350;    0.000
310.922; 2744.350;  161.350;    0.000
310.983; 2691.350;  203.350;    0.000
311.045; 2720.350;  198.350;    0.000
311.107; 2744.350;  179.350;    0.000
311.169; 2744.350;  154.350;    0.000
311.230; 2735.350;  134.350;    0.000
311.292; 2749.350;  215.350;    0.000
311.354; 2661.350;  171.350;    0.000
311.415; 2781.350;  195.350;    0.000
311.477; 2745.350;  185.350;    0.000
311.539; 2713.350;  183.350;    0.000
311.600; 2758.350;  183.350;    0.000
311.662; 2762.350;  207.350;    0.000
311.724; 2720.350;  193.350;    0.000
311.785; 2666.350;  180.350;    0.000
311.847; 2762.350;  155.350;    0.000
311.908; 2708.350;  179.350;    0.000
311.970; 2784.350;  193.350;    0.000
312.032; 2817.350;  188.350;    0.000
312.093; 2698.350;  166.350;    0.000
312.155; 2686.350;  147.350;    0.000
312.216; 2679.350;  177.350;    0.000
312.278; 2767.350;  162.350;    0.000
312.339; 2752.350;  158.350;    0.000
312.401; 2764.350;  181.350;    0.000
312.462; 2770.350;  153.350;    0.000
312.524; 2677.350;  186.350;    0.000
312.585; 2749.350;  191.350;    0.000
312.647; 2759.350;  131.350;    0.000
312.708; 2727.350;  170.350;    0.000
312.770; 2828.350;  194.350;    0.000
312.831; 2850.350;  161.350;    0.000
312.893; 2802.350;  179.350;    0.000
312.954; 2741.350;  183.350;    0.000
313.016; 2797.350;  189.350;    0.000
313.077; 2755.350;  169.350;    0.000
313.139; 2894.350;  148.350;    0.000
313.200; 2722.350;  155.350;    0.000
313.261; 2770.350;  213.350;    0.000
313.323; 2876.350;  162.350;    0.000
313.384; 2757.350;  160.350;    0.000
313.446; 2876.350;  202.350;    0.000
313.507; 2668.350;  149.350;    0.000
313.568; 2808.350;  194.350;    0.000
313.630; 2799.350;  163.350;    0.000
313.691; 2792.350;  158.350;    0.000
313.752; 2797.350;  179.350;    0.000
313.814; 2723.350;  180.350;    0.000
313.875; 2747.350;  191.350;    0.000
313.936; 2795.350;  169.350;    0.000
313.998; 2787.350;  165.350;    0.000
314.059; 2864.350;  211.350;    0.000
314.120; 2779.350;  190.350;    0.000
314.182; 2779.350;  185.350;    0.000
314.243; 2771.350;  186.350;    0.000
314.304; 2787.350;  178.350;    0.000
314.365; 2833.350;  187.350;    0.000
314.427; 2811.350;  145.350;    0.000
314.488; 2793.350;  184.350;    0.000
314.549; 2801.350;  181.350;    0.000
314.610; 2803.350;  151.350;    0.000
314.672; 2760.350;  153.350;    0.000
314.733; 2785.350;  148.350;    0.000
314.794; 2768.350;  156.350;    0.000
314.855; 2718.350;  196.350;    0.000
314.917; 2731.350;  157.350;    0.000
314.978; 2805.350;  174.350;    0.000
315.039; 2762.350;  168.350;    0.000
315.100; 2775.350;  154.350;    0.000
315.161; 2774.350;  176.350;    0.000
315.222; 2761.350;  198.350;    0.000
315.283; 2748.350;  169.350;    0.000
315.345; 2682.350;  162.350;    0.000
315.406; 2737.350;  199.350;    0.000
315.467; 2710.350;  180.350;    0.000
315.528; 2678.350;  179.350;    0.000
315.589; 2673.350;  166.350;    0.000
315.650; 2774.350;  179.350;    0.000
315.711; 2740.350;  177.350;    0.000
315.772; 2654.350;  180.350;    0.000
315.833; 2632.350;  157.350;    0.000
315.894; 2762.350;  133.350;    0.000
315.955; 2778.350;  205.350;    0.000
316.016; 2759.350;  190.350;    0.000
316.078; 2686.350;  174.350;    0.000
316.139; 2641.350;  208.350;    0.000
316.200; 2676.350;  166.350;    0.000
316.261; 2724.350;  186.350;    0.000
316.322; 2679.350;  185.350;    0.000
316.383; 2666.350;  179.350;    0.000
316.444; 2798.350;  172.350;    0.000
316.504; 2765.350;  181.350;    0.000
316.565; 2713.350;  197.350;    0.000
316.626; 2621.350;  196.350;    0.000
316.687; 2690.350;  173.350;    0.000
316.748; 2766.350;  178.350;    0.000
316.809; 2696.350;  178.350;    0.000
316.870; 2694.350;  134.350;    0.000
316.931; 2682.350;  166.350;    0.000
316.992; 2758.350;  200.350;    0.000
317.053; 2624.350;  169.350;    0.000
317.114; 2657.350;  185.350;    0.000
317.175; 2748.350;  213.350;    0.000
317.235; 2636.350;  199.350;    0.000
317.296; 2710.350;  190.350;    0.000
317.357; 2677.350;  152.350;    0.000
317.418; 2702.350;  192.350;    0.000
317.479; 2581.350;  170.350;    0.000
317.540; 2705.350;  179.350;    0.000
317.601; 2592.350;  155.350;    0.000
317.661; 2632.350;  154.350;    0.000
317.722; 2672.350;  190.350;    0.000
317.783; 2728.350;  149.350;    0.000
317.844; 2752.350;  207.350;    0.000
317.904; 2745.350;  153.350;    0.000
317.965; 2673.350;  179.350;    0.000
318.026; 2721.350;  235.350;    0.000
318.087; 2645.350;  184.350;    0.000
318.148; 2787.350;  201.350;    0.000
318.208; 2702.350;  220.350;    0.000
318.269; 2638.350;  175.350;    0.000
318.330; 2660.350;  185.350;    0.000
318.390; 2632.350;  180.350;    0.000
318.451; 2625.350;  164.350;    0.000
318.512; 2692.350;  150.350;    0.000
318.572; 2698.350;  205.350;    0.000
318.633; 2637.350;  224.350;    0.000
318.694; 2715.350;  202.350;    0.000
318.754; 2712.350;  196.350;    0.000
318.815; 2669.350;  187.350;    0.000
318.876; 2706.350;  200.350;    0.000
318.936; 2704.350;  232.350;    0.000
318.997; 2651.350;  211.350;    0.000
319.058; 2695.350;  194.350;    0.000
319.118; 2690.350;  197.350;    0.000
319.179; 2670.350;  162.350;    0.000
319.239; 2683.350;  188.350;    0.000
319.300; 2703.350;  205.350;    0.000
319.361; 2663.350;  179.350;    0.000
319.421; 2686.350;  182.350;    0.000
319.482; 2588.350;  189.350;    0.000
319.542; 2621.350;  180.350;    0.000
319.603; 2609.350;  204.350;    0.000
319.663; 2653.350;  195.350;    0.000
319.724; 2624.350;  135.350;    0.000
319.784; 2677.350;  184.350;    0.000
319.845; 2694.350;  160.350;    0.000
319.905; 2612.350;  206.350;    0.000
319.966; 2642.350;  203.350;    0.000
320.026; 2629.350;  203.350;    0.000
320.087; 2656.350;  206.350;    0.000
320.147; 2650.350;  180.350;    0.000
320.208; 2699.350;  189.350;    0.000
320.268; 2526.350;  179.350;    0.000
320.329; 2660.350;  215.350;    0.000
320.389; 2639.350;  193.350;    0.000
320.449; 2620.350;  210.350;    0.000
320.510; 2707.350;  206.350;    0.000
320.570; 2610.350;  221.350;    0.000
320.631; 2651.350;  203.350;    0.000
320.691; 2639.350;  190.350;    0.000
320.751; 2615.350;  205.350;    0.000
320.812; 2633.350;  191.350;    0.000
320.872; 2724.350;  216.350;    0.000
320.932; 2713.350;  209.350;    0.000
320.993; 2647.350;  189.350;    0.000
321.053; 2707.350;  228.350;    0.000
321.113; 2738.350;  163.350;    0.000
321.174; 2677.350;  204.350;    0.000
321.234; 2658.350;  214.350;    0.000
321.294; 2657.350;  184.350;    0.000
321.355; 2653.350;  216.350;    0.000
321.415; 2650.350;  187.350;    0.000
321.475; 2562.350;  216.350;    0.000
321.535; 2756.350;  189.350;    0.000
321.596; 2644.350;  186.350;    0.000
321.656; 2612.350;  204.350;    0.000
321.716; 2618.350;  183.350;    0.000
321.776; 2668.350;  194.350;    0.000
321.837; 2621.350;  190.350;    0.000
321.897; 2643.350;  219.350;    0.000
321.957; 2541.350;  222.350;    0.000
322.017; 2618.350;  183.350;    0.000
322.077; 2691.350;  239.350;    0.000
322.138; 2616.350;  219.350;    0.000
322.198; 2561.350;  185.350;    0.000
322.258; 2604.350;  231.350;    0.000
322.318; 2612.350;  197.350;    0.000
322.378; 2553.350;  179.350;    0.000
322.438; 2489.350;  217.350;    0.000
322.499; 2660.350;  238.350;    0.000
322.559; 2563.350;  197.350;    0.000
322.619; 2593.350;  204.350;    0.000
322.679; 2590.350;  199.350;    0.000
322.739; 2566.350;  194.350;    0.000
322.799; 2605.350;  203.350;    0.000
322.859; 2603.350;  234.350;    0.000
322.919; 2600.350;  194.350;    0.000
322.979; 2584.350;  219.350;    0.000
323.039; 2560.350;  193.350;    0.000
323.099; 2614.350;  207.350;    0.000
323.159; 2599.350;  213.350;    0.000
323.219; 2571.350;  171.350;    0.000
323.279; 2643.350;  215.350;    0.000
323.339; 2589.350;  170.350;    0.000
323.399; 2590.350;  195.350;    0.000
323.459; 2623.350;  234.350;    0.000
323.519; 2589.350;  201.350;    0.000
323.579; 2609.350;  167.350;    0.000
323.639; 2686.350;  209.350;    0.000
323.699; 2618.350;  217.350;    0.000
323.759; 2663.350;  213.350;    0.000
323.819; 2670.350;  216.350;    0.000
323.879; 2636.350;  193.350;    0.000
323.939; 2566.350;  182.350;    0.000
323.999; 2552.350;  206.350;    0.000
324.059; 2655.350;  196.350;    0.000
324.119; 2550.350;  240.350;    0.000
324.178; 2515.350;  186.350;    0.000
324.238; 2596.350;  179.350;    0.000
324.298; 2619.350;  195.350;    0.000
324.358; 2593.350;  208.350;    0.000
324.418; 2628.350;  190.350;    0.000
324.478; 2561.350;  197.350;    0.000
324.538; 2553.350;  157.350;    0.000
324.597; 2559.350;  219.350;    0.000
324.657; 2616.350;  176.350;    0.000
324.717; 2647.350;  179.350;    0.000
324.777; 2486.350;  190.350;    0.000
324.837; 2610.350;  172.350;    0.000
324.896; 2529.350;  199.350;    0.000
324.956; 2535.350;  216.350;    0.000
325.016; 2573.350;  191.350;    0.000
325.076; 2580.350;  185.350;    0.000
325.135; 2586.350;  174.350;    0.000
325.195; 2620.350;  175.350;    0.000
325.255; 2583.350;  144.350;    0.000
325.315; 2652.350;  201.350;    0.000
325.374; 2629.350;  198.350;    0.000
325.434; 2578.350;  181.350;    0.000
325.494; 2649.350;  183.350;    0.000
325.553; 2601.350;  172.350;    0.000
325.613; 2599.350;  200.350;    0.000
325.673; 2560.350;  177.350;    0.000
325.732; 2534.350;  174.350;    0.000
325.792; 2624.350;  181.350;    0.000
325.852; 2550.350;  214.350;    0.000
325.911; 2553.350;  230.350;    0.000
325.971; 2695.350;  198.350;    0.000
326.031; 2584.350;  201.350;    0.000
326.090; 2603.350;  214.350;    0.000
326.150; 2548.350;  163.350;    0.000
326.209; 2616.350;  207.350;    0.000
326.269; 2559.350;  201.350;    0.000
326.328; 2661.350;  208.350;    0.000
326.388; 2551.350;  169.350;    0.000
326.448; 2615.350;  229.350;    0.000
326.507; 2543.350;  243.350;    0.000
326.567; 2625.350;  162.350;    0.000
326.626; 2552.350;  200.350;    0.000
326.686; 2431.350;  166.350;    0.000
326.745; 2559.350;  178.350;    0.000
326.805; 2519.350;  185.350;    0.000
326.864; 2650.350;  209.350;    0.000
326.924; 2563.350;  234.350;    0.000
326.983; 2495.350;  197.350;    0.000
327.043; 2573.350;  217.350;    0.000
327.102; 2465.350;  174.350;    0.000
327.161; 2484.350;  172.350;    0.000
327.221; 2517.350;  183.350;    0.000
327.280; 2513.350;  200.350;    0.000
327.340; 2548.350;  200.350;    0.000
327.399; 2552.350;  219.350;    0.000
327.459; 2501.350;  246.350;    0.000
327.518; 2506.350;  217.350;    0.000
327.577; 2458.350;  212.350;    0.000
327.637; 2515.350;  188.350;    0.000
327.696; 2557.350;  201.350;    0.000
327.755; 2470.350;  199.350;    0.000
327.815; 2452.350;  224.350;    0.000
327.874; 2496.350;  236.350;    0.000
327.933; 2393.350;  182.350;    0.000
327.993; 2630.350;  206.350;    0.000
328.052; 2544.350;  191.350;    0.000
328.111; 2521.350;  222.350;    0.000
328.171; 2467.350;  200.350;    0.000
328.230; 2498.350;  203.350;    0.000
328.289; 2466.350;  219.350;    0.000
328.349; 2593.350;  231.350;    0.000
328.408; 2564.350;  223.350;    0.000
328.467; 2577.350;  226.350;    0.000
328.526; 2498.350;  197.350;    0.000
328.586; 2582.350;  221.350;    0.000
328.645; 2450.350;  199.350;    0.000
328.704; 2475.350;  227.350;    0.000
328.763; 2514.350;  201.350;    0.000
328.822; 2636.350;  230.350;    0.000
328.882; 2496.350;  244.350;    0.000
328.941; 2544.350;  221.350;    0.000
329.000; 2501.350;  207.350;    0.000
329.059; 2466.350;  208.350;    0.000
329.118; 2437.350;  203.350;    0.000
329.177; 2531.350;  198.350;    0.000
329.237; 2549.350;  218.350;    0.000
329.296; 2500.350;  213.350;    0.000
329.355; 2602.350;  208.350;    0.000
329.414; 2462.350;  231.350;    0.000
329.473; 2583.350;  221.350;    0.000
329.532; 2576.350;  243.350;    0.000
329.591; 2581.350;  210.350;    0.000
329.650; 2624.350;  232.350;    0.000
329.709; 2608.350;  211.350;    0.000
329.768; 2669.350;  194.350;    0.000
329.827; 2765.350;  237.350;    0.000
329.886; 2744.350;  213.350;    0.000
329.945; 2793.350;  190.350;    0.000
330.004; 2915.350;  233.350;    0.000
330.063; 3078.350;  191.350;    0.000
330.122; 3464.350;  234.350;    0.000
330.181; 3997.350;  220.350;    0.000
330.240; 3996.350;  191.350;    0.000
330.299; 3451.350;  210.350;    0.000
330.358; 3036.350;  191.350;    0.000
330.417; 2803.350;  225.350;    0.000
330.476; 2716.350;  226.350;    0.000
330.535; 2705.350;  217.350;    0.000
330.594; 2583.350;  205.350;    0.000
330.653; 2507.350;  193.350;    0.000
330.712; 2505.350;  206.350;    0.000
330.771; 2433.350;  175.350;    0.000
330.830; 2540.350;  204.350;    0.000
330.889; 2513.350;  198.350;    0.000
330.948; 2457.350;  198.350;    0.000
331.006; 2534.350;  207.350;    0.000
331.065; 2470.350;  203.350;    0.000
331.124; 2499.350;  210.350;    0.000
331.183; 2426.350;  165.350;    0.000
331.242; 2386.350;  195.350;    0.000
331.301; 2468.350;  191.350;    0.000
331.359; 2444.350;  205.350;    0.000
331.418; 2395.350;  183.350;    0.000
331.477; 2516.350;  198.350;    0.000
331.536; 2384.350;  211.350;    0.000
331.595; 2417.350;  191.350;    0.000
331.653; 2395.350;  232.350;    0.000
331.712; 2445.350;  225.350;    0.000
331.771; 2329.350;  199.350;    0.000
331.830; 2383.350;  189.350;    0.000
331.888; 2394.350;  219.350;    0.000
331.947; 2405.350;  188.350;    0.000
332.006; 2386.350;  180.350;    0.000
332.065; 2384.350;  177.350;    0.000
332.123; 2461.350;  214.350;    0.000
332.182; 2386.350;  223.350;    0.000
332.241; 2386.350;  202.350;    0.000
332.299; 2404.350;  180.350;    0.000
332.358; 2441.350;  206.350;    0.000
332.417; 2460.350;  195.350;    0.000
332.475; 2382.350;  221.350;    0.000
332.534; 2522.350;  207.350;    0.000
332.592; 2401.350;  190.350;    0.000
332.651; 2384.350;  203.350;    0.000
332.710; 2407.350;  219.350;    0.000
332.768; 2522.350;  210.350;    0.000
332.827; 2446.350;  173.350;    0.000
332.885; 2508.350;  239.350;    0.000
332.944; 2561.350;  145.350;    0.000
333.003; 2471.350;  197.350;    0.000
333.061; 2474.350;  179.350;    0.000
333.120; 2582.350;  198.350;    0.000
333.178; 2553.350;  185.350;    0.000
333.237; 2598.350;  204.350;    0.000
333.295; 2531.350;  266.350;    0.000
333.354; 2528.350;  181.350;    0.000
333.412; 2538.350;  189.350;    0.000
333.471; 2630.350;  216.350;    0.000
333.529; 2608.350;  220.350;    0.000
333.588; 2543.350;  193.350;    0.000
333.646; 2669.350;  186.350;    0.000
333.705; 2660.350;  210.350;    0.000
333.763; 2728.350;  222.350;    0.000
333.822; 2625.350;  222.350;    0.000
333.880; 2515.350;  202.350;    0.000
333.938; 2460.350;  205.350;    0.000
333.997; 2603.350;  199.350;    0.000
334.055; 2633.350;  199.350;    0.000
334.114; 2504.350;  237.350;    0.000
334.172; 2529.350;  155.350;    0.000
334.230; 2529.350;  208.350;    0.000
334.289; 2575.350;  191.350;    0.000
334.347; 2576.350;  211.350;    0.000
334.405; 2521.350;  212.350;    0.000
334.464; 2532.350;  179.350;    0.000
334.522; 2438.350;  160.350;    0.000
334.580; 2495.350;  195.350;    0.000
334.639; 2499.350;  191.350;    0.000
334.697; 2566.350;  194.350;    0.000
334.755; 2559.350;  185.350;    0.000
334.814; 2442.350;  214.350;    0.000
334.872; 2515.350;  179.350;    0.000
334.930; 2361.350;  169.350;    0.000
334.988; 2546.350;  201.350;    0.000
335.047; 2509.350;  188.350;    0.000
335.105; 2458.350;  175.350;    0.000
335.163; 2517.350;  191.350;    0.000
335.221; 2502.350;  196.350;    0.000
335.280; 2548.350;  182.350;    0.000
335.338; 2500.350;  202.350;    0.000
335.396; 2614.350;  219.350;    0.000
335.454; 2448.350;  187.350;    0.000
335.512; 2478.350;  236.350;    0.000
335.570; 2477.350;  209.350;    0.000
335.629; 2499.350;  247.350;    0.000
335.687; 2526.350;  219.350;    0.000
335.745; 2513.350;  203.350;    0.000
335.803; 2516.350;  220.350;    0.000
335.861; 2484.350;  208.350;    0.000
335.919; 2497.350;  223.350;    0.000
335.977; 2502.350;  201.350;    0.000
336.035; 2586.350;  193.350;    0.000
336.094; 2467.350;  178.350;    0.000
336.152; 2507.350;  182.350;    0.000
336.210; 2548.350;  199.350;    0.000
336.268; 2614.350;  216.350;    0.000
336.326; 2548.350;  216.350;    0.000
336.384; 2485.350;  201.350;    0.000
336.442; 2405.350;  197.350;    0.000
336.500; 2497.350;  203.350;    0.000
336.558; 2536.350;  198.350;    0.000
336.616; 2635.350;  210.350;    0.000
336.674; 2386.350;  192.350;    0.000
336.732; 2410.350;  182.350;    0.000
336.790; 2456.350;  189.350;    0.000
336.848; 2445.350;  233.350;    0.000
336.906; 2457.350;  235.350;    0.000
336.964; 2502.350;  208.350;    0.000
337.022; 2554.350;  249.350;    0.000
337.080; 2549.350;  204.350;    0.000
337.138; 2508.350;  176.350;    0.000
337.195; 2434.350;  207.350;    0.000
337.253; 2524.350;  214.350;    0.000
337.311; 2464.350;  210.350;    0.000
337.369; 2416.350;  222.350;    0.000
337.427; 2439.350;  236.350;    0.000
337.485; 2404.350;  241.350;    0.000
337.543; 2387.350;  217.350;    0.000
337.601; 2385.350;  221.350;    0.000
337.658; 2455.350;  205.350;    0.000
337.716; 2389.350;  210.350;    0.000
337.774; 2439.350;  196.350;    0.000
337.832; 2415.350;  200.350;    0.000
337.890; 2404.350;  192.350;    0.000
337.947; 2357.350;  192.350;    0.000
338.005; 2316.350;  211.350;    0.000
338.063; 2373.350;  176.350;    0.000
338.121; 2353.350;  222.350;    0.000
338.178; 2333.350;  198.350;    0.000
338.236; 2432.350;  210.350;    0.000
338.294; 2497.350;  211.350;    0.000
338.352; 2478.350;  212.350;    0.000
338.409; 2372.350;  199.350;    0.000
338.467; 2406.350;  205.350;    0.000
338.525; 2319.350;  217.350;    0.000
338.583; 2290.350;  197.350;    0.000
338.640; 2256.350;  226.350;    0.000
338.698; 2337.350;  201.350;    0.000
338.756; 2374.350;  192.350;    0.000
338.813; 2425.350;  220.350;    0.000
338.871; 2372.350;  258.350;    0.000
338.928; 2385.350;  223.350;    0.000
338.986; 2448.350;  200.350;    0.000
339.044; 2420.350;  206.350;    0.000
339.101; 2394.350;  250.350;    0.000
339.159; 2311.350;  245.350;    0.000
339.216; 2336.350;  227.350;    0.000
339.274; 2389.350;  260.350;    0.000
339.332; 2371.350;  223.350;    0.000
339.389; 2362.350;  233.350;    0.000
339.447; 2415.350;  206.350;    0.000
339.504; 2371.350;  229.350;    0.000
339.562; 2318.350;  194.350;    0.000
339.619; 2377.350;  245.350;    0.000
339.677; 2374.350;  238.350;    0.000
339.734; 2325.350;  197.350;    0.000
339.792; 2303.350;  210.350;    0.000
339.849; 2328.350;  201.350;    0.000
339.907; 2380.350;  252.350;    0.000
339.964; 2304.350;  191.350;    0.000
340.022; 2346.350;  246.350;    0.000
340.079; 2447.350;  213.350;    0.000
340.137; 2303.350;  240.350;    0.000
340.194; 2389.350;  208.350;    0.000
340.252; 2319.350;  215.350;    0.000
340.309; 2306.350;  203.350;    0.000
340.366; 2337.350;  194.350;    0.000
340.424; 2337.350;  226.350;    0.000
340.481; 2346.350;  234.350;    0.000
340.538; 2273.350;  205.350;    0.000
340.596; 2318.350;  197.350;    0.000
340.653; 2328.350;  233.350;    0.000
340.711; 2392.350;  273.350;    0.000
340.768; 2362.350;  237.350;    0.000
340.825; 2338.350;  224.350;    0.000
340.883; 2356.350;  240.350;    0.000
340.940; 2359.350;  216.350;    0.000
340.997; 2345.350;  228.350;    0.000
341.054; 2268.350;  200.350;    0.000
341.112; 2308.350;  220.350;    0.000
341.169; 2311.350;  226.350;    0.000
341.226; 2385.350;  206.350;    0.000
341.284; 2308.350;  204.350;    0.000
341.341; 2305.350;  214.350;    0.000
341.398; 2297.350;  160.350;    0.000
341.455; 2401.350;  209.350;    0.000
341.512; 2394.350;  233.350;    0.000
341.570; 2395.350;  240.350;    0.000
341.627; 2358.350;  209.350;    0.000
341.684; 2300.350;  178.350;    0.000
341.741; 2378.350;  254.350;    0.000
341.798; 2418.350;  232.350;    0.000
341.856; 2353.350;  196.350;    0.000
341.913; 2316.350;  244.350;    0.000
341.970; 2291.350;  203.350;    0.000
342.027; 2402.350;  235.350;    0.000
342.084; 2388.350;  214.350;    0.000
342.141; 2454.350;  194.350;    0.000
342.198; 2383.350;  194.350;    0.000
342.255; 2393.350;  219.350;    0.000
342.313; 2338.350;  195.350;    0.000
342.370; 2361.350;  207.350;    0.000
342.427; 2408.350;  217.350;    0.000
342.484; 2315.350;  213.350;    0.000
342.541; 2366.350;  215.350;    0.000
342.598; 2404.350;  247.350;    0.000
342.655; 2298.350;  205.350;    0.000
342.712; 2323.350;  226.350;    0.000
342.769; 2293.350;  212.350;    0.000
342.826; 2336.350;  203.350;    0.000
342.883; 2345.350;  207.350;    0.000
342.940; 2332.350;  204.350;    0.000
342.997; 2407.350;  237.350;    0.000
343.054; 2322.350;  210.350;    0.000
343.111; 2239.350;  209.350;    0.000
343.168; 2360.350;  201.350;    0.000
343.225; 2547.350;  208.350;    0.000
343.282; 2405.350;  216.350;    0.000
343.339; 2434.350;  237.350;    0.000
343.395; 2447.350;  218.350;    0.000
343.452; 2515.350;  234.350;    0.000
343.509; 2475.350;  214.350;    0.000
343.566; 2458.350;  222.350;    0.000
343.623; 2532.350;  226.350;    0.000
343.680; 2563.350;  245.350;    0.000
343.737; 2499.350;  209.350;    0.000
343.794; 2661.350;  227.350;    0.000
343.850; 2598.350;  197.350;    0.000
343.907; 2599.350;  211.350;    0.000
343.964; 2591.350;  190.350;    0.000
344.021; 2555.350;  252.350;    0.000
344.078; 2608.350;  261.350;    0.000
344.134; 2604.350;  206.350;    0.000
344.191; 2563.350;  231.350;    0.000
344.248; 2629.350;  225.350;    0.000
344.305; 2517.350;  210.350;    0.000
344.361; 2521.350;  194.350;    0.000
344.418; 2565.350;  219.350;    0.000
344.475; 2587.350;  245.350;    0.000
344.532; 2576.350;  238.350;    0.000
344.588; 2528.350;  235.350;    0.000
344.645; 2554.350;  229.350;    0.000
344.702; 2564.350;  145.350;    0.000
344.758; 2503.350;  240.350;    0.000
344.815; 2507.350;  215.350;    0.000
344.872; 2441.350;  203.350;    0.000
344.928; 2558.350;  208.350;    0.000
344.985; 2607.350;  216.350;    0.000
345.042; 2507.350;  234.350;    0.000
345.098; 2483.350;  183.350;    0.000
345.155; 2526.350;  241.350;    0.000
345.212; 2432.350;  222.350;    0.000
345.268; 2523.350;  234.350;    0.000
345.325; 2457.350;  181.350;    0.000
345.381; 2525.350;  251.350;    0.000
345.438; 2502.350;  256.350;    0.000
345.495; 2551.350;  247.350;    0.000
345.551; 2531.350;  231.350;    0.000
345.608; 2472.350;  206.350;    0.000
345.664; 2502.350;  201.350;    0.000
345.721; 2516.350;  216.350;    0.000
345.777; 2443.350;  195.350;    0.000
345.834; 2443.350;  195.350;    0.000
345.890; 2487.350;  227.350;    0.000
345.947; 2542.350;  240.350;    0.000
346.003; 2521.350;  248.350;    0.000
346.060; 2439.350;  213.350;    0.000
346.116; 2555.350;  225.350;    0.000
346.173; 2523.350;  199.350;    0.000
346.229; 2550.350;  264.350;    0.000
346.285; 2544.350;  246.350;    0.000
346.342; 2483.350;  240.350;    0.000
346.398; 2579.350;  222.350;    0.000
346.455; 2489.350;  231.350;    0.000
346.511; 2570.350;  214.350;    0.000
346.567; 2609.350;  231.350;    0.000
346.624; 2539.350;  222.350;    0.000
346.680; 2559.350;  197.350;    0.000
346.737; 2604.350;  225.350;    0.000
346.793; 2512.350;  255.350;    0.000
346.849; 2556.350;  245.350;    0.000
346.906; 2567.350;  221.350;    0.000
346.962; 2629.350;  260.350;    0.000
347.018; 2613.350;  238.350;    0.000
347.074; 2523.350;  257.350;    0.000
347.131; 2537.350;  200.350;    0.000
347.187; 2547.350;  232.350;    0.000
347.243; 2548.350;  240.350;    0.000
347.300; 2562.350;  249.350;    0.000
347.356; 2583.350;  250.350;    0.000
347.412; 2596.350;  252.350;    0.000
347.468; 2551.350;  254.350;    0.000
347.524; 2409.350;  280.350;    0.000
347.581; 2514.350;  228.350;    0.000
347.637; 2519.350;  261.350;    0.000
347.693; 2571.350;  238.350;    0.000
347.749; 2503.350;  261.350;    0.000
347.805; 2504.350;  238.350;    0.000
347.862; 2672.350;  246.350;    0.000
347.918; 2531.350;  256.350;    0.000
347.974; 2579.350;  277.350;    0.000
348.030; 2529.350;  242.350;    0.000
348.086; 2497.350;  223.350;    0.000
348.142; 2645.350;  215.350;    0.000
348.198; 2523.350;  272.350;    0.000
348.254; 2675.350;  292.350;    0.000
348.311; 2646.350;  235.350;    0.000
348.367; 2586.350;  263.350;    0.000
348.423; 2564.350;  193.350;    0.000
348.479; 2509.350;  266.350;    0.000
348.535; 2649.350;  238.350;    0.000
348.591; 2506.350;  237.350;    0.000
348.647; 2586.350;  239.350;    0.000
348.703; 2555.350;  240.350;    0.000
348.759; 2580.350;  253.350;    0.000
348.815; 2548.350;  255.350;    0.000
348.871; 2638.350;  256.350;    0.000
348.927; 2612.350;  261.350;    0.000
348.983; 2675.350;  258.350;    0.000
349.039; 2549.350;  204.350;    0.000
349.095; 2657.350;  215.350;    0.000
349.151; 2554.350;  230.350;    0.000
349.207; 2669.350;  216.350;    0.000
349.263; 2631.350;  235.350;    0.000
349.319; 2552.350;  244.350;    0.000
349.374; 2584.350;  213.350;    0.000
349.430; 2640.350;  241.350;    0.000
349.486; 2656.350;  248.350;    0.000
349.542; 2697.350;  259.350;    0.000
349.598; 2663.350;  208.350;    0.000
349.654; 2669.350;  242.350;    0.000
349.710; 2665.350;  246.350;    0.000
349.766; 2641.350;  226.350;    0.000
349.821; 2636.350;  227.350;    0.000
349.877; 2577.350;  226.350;    0.000
349.933; 2716.350;  249.350;    0.000
349.989; 2620.350;  263.350;    0.000
350.045; 2616.350;  267.350;    0.000
350.100; 2671.350;  219.350;    0.000
350.156; 2702.350;  207.350;    0.000
350.212; 2569.350;  230.350;    0.000
350.268; 2625.350;  223.350;    0.000
350.323; 2635.350;  217.350;    0.000
350.379; 2583.350;  227.350;    0.000
350.435; 2602.350;  219.350;    0.000
350.491; 2572.350;  195.350;    0.000
350.546; 2536.350;  229.350;    0.000
350.602; 2599.350;  222.350;    0.000
350.658; 2561.350;  225.350;    0.000
350.713; 2558.350;  231.350;    0.000
350.769; 2611.350;  193.350;    0.000
350.825; 2561.350;  182.350;    0.000
350.880; 2527.350;  193.350;    0.000
350.936; 2630.350;  222.350;    0.000
350.992; 2624.350;  217.350;    0.000
351.047; 2563.350;  226.350;    0.000
351.103; 2622.350;  187.350;    0.000
351.158; 2607.350;  212.350;    0.000
351.214; 2534.350;  207.350;    0.000
351.270; 2635.350;  194.350;    0.000
351.325; 2669.350;  213.350;    0.000
351.381; 2592.350;  223.350;    0.000
351.436; 2611.350;  222.350;    0.000
351.492; 2776.350;  219.350;    0.000
351.547; 2703.350;  205.350;    0.000
351.603; 2784.350;  218.350;    0.000
351.658; 2657.350;  199.350;    0.000
351.714; 2721.350;  201.350;    0.000
351.769; 2701.350;  209.350;    0.000
351.825; 2711.350;  226.350;    0.000
351.880; 2719.350;  189.350;    0.000
351.936; 2676.350;  201.350;    0.000
351.991; 2662.350;  220.350;    0.000
352.047; 2658.350;  232.350;    0.000
352.102; 2643.350;  185.350;    0.000
352.158; 2667.350;  228.350;    0.000
352.213; 2599.350;  204.350;    0.000
352.268; 2634.350;  220.350;    0.000
352.324; 2686.350;  206.350;    0.000
352.379; 2593.350;  182.350;    0.000
352.434; 2631.350;  214.350;    0.000
352.490; 2719.350;  250.350;    0.000
352.545; 2680.350;  290.350;    0.000
352.601; 2652.350;  247.350;    0.000
352.656; 2666.350;  203.350;    0.000
352.711; 2635.350;  197.350;    0.000
352.767; 2733.350;  169.350;    0.000
352.822; 2589.350;  191.350;    0.000
352.877; 2747.350;  235.350;    0.000
352.932; 2684.350;  231.350;    0.000
352.988; 2627.350;  224.350;    0.000
353.043; 2680.350;  226.350;    0.000
353.098; 2696.350;  227.350;    0.000
353.153; 2683.350;  239.350;    0.000
353.209; 2591.350;  217.350;    0.000
353.264; 2635.350;  198.350;    0.000
353.319; 2629.350;  247.350;    0.000
353.374; 2635.350;  199.350;    0.000
353.430; 2715.350;  247.350;    0.000
353.485; 2707.350;  242.350;    0.000
353.540; 2659.350;  237.350;    0.000
353.595; 2572.350;  233.350;    0.000
353.650; 2659.350;  221.350;    0.000
353.705; 2727.350;  259.350;    0.000
353.761; 2659.350;  223.350;    0.000
353.816; 2617.350;  234.350;    0.000
353.871; 2587.350;  226.350;    0.000
353.926; 2625.350;  232.350;    0.000
353.981; 2667.350;  245.350;    0.000
354.036; 2585.350;  247.350;    0.000
354.091; 2686.350;  233.350;    0.000
354.146; 2683.350;  253.350;    0.000
354.201; 2768.350;  236.350;    0.000
354.256; 2669.350;  210.350;    0.000
354.311; 2670.350;  279.350;    0.000
354.367; 2634.350;  208.350;    0.000
354.422; 2641.350;  228.350;    0.000
354.477; 2689.350;  202.350;    0.000
354.532; 2700.350;  215.350;    0.000
354.587; 2674.350;  249.350;    0.000
354.642; 2662.350;  206.350;    0.000
354.697; 2704.350;  226.350;    0.000
354.751; 2694.350;  241.350;    0.000
354.806; 2653.350;  249.350;    0.000
354.861; 2670.350;  216.350;    0.000
354.916; 2714.350;  249.350;    0.000
354.971; 2689.350;  217.350;    0.000
355.026; 2656.350;  236.350;    0.000
355.081; 2682.350;  242.350;    0.000
355.136; 2656.350;  216.350;    0.000
355.191; 2608.350;  216.350;    0.000
355.246; 2636.350;  258.350;    0.000
355.301; 2665.350;  250.350;    0.000
355.355; 2714.350;  251.350;    0.000
355.410; 2671.350;  216.350;    0.000
355.465; 2545.350;  224.350;    0.000
355.520; 2715.350;  221.350;    0.000
355.575; 2736.350;  255.350;    0.000
355.630; 2674.350;  225.350;    0.000
355.684; 2741.350;  210.350;    0.000
355.739; 2652.350;  232.350;    0.000
355.794; 2701.350;  202.350;    0.000
355.849; 2717.350;  211.350;    0.000
355.904; 2702.350;  226.350;    0.000
355.958; 2626.350;  191.350;    0.000
356.013; 2693.350;  208.350;    0.000
356.068; 2752.350;  229.350;    0.000
356.123; 2778.350;  243.350;    0.000
356.177; 2722.350;  227.350;    0.000
356.232; 2756.350;  243.350;    0.000
356.287; 2786.350;  216.350;    0.000
356.341; 2663.350;  242.350;    0.000
356.396; 2638.350;  175.350;    0.000
356.451; 2688.350;  271.350;    0.000
356.505; 2759.350;  225.350;    0.000
356.560; 2700.350;  260.350;    0.000
356.615; 2609.350;  213.350;    0.000
356.669; 2646.350;  213.350;    0.000
356.724; 2727.350;  221.350;    0.000
356.778; 2733.350;  232.350;    0.000
356.833; 2733.350;  178.350;    0.000
356.888; 2772.350;  236.350;    0.000
356.942; 2746.350;  224.350;    0.000
356.997; 2677.350;  228.350;    0.000
357.051; 2614.350;  226.350;    0.000
357.106; 2608.350;  185.350;    0.000
357.160; 2697.350;  202.350;    0.000
357.215; 2598.350;  232.350;    0.000
357.269; 2632.350;  224.350;    0.000
357.324; 2718.350;  219.350;    0.000
357.378; 2665.350;  196.350;    0.000
357.433; 2758.350;  241.350;    0.000
357.487; 2774.350;  244.350;    0.000
357.542; 2703.350;  210.350;    0.000
357.596; 2688.350;  231.350;    0.000
357.651; 2808.350;  248.350;    0.000
357.705; 2682.350;  232.350;    0.000
357.760; 2692.350;  224.350;    0.000
357.814; 2675.350;  221.350;    0.000
357.868; 2679.350;  207.350;    0.000
357.923; 2705.350;  234.350;    0.000
357.977; 2714.350;  218.350;    0.000
358.032; 2573.350;  244.350;    0.000
358.086; 2705.350;  246.350;    0.000
358.140; 2629.350;  235.350;    0.000
358.195; 2654.350;  237.350;    0.000
358.249; 2668.350;  233.350;    0.000
358.303; 2732.350;  254.350;    0.000
358.358; 2658.350;  217.350;    0.000
358.412; 2778.350;  245.350;    0.000
358.466; 2754.350;  230.350;    0.000
358.521; 2649.350;  214.350;    0.000
358.575; 2685.350;  243.350;    0.000
358.629; 2636.350;  230.350;    0.000
358.683; 2658.350;  232.350;    0.000
358.738; 2656.350;  249.350;    0.000
358.792; 2640.350;  249.350;    0.000
358.846; 2672.350;  271.350;    0.000
358.900; 2663.350;  265.350;    0.000
358.954; 2710.350;  236.350;    0.000
359.009; 2665.350;  254.350;    0.000
359.063; 2679.350;  216.350;    0.000
359.117; 2771.350;  245.350;    0.000
359.171; 2691.350;  252.350;    0.000
359.225; 2668.350;  240.350;    0.000
359.280; 2658.350;  239.350;    0.000
359.334; 2725.350;  234.350;    0.000
359.388; 2769.350;  258.350;    0.000
359.442; 2735.350;  220.350;    0.000
359.496; 2627.350;  206.350;    0.000
359.550; 2766.350;  279.350;    0.000
359.604; 2648.350;  263.350;    0.000
359.658; 2628.350;  251.350;    0.000
359.712; 2801.350;  244.350;    0.000
359.766; 2733.350;  217.350;    0.000
359.820; 2708.350;  235.350;    0.000
359.875; 2725.350;  249.350;    0.000
359.929; 2691.350;  269.350;    0.000
359.983; 2690.350;  240.350;    0.000
360.037; 2720.350;  252.350;    0.000
360.091; 2709.350;  271.350;    0.000
360.145; 2656.350;  222.350;    0.000
360.199; 2715.350;  302.350;    0.000
360.253; 2794.350;  234.350;    0.000
360.306; 2703.350;  258.350;    0.000
360.360; 2608.350;  249.350;    0.000
360.414; 2665.350;  231.350;    0.000
360.468; 2719.350;  261.350;    0.000
360.522; 2736.350;  277.350;    0.000
360.576; 2735.350;  273.350;    0.000
360.630; 2703.350;  264.350;    0.000
360.684; 2716.350;  223.350;    0.000
360.738; 2669.350;  266.350;    0.000
360.792; 2657.350;  252.350;    0.000
360.846; 2613.350;  234.350;    0.000
360.899; 2741.350;  296.350;    0.000
360.953; 2699.350;  273.350;    0.000
361.007; 2694.350;  251.350;    0.000
361.061; 2774.350;  250.350;    0.000
361.115; 2648.350;  267.350;    0.000
361.168; 2716.350;  308.350;    0.000
361.222; 2675.350;  246.350;    0.000
361.276; 2816.350;  261.350;    0.000
361.330; 2688.350;  233.350;    0.000
361.384; 2673.350;  269.350;    0.000
361.437; 2761.350;  270.350;    0.000
361.491; 2685.350;  263.350;    0.000
361.545; 2721.350;  288.350;    0.000
361.599; 2677.350;  270.350;    0.000
361.652; 2722.350;  256.350;    0.000
361.706; 2650.350;  263.350;    0.000
361.760; 2704.350;  237.350;    0.000
361.813; 2710.350;  278.350;    0.000
361.867; 2674.350;  317.350;    0.000
361.921; 2684.350;  260.350;    0.000
361.974; 2656.350;  239.350;    0.000
362.028; 2691.350;  266.350;    0.000
362.082; 2650.350;  269.350;    0.000
362.135; 2700.350;  262.350;    0.000
362.189; 2625.350;  258.350;    0.000
362.242; 2685.350;  273.350;    0.000
362.296; 2713.350;  261.350;    0.000
362.350; 2620.350;  272.350;    0.000
362.403; 2647.350;  291.350;    0.000
362.457; 2678.350;  253.350;    0.000
362.510; 2650.350;  266.350;    0.000
362.564; 2636.350;  260.350;    0.000
362.617; 2707.350;  280.350;    0.000
362.671; 2795.350;  281.350;    0.000
362.724; 2678.350;  234.350;    0.000
362.778; 2634.350;  311.350;    0.000
362.831; 2689.350;  276.350;    0.000
362.885; 2597.350;  288.350;    0.000
362.938; 2555.350;  284.350;    0.000
362.992;  350.350;  245.350;    0.000
363.045;  286.350;  277.350;    0.000
363.099;  254.350;  246.350;    0.000
363.152;  284.350;  290.350;    0.000
363.205;  287.350;  256.350;    0.000
363.259;  248.350;  238.350;    0.000
363.312;  266.350;  290.350;    0.000
363.366;  284.350;  287.350;    0.000
363.419;  297.350;  279.350;    0.000
363.472;  295.350;  304.350;    0.000
363.526;  275.350;  305.350;    0.000
363.579;  288.350;  281.350;    0.000
363.632;  269.350;  279.350;    0.000
363.686;  268.350;  277.350;    0.000
363.739;  237.350;  268.350;    0.000
363.792;  295.350;  274.350;    0.000

