
Integration time [ms]:   0.300
Averaging Nr. [scans]: 1
Smoothing Nr. [pixels]: 0
Data measured with spectrometer [name]: UV2
Wave   ;Sample   ;Dark     ;Reference
[nm]   ;[counts] ;[counts] ;[counts] 

353.533;  212.450;  178.050;    0.000
353.597;  212.450;  251.050;    0.000
353.660;  223.450;  213.050;    0.000
353.723;  176.450;  185.050;    0.000
353.786;  178.450;  191.050;    0.000
353.850;  211.450;  238.050;    0.000
353.913;  191.450;  181.050;    0.000
353.976;  215.450;  190.050;    0.000
354.039;  175.450;  184.050;    0.000
354.102;  204.450;  231.050;    0.000
354.166;  235.450;  188.050;    0.000
354.229;  217.450;  224.050;    0.000
354.292;  221.450;  186.050;    0.000
354.355;  227.450;  175.050;    0.000
354.418;  179.450;  191.050;    0.000
354.481;  189.450;  181.050;    0.000
354.545;  716.450;  193.050;    0.000
354.608;  680.450;  210.050;    0.000
354.671;  729.450;  183.050;    0.000
354.734;  741.450;  189.050;    0.000
354.797;  762.450;  168.050;    0.000
354.860;  753.450;  178.050;    0.000
354.923;  777.450;  236.050;    0.000
354.986;  756.450;  181.050;    0.000
355.050;  768.450;  168.050;    0.000
355.113;  774.450;  201.050;    0.000
355.176;  756.450;  206.050;    0.000
355.239;  818.450;  213.050;    0.000
355.302;  805.450;  198.050;    0.000
355.365;  843.450;  199.050;    0.000
355.428;  834.450;  200.050;    0.000
355.491;  905.450;  232.050;    0.000
355.554;  858.450;  184.050;    0.000
355.617;  876.450;  214.050;    0.000
355.680;  855.450;  191.050;    0.000
355.743;  898.450;  161.050;    0.000
355.806;  908.450;  153.050;    0.000
355.869;  954.450;  221.050;    0.000
355.932;  905.450;  152.050;    0.000
355.995;  897.450;  195.050;    0.000
356.058;  870.450;  172.050;    0.000
356.121;  931.450;  186.050;    0.000
356.184;  924.450;  196.050;    0.000
356.247;  986.450;  183.050;    0.000
356.310; 1010.450;  159.050;    0.000
356.373;  960.450;  183.050;    0.000
356.436;  943.450;  176.050;    0.000
356.498;  945.450;  191.050;    0.000
356.561;  910.450;  145.050;    0.000
356.624;  936.450;  187.050;    0.000
356.687;  993.450;  181.050;    0.000
356.750;  973.450;  227.050;    0.000
356.813;  954.450;  147.050;    0.000
356.876;  982.450;  184.050;    0.000
356.939;  963.450;  141.050;    0.000
357.001; 1036.450;  188.050;    0.000
357.064;  984.450;  173.050;    0.000
357.127;  990.450;  159.050;    0.000
357.190;  998.450;  185.050;    0.000
357.253; 1047.450;  180.050;    0.000
357.316; 1049.450;  199.050;    0.000
357.378;  967.450;  196.050;    0.000
357.441; 1002.450;  175.050;    0.000
357.504;  972.450;  164.050;    0.000
357.567;  975.450;  145.050;    0.000
357.629; 1006.450;  205.050;    0.000
357.692; 1003.450;  175.050;    0.000
357.755;  994.450;  205.050;    0.000
357.818;  979.450;  141.050;    0.000
357.880; 1021.450;  170.050;    0.000
357.943; 1048.450;  152.050;    0.000
358.006; 1061.450;  145.050;    0.000
358.069; 1026.450;  164.050;    0.000
358.131; 1081.450;  148.050;    0.000
358.194; 1012.450;  122.050;    0.000
358.257;  977.450;  147.050;    0.000
358.319;  996.450;  156.050;    0.000
358.382; 1068.450;  193.050;    0.000
358.445; 1084.450;  155.050;    0.000
358.507;  983.450;  160.050;    0.000
358.570; 1060.450;  159.050;    0.000
358.633; 1045.450;  163.050;    0.000
358.695; 1085.450;  174.050;    0.000
358.758; 1015.450;  127.050;    0.000
358.821; 1011.450;  165.050;    0.000
358.883; 1019.450;  145.050;    0.000
358.946; 1106.450;  127.050;    0.000
359.008; 1146.450;  180.050;    0.000
359.071; 1057.450;  173.050;    0.000
359.134; 1055.450;  150.050;    0.000
359.196; 1043.450;  158.050;    0.000
359.259; 1060.450;  159.050;    0.000
359.321; 1104.450;  159.050;    0.000
359.384; 1136.450;  182.050;    0.000
359.446; 1113.450;  140.050;    0.000
359.509; 1179.450;  146.050;    0.000
359.571; 1119.450;  133.050;    0.000
359.634; 1113.450;   93.050;    0.000
359.696; 1023.450;  142.050;    0.000
359.759; 1114.450;  161.050;    0.000
359.821; 1139.450;  110.050;    0.000
359.884; 1141.450;  114.050;    0.000
359.946; 1130.450;  180.050;    0.000
360.009; 1159.450;  158.050;    0.000
360.071; 1088.450;  116.050;    0.000
360.134; 1109.450;  170.050;    0.000
360.196; 1132.450;  128.050;    0.000
360.259; 1140.450;  157.050;    0.000
360.321; 1139.450;  122.050;    0.000
360.384; 1107.450;  119.050;    0.000
360.446; 1152.450;  122.050;    0.000
360.508; 1175.450;  195.050;    0.000
360.571; 1143.450;  128.050;    0.000
360.633; 1111.450;  172.050;    0.000
360.696; 1097.450;  115.050;    0.000
360.758; 1121.450;  162.050;    0.000
360.820; 1151.450;  149.050;    0.000
360.883; 1129.450;  151.050;    0.000
360.945; 1109.450;  149.050;    0.000
361.007; 1190.450;  135.050;    0.000
361.070; 1114.450;  162.050;    0.000
361.132; 1187.450;  198.050;    0.000
361.194; 1104.450;  141.050;    0.000
361.257; 1140.450;  154.050;    0.000
361.319; 1178.450;  147.050;    0.000
361.381; 1194.450;  154.050;    0.000
361.443; 1151.450;  144.050;    0.000
361.506; 1209.450;  164.050;    0.000
361.568; 1225.450;  148.050;    0.000
361.630; 1182.450;  127.050;    0.000
361.693; 1196.450;  158.050;    0.000
361.755; 1177.450;  161.050;    0.000
361.817; 1298.450;  173.050;    0.000
361.879; 1210.450;  159.050;    0.000
361.941; 1138.450;  153.050;    0.000
362.004; 1201.450;  148.050;    0.000
362.066; 1160.450;  150.050;    0.000
362.128; 1148.450;  132.050;    0.000
362.190; 1250.450;  207.050;    0.000
362.252; 1230.450;  142.050;    0.000
362.315; 1222.450;  153.050;    0.000
362.377; 1219.450;  164.050;    0.000
362.439; 1253.450;  155.050;    0.000
362.501; 1188.450;  157.050;    0.000
362.563; 1212.450;  188.050;    0.000
362.625; 1216.450;  194.050;    0.000
362.688; 1299.450;  159.050;    0.000
362.750; 1268.450;  205.050;    0.000
362.812; 1205.450;  148.050;    0.000
362.874; 1217.450;  173.050;    0.000
362.936; 1237.450;  152.050;    0.000
362.998; 1247.450;  145.050;    0.000
363.060; 1199.450;  184.050;    0.000
363.122; 1234.450;  147.050;    0.000
363.184; 1270.450;  136.050;    0.000
363.246; 1252.450;  171.050;    0.000
363.308; 1217.450;  154.050;    0.000
363.370; 1273.450;  175.050;    0.000
363.432; 1248.450;  139.050;    0.000
363.494; 1264.450;  163.050;    0.000
363.556; 1221.450;  117.050;    0.000
363.618; 1276.450;  126.050;    0.000
363.680; 1200.450;  147.050;    0.000
363.742; 1207.450;  161.050;    0.000
363.804; 1237.450;  159.050;    0.000
363.866; 1316.450;  170.050;    0.000
363.928; 1253.450;  122.050;    0.000
363.990; 1243.450;  167.050;    0.000
364.052; 1293.450;  180.050;    0.000
364.114; 1270.450;  119.050;    0.000
364.176; 1267.450;  184.050;    0.000
364.238; 1264.450;  180.050;    0.000
364.300; 1303.450;  159.050;    0.000
364.362; 1224.450;  163.050;    0.000
364.424; 1268.450;  139.050;    0.000
364.486; 1249.450;  189.050;    0.000
364.548; 1291.450;  167.050;    0.000
364.609; 1305.450;  165.050;    0.000
364.671; 1285.450;  171.050;    0.000
364.733; 1293.450;  165.050;    0.000
364.795; 1286.450;  122.050;    0.000
364.857; 1303.450;  147.050;    0.000
364.919; 1258.450;  104.050;    0.000
364.981; 1274.450;  143.050;    0.000
365.042; 1326.450;  166.050;    0.000
365.104; 1336.450;  162.050;    0.000
365.166; 1307.450;  155.050;    0.000
365.228; 1334.450;  179.050;    0.000
365.290; 1292.450;  133.050;    0.000
365.351; 1360.450;  142.050;    0.000
365.413; 1303.450;  144.050;    0.000
365.475; 1349.450;  139.050;    0.000
365.537; 1322.450;  181.050;    0.000
365.598; 1251.450;  166.050;    0.000
365.660; 1243.450;  130.050;    0.000
365.722; 1301.450;  177.050;    0.000
365.784; 1294.450;  149.050;    0.000
365.845; 1384.450;  156.050;    0.000
365.907; 1285.450;  122.050;    0.000
365.969; 1307.450;  140.050;    0.000
366.030; 1302.450;  156.050;    0.000
366.092; 1312.450;  140.050;    0.000
366.154; 1333.450;  169.050;    0.000
366.215; 1364.450;  170.050;    0.000
366.277; 1309.450;  143.050;    0.000
366.339; 1338.450;  139.050;    0.000
366.400; 1295.450;  139.050;    0.000
366.462; 1268.450;  140.050;    0.000
366.524; 1335.450;  150.050;    0.000
366.585; 1302.450;  163.050;    0.000
366.647; 1346.450;  193.050;    0.000
366.708; 1341.450;  135.050;    0.000
366.770; 1371.450;  165.050;    0.000
366.832; 1371.450;  168.050;    0.000
366.893; 1360.450;  157.050;    0.000
366.955; 1330.450;  132.050;    0.000
367.016; 1344.450;  127.050;    0.000
367.078; 1337.450;  146.050;    0.000
367.139; 1295.450;  129.050;    0.000
367.201; 1301.450;  148.050;    0.000
367.262; 1434.450;  165.050;    0.000
367.324; 1323.450;  171.050;    0.000
367.385; 1348.450;  118.050;    0.000
367.447; 1411.450;  144.050;    0.000
367.508; 1360.450;  135.050;    0.000
367.570; 1404.450;  160.050;    0.000
367.631; 1327.450;  157.050;    0.000
367.693; 1389.450;  168.050;    0.000
367.754; 1345.450;  139.050;    0.000
367.816; 1339.450;  141.050;    0.000
367.877; 1375.450;  195.050;    0.000
367.939; 1395.450;  166.050;    0.000
368.000; 1336.450;  127.050;    0.000
368.062; 1336.450;  143.050;    0.000
368.123; 1363.450;  156.050;    0.000
368.184; 1431.450;  179.050;    0.000
368.246; 1387.450;  168.050;    0.000
368.307; 1347.450;  203.050;    0.000
368.369; 1377.450;  149.050;    0.000
368.430; 1323.450;  121.050;    0.000
368.491; 1367.450;  131.050;    0.000
368.553; 1359.450;  161.050;    0.000
368.614; 1381.450;  157.050;    0.000
368.675; 1342.450;  152.050;    0.000
368.737; 1363.450;  168.050;    0.000
368.798; 1371.450;  147.050;    0.000
368.859; 1405.450;  174.050;    0.000
368.921; 1442.450;  168.050;    0.000
368.982; 1370.450;  151.050;    0.000
369.043; 1467.450;  169.050;    0.000
369.104; 1379.450;  149.050;    0.000
369.166; 1422.450;  178.050;    0.000
369.227; 1412.450;  149.050;    0.000
369.288; 1404.450;  131.050;    0.000
369.349; 1381.450;  128.050;    0.000
369.411; 1393.450;  198.050;    0.000
369.472; 1318.450;  156.050;    0.000
369.533; 1373.450;  142.050;    0.000
369.594; 1357.450;  125.050;    0.000
369.656; 1462.450;  153.050;    0.000
369.717; 1380.450;  124.050;    0.000
369.778; 1418.450;  163.050;    0.000
369.839; 1426.450;  130.050;    0.000
369.900; 1440.450;  170.050;    0.000
369.961; 1352.450;  142.050;    0.000
370.023; 1427.450;  197.050;    0.000
370.084; 1458.450;  151.050;    0.000
370.145; 1424.450;  128.050;    0.000
370.206; 1385.450;  152.050;    0.000
370.267; 1371.450;  154.050;    0.000
370.328; 1435.450;  154.050;    0.000
370.389; 1400.450;  173.050;    0.000
370.451; 1447.450;  191.050;    0.000
370.512; 1406.450;  155.050;    0.000
370.573; 1373.450;  134.050;    0.000
370.634; 1441.450;  160.050;    0.000
370.695; 1429.450;  124.050;    0.000
370.756; 1427.450;  169.050;    0.000
370.817; 1468.450;  169.050;    0.000
370.878; 1486.450;  200.050;    0.000
370.939; 1414.450;  157.050;    0.000
371.000; 1458.450;  131.050;    0.000
371.061; 1443.450;  136.050;    0.000
371.122; 1457.450;  176.050;    0.000
371.183; 1374.450;   81.050;    0.000
371.244; 1514.450;  156.050;    0.000
371.305; 1464.450;  131.050;    0.000
371.366; 1455.450;  161.050;    0.000
371.427; 1448.450;  127.050;    0.000
371.488; 1466.450;  184.050;    0.000
371.549; 1408.450;  159.050;    0.000
371.610; 1495.450;  147.050;    0.000
371.671; 1385.450;  132.050;    0.000
371.732; 1495.450;  163.050;    0.000
371.793; 1490.450;  179.050;    0.000
371.853; 1495.450;  179.050;    0.000
371.914; 1507.450;  149.050;    0.000
371.975; 1440.450;  117.050;    0.000
372.036; 1517.450;  141.050;    0.000
372.097; 1392.450;  101.050;    0.000
372.158; 1447.450;  115.050;    0.000
372.219; 1453.450;  174.050;    0.000
372.280; 1519.450;  134.050;    0.000
372.340; 1540.450;  180.050;    0.000
372.401; 1599.450;  166.050;    0.000
372.462; 1421.450;  171.050;    0.000
372.523; 1426.450;  132.050;    0.000
372.584; 1471.450;  182.050;    0.000
372.645; 1495.450;  149.050;    0.000
372.705; 1651.450;  182.050;    0.000
372.766; 1528.450;  145.050;    0.000
372.827; 1440.450;  161.050;    0.000
372.888; 1461.450;  156.050;    0.000
372.948; 1501.450;  158.050;    0.000
373.009; 1461.450;  178.050;    0.000
373.070; 1469.450;  166.050;    0.000
373.131; 1471.450;  154.050;    0.000
373.191; 1512.450;  193.050;    0.000
373.252; 1502.450;  148.050;    0.000
373.313; 1508.450;  152.050;    0.000
373.373; 1444.450;  156.050;    0.000
373.434; 1529.450;  166.050;    0.000
373.495; 1489.450;  152.050;    0.000
373.555; 1546.450;  145.050;    0.000
373.616; 1469.450;  141.050;    0.000
373.677; 1585.450;  169.050;    0.000
373.737; 1484.450;  166.050;    0.000
373.798; 1468.450;  151.050;    0.000
373.859; 1476.450;  170.050;    0.000
373.919; 1534.450;  206.050;    0.000
373.980; 1504.450;  140.050;    0.000
374.041; 1491.450;  148.050;    0.000
374.101; 1461.450;  165.050;    0.000
374.162; 1473.450;  166.050;    0.000
374.222; 1496.450;  156.050;    0.000
374.283; 1579.450;  161.050;    0.000
374.343; 1563.450;  185.050;    0.000
374.404; 1546.450;  148.050;    0.000
374.465; 1596.450;  162.050;    0.000
374.525; 1491.450;  177.050;    0.000
374.586; 1581.450;  164.050;    0.000
374.646; 1545.450;  180.050;    0.000
374.707; 1610.450;  203.050;    0.000
374.767; 1557.450;  148.050;    0.000
374.828; 1515.450;  142.050;    0.000
374.888; 1648.450;  187.050;    0.000
374.949; 1618.450;  137.050;    0.000
375.009; 1618.450;  155.050;    0.000
375.070; 1576.450;  165.050;    0.000
375.130; 1571.450;  168.050;    0.000
375.190; 1603.450;  157.050;    0.000
375.251; 1596.450;  206.050;    0.000
375.311; 1626.450;  141.050;    0.000
375.372; 1597.450;  144.050;    0.000
375.432; 1633.450;  153.050;    0.000
375.493; 1555.450;  168.050;    0.000
375.553; 1529.450;  146.050;    0.000
375.613; 1520.450;  142.050;    0.000
375.674; 1552.450;  153.050;    0.000
375.734; 1624.450;  166.050;    0.000
375.794; 1609.450;  145.050;    0.000
375.855; 1534.450;  162.050;    0.000
375.915; 1589.450;  162.050;    0.000
375.975; 1539.450;  144.050;    0.000
376.036; 1539.450;  128.050;    0.000
376.096; 1574.450;  122.050;    0.000
376.156; 1512.450;  140.050;    0.000
376.217; 1556.450;  158.050;    0.000
376.277; 1577.450;  163.050;    0.000
376.337; 1599.450;  139.050;    0.000
376.398; 1570.450;  176.050;    0.000
376.458; 1675.450;  143.050;    0.000
376.518; 1583.450;  136.050;    0.000
376.578; 1566.450;  177.050;    0.000
376.639; 1567.450;  163.050;    0.000
376.699; 1584.450;  183.050;    0.000
376.759; 1567.450;  169.050;    0.000
376.819; 1575.450;  147.050;    0.000
376.880; 1622.450;  188.050;    0.000
376.940; 1567.450;  185.050;    0.000
377.000; 1557.450;  131.050;    0.000
377.060; 1591.450;  182.050;    0.000
377.120; 1663.450;  165.050;    0.000
377.180; 1628.450;  169.050;    0.000
377.241; 1615.450;  146.050;    0.000
377.301; 1592.450;  183.050;    0.000
377.361; 1595.450;  124.050;    0.000
377.421; 1621.450;  186.050;    0.000
377.481; 1645.450;  178.050;    0.000
377.541; 1665.450;  140.050;    0.000
377.601; 1661.450;  175.050;    0.000
377.661; 1605.450;  169.050;    0.000
377.722; 1660.450;  144.050;    0.000
377.782; 1596.450;  182.050;    0.000
377.842; 1662.450;  161.050;    0.000
377.902; 1622.450;  151.050;    0.000
377.962; 1598.450;  134.050;    0.000
378.022; 1629.450;  153.050;    0.000
378.082; 1607.450;  178.050;    0.000
378.142; 1714.450;  118.050;    0.000
378.202; 1648.450;  153.050;    0.000
378.262; 1654.450;  166.050;    0.000
378.322; 1664.450;  174.050;    0.000
378.382; 1635.450;  148.050;    0.000
378.442; 1718.450;  190.050;    0.000
378.502; 1635.450;  136.050;    0.000
378.562; 1690.450;  130.050;    0.000
378.622; 1689.450;  188.050;    0.000
378.682; 1757.450;  163.050;    0.000
378.742; 1700.450;  150.050;    0.000
378.802; 1599.450;  127.050;    0.000
378.862; 1744.450;  186.050;    0.000
378.921; 1818.450;  203.050;    0.000
378.981; 1726.450;  177.050;    0.000
379.041; 1611.450;  134.050;    0.000
379.101; 1731.450;  167.050;    0.000
379.161; 1673.450;  130.050;    0.000
379.221; 1752.450;  169.050;    0.000
379.281; 1848.450;  162.050;    0.000
379.341; 1813.450;  134.050;    0.000
379.401; 1735.450;  151.050;    0.000
379.460; 1814.450;  190.050;    0.000
379.520; 1727.450;  158.050;    0.000
379.580; 1755.450;  162.050;    0.000
379.640; 1680.450;  146.050;    0.000
379.700; 1773.450;  167.050;    0.000
379.759; 1746.450;  194.050;    0.000
379.819; 1793.450;  176.050;    0.000
379.879; 1731.450;  140.050;    0.000
379.939; 1889.450;  184.050;    0.000
379.999; 1764.450;  165.050;    0.000
380.058; 1888.450;  194.050;    0.000
380.118; 1836.450;  137.050;    0.000
380.178; 1879.450;  139.050;    0.000
380.237; 1916.450;  139.050;    0.000
380.297; 1807.450;  160.050;    0.000
380.357; 1873.450;  194.050;    0.000
380.417; 1875.450;  174.050;    0.000
380.476; 1937.450;  153.050;    0.000
380.536; 1861.450;  169.050;    0.000
380.596; 1829.450;  159.050;    0.000
380.655; 1914.450;  178.050;    0.000
380.715; 1925.450;  196.050;    0.000
380.775; 1912.450;  202.050;    0.000
380.834; 1972.450;  186.050;    0.000
380.894; 1942.450;  167.050;    0.000
380.954; 1892.450;  150.050;    0.000
381.013; 1944.450;  187.050;    0.000
381.073; 1923.450;  114.050;    0.000
381.132; 1931.450;  176.050;    0.000
381.192; 1900.450;  197.050;    0.000
381.252; 1945.450;  172.050;    0.000
381.311; 1947.450;  155.050;    0.000
381.371; 1941.450;  172.050;    0.000
381.430; 1987.450;  143.050;    0.000
381.490; 2025.450;  136.050;    0.000
381.549; 1958.450;  131.050;    0.000
381.609; 2025.450;  203.050;    0.000
381.668; 1980.450;  135.050;    0.000
381.728; 2009.450;  163.050;    0.000
381.787; 2040.450;  195.050;    0.000
381.847; 2070.450;  185.050;    0.000
381.906; 2028.450;  187.050;    0.000
381.966; 2145.450;  153.050;    0.000
382.025; 2162.450;  175.050;    0.000
382.085; 2167.450;  195.050;    0.000
382.144; 2248.450;  210.050;    0.000
382.204; 2189.450;  201.050;    0.000
382.263; 2206.450;  178.050;    0.000
382.323; 2266.450;  151.050;    0.000
382.382; 2323.450;  147.050;    0.000
382.441; 2253.450;  144.050;    0.000
382.501; 2334.450;  156.050;    0.000
382.560; 2392.450;  160.050;    0.000
382.619; 2422.450;  173.050;    0.000
382.679; 2563.450;  167.050;    0.000
382.738; 2632.450;  189.050;    0.000
382.798; 2868.450;  181.050;    0.000
382.857; 2893.450;  161.050;    0.000
382.916; 3296.450;  162.050;    0.000
382.976; 3347.450;  169.050;    0.000
383.035; 3189.450;  174.050;    0.000
383.094; 3347.450;  178.050;    0.000
383.154; 3688.450;  188.050;    0.000
383.213; 4175.450;  162.050;    0.000
383.272; 3987.450;  144.050;    0.000
383.331; 3350.450;  144.050;    0.000
383.391; 3085.450;  198.050;    0.000
383.450; 3051.450;  185.050;    0.000
383.509; 3041.450;  132.050;    0.000
383.568; 3167.450;  171.050;    0.000
383.628; 3268.450;  171.050;    0.000
383.687; 3600.450;  172.050;    0.000
383.746; 4065.450;  144.050;    0.000
383.805; 4666.450;  177.050;    0.000
383.864; 4637.450;  145.050;    0.000
383.924; 3789.450;  203.050;    0.000
383.983; 3147.450;  153.050;    0.000
384.042; 2790.450;  171.050;    0.000
384.101; 2700.450;  186.050;    0.000
384.160; 2556.450;  132.050;    0.000
384.219; 2442.450;  157.050;    0.000
384.279; 2433.450;  166.050;    0.000
384.338; 2486.450;  141.050;    0.000
384.397; 2325.450;  142.050;    0.000
384.456; 2321.450;  155.050;    0.000
384.515; 2296.450;  158.050;    0.000
384.574; 2230.450;  208.050;    0.000
384.633; 2272.450;  158.050;    0.000
384.692; 2240.450;  162.050;    0.000
384.751; 2270.450;  179.050;    0.000
384.810; 2229.450;  150.050;    0.000
384.869; 2160.450;  147.050;    0.000
384.929; 2217.450;  132.050;    0.000
384.988; 2219.450;  166.050;    0.000
385.047; 2188.450;  161.050;    0.000
385.106; 2168.450;  180.050;    0.000
385.165; 2111.450;  123.050;    0.000
385.224; 2186.450;  153.050;    0.000
385.283; 2211.450;  158.050;    0.000
385.342; 2201.450;  184.050;    0.000
385.401; 2179.450;  191.050;    0.000
385.459; 2189.450;  143.050;    0.000
385.518; 2138.450;  152.050;    0.000
385.577; 2175.450;  134.050;    0.000
385.636; 2176.450;  187.050;    0.000
385.695; 2109.450;  141.050;    0.000
385.754; 2178.450;  143.050;    0.000
385.813; 2180.450;  145.050;    0.000
385.872; 2101.450;  116.050;    0.000
385.931; 2195.450;  147.050;    0.000
385.990; 2182.450;  170.050;    0.000
386.049; 2162.450;  189.050;    0.000
386.107; 2115.450;  122.050;    0.000
386.166; 2170.450;  155.050;    0.000
386.225; 2141.450;  173.050;    0.000
386.284; 2124.450;  138.050;    0.000
386.343; 2214.450;  216.050;    0.000
386.402; 2155.450;  162.050;    0.000
386.460; 2230.450;  131.050;    0.000
386.519; 2108.450;  122.050;    0.000
386.578; 2097.450;  140.050;    0.000
386.637; 2148.450;  169.050;    0.000
386.696; 2171.450;  176.050;    0.000
386.754; 2088.450;  127.050;    0.000
386.813; 2141.450;  138.050;    0.000
386.872; 2110.450;  135.050;    0.000
386.931; 2163.450;  170.050;    0.000
386.989; 2217.450;  167.050;    0.000
387.048; 2111.450;  131.050;    0.000
387.107; 2230.450;  176.050;    0.000
387.165; 2082.450;  139.050;    0.000
387.224; 2159.450;  150.050;    0.000
387.283; 2124.450;  169.050;    0.000
387.342; 2169.450;  191.050;    0.000
387.400; 2126.450;  131.050;    0.000
387.459; 2078.450;  139.050;    0.000
387.517; 2149.450;  214.050;    0.000
387.576; 2097.450;  146.050;    0.000
387.635; 2162.450;  161.050;    0.000
387.693; 2164.450;  197.050;    0.000
387.752; 2144.450;  159.050;    0.000
387.811; 2084.450;  144.050;    0.000
387.869; 2164.450;  172.050;    0.000
387.928; 2088.450;  160.050;    0.000
387.986; 2081.450;  192.050;    0.000
388.045; 2035.450;  121.050;    0.000
388.103; 2099.450;  129.050;    0.000
388.162; 2127.450;  169.050;    0.000
388.221; 2037.450;  171.050;    0.000
388.279; 2054.450;  135.050;    0.000
388.338; 2135.450;  222.050;    0.000
388.396; 2131.450;  168.050;    0.000
388.455; 2057.450;  178.050;    0.000
388.513; 2030.450;  151.050;    0.000
388.572; 2148.450;  147.050;    0.000
388.630; 2097.450;  158.050;    0.000
388.689; 2087.450;  163.050;    0.000
388.747; 2112.450;  180.050;    0.000
388.806; 2054.450;  119.050;    0.000
388.864; 2017.450;  159.050;    0.000
388.922; 2086.450;  152.050;    0.000
388.981; 2031.450;  125.050;    0.000
389.039; 2123.450;  151.050;    0.000
389.098; 2100.450;  151.050;    0.000
389.156; 2106.450;  175.050;    0.000
389.214; 2110.450;  133.050;    0.000
389.273; 2143.450;  142.050;    0.000
389.331; 2113.450;  179.050;    0.000
389.390; 2129.450;  179.050;    0.000
389.448; 2164.450;  159.050;    0.000
389.506; 2080.450;  140.050;    0.000
389.565; 2083.450;  160.050;    0.000
389.623; 2106.450;  181.050;    0.000
389.681; 2144.450;  181.050;    0.000
389.740; 2137.450;  187.050;    0.000
389.798; 2067.450;  163.050;    0.000
389.856; 2029.450;  185.050;    0.000
389.914; 2134.450;  170.050;    0.000
389.973; 2055.450;  150.050;    0.000
390.031; 2114.450;  149.050;    0.000
390.089; 2181.450;  191.050;    0.000
390.147; 1984.450;  126.050;    0.000
390.206; 2084.450;  174.050;    0.000
390.264; 2051.450;  164.050;    0.000
390.322; 2076.450;  150.050;    0.000
390.380; 2132.450;  137.050;    0.000
390.439; 2067.450;  176.050;    0.000
390.497; 2091.450;  188.050;    0.000
390.555; 2125.450;  143.050;    0.000
390.613; 2153.450;  174.050;    0.000
390.671; 2113.450;  208.050;    0.000
390.729; 2081.450;  135.050;    0.000
390.788; 2179.450;  169.050;    0.000
390.846; 2128.450;  173.050;    0.000
390.904; 2192.450;  176.050;    0.000
390.962; 2122.450;  179.050;    0.000
391.020; 2104.450;  201.050;    0.000
391.078; 2083.450;  192.050;    0.000
391.136; 2163.450;  170.050;    0.000
391.194; 2133.450;  163.050;    0.000
391.253; 2198.450;  203.050;    0.000
391.311; 2205.450;  170.050;    0.000
391.369; 2121.450;  191.050;    0.000
391.427; 2185.450;  226.050;    0.000
391.485; 2192.450;  181.050;    0.000
391.543; 2236.450;  177.050;    0.000
391.601; 2194.450;  150.050;    0.000
391.659; 2178.450;  201.050;    0.000
391.717; 2150.450;  166.050;    0.000
391.775; 2121.450;  200.050;    0.000
391.833; 2159.450;  180.050;    0.000
391.891; 2244.450;  172.050;    0.000
391.949; 2144.450;  174.050;    0.000
392.007; 2238.450;  194.050;    0.000
392.065; 2208.450;  161.050;    0.000
392.123; 2259.450;  159.050;    0.000
392.180; 2171.450;  193.050;    0.000
392.238; 2191.450;  188.050;    0.000
392.296; 2166.450;  206.050;    0.000
392.354; 2253.450;  170.050;    0.000
392.412; 2199.450;  207.050;    0.000
392.470; 2211.450;  168.050;    0.000
392.528; 2279.450;  185.050;    0.000
392.586; 2232.450;  154.050;    0.000
392.644; 2238.450;  190.050;    0.000
392.701; 2261.450;  195.050;    0.000
392.759; 2211.450;  229.050;    0.000
392.817; 2263.450;  176.050;    0.000
392.875; 2237.450;  198.050;    0.000
392.933; 2232.450;  174.050;    0.000
392.991; 2332.450;  237.050;    0.000
393.048; 2269.450;  212.050;    0.000
393.106; 2291.450;  191.050;    0.000
393.164; 2268.450;  136.050;    0.000
393.222; 2243.450;  164.050;    0.000
393.279; 2367.450;  208.050;    0.000
393.337; 2342.450;  203.050;    0.000
393.395; 2345.450;  191.050;    0.000
393.453; 2303.450;  153.050;    0.000
393.510; 2337.450;  171.050;    0.000
393.568; 2283.450;  203.050;    0.000
393.626; 2312.450;  169.050;    0.000
393.684; 2218.450;  201.050;    0.000
393.741; 2359.450;  172.050;    0.000
393.799; 2188.450;  149.050;    0.000
393.857; 2325.450;  151.050;    0.000
393.914; 2251.450;  192.050;    0.000
393.972; 2288.450;  176.050;    0.000
394.030; 2297.450;  165.050;    0.000
394.087; 2243.450;  192.050;    0.000
394.145; 2294.450;  183.050;    0.000
394.202; 2277.450;  161.050;    0.000
394.260; 2337.450;  135.050;    0.000
394.318; 2262.450;  188.050;    0.000
394.375; 2313.450;  163.050;    0.000
394.433; 2398.450;  151.050;    0.000
394.490; 2308.450;  190.050;    0.000
394.548; 2246.450;  157.050;    0.000
394.605; 2320.450;  205.050;    0.000
394.663; 2304.450;  173.050;    0.000
394.720; 2274.450;  171.050;    0.000
394.778; 2329.450;  190.050;    0.000
394.836; 2308.450;  134.050;    0.000
394.893; 2365.450;  142.050;    0.000
394.951; 2353.450;  192.050;    0.000
395.008; 2326.450;  149.050;    0.000
395.065; 2314.450;  194.050;    0.000
395.123; 2337.450;  160.050;    0.000
395.180; 2330.450;  178.050;    0.000
395.238; 2326.450;  191.050;    0.000
395.295; 2382.450;  160.050;    0.000
395.353; 2358.450;  162.050;    0.000
395.410; 2464.450;  165.050;    0.000
395.468; 2422.450;  190.050;    0.000
395.525; 2416.450;  173.050;    0.000
395.582; 2442.450;  161.050;    0.000
395.640; 2438.450;  200.050;    0.000
395.697; 2409.450;  198.050;    0.000
395.754; 2436.450;  136.050;    0.000
395.812; 2433.450;  172.050;    0.000
395.869; 2376.450;  172.050;    0.000
395.927; 2474.450;  145.050;    0.000
395.984; 2466.450;  220.050;    0.000
396.041; 2343.450;  137.050;    0.000
396.098; 2418.450;  161.050;    0.000
396.156; 2449.450;  159.050;    0.000
396.213; 2474.450;  200.050;    0.000
396.270; 2472.450;  209.050;    0.000
396.328; 2413.450;  162.050;    0.000
396.385; 2426.450;  186.050;    0.000
396.442; 2362.450;  177.050;    0.000
396.499; 2394.450;  183.050;    0.000
396.557; 2441.450;  182.050;    0.000
396.614; 2382.450;  186.050;    0.000
396.671; 2456.450;  144.050;    0.000
396.728; 2510.450;  176.050;    0.000
396.785; 2500.450;  169.050;    0.000
396.843; 2588.450;  134.050;    0.000
396.900; 2538.450;  184.050;    0.000
396.957; 2495.450;  197.050;    0.000
397.014; 2500.450;  187.050;    0.000
397.071; 2521.450;  186.050;    0.000
397.128; 2547.450;  200.050;    0.000
397.186; 2452.450;  175.050;    0.000
397.243; 2497.450;  154.050;    0.000
397.300; 2637.450;  191.050;    0.000
397.357; 2474.450;  238.050;    0.000
397.414; 2509.450;  161.050;    0.000
397.471; 2575.450;  135.050;    0.000
397.528; 2592.450;  158.050;    0.000
397.585; 2518.450;  159.050;    0.000
397.642; 2570.450;  180.050;    0.000
397.699; 2476.450;  170.050;    0.000
397.756; 2509.450;  175.050;    0.000
397.814; 2557.450;  182.050;    0.000
397.871; 2634.450;  173.050;    0.000
397.928; 2556.450;  173.050;    0.000
397.985; 2617.450;  176.050;    0.000
398.042; 2588.450;  189.050;    0.000
398.099; 2582.450;  160.050;    0.000
398.156; 2630.450;  218.050;    0.000
398.212; 2553.450;  194.050;    0.000
398.269; 2674.450;  199.050;    0.000
398.326; 2657.450;  188.050;    0.000
398.383; 2614.450;  187.050;    0.000
398.440; 2678.450;  174.050;    0.000
398.497; 2570.450;  214.050;    0.000
398.554; 2692.450;  181.050;    0.000
398.611; 2788.450;  195.050;    0.000
398.668; 2598.450;  145.050;    0.000
398.725; 2660.450;  178.050;    0.000
398.782; 2728.450;  210.050;    0.000
398.839; 2741.450;  216.050;    0.000
398.895; 2755.450;  189.050;    0.000
398.952; 2822.450;  206.050;    0.000
399.009; 2777.450;  142.050;    0.000
399.066; 2789.450;  192.050;    0.000
399.123; 2832.450;  181.050;    0.000
399.180; 2879.450;  200.050;    0.000
399.236; 2854.450;  156.050;    0.000
399.293; 2976.450;  194.050;    0.000
399.350; 2932.450;  167.050;    0.000
399.407; 3001.450;  192.050;    0.000
399.463; 3039.450;  161.050;    0.000
399.520; 3026.450;  149.050;    0.000
399.577; 3065.450;  156.050;    0.000
399.634; 3141.450;  195.050;    0.000
399.690; 3034.450;  163.050;    0.000
399.747; 3097.450;  192.050;    0.000
399.804; 3100.450;  212.050;    0.000
399.861; 3096.450;  203.050;    0.000
399.917; 3058.450;  221.050;    0.000
399.974; 2958.450;  221.050;    0.000
400.031; 3070.450;  195.050;    0.000
400.087; 3101.450;  159.050;    0.000
400.144; 3057.450;  201.050;    0.000
400.201; 2988.450;  206.050;    0.000
400.257; 2990.450;  168.050;    0.000
400.314; 2948.450;  183.050;    0.000
400.370; 2856.450;  209.050;    0.000
400.427; 3000.450;  192.050;    0.000
400.484; 2829.450;  150.050;    0.000
400.540; 2946.450;  213.050;    0.000
400.597; 2897.450;  161.050;    0.000
400.653; 2961.450;  170.050;    0.000
400.710; 2877.450;  173.050;    0.000
400.766; 2916.450;  204.050;    0.000
400.823; 2882.450;  194.050;    0.000
400.879; 2988.450;  188.050;    0.000
400.936; 2838.450;  172.050;    0.000
400.993; 2778.450;  154.050;    0.000
401.049; 2827.450;  157.050;    0.000
401.105; 2868.450;  214.050;    0.000
401.162; 2929.450;  195.050;    0.000
401.218; 2932.450;  195.050;    0.000
401.275; 2860.450;  182.050;    0.000
401.331; 2821.450;  188.050;    0.000
401.388; 2953.450;  194.050;    0.000
401.444; 2876.450;  175.050;    0.000
401.501; 2809.450;  169.050;    0.000
401.557; 2923.450;  176.050;    0.000
401.614; 2826.450;  153.050;    0.000
401.670; 2752.450;  178.050;    0.000
401.726; 2807.450;  179.050;    0.000
401.783; 2860.450;  198.050;    0.000
401.839; 2835.450;  179.050;    0.000
401.895; 2802.450;  154.050;    0.000
401.952; 2881.450;  138.050;    0.000
402.008; 2767.450;  135.050;    0.000
402.064; 2713.450;  154.050;    0.000
402.121; 2859.450;  199.050;    0.000
402.177; 2880.450;  126.050;    0.000
402.233; 2874.450;  190.050;    0.000
402.290; 2857.450;  175.050;    0.000
402.346; 2800.450;  200.050;    0.000
402.402; 2973.450;  191.050;    0.000
402.458; 2873.450;  172.050;    0.000
402.515; 2838.450;  186.050;    0.000
402.571; 2986.450;  189.050;    0.000
402.627; 2819.450;  151.050;    0.000
402.683; 2958.450;  187.050;    0.000
402.740; 2874.450;  147.050;    0.000
402.796; 2892.450;  176.050;    0.000
402.852; 2868.450;  200.050;    0.000
402.908; 2815.450;  201.050;    0.000
402.964; 2950.450;  153.050;    0.000
403.021; 2868.450;  165.050;    0.000
403.077; 2857.450;  195.050;    0.000
403.133; 2903.450;  139.050;    0.000
403.189; 2903.450;  166.050;    0.000
403.245; 3002.450;  194.050;    0.000
403.301; 2989.450;  210.050;    0.000
403.357; 3056.450;  187.050;    0.000
403.414; 2993.450;  195.050;    0.000
403.470; 2965.450;  150.050;    0.000
403.526; 2972.450;  158.050;    0.000
403.582; 2930.450;  184.050;    0.000
403.638; 3101.450;  171.050;    0.000
403.694; 2954.450;  197.050;    0.000
403.750; 2980.450;  196.050;    0.000
403.806; 2953.450;  192.050;    0.000
403.862; 3052.450;  169.050;    0.000
403.918; 2914.450;  199.050;    0.000
403.974; 3022.450;  156.050;    0.000
404.030; 3013.450;  193.050;    0.000
404.086; 2960.450;  161.050;    0.000
404.142; 2967.450;  172.050;    0.000
404.198; 2932.450;  195.050;    0.000
404.254; 3042.450;  167.050;    0.000
404.310; 3036.450;  156.050;    0.000
404.366; 3059.450;  144.050;    0.000
404.422; 3113.450;  161.050;    0.000
404.478; 2997.450;  179.050;    0.000
404.534; 2992.450;  163.050;    0.000
404.590; 3117.450;  183.050;    0.000
404.646; 2977.450;  155.050;    0.000
404.701; 3030.450;  142.050;    0.000
404.757; 3042.450;  175.050;    0.000
404.813; 3097.450;  153.050;    0.000
404.869; 3042.450;  199.050;    0.000
404.925; 3112.450;  153.050;    0.000
404.981; 3060.450;  174.050;    0.000
405.037; 3090.450;  185.050;    0.000
405.092; 2996.450;  166.050;    0.000
405.148; 2900.450;  161.050;    0.000
405.204; 3053.450;  170.050;    0.000
405.260; 3035.450;  154.050;    0.000
405.316; 3040.450;  128.050;    0.000
405.371; 3119.450;  142.050;    0.000
405.427; 3071.450;  196.050;    0.000
405.483; 3160.450;  172.050;    0.000
405.539; 3089.450;  182.050;    0.000
405.594; 3125.450;  153.050;    0.000
405.650; 3105.450;  124.050;    0.000
405.706; 3139.450;  189.050;    0.000
405.761; 3177.450;  165.050;    0.000
405.817; 3138.450;  152.050;    0.000
405.873; 3214.450;  174.050;    0.000
405.928; 3104.450;  167.050;    0.000
405.984; 3189.450;  210.050;    0.000
406.040; 3126.450;  160.050;    0.000
406.095; 3114.450;  163.050;    0.000
406.151; 3112.450;  208.050;    0.000
406.207; 3199.450;  177.050;    0.000
406.262; 3082.450;  176.050;    0.000
406.318; 3166.450;  157.050;    0.000
406.374; 3114.450;  141.050;    0.000
406.429; 3217.450;  189.050;    0.000
406.485; 3249.450;  190.050;    0.000
406.540; 3182.450;  155.050;    0.000
406.596; 3264.450;  182.050;    0.000
406.651; 3322.450;  200.050;    0.000
406.707; 3170.450;  130.050;    0.000
406.763; 3392.450;  174.050;    0.000
406.818; 3372.450;  151.050;    0.000
406.874; 3307.450;  122.050;    0.000
406.929; 3412.450;  153.050;    0.000
406.985; 3422.450;  198.050;    0.000
407.040; 3369.450;  174.050;    0.000
407.095; 3359.450;  161.050;    0.000
407.151; 3479.450;  184.050;    0.000
407.206; 3441.450;  188.050;    0.000
407.262; 3498.450;  180.050;    0.000
407.317; 3512.450;  186.050;    0.000
407.373; 3455.450;  200.050;    0.000
407.428; 3519.450;  211.050;    0.000
407.484; 3558.450;  193.050;    0.000
407.539; 3484.450;  167.050;    0.000
407.594; 3631.450;  178.050;    0.000
407.650; 3485.450;  171.050;    0.000
407.705; 3513.450;  153.050;    0.000
407.760; 3586.450;  196.050;    0.000
407.816; 3575.450;  205.050;    0.000
407.871; 3625.450;  232.050;    0.000
407.926; 3510.450;  215.050;    0.000
407.982; 3594.450;  154.050;    0.000
408.037; 3552.450;  217.050;    0.000
408.092; 3511.450;  190.050;    0.000
408.148; 3522.450;  181.050;    0.000
408.203; 3428.450;  203.050;    0.000
408.258; 3388.450;  154.050;    0.000
408.314; 3545.450;  198.050;    0.000
408.369; 3423.450;  156.050;    0.000
408.424; 3410.450;  216.050;    0.000
408.479; 3495.450;  191.050;    0.000
408.534; 3429.450;  200.050;    0.000
408.590; 3372.450;  182.050;    0.000
408.645; 3375.450;  141.050;    0.000
408.700; 3432.450;  209.050;    0.000
408.755; 3377.450;  205.050;    0.000
408.810; 3318.450;  171.050;    0.000
408.866; 3429.450;  200.050;    0.000
408.921; 3363.450;  188.050;    0.000
408.976; 3307.450;  156.050;    0.000
409.031; 3468.450;  164.050;    0.000
409.086; 3398.450;  155.050;    0.000
409.141; 3418.450;  205.050;    0.000
409.196; 3419.450;  173.050;    0.000
409.252; 3339.450;  179.050;    0.000
409.307; 3351.450;  131.050;    0.000
409.362; 3414.450;  173.050;    0.000
409.417; 3406.450;  120.050;    0.000
409.472; 3385.450;  198.050;    0.000
409.527; 3349.450;  153.050;    0.000
409.582; 3429.450;  177.050;    0.000
409.637; 3372.450;  184.050;    0.000
409.692; 3396.450;  203.050;    0.000
409.747; 3296.450;  158.050;    0.000
409.802; 3336.450;  212.050;    0.000
409.857; 3298.450;  192.050;    0.000
409.912; 3287.450;  179.050;    0.000
409.967; 3195.450;  177.050;    0.000
410.022; 3403.450;  204.050;    0.000
410.077; 3315.450;  175.050;    0.000
410.132; 3436.450;  207.050;    0.000
410.187; 3411.450;  169.050;    0.000
410.242; 3359.450;  186.050;    0.000
410.297; 3371.450;  185.050;    0.000
410.351; 3415.450;  191.050;    0.000
410.406; 3429.450;  215.050;    0.000
410.461; 3427.450;  190.050;    0.000
410.516; 3379.450;  172.050;    0.000
410.571; 3335.450;  190.050;    0.000
410.626; 3343.450;  189.050;    0.000
410.681; 3420.450;  191.050;    0.000
410.736; 3421.450;  166.050;    0.000
410.790; 3393.450;  179.050;    0.000
410.845; 3395.450;  196.050;    0.000
410.900; 3451.450;  168.050;    0.000
410.955; 3387.450;  173.050;    0.000
411.010; 3402.450;  162.050;    0.000
411.064; 3376.450;  205.050;    0.000
411.119; 3433.450;  203.050;    0.000
411.174; 3393.450;  207.050;    0.000
411.229; 3443.450;  218.050;    0.000
411.283; 3434.450;  218.050;    0.000
411.338; 3457.450;  180.050;    0.000
411.393; 3306.450;  191.050;    0.000
411.447; 3334.450;  207.050;    0.000
411.502; 3397.450;  204.050;    0.000
411.557; 3386.450;  208.050;    0.000
411.612; 3372.450;  191.050;    0.000
411.666; 3482.450;  233.050;    0.000
411.721; 3374.450;  193.050;    0.000
411.776; 3380.450;  195.050;    0.000
411.830; 3466.450;  229.050;    0.000
411.885; 3393.450;  181.050;    0.000
411.939; 3508.450;  214.050;    0.000
411.994; 3320.450;  140.050;    0.000
412.049; 3401.450;  205.050;    0.000
412.103; 3444.450;  232.050;    0.000
412.158; 3412.450;  228.050;    0.000
412.212; 3451.450;  204.050;    0.000
412.267; 3373.450;  203.050;    0.000
412.322; 3428.450;  212.050;    0.000
412.376; 3405.450;  195.050;    0.000
412.431; 3361.450;  197.050;    0.000
412.485; 3349.450;  235.050;    0.000
412.540; 3318.450;  197.050;    0.000
412.594; 3387.450;  199.050;    0.000
412.649; 3374.450;  195.050;    0.000
412.703; 3386.450;  214.050;    0.000
412.758; 3398.450;  213.050;    0.000
412.812; 3332.450;  154.050;    0.000
412.866; 3389.450;  159.050;    0.000
412.921; 3346.450;  207.050;    0.000
412.975; 3358.450;  194.050;    0.000
413.030; 3398.450;  214.050;    0.000
413.084; 3325.450;  174.050;    0.000
413.139; 3346.450;  211.050;    0.000
413.193; 3320.450;  223.050;    0.000
413.247; 3286.450;  198.050;    0.000
413.302; 3350.450;  184.050;    0.000
413.356; 3346.450;  194.050;    0.000
413.410; 3340.450;  219.050;    0.000
413.465; 3275.450;  209.050;    0.000
413.519; 3338.450;  178.050;    0.000
413.573; 3352.450;  189.050;    0.000
413.628; 3414.450;  184.050;    0.000
413.682; 3347.450;  189.050;    0.000
413.736; 3333.450;  196.050;    0.000
413.791; 3372.450;  208.050;    0.000
413.845; 3361.450;  206.050;    0.000
413.899; 3358.450;  193.050;    0.000
413.953; 3395.450;  176.050;    0.000
414.008; 3300.450;  163.050;    0.000
414.062; 3313.450;  195.050;    0.000
414.116; 3358.450;  176.050;    0.000
414.170; 3324.450;  218.050;    0.000
414.225; 3325.450;  183.050;    0.000
414.279; 3357.450;  191.050;    0.000
414.333; 3486.450;  215.050;    0.000
414.387; 3304.450;  187.050;    0.000
414.441; 3297.450;  182.050;    0.000
414.496; 3338.450;  205.050;    0.000
414.550; 3332.450;  203.050;    0.000
414.604; 3356.450;  223.050;    0.000
414.658; 3415.450;  159.050;    0.000
414.712; 3370.450;  194.050;    0.000
414.766; 3382.450;  232.050;    0.000
414.820; 3431.450;  235.050;    0.000
414.874; 3471.450;  169.050;    0.000
414.928; 3419.450;  207.050;    0.000
414.982; 3392.450;  174.050;    0.000
415.037; 3400.450;  173.050;    0.000
415.091; 3369.450;  219.050;    0.000
415.145; 3437.450;  174.050;    0.000
415.199; 3407.450;  207.050;    0.000
415.253; 3441.450;  228.050;    0.000
415.307; 3283.450;  182.050;    0.000
415.361; 3442.450;  219.050;    0.000
415.415; 3342.450;  218.050;    0.000
415.469; 3357.450;  233.050;    0.000
415.523; 3384.450;  203.050;    0.000
415.577; 3359.450;  186.050;    0.000
415.631; 3406.450;  215.050;    0.000
415.684; 3434.450;  212.050;    0.000
415.738; 3390.450;  206.050;    0.000
415.792; 3467.450;  219.050;    0.000
415.846; 3387.450;  208.050;    0.000
415.900; 3376.450;  203.050;    0.000
415.954; 3328.450;  237.050;    0.000
416.008; 3358.450;  242.050;    0.000
416.062; 3307.450;  197.050;    0.000
416.116; 3487.450;  189.050;    0.000
416.169; 3381.450;  199.050;    0.000
416.223; 3437.450;  230.050;    0.000
416.277; 3280.450;  226.050;    0.000
416.331; 3359.450;  254.050;    0.000
416.385; 3321.450;  204.050;    0.000
416.439; 3474.450;  201.050;    0.000
416.492; 3348.450;  238.050;    0.000
416.546; 3475.450;  234.050;    0.000
416.600; 3353.450;  244.050;    0.000
416.654; 3424.450;  233.050;    0.000
416.707; 3304.450;  214.050;    0.000
416.761; 3327.450;  214.050;    0.000
416.815; 3385.450;  192.050;    0.000
416.869; 3344.450;  225.050;    0.000
416.922; 3419.450;  214.050;    0.000
416.976; 3283.450;  206.050;    0.000
417.030; 3367.450;  226.050;    0.000
417.083; 3368.450;  207.050;    0.000
417.137; 3349.450;  236.050;    0.000
417.191; 3343.450;  208.050;    0.000
417.244; 3385.450;  260.050;    0.000
417.298; 3373.450;  222.050;    0.000
417.352; 3233.450;  191.050;    0.000
417.405; 3400.450;  229.050;    0.000
417.459; 3329.450;  249.050;    0.000
417.512; 3344.450;  259.050;    0.000
417.566; 3378.450;  220.050;    0.000
417.620; 3400.450;  229.050;    0.000
417.673; 3413.450;  190.050;    0.000
417.727; 3432.450;  204.050;    0.000
417.780; 3413.450;  223.050;    0.000
417.834; 3442.450;  213.050;    0.000
417.887; 3229.450;  238.050;    0.000
417.941; 3364.450;  244.050;    0.000
417.994; 3359.450;  247.050;    0.000
418.048; 3306.450;  225.050;    0.000
418.101; 3286.450;  210.050;    0.000
418.155; 3492.450;  224.050;    0.000
418.208; 3453.450;  229.050;    0.000
418.262; 3393.450;  255.050;    0.000
418.315; 3440.450;  248.050;    0.000
418.369; 3386.450;  212.050;    0.000
418.422; 3435.450;  241.050;    0.000
418.476; 3434.450;  220.050;    0.000
418.529; 3372.450;  257.050;    0.000
418.582; 3359.450;  203.050;    0.000
418.636; 3346.450;  221.050;    0.000
418.689; 3383.450;  202.050;    0.000
418.743; 3372.450;  227.050;    0.000
418.796; 3327.450;  226.050;    0.000
418.849; 3375.450;  199.050;    0.000
418.903; 3348.450;  234.050;    0.000
418.956; 3435.450;  236.050;    0.000
419.009; 3481.450;  305.050;    0.000
419.063; 3239.450;  216.050;    0.000
419.116; 3311.450;  245.050;    0.000
419.169; 3375.450;  208.050;    0.000
419.222; 3345.450;  233.050;    0.000
419.276; 3364.450;  244.050;    0.000
419.329; 3321.450;  197.050;    0.000
419.382; 3269.450;  222.050;    0.000
419.435; 3225.450;  199.050;    0.000
419.489; 3346.450;  226.050;    0.000
419.542; 3377.450;  223.050;    0.000
419.595; 3320.450;  204.050;    0.000
419.648; 3416.450;  234.050;    0.000
419.701; 3188.450;  211.050;    0.000
419.755; 3266.450;  184.050;    0.000
419.808; 3278.450;  223.050;    0.000
419.861; 3113.450;  197.050;    0.000
419.914; 3337.450;  258.050;    0.000
419.967; 3271.450;  205.050;    0.000
420.020; 3314.450;  195.050;    0.000
420.073; 3390.450;  191.050;    0.000
420.127; 3198.450;  256.050;    0.000
420.180; 3312.450;  232.050;    0.000
420.233; 3261.450;  200.050;    0.000
420.286; 3158.450;  207.050;    0.000
420.339; 3284.450;  223.050;    0.000
420.392; 3224.450;  243.050;    0.000
420.445; 3257.450;  195.050;    0.000
420.498; 3172.450;  239.050;    0.000
420.551; 3182.450;  201.050;    0.000
420.604; 3179.450;  245.050;    0.000
420.657; 3153.450;  221.050;    0.000
420.710; 3266.450;  223.050;    0.000
420.763; 3227.450;  241.050;    0.000
420.816; 3112.450;  198.050;    0.000
420.869; 3107.450;  210.050;    0.000
420.922; 3200.450;  206.050;    0.000
420.975; 3156.450;  239.050;    0.000
421.028; 3179.450;  248.050;    0.000
421.081; 3189.450;  236.050;    0.000
421.134; 3179.450;  208.050;    0.000
421.187; 3137.450;  216.050;    0.000
421.239; 3157.450;  199.050;    0.000
421.292; 3103.450;  255.050;    0.000
421.345; 3208.450;  241.050;    0.000
421.398; 3189.450;  221.050;    0.000
421.451; 3134.450;  237.050;    0.000
421.504; 3090.450;  225.050;    0.000
421.557; 3123.450;  213.050;    0.000
421.609; 3065.450;  178.050;    0.000
421.662; 3078.450;  206.050;    0.000
421.715; 3080.450;  212.050;    0.000
421.768; 3072.450;  236.050;    0.000
421.821; 3095.450;  228.050;    0.000
421.873; 3006.450;  200.050;    0.000
421.926; 3122.450;  226.050;    0.000
421.979; 3099.450;  221.050;    0.000
422.032; 3167.450;  219.050;    0.000
422.084; 3165.450;  253.050;    0.000
422.137; 3110.450;  195.050;    0.000
422.190; 3066.450;  192.050;    0.000
422.243; 3115.450;  236.050;    0.000
422.295; 3169.450;  205.050;    0.000
422.348; 3092.450;  198.050;    0.000
422.401; 3070.450;  245.050;    0.000
422.453; 3098.450;  241.050;    0.000
422.506; 3039.450;  255.050;    0.000
422.559; 3010.450;  188.050;    0.000
422.611; 3191.450;  236.050;    0.000
422.664; 3244.450;  218.050;    0.000
422.716; 3128.450;  210.050;    0.000
422.769; 3181.450;  209.050;    0.000
422.822; 3126.450;  213.050;    0.000
422.874; 3041.450;  227.050;    0.000
422.927; 3063.450;  272.050;    0.000
422.979; 3055.450;  204.050;    0.000
423.032; 3068.450;  210.050;    0.000
423.084; 3004.450;  236.050;    0.000
423.137; 3018.450;  223.050;    0.000
423.189; 3143.450;  253.050;    0.000
423.242; 3081.450;  185.050;    0.000
423.294; 3055.450;  232.050;    0.000
423.347; 3003.450;  213.050;    0.000
423.399; 3140.450;  227.050;    0.000
423.452; 3089.450;  236.050;    0.000
423.504; 3144.450;  232.050;    0.000
423.557; 2995.450;  195.050;    0.000
423.609; 3149.450;  238.050;    0.000
423.662; 3093.450;  207.050;    0.000
423.714; 3030.450;  231.050;    0.000
423.766; 3039.450;  211.050;    0.000
423.819; 3025.450;  207.050;    0.000
423.871; 3044.450;  228.050;    0.000
423.923; 3092.450;  223.050;    0.000
423.976; 3076.450;  217.050;    0.000
424.028; 2959.450;  231.050;    0.000
424.081; 2972.450;  219.050;    0.000
424.133; 3067.450;  255.050;    0.000
424.185; 3127.450;  199.050;    0.000
424.238; 3029.450;  238.050;    0.000
424.290; 2943.450;  209.050;    0.000
424.342; 3001.450;  213.050;    0.000
424.394; 3079.450;  215.050;    0.000
424.447; 2951.450;  265.050;    0.000
424.499; 2930.450;  238.050;    0.000
424.551; 2975.450;  256.050;    0.000
424.603; 2976.450;  222.050;    0.000
424.656; 2993.450;  227.050;    0.000
424.708; 2945.450;  250.050;    0.000
424.760; 2970.450;  228.050;    0.000
424.812; 3015.450;  249.050;    0.000
424.864; 2975.450;  222.050;    0.000
424.917; 2952.450;  235.050;    0.000
424.969; 3062.450;  266.050;    0.000
425.021; 2892.450;  233.050;    0.000
425.073; 3017.450;  194.050;    0.000
425.125; 3019.450;  256.050;    0.000
425.177; 2901.450;  225.050;    0.000
425.229; 2914.450;  242.050;    0.000
425.282; 2829.450;  236.050;    0.000
425.334; 2910.450;  250.050;    0.000
425.386; 2891.450;  231.050;    0.000
425.438; 2926.450;  216.050;    0.000
425.490; 2888.450;  240.050;    0.000
425.542; 3076.450;  231.050;    0.000
425.594; 2822.450;  206.050;    0.000
425.646; 2929.450;  201.050;    0.000
425.698; 2882.450;  193.050;    0.000
425.750; 2885.450;  241.050;    0.000
425.802; 2921.450;  199.050;    0.000
425.854; 2988.450;  216.050;    0.000
425.906; 2932.450;  220.050;    0.000
425.958; 2904.450;  200.050;    0.000
426.010; 2932.450;  214.050;    0.000
426.062; 2980.450;  245.050;    0.000
426.114; 2931.450;  241.050;    0.000
426.166; 2901.450;  241.050;    0.000
426.218; 2891.450;  255.050;    0.000
426.270; 3007.450;  228.050;    0.000
426.321; 2815.450;  222.050;    0.000
426.373; 2845.450;  218.050;    0.000
426.425; 2908.450;  258.050;    0.000
426.477; 2905.450;  225.050;    0.000
426.529; 2851.450;  223.050;    0.000
426.581; 2905.450;  198.050;    0.000
426.633; 2820.450;  228.050;    0.000
426.684; 2813.450;  210.050;    0.000
426.736; 2806.450;  208.050;    0.000
426.788; 2831.450;  231.050;    0.000
426.840; 2764.450;  212.050;    0.000
426.892; 2805.450;  221.050;    0.000
426.943; 2890.450;  240.050;    0.000
426.995; 2836.450;  243.050;    0.000
427.047; 2831.450;  231.050;    0.000
427.099; 2823.450;  189.050;    0.000
427.150; 2766.450;  212.050;    0.000
427.202; 2810.450;  219.050;    0.000
427.254; 2853.450;  203.050;    0.000
427.306; 2739.450;  217.050;    0.000
427.357; 2813.450;  232.050;    0.000
427.409; 2862.450;  251.050;    0.000
427.461; 2732.450;  185.050;    0.000
427.512; 2756.450;  239.050;    0.000
427.564; 2841.450;  208.050;    0.000
427.616; 2788.450;  233.050;    0.000
427.667; 2836.450;  223.050;    0.000
427.719; 2739.450;  206.050;    0.000
427.770; 2715.450;  195.050;    0.000
427.822; 2820.450;  223.050;    0.000
427.874; 2821.450;  232.050;    0.000
427.925; 2737.450;  209.050;    0.000
427.977; 2735.450;  208.050;    0.000
428.028; 2789.450;  187.050;    0.000
428.080; 2811.450;  209.050;    0.000
428.131; 2662.450;  237.050;    0.000
428.183; 2764.450;  200.050;    0.000
428.234; 2727.450;  215.050;    0.000
428.286; 2736.450;  229.050;    0.000
428.337; 2763.450;  206.050;    0.000
428.389; 2744.450;  216.050;    0.000
428.440; 2811.450;  287.050;    0.000
428.492; 2769.450;  269.050;    0.000
428.543; 2765.450;  234.050;    0.000
428.595; 2717.450;  214.050;    0.000
428.646; 2807.450;  229.050;    0.000
428.697; 2709.450;  249.050;    0.000
428.749; 2726.450;  250.050;    0.000
428.800; 2826.450;  242.050;    0.000
428.852; 2760.450;  232.050;    0.000
428.903; 2669.450;  196.050;    0.000
428.954; 2794.450;  226.050;    0.000
429.006; 2676.450;  232.050;    0.000
429.057; 2724.450;  188.050;    0.000
429.108; 2689.450;  237.050;    0.000
429.160; 2610.450;  221.050;    0.000
429.211; 2728.450;  222.050;    0.000
429.262; 2675.450;  215.050;    0.000
429.314; 2683.450;  225.050;    0.000
429.365; 2722.450;  220.050;    0.000
429.416; 2784.450;  242.050;    0.000
429.467; 2673.450;  220.050;    0.000
429.519; 2593.450;  217.050;    0.000
429.570; 2641.450;  248.050;    0.000
429.621; 2756.450;  233.050;    0.000
429.672; 2667.450;  220.050;    0.000
429.724; 2644.450;  179.050;    0.000
429.775; 2640.450;  218.050;    0.000
429.826; 2666.450;  197.050;    0.000
429.877; 2709.450;  206.050;    0.000
429.928; 2683.450;  229.050;    0.000
429.980; 2711.450;  207.050;    0.000
430.031; 2685.450;  264.050;    0.000
430.082; 2694.450;  210.050;    0.000
430.133; 2698.450;  218.050;    0.000
430.184; 2651.450;  246.050;    0.000
430.235; 2649.450;  201.050;    0.000
430.286; 2580.450;  207.050;    0.000
430.337; 2614.450;  224.050;    0.000
430.388; 2564.450;  216.050;    0.000
430.439; 2655.450;  210.050;    0.000
430.490; 2656.450;  208.050;    0.000
430.542; 2577.450;  211.050;    0.000
430.593; 2660.450;  203.050;    0.000
430.644; 2593.450;  235.050;    0.000
430.695; 2639.450;  200.050;    0.000
430.746; 2591.450;  215.050;    0.000
430.797; 2648.450;  235.050;    0.000
430.848; 2655.450;  197.050;    0.000
430.898; 2646.450;  209.050;    0.000
430.949; 2563.450;  231.050;    0.000
431.000; 2671.450;  227.050;    0.000
431.051; 2621.450;  225.050;    0.000
431.102; 2591.450;  180.050;    0.000
431.153; 2634.450;  248.050;    0.000
431.204; 2583.450;  185.050;    0.000
431.255; 2659.450;  199.050;    0.000
431.306; 2656.450;  228.050;    0.000
431.357; 2629.450;  237.050;    0.000
431.408; 2600.450;  223.050;    0.000
431.458; 2591.450;  240.050;    0.000
431.509; 2619.450;  207.050;    0.000
431.560; 2717.450;  219.050;    0.000
431.611; 2612.450;  206.050;    0.000
431.662; 2763.450;  253.050;    0.000
431.713; 2661.450;  199.050;    0.000
431.763; 2663.450;  197.050;    0.000
431.814; 2632.450;  205.050;    0.000
431.865; 2661.450;  218.050;    0.000
431.916; 2647.450;  202.050;    0.000
431.966; 2526.450;  203.050;    0.000
432.017; 2727.450;  244.050;    0.000
432.068; 2665.450;  246.050;    0.000
432.118; 2682.450;  212.050;    0.000
432.169; 2625.450;  214.050;    0.000
432.220; 2566.450;  241.050;    0.000
432.271; 2575.450;  237.050;    0.000
432.321; 2612.450;  246.050;    0.000
432.372; 2698.450;  257.050;    0.000
432.423; 2592.450;  198.050;    0.000
432.473; 2584.450;  202.050;    0.000
432.524; 2585.450;  242.050;    0.000
432.574; 2633.450;  202.050;    0.000
432.625; 2636.450;  212.050;    0.000
432.676; 2555.450;  242.050;    0.000
432.726; 2673.450;  268.050;    0.000
432.777; 2626.450;  228.050;    0.000
432.827; 2578.450;  230.050;    0.000
432.878; 2645.450;  221.050;    0.000
432.928; 2633.450;  218.050;    0.000
432.979; 2642.450;  243.050;    0.000
433.029; 2630.450;  217.050;    0.000
433.080; 2556.450;  208.050;    0.000
433.130; 2556.450;  236.050;    0.000
433.181; 2504.450;  282.050;    0.000
433.231; 2634.450;  257.050;    0.000
433.282; 2544.450;  268.050;    0.000
433.332; 2601.450;  241.050;    0.000
433.383; 2599.450;  271.050;    0.000
433.433; 2703.450;  262.050;    0.000
433.484; 2586.450;  266.050;    0.000
433.534; 2617.450;  217.050;    0.000
433.585; 2662.450;  230.050;    0.000
433.635; 2605.450;  245.050;    0.000
433.685; 2519.450;  250.050;    0.000
433.736; 2626.450;  308.050;    0.000
433.786; 2628.450;  242.050;    0.000
433.836; 2574.450;  256.050;    0.000
433.887; 2660.450;  250.050;    0.000
433.937; 2643.450;  250.050;    0.000
433.987; 2566.450;  219.050;    0.000
434.038; 2637.450;  248.050;    0.000
434.088; 2582.450;  231.050;    0.000
434.138; 2657.450;  266.050;    0.000
434.189; 2687.450;  240.050;    0.000
434.239; 2596.450;  245.050;    0.000
434.289; 2752.450;  285.050;    0.000
434.339; 2640.450;  255.050;    0.000
434.389; 2646.450;  242.050;    0.000
434.440; 2771.450;  273.050;    0.000
434.490; 2659.450;  272.050;    0.000
434.540; 2693.450;  264.050;    0.000
434.590; 2629.450;  233.050;    0.000
434.640; 2576.450;  244.050;    0.000
434.691; 2719.450;  226.050;    0.000
434.741; 2705.450;  253.050;    0.000
434.791; 2704.450;  269.050;    0.000
434.841; 2726.450;  252.050;    0.000
434.891; 2655.450;  281.050;    0.000
434.941; 2775.450;  296.050;    0.000
434.991; 2716.450;  264.050;    0.000
435.042; 2725.450;  262.050;    0.000
435.092; 2702.450;  237.050;    0.000
435.142; 2647.450;  232.050;    0.000
435.192; 2603.450;  251.050;    0.000
435.242; 2621.450;  251.050;    0.000
435.292; 2588.450;  246.050;    0.000
435.342; 2616.450;  236.050;    0.000
435.392; 2651.450;  273.050;    0.000
435.442; 2577.450;  273.050;    0.000
435.492; 2636.450;  273.050;    0.000
435.542; 2509.450;  242.050;    0.000
435.592; 2673.450;  213.050;    0.000
435.642; 2621.450;  248.050;    0.000
435.692; 2612.450;  242.050;    0.000
435.742; 2501.450;  222.050;    0.000
435.792; 2596.450;  260.050;    0.000
435.842; 2566.450;  266.050;    0.000
435.891; 2598.450;  227.050;    0.000
435.941; 2575.450;  228.050;    0.000
435.991; 2492.450;  282.050;    0.000
436.041; 2513.450;  231.050;    0.000
436.091; 2556.450;  250.050;    0.000
436.141; 2492.450;  221.050;    0.000
436.191; 2471.450;  223.050;    0.000
436.241; 2493.450;  250.050;    0.000
436.290; 2504.450;  243.050;    0.000
436.340; 2497.450;  236.050;    0.000
436.390; 2457.450;  260.050;    0.000
436.440; 2473.450;  253.050;    0.000
436.490; 2448.450;  236.050;    0.000
436.539; 2407.450;  249.050;    0.000
436.589; 2498.450;  231.050;    0.000
436.639; 2460.450;  237.050;    0.000
436.689; 2462.450;  222.050;    0.000
436.738; 2447.450;  263.050;    0.000
436.788; 2423.450;  230.050;    0.000
436.838; 2526.450;  281.050;    0.000
436.887; 2483.450;  230.050;    0.000
436.937; 2432.450;  250.050;    0.000
436.987; 2429.450;  251.050;    0.000
437.036; 2461.450;  238.050;    0.000
437.086; 2452.450;  234.050;    0.000
437.136; 2449.450;  250.050;    0.000
437.185; 2425.450;  228.050;    0.000
437.235; 2394.450;  309.050;    0.000
437.285; 2504.450;  246.050;    0.000
437.334; 2355.450;  262.050;    0.000
437.384; 2442.450;  228.050;    0.000
437.433; 2396.450;  241.050;    0.000
437.483; 2450.450;  220.050;    0.000
437.532; 2431.450;  252.050;    0.000
437.582; 2371.450;  270.050;    0.000
437.631; 2368.450;  251.050;    0.000
437.681; 2409.450;  284.050;    0.000
437.730; 2374.450;  239.050;    0.000
437.780; 2391.450;  221.050;    0.000
437.829; 2359.450;  254.050;    0.000
437.879; 2313.450;  221.050;    0.000
437.928; 2422.450;  205.050;    0.000
437.978; 2362.450;  223.050;    0.000
438.027; 2425.450;  262.050;    0.000
438.077; 2377.450;  280.050;    0.000
438.126; 2352.450;  254.050;    0.000
438.176; 2306.450;  230.050;    0.000
438.225; 2366.450;  227.050;    0.000
438.274; 2338.450;  264.050;    0.000
438.324; 2448.450;  233.050;    0.000
438.373; 2255.450;  238.050;    0.000
438.422; 2388.450;  260.050;    0.000
438.472; 2274.450;  223.050;    0.000
438.521; 2266.450;  213.050;    0.000
438.570; 2275.450;  236.050;    0.000
438.620; 2411.450;  282.050;    0.000
438.669; 2441.450;  209.050;    0.000
438.718; 2356.450;  245.050;    0.000
438.768; 2352.450;  238.050;    0.000
438.817; 2287.450;  259.050;    0.000
438.866; 2373.450;  232.050;    0.000
438.915; 2300.450;  288.050;    0.000
438.965; 2365.450;  228.050;    0.000
439.014; 2363.450;  246.050;    0.000
439.063; 2363.450;  287.050;    0.000
439.112; 2310.450;  217.050;    0.000
439.162; 2413.450;  275.050;    0.000
439.211; 2408.450;  287.050;    0.000
439.260; 2349.450;  238.050;    0.000
439.309; 2377.450;  225.050;    0.000
439.358; 2340.450;  248.050;    0.000
439.407; 2336.450;  237.050;    0.000
439.456; 2379.450;  223.050;    0.000
439.506; 2328.450;  266.050;    0.000
439.555; 2384.450;  260.050;    0.000
439.604; 2339.450;  233.050;    0.000
439.653; 2409.450;  242.050;    0.000
439.702; 2283.450;  255.050;    0.000
439.751; 2329.450;  202.050;    0.000
439.800; 2445.450;  247.050;    0.000
439.849; 2349.450;  250.050;    0.000
439.898; 2300.450;  216.050;    0.000
439.947; 2427.450;  231.050;    0.000
439.996; 2350.450;  272.050;    0.000
440.045; 2328.450;  217.050;    0.000
440.094; 2332.450;  220.050;    0.000
440.143; 2489.450;  245.050;    0.000
440.192; 2449.450;  267.050;    0.000
440.241; 2420.450;  263.050;    0.000
440.290; 2373.450;  246.050;    0.000
440.339; 2345.450;  225.050;    0.000
440.388; 2414.450;  256.050;    0.000
440.437; 2454.450;  253.050;    0.000
440.486; 2291.450;  249.050;    0.000
440.535; 2432.450;  232.050;    0.000
440.583; 2362.450;  220.050;    0.000
440.632; 2442.450;  239.050;    0.000
440.681; 2450.450;  236.050;    0.000
440.730; 2515.450;  282.050;    0.000
440.779; 2341.450;  245.050;    0.000
440.828; 2460.450;  213.050;    0.000
440.876; 2438.450;  231.050;    0.000
440.925; 2372.450;  271.050;    0.000
440.974; 2455.450;  240.050;    0.000
441.023; 2388.450;  214.050;    0.000
441.072; 2401.450;  236.050;    0.000
441.120; 2418.450;  271.050;    0.000
441.169; 2381.450;  281.050;    0.000
441.218; 2409.450;  255.050;    0.000
441.267; 2539.450;  272.050;    0.000
441.315; 2462.450;  229.050;    0.000
441.364; 2382.450;  241.050;    0.000
441.413; 2462.450;  224.050;    0.000
441.461; 2480.450;  241.050;    0.000
441.510; 2533.450;  289.050;    0.000
441.559; 2436.450;  222.050;    0.000
441.607; 2528.450;  242.050;    0.000
441.656; 2450.450;  255.050;    0.000
441.705; 2563.450;  260.050;    0.000
441.753; 2504.450;  290.050;    0.000
441.802; 2595.450;  264.050;    0.000
441.850; 2505.450;  224.050;    0.000
441.899; 2476.450;  275.050;    0.000
441.948; 2479.450;  227.050;    0.000
441.996; 2475.450;  216.050;    0.000
442.045; 2521.450;  271.050;    0.000
442.093; 2436.450;  227.050;    0.000
442.142; 2495.450;  273.050;    0.000
442.190; 2519.450;  257.050;    0.000
442.239; 2523.450;  269.050;    0.000
442.287; 2466.450;  257.050;    0.000
442.336; 2483.450;  237.050;    0.000
442.384; 2493.450;  214.050;    0.000
442.433; 2445.450;  272.050;    0.000
442.481; 2471.450;  258.050;    0.000
442.529; 2476.450;  242.050;    0.000
442.578; 2449.450;  278.050;    0.000
442.626; 2372.450;  264.050;    0.000
442.675; 2422.450;  293.050;    0.000
442.723; 2497.450;  244.050;    0.000
442.771; 2461.450;  232.050;    0.000
442.820; 2454.450;  266.050;    0.000
442.868; 2399.450;  253.050;    0.000
442.917; 2420.450;  250.050;    0.000
442.965; 2518.450;  279.050;    0.000
443.013; 2542.450;  253.050;    0.000
443.062; 2488.450;  282.050;    0.000
443.110; 2411.450;  258.050;    0.000
443.158; 2453.450;  246.050;    0.000
443.206; 2506.450;  255.050;    0.000
443.255; 2484.450;  296.050;    0.000
443.303; 2513.450;  272.050;    0.000
443.351; 2427.450;  270.050;    0.000
443.399; 2458.450;  258.050;    0.000
443.448; 2440.450;  265.050;    0.000
443.496; 2553.450;  219.050;    0.000
443.544; 2474.450;  205.050;    0.000
443.592; 2531.450;  266.050;    0.000
443.640; 2470.450;  260.050;    0.000
443.689; 2533.450;  232.050;    0.000
443.737; 2460.450;  281.050;    0.000
443.785; 2530.450;  248.050;    0.000
443.833; 2503.450;  286.050;    0.000
443.881; 2530.450;  225.050;    0.000
443.929; 2536.450;  255.050;    0.000
443.977; 2603.450;  248.050;    0.000
444.025; 2534.450;  255.050;    0.000
444.074; 2491.450;  266.050;    0.000
444.122; 2530.450;  266.050;    0.000
444.170; 2543.450;  207.050;    0.000
444.218; 2565.450;  253.050;    0.000
444.266; 2600.450;  263.050;    0.000
444.314; 2545.450;  272.050;    0.000
444.362; 2614.450;  272.050;    0.000
444.410; 2599.450;  255.050;    0.000
444.458; 2652.450;  288.050;    0.000
444.506; 2623.450;  263.050;    0.000
444.554; 2592.450;  243.050;    0.000
444.602; 2730.450;  285.050;    0.000
444.650; 2669.450;  273.050;    0.000
444.698; 2609.450;  221.050;    0.000
444.746; 2657.450;  243.050;    0.000
444.793; 2553.450;  217.050;    0.000
444.841; 2722.450;  262.050;    0.000
444.889; 2672.450;  264.050;    0.000
444.937; 2624.450;  226.050;    0.000
444.985; 2712.450;  257.050;    0.000
445.033; 2674.450;  264.050;    0.000
445.081; 2606.450;  264.050;    0.000
445.129; 2629.450;  187.050;    0.000
445.176; 2599.450;  212.050;    0.000
445.224; 2567.450;  198.050;    0.000
445.272; 2640.450;  265.050;    0.000
445.320; 2712.450;  239.050;    0.000
445.368; 2528.450;  245.050;    0.000
445.415; 2553.450;  215.050;    0.000
445.463; 2597.450;  202.050;    0.000
445.511; 2667.450;  234.050;    0.000
445.559; 2607.450;  269.050;    0.000
445.606; 2637.450;  214.050;    0.000
445.654; 2592.450;  227.050;    0.000
445.702; 2596.450;  276.050;    0.000
445.749; 2619.450;  256.050;    0.000
445.797; 2661.450;  236.050;    0.000
445.845; 2546.450;  230.050;    0.000
445.892; 2557.450;  233.050;    0.000
445.940; 2595.450;  257.050;    0.000
445.988; 2599.450;  253.050;    0.000
446.035; 2560.450;  265.050;    0.000
446.083; 2640.450;  254.050;    0.000
446.130; 2576.450;  228.050;    0.000
446.178; 2563.450;  256.050;    0.000
446.226; 2639.450;  238.050;    0.000
446.273; 2615.450;  228.050;    0.000
446.321; 2603.450;  220.050;    0.000
446.368; 2621.450;  249.050;    0.000
446.416; 2625.450;  221.050;    0.000
446.463; 2559.450;  232.050;    0.000
446.511; 2691.450;  243.050;    0.000
446.558; 2597.450;  217.050;    0.000
446.606; 2608.450;  256.050;    0.000
446.653; 2602.450;  238.050;    0.000
446.701; 2665.450;  259.050;    0.000
446.748; 2605.450;  227.050;    0.000
446.796; 2704.450;  236.050;    0.000
446.843; 2747.450;  241.050;    0.000
446.891; 2676.450;  292.050;    0.000
446.938; 2644.450;  219.050;    0.000
446.985; 2744.450;  255.050;    0.000
447.033; 2759.450;  237.050;    0.000
447.080; 2807.450;  278.050;    0.000
447.128; 2745.450;  237.050;    0.000
447.175; 2761.450;  247.050;    0.000
447.222; 2741.450;  235.050;    0.000
447.270; 2845.450;  274.050;    0.000
447.317; 2857.450;  222.050;    0.000
447.364; 2782.450;  230.050;    0.000
447.411; 2900.450;  297.050;    0.000
447.459; 2924.450;  243.050;    0.000
447.506; 2922.450;  202.050;    0.000
447.553; 2868.450;  232.050;    0.000
447.601; 2910.450;  262.050;    0.000
447.648; 2937.450;  254.050;    0.000
447.695; 2915.450;  287.050;    0.000
447.742; 2998.450;  232.050;    0.000
447.789; 3107.450;  257.050;    0.000
447.837; 3036.450;  260.050;    0.000
447.884; 3092.450;  272.050;    0.000
447.931; 3047.450;  241.050;    0.000
447.978; 3190.450;  241.050;    0.000
448.025; 3125.450;  264.050;    0.000
448.072; 3157.450;  279.050;    0.000
448.120; 3173.450;  263.050;    0.000
448.167; 3187.450;  284.050;    0.000
448.214; 3228.450;  252.050;    0.000
448.261; 3188.450;  247.050;    0.000
448.308; 3030.450;  249.050;    0.000
448.355; 3046.450;  263.050;    0.000
448.402; 2973.450;  251.050;    0.000
448.449; 2919.450;  257.050;    0.000
448.496; 2915.450;  243.050;    0.000
448.543; 2862.450;  274.050;    0.000
448.590; 2914.450;  299.050;    0.000
448.637; 2840.450;  259.050;    0.000
448.684; 2745.450;  266.050;    0.000
448.731; 2777.450;  261.050;    0.000
448.778; 2730.450;  292.050;    0.000
448.825; 2716.450;  253.050;    0.000
448.872; 2681.450;  253.050;    0.000
448.919; 2620.450;  218.050;    0.000
448.966; 2674.450;  254.050;    0.000
449.013; 2752.450;  263.050;    0.000
449.060; 2663.450;  282.050;    0.000
449.107; 2584.450;  244.050;    0.000
449.154; 2617.450;  236.050;    0.000
449.200; 2564.450;  226.050;    0.000
449.247; 2659.450;  273.050;    0.000
449.294; 2551.450;  270.050;    0.000
449.341; 2595.450;  283.050;    0.000
449.388; 2576.450;  261.050;    0.000
449.435; 2471.450;  254.050;    0.000
449.481; 2567.450;  318.050;    0.000
449.528; 2435.450;  274.050;    0.000
449.575; 2465.450;  251.050;    0.000
449.622; 2455.450;  276.050;    0.000
449.668; 2405.450;  242.050;    0.000
449.715; 2489.450;  286.050;    0.000
449.762; 2509.450;  268.050;    0.000
449.809; 2472.450;  285.050;    0.000
449.855; 2527.450;  277.050;    0.000
449.902; 2514.450;  246.050;    0.000
449.949; 2504.450;  268.050;    0.000
449.995; 2508.450;  289.050;    0.000
450.042; 2467.450;  256.050;    0.000
450.089; 2469.450;  290.050;    0.000
450.135; 2428.450;  300.050;    0.000
450.182; 2355.450;  317.050;    0.000
450.229; 2397.450;  282.050;    0.000
450.275; 2421.450;  307.050;    0.000
450.322; 2444.450;  260.050;    0.000
450.368; 2465.450;  315.050;    0.000
450.415; 2421.450;  306.050;    0.000
450.462; 2462.450;  314.050;    0.000
450.508; 2426.450;  303.050;    0.000
450.555; 2393.450;  281.050;    0.000
450.601; 2392.450;  291.050;    0.000
450.648; 2334.450;  288.050;    0.000
450.694; 2408.450;  290.050;    0.000
450.741; 2418.450;  303.050;    0.000
450.787; 2336.450;  298.050;    0.000
450.834; 2347.450;  265.050;    0.000
450.880; 2308.450;  273.050;    0.000
450.927; 2425.450;  312.050;    0.000
450.973; 2390.450;  303.050;    0.000
451.019; 2345.450;  222.050;    0.000
451.066; 2359.450;  284.050;    0.000
451.112; 2343.450;  296.050;    0.000
451.159; 2322.450;  299.050;    0.000
451.205; 2258.450;  311.050;    0.000
451.251; 2414.450;  306.050;    0.000
451.298; 2347.450;  281.050;    0.000
451.344; 2305.450;  311.050;    0.000
451.390; 2362.450;  331.050;    0.000
451.437; 2374.450;  303.050;    0.000
451.483; 2332.450;  284.050;    0.000
451.529; 2293.450;  310.050;    0.000
451.576; 2330.450;  301.050;    0.000
451.622; 2320.450;  275.050;    0.000
451.668; 2306.450;  269.050;    0.000
451.714; 2303.450;  277.050;    0.000
451.761; 2328.450;  298.050;    0.000
451.807; 2340.450;  316.050;    0.000
451.853; 2337.450;  301.050;    0.000
451.899; 2280.450;  292.050;    0.000
451.945; 2319.450;  324.050;    0.000
451.992; 2351.450;  292.050;    0.000
452.038; 2311.450;  261.050;    0.000
452.084; 2328.450;  286.050;    0.000
452.130; 2387.450;  301.050;    0.000
452.176; 2313.450;  287.050;    0.000
452.222; 2219.450;  265.050;    0.000
452.268; 2267.450;  268.050;    0.000
452.315; 2207.450;  272.050;    0.000
452.361; 2341.450;  258.050;    0.000
452.407; 2298.450;  279.050;    0.000
452.453; 2271.450;  252.050;    0.000
452.499; 2311.450;  305.050;    0.000
452.545; 2273.450;  263.050;    0.000
452.591; 2314.450;  284.050;    0.000
452.637; 2238.450;  289.050;    0.000
452.683; 2237.450;  249.050;    0.000
452.729; 2239.450;  290.050;    0.000
452.775; 2266.450;  315.050;    0.000
452.821; 2288.450;  271.050;    0.000
452.867; 2232.450;  258.050;    0.000
452.913; 2178.450;  256.050;    0.000
452.959; 2285.450;  266.050;    0.000
453.005; 2264.450;  299.050;    0.000
453.051; 2273.450;  299.050;    0.000
453.097; 2277.450;  268.050;    0.000
453.142; 2326.450;  251.050;    0.000
453.188; 2212.450;  284.050;    0.000
453.234; 2169.450;  285.050;    0.000
453.280; 2210.450;  263.050;    0.000
453.326; 2212.450;  273.050;    0.000
453.372; 2288.450;  253.050;    0.000
453.418; 2275.450;  269.050;    0.000
453.463; 2226.450;  250.050;    0.000
453.509; 2308.450;  289.050;    0.000
453.555; 2277.450;  262.050;    0.000
453.601; 2227.450;  274.050;    0.000
453.647; 2299.450;  306.050;    0.000
453.692; 2206.450;  264.050;    0.000
453.738; 2231.450;  312.050;    0.000
453.784; 2142.450;  300.050;    0.000
453.829; 2191.450;  284.050;    0.000
453.875; 2169.450;  270.050;    0.000
453.921; 2234.450;  237.050;    0.000
453.967; 2211.450;  263.050;    0.000
454.012; 2298.450;  295.050;    0.000
454.058; 2257.450;  293.050;    0.000
454.104; 2234.450;  264.050;    0.000
454.149; 2256.450;  282.050;    0.000
454.195; 2143.450;  277.050;    0.000
454.240; 2270.450;  307.050;    0.000
454.286; 2146.450;  282.050;    0.000
454.332; 2310.450;  291.050;    0.000
454.377; 2127.450;  302.050;    0.000
454.423; 2187.450;  276.050;    0.000
454.468; 2176.450;  281.050;    0.000
454.514; 2154.450;  290.050;    0.000
454.559; 2188.450;  289.050;    0.000
454.605; 2151.450;  258.050;    0.000
454.650; 2161.450;  281.050;    0.000
454.696; 2301.450;  308.050;    0.000
454.741; 2258.450;  288.050;    0.000
454.787; 2243.450;  284.050;    0.000
454.832; 2147.450;  306.050;    0.000
454.878; 2236.450;  288.050;    0.000
454.923; 2246.450;  287.050;    0.000
454.969; 2158.450;  325.050;    0.000
455.014; 2221.450;  323.050;    0.000
455.060; 2205.450;  290.050;    0.000
455.105; 2179.450;  285.050;    0.000
455.150; 2204.450;  303.050;    0.000
455.196; 2300.450;  282.050;    0.000
455.241; 2222.450;  281.050;    0.000
455.286; 2204.450;  290.050;    0.000
455.332; 2207.450;  280.050;    0.000
455.377; 2183.450;  243.050;    0.000
455.422; 2283.450;  308.050;    0.000
455.468; 2220.450;  308.050;    0.000
455.513; 2159.450;  290.050;    0.000
455.558; 2101.450;  211.050;    0.000
455.604; 2137.450;  289.050;    0.000
455.649; 2169.450;  297.050;    0.000
455.694; 2163.450;  287.050;    0.000
455.739; 2227.450;  296.050;    0.000
455.785; 2232.450;  315.050;    0.000
455.830; 2236.450;  328.050;    0.000
455.875; 2172.450;  310.050;    0.000
455.920; 2163.450;  261.050;    0.000
455.965; 2215.450;  277.050;    0.000
456.010; 2167.450;  317.050;    0.000
456.056; 2157.450;  299.050;    0.000
456.101; 2255.450;  262.050;    0.000
456.146; 2139.450;  318.050;    0.000
456.191; 2171.450;  274.050;    0.000
456.236; 2243.450;  274.050;    0.000
456.281; 2122.450;  275.050;    0.000
456.326; 2165.450;  256.050;    0.000
456.371; 2171.450;  260.050;    0.000
456.416; 2177.450;  304.050;    0.000
456.461; 2169.450;  278.050;    0.000
456.507; 2118.450;  299.050;    0.000
456.552; 2180.450;  305.050;    0.000
456.597; 2211.450;  271.050;    0.000
456.642; 2212.450;  273.050;    0.000
456.687; 2140.450;  290.050;    0.000
456.732; 2220.450;  327.050;    0.000
456.776; 2275.450;  284.050;    0.000
456.821; 2201.450;  321.050;    0.000
456.866; 2141.450;  272.050;    0.000
456.911; 2217.450;  232.050;    0.000
456.956; 2213.450;  263.050;    0.000
457.001; 2185.450;  277.050;    0.000
457.046; 2156.450;  284.050;    0.000
457.091; 2170.450;  269.050;    0.000
457.136; 2214.450;  269.050;    0.000
457.181; 2144.450;  275.050;    0.000
457.225; 2246.450;  310.050;    0.000
457.270; 2259.450;  295.050;    0.000
457.315; 2224.450;  284.050;    0.000
457.360; 2218.450;  264.050;    0.000
457.405; 2205.450;  273.050;    0.000
457.450; 2194.450;  284.050;    0.000
457.494; 2155.450;  273.050;    0.000
457.539; 2179.450;  287.050;    0.000
457.584; 2268.450;  279.050;    0.000
457.629; 2148.450;  288.050;    0.000
457.673; 2274.450;  297.050;    0.000
457.718; 2257.450;  270.050;    0.000
457.763; 2261.450;  295.050;    0.000
457.807; 2239.450;  321.050;    0.000
457.852; 2223.450;  293.050;    0.000
457.897; 2224.450;  282.050;    0.000
457.941; 2250.450;  320.050;    0.000
457.986; 2290.450;  295.050;    0.000
458.031; 2227.450;  314.050;    0.000
458.075; 2249.450;  280.050;    0.000
458.120; 2337.450;  314.050;    0.000
458.165; 2250.450;  289.050;    0.000
458.209; 2206.450;  289.050;    0.000
458.254; 2207.450;  272.050;    0.000
458.298; 2254.450;  305.050;    0.000
458.343; 2202.450;  284.050;    0.000
458.387; 2336.450;  340.050;    0.000
458.432; 2268.450;  306.050;    0.000
458.476; 2243.450;  311.050;    0.000
458.521; 2308.450;  304.050;    0.000
458.565; 2284.450;  329.050;    0.000
458.610; 2341.450;  287.050;    0.000
458.654; 2303.450;  300.050;    0.000
458.699; 2295.450;  295.050;    0.000
458.743; 2287.450;  269.050;    0.000
458.788; 2343.450;  294.050;    0.000
458.832; 2356.450;  301.050;    0.000
458.877; 2423.450;  303.050;    0.000
458.921; 2415.450;  259.050;    0.000
458.965; 2351.450;  308.050;    0.000
459.010; 2449.450;  330.050;    0.000
459.054; 2445.450;  298.050;    0.000
459.099; 2425.450;  303.050;    0.000
459.143; 2499.450;  333.050;    0.000
459.187; 2397.450;  291.050;    0.000
459.231; 2492.450;  316.050;    0.000
459.276; 2374.450;  294.050;    0.000
459.320; 2470.450;  291.050;    0.000
459.364; 2485.450;  318.050;    0.000
459.409; 2456.450;  325.050;    0.000
459.453; 2443.450;  293.050;    0.000
459.497; 2478.450;  354.050;    0.000
459.541; 2526.450;  313.050;    0.000
459.586; 2468.450;  282.050;    0.000
459.630; 2545.450;  286.050;    0.000
459.674; 2465.450;  292.050;    0.000
459.718; 2468.450;  280.050;    0.000
459.762; 2474.450;  304.050;    0.000
459.807; 2553.450;  352.050;    0.000
459.851; 2482.450;  300.050;    0.000
459.895; 2414.450;  311.050;    0.000
459.939; 2529.450;  303.050;    0.000
459.983; 2452.450;  299.050;    0.000
460.027; 2472.450;  307.050;    0.000
460.071; 2544.450;  313.050;    0.000
460.115; 2540.450;  325.050;    0.000
460.159; 2478.450;  331.050;    0.000
460.204; 2559.450;  301.050;    0.000
460.248; 2535.450;  329.050;    0.000
460.292; 2533.450;  310.050;    0.000
460.336; 2511.450;  304.050;    0.000
460.380; 2520.450;  313.050;    0.000
460.424; 2515.450;  300.050;    0.000
460.468; 2561.450;  338.050;    0.000
460.512; 2560.450;  310.050;    0.000
460.556; 2561.450;  337.050;    0.000
460.599; 2589.450;  310.050;    0.000
460.643; 2621.450;  303.050;    0.000
460.687; 2578.450;  316.050;    0.000
460.731; 2529.450;  292.050;    0.000
460.775; 2554.450;  294.050;    0.000
460.819; 2532.450;  310.050;    0.000
460.863; 2490.450;  349.050;    0.000
460.907; 2550.450;  265.050;    0.000
460.951; 2536.450;  325.050;    0.000
460.995; 2536.450;  338.050;    0.000
461.038; 2555.450;  304.050;    0.000
461.082; 2574.450;  312.050;    0.000
461.126; 2532.450;  358.050;    0.000
461.170; 2597.450;  306.050;    0.000
461.214; 2601.450;  330.050;    0.000
461.257; 2585.450;  311.050;    0.000
461.301; 2686.450;  303.050;    0.000
461.345; 2569.450;  310.050;    0.000
461.389; 2556.450;  296.050;    0.000
461.432; 2504.450;  304.050;    0.000
461.476; 2526.450;  305.050;    0.000
461.520; 2484.450;  319.050;    0.000
461.563; 2606.450;  294.050;    0.000
461.607; 2579.450;  295.050;    0.000
461.651; 2497.450;  335.050;    0.000
461.694; 2594.450;  276.050;    0.000
461.738; 2577.450;  327.050;    0.000
461.782; 2644.450;  288.050;    0.000
461.825; 2629.450;  319.050;    0.000
461.869; 2610.450;  305.050;    0.000
461.913; 2638.450;  281.050;    0.000
461.956; 2632.450;  281.050;    0.000
462.000; 2671.450;  339.050;    0.000
462.043; 2668.450;  347.050;    0.000
462.087; 2630.450;  314.050;    0.000
462.130; 2628.450;  332.050;    0.000
462.174; 2713.450;  332.050;    0.000
462.217; 2719.450;  299.050;    0.000
462.261; 2725.450;  323.050;    0.000
462.304; 2714.450;  286.050;    0.000
462.348; 2595.450;  305.050;    0.000
462.391; 2656.450;  293.050;    0.000
462.435; 2673.450;  365.050;    0.000
462.478; 2686.450;  329.050;    0.000
462.522; 2704.450;  316.050;    0.000
462.565; 2791.450;  328.050;    0.000
462.608; 2735.450;  350.050;    0.000
462.652; 2822.450;  328.050;    0.000
462.695; 2856.450;  358.050;    0.000
462.739; 2859.450;  317.050;    0.000
462.782; 2805.450;  329.050;    0.000
462.825; 2857.450;  368.050;    0.000
462.869; 2848.450;  343.050;    0.000
462.912; 2915.450;  404.050;    0.000
462.955; 2883.450;  328.050;    0.000
462.998; 2880.450;  340.050;    0.000
463.042; 2908.450;  361.050;    0.000
463.085; 2909.450;  337.050;    0.000
463.128; 2827.450;  373.050;    0.000
463.172; 2799.450;  347.050;    0.000
463.215;  375.450;  305.050;    0.000
463.258;  285.450;  324.050;    0.000
463.301;  306.450;  296.050;    0.000
463.344;  315.450;  332.050;    0.000
463.388;  341.450;  309.050;    0.000
463.431;  311.450;  298.050;    0.000
463.474;  342.450;  351.050;    0.000
463.517;  332.450;  319.050;    0.000
463.560;  323.450;  325.050;    0.000
463.603;  360.450;  330.050;    0.000
463.646;  325.450;  332.050;    0.000
463.690;  342.450;  325.050;    0.000
463.733;  341.450;  323.050;    0.000
463.776;  275.450;  276.050;    0.000
463.819;  325.450;  320.050;    0.000
463.862;  320.450;  275.050;    0.000

