
Integration time [ms]:   0.300
Averaging Nr. [scans]: 1
Smoothing Nr. [pixels]: 0
Data measured with spectrometer [name]: NIR
Wave   ;Sample   ;Dark     ;Reference
[nm]   ;[counts] ;[counts] ;[counts] 

691.496;   31.975;  155.525;    0.000
691.696;   48.975;  186.525;    0.000
691.896;   -2.025;  113.525;    0.000
692.096;   53.975;  169.525;    0.000
692.296;  -12.025;  119.525;    0.000
692.496;   17.975;  182.525;    0.000
692.695;    2.975;  119.525;    0.000
692.895;   36.975;  183.525;    0.000
693.095;   12.975;  119.525;    0.000
693.295;   51.975;  156.525;    0.000
693.495;   68.975;  145.525;    0.000
693.695;   29.975;  144.525;    0.000
693.894;   32.975;  174.525;    0.000
694.094;   18.975;  148.525;    0.000
694.294;   -0.025;  114.525;    0.000
694.494;  372.975;  137.525;    0.000
694.693; 3862.975;  112.525;    0.000
694.893; 4126.975;   85.525;    0.000
695.093; 4259.975;  152.525;    0.000
695.293; 4317.975;  159.525;    0.000
695.492; 4262.975;  131.525;    0.000
695.692; 4297.975;  134.525;    0.000
695.891; 4419.975;  161.525;    0.000
696.091; 4397.975;  180.525;    0.000
696.291; 4376.975;  120.525;    0.000
696.490; 4445.975;  146.525;    0.000
696.690; 4384.975;  145.525;    0.000
696.889; 4471.975;  171.525;    0.000
697.089; 4328.975;   98.525;    0.000
697.288; 4412.975;  172.525;    0.000
697.488; 4482.975;  137.525;    0.000
697.687; 4458.975;  171.525;    0.000
697.887; 4395.975;  142.525;    0.000
698.086; 4390.975;  159.525;    0.000
698.286; 4440.975;  122.525;    0.000
698.485; 4297.975;  121.525;    0.000
698.684; 4449.975;   94.525;    0.000
698.884; 4603.975;  131.525;    0.000
699.083; 4463.975;  112.525;    0.000
699.282; 4414.975;  119.525;    0.000
699.482; 4472.975;  117.525;    0.000
699.681; 4572.975;  115.525;    0.000
699.880; 4615.975;  166.525;    0.000
700.080; 4649.975;  194.525;    0.000
700.279; 4477.975;   98.525;    0.000
700.478; 4616.975;  159.525;    0.000
700.677; 4538.975;  134.525;    0.000
700.877; 4469.975;  171.525;    0.000
701.076; 4578.975;  141.525;    0.000
701.275; 4532.975;  119.525;    0.000
701.474; 4522.975;  132.525;    0.000
701.673; 4551.975;  141.525;    0.000
701.872; 4654.975;  158.525;    0.000
702.071; 4669.975;  129.525;    0.000
702.271; 4752.975;  122.525;    0.000
702.470; 4671.975;  158.525;    0.000
702.669; 4581.975;  145.525;    0.000
702.868; 4653.975;  135.525;    0.000
703.067; 4744.975;  169.525;    0.000
703.266; 4652.975;  125.525;    0.000
703.465; 4697.975;  153.525;    0.000
703.664; 4596.975;  113.525;    0.000
703.863; 4728.975;  170.525;    0.000
704.062; 4608.975;  115.525;    0.000
704.260; 4554.975;  133.525;    0.000
704.459; 4702.975;  123.525;    0.000
704.658; 4614.975;  105.525;    0.000
704.857; 4796.975;  125.525;    0.000
705.056; 4640.975;  108.525;    0.000
705.255; 4803.975;  117.525;    0.000
705.454; 4705.975;  126.525;    0.000
705.652; 4749.975;  137.525;    0.000
705.851; 4576.975;   95.525;    0.000
706.050; 4702.975;  120.525;    0.000
706.249; 4665.975;   81.525;    0.000
706.447; 4744.975;  105.525;    0.000
706.646; 4704.975;  107.525;    0.000
706.845; 4702.975;  104.525;    0.000
707.043; 4875.975;  136.525;    0.000
707.242; 4634.975;   89.525;    0.000
707.441; 4712.975;  147.525;    0.000
707.639; 4702.975;  156.525;    0.000
707.838; 4703.975;  114.525;    0.000
708.037; 4779.975;  100.525;    0.000
708.235; 4735.975;  103.525;    0.000
708.434; 4770.975;  102.525;    0.000
708.632; 4781.975;  100.525;    0.000
708.831; 4841.975;  121.525;    0.000
709.029; 4905.975;  102.525;    0.000
709.228; 4801.975;   88.525;    0.000
709.426; 4813.975;  135.525;    0.000
709.625; 4882.975;  128.525;    0.000
709.823; 4894.975;  123.525;    0.000
710.022; 5014.975;  137.525;    0.000
710.220; 4948.975;  134.525;    0.000
710.418; 4952.975;  122.525;    0.000
710.617; 4923.975;   64.525;    0.000
710.815; 5003.975;   94.525;    0.000
711.013; 4921.975;  127.525;    0.000
711.212; 4932.975;  105.525;    0.000
711.410; 4900.975;  117.525;    0.000
711.608; 5045.975;  114.525;    0.000
711.807; 5057.975;  119.525;    0.000
712.005; 5002.975;   92.525;    0.000
712.203; 5054.975;   95.525;    0.000
712.401; 5152.975;  107.525;    0.000
712.599; 5130.975;  127.525;    0.000
712.798; 5182.975;  120.525;    0.000
712.996; 5149.975;   76.525;    0.000
713.194; 5157.975;  118.525;    0.000
713.392; 5120.975;   60.525;    0.000
713.590; 5283.975;   92.525;    0.000
713.788; 5227.975;  110.525;    0.000
713.986; 5256.975;  130.525;    0.000
714.184; 5228.975;   71.525;    0.000
714.382; 5268.975;   86.525;    0.000
714.580; 5321.975;   74.525;    0.000
714.778; 5349.975;  133.525;    0.000
714.976; 5430.975;   81.525;    0.000
715.174; 5532.975;  100.525;    0.000
715.372; 5890.975;  141.525;    0.000
715.570; 6140.975;   73.525;    0.000
715.768; 6732.975;  119.525;    0.000
715.966; 6751.975;   81.525;    0.000
716.164; 6594.975;  130.525;    0.000
716.362; 6209.975;  125.525;    0.000
716.560; 6036.975;  109.525;    0.000
716.758; 5970.975;   96.525;    0.000
716.955; 5923.975;   83.525;    0.000
717.153; 5987.975;   87.525;    0.000
717.351; 5806.975;  123.525;    0.000
717.549; 5680.975;  121.525;    0.000
717.746; 5665.975;  128.525;    0.000
717.944; 5733.975;  132.525;    0.000
718.142; 5581.975;  120.525;    0.000
718.340; 5675.975;   94.525;    0.000
718.537; 5652.975;   95.525;    0.000
718.735; 5656.975;  152.525;    0.000
718.933; 5622.975;  124.525;    0.000
719.130; 5650.975;  114.525;    0.000
719.328; 5561.975;   63.525;    0.000
719.525; 5658.975;  146.525;    0.000
719.723; 5488.975;   96.525;    0.000
719.920; 5685.975;  120.525;    0.000
720.118; 5639.975;   59.525;    0.000
720.316; 5762.975;  116.525;    0.000
720.513; 5481.975;  127.525;    0.000
720.711; 5662.975;  110.525;    0.000
720.908; 5652.975;   92.525;    0.000
721.105; 5647.975;  138.525;    0.000
721.303; 5713.975;   90.525;    0.000
721.500; 5640.975;  126.525;    0.000
721.698; 5515.975;  103.525;    0.000
721.895; 5588.975;  206.525;    0.000
722.092; 5673.975;   63.525;    0.000
722.290; 5736.975;  123.525;    0.000
722.487; 5586.975;  137.525;    0.000
722.684; 5657.975;  126.525;    0.000
722.882; 5674.975;  119.525;    0.000
723.079; 5582.975;  132.525;    0.000
723.276; 5522.975;   98.525;    0.000
723.473; 5569.975;   97.525;    0.000
723.671; 5566.975;   43.525;    0.000
723.868; 5595.975;  142.525;    0.000
724.065; 5597.975;  102.525;    0.000
724.262; 5671.975;  119.525;    0.000
724.459; 5526.975;   73.525;    0.000
724.656; 5653.975;  128.525;    0.000
724.854; 5603.975;  135.525;    0.000
725.051; 5650.975;   81.525;    0.000
725.248; 5673.975;   88.525;    0.000
725.445; 5765.975;  129.525;    0.000
725.642; 5600.975;   76.525;    0.000
725.839; 5743.975;  134.525;    0.000
726.036; 5791.975;  101.525;    0.000
726.233; 5870.975;   68.525;    0.000
726.430; 5698.975;  121.525;    0.000
726.627; 5808.975;  136.525;    0.000
726.824; 5841.975;   87.525;    0.000
727.021; 5811.975;  141.525;    0.000
727.218; 5817.975;   92.525;    0.000
727.414; 5807.975;  121.525;    0.000
727.611; 5804.975;  100.525;    0.000
727.808; 5772.975;  130.525;    0.000
728.005; 5751.975;   83.525;    0.000
728.202; 5818.975;  120.525;    0.000
728.399; 5815.975;   75.525;    0.000
728.595; 5778.975;  148.525;    0.000
728.792; 5742.975;   79.525;    0.000
728.989; 5863.975;   86.525;    0.000
729.186; 5867.975;   80.525;    0.000
729.382; 5851.975;   72.525;    0.000
729.579; 5787.975;  112.525;    0.000
729.776; 5909.975;  106.525;    0.000
729.972; 5949.975;   77.525;    0.000
730.169; 5865.975;  118.525;    0.000
730.366; 5845.975;   92.525;    0.000
730.562; 5829.975;  104.525;    0.000
730.759; 5826.975;   95.525;    0.000
730.955; 5924.975;   85.525;    0.000
731.152; 5952.975;   79.525;    0.000
731.348; 5918.975;   72.525;    0.000
731.545; 5878.975;   56.525;    0.000
731.741; 5893.975;  106.525;    0.000
731.938; 5900.975;  113.525;    0.000
732.134; 5942.975;  106.525;    0.000
732.331; 5779.975;   82.525;    0.000
732.527; 5833.975;   80.525;    0.000
732.724; 5924.975;   97.525;    0.000
732.920; 5850.975;  127.525;    0.000
733.116; 5979.975;  115.525;    0.000
733.313; 5967.975;  153.525;    0.000
733.509; 5986.975;   76.525;    0.000
733.705; 5930.975;  159.525;    0.000
733.902; 5979.975;   82.525;    0.000
734.098; 5973.975;   70.525;    0.000
734.294; 6117.975;  105.525;    0.000
734.490; 6021.975;  110.525;    0.000
734.687; 6031.975;  102.525;    0.000
734.883; 6107.975;   77.525;    0.000
735.079; 6088.975;   93.525;    0.000
735.275; 6114.975;  109.525;    0.000
735.471; 6074.975;   99.525;    0.000
735.667; 6063.975;  107.525;    0.000
735.863; 6041.975;   89.525;    0.000
736.060; 6154.975;  105.525;    0.000
736.256; 6137.975;  113.525;    0.000
736.452; 6035.975;   90.525;    0.000
736.648; 6089.975;   88.525;    0.000
736.844; 6242.975;  129.525;    0.000
737.040; 6301.975;  139.525;    0.000
737.236; 6282.975;  129.525;    0.000
737.432; 6117.975;   67.525;    0.000
737.628; 6240.975;  104.525;    0.000
737.824; 6315.975;  111.525;    0.000
738.019; 6262.975;  116.525;    0.000
738.215; 6431.975;  135.525;    0.000
738.411; 6372.975;  118.525;    0.000
738.607; 6324.975;   58.525;    0.000
738.803; 6201.975;   32.525;    0.000
738.999; 6493.975;  120.525;    0.000
739.195; 6533.975;   76.525;    0.000
739.390; 6378.975;  119.525;    0.000
739.586; 6310.975;   83.525;    0.000
739.782; 6414.975;  134.525;    0.000
739.978; 6568.975;  122.525;    0.000
740.173; 6616.975;   96.525;    0.000
740.369; 6491.975;   86.525;    0.000
740.565; 6537.975;  122.525;    0.000
740.760; 6773.975;   99.525;    0.000
740.956; 6640.975;  137.525;    0.000
741.152; 6608.975;  108.525;    0.000
741.347; 6713.975;   65.525;    0.000
741.543; 6924.975;   73.525;    0.000
741.738; 6944.975;  142.525;    0.000
741.934; 7126.975;  131.525;    0.000
742.129; 7678.975;   66.525;    0.000
742.325; 8896.975;  143.525;    0.000
742.520; 9872.975;  119.525;    0.000
742.716; 9304.975;  109.525;    0.000
742.911; 8625.975;   62.525;    0.000
743.107; 8269.975;  119.525;    0.000
743.302; 8158.975;   78.525;    0.000
743.498; 8154.975;  130.525;    0.000
743.693; 8268.975;   75.525;    0.000
743.888; 8692.975;  135.525;    0.000
744.084;10320.975;  106.525;    0.000
744.279;13321.975;  101.525;    0.000
744.474;13061.975;   91.525;    0.000
744.670;11386.975;  144.525;    0.000
744.865;10254.975;  128.525;    0.000
745.060; 9462.975;   63.525;    0.000
745.255; 9352.975;  155.525;    0.000
745.451; 9098.975;  110.525;    0.000
745.646; 8767.975;  150.525;    0.000
745.841; 8799.975;  128.525;    0.000
746.036; 8847.975;  110.525;    0.000
746.231; 9012.975;  126.525;    0.000
746.426; 9689.975;   83.525;    0.000
746.622;11563.975;  157.525;    0.000
746.817;15905.975;  112.525;    0.000
747.012;18081.975;  115.525;    0.000
747.207;15202.975;  161.525;    0.000
747.402;13246.975;   88.525;    0.000
747.597;12073.975;  103.525;    0.000
747.792;11344.975;  152.525;    0.000
747.987;10830.975;   80.525;    0.000
748.182;10505.975;   89.525;    0.000
748.377; 9889.975;  104.525;    0.000
748.572; 9506.975;  138.525;    0.000
748.767; 9118.975;  100.525;    0.000
748.961; 8777.975;  106.525;    0.000
749.156; 8564.975;  113.525;    0.000
749.351; 8464.975;  116.525;    0.000
749.546; 8269.975;  107.525;    0.000
749.741; 8075.975;  102.525;    0.000
749.936; 7934.975;  105.525;    0.000
750.130; 7884.975;  111.525;    0.000
750.325; 7850.975;   72.525;    0.000
750.520; 7732.975;   96.525;    0.000
750.715; 7737.975;  135.525;    0.000
750.909; 7491.975;  107.525;    0.000
751.104; 7538.975;  106.525;    0.000
751.299; 7423.975;  144.525;    0.000
751.493; 7318.975;  116.525;    0.000
751.688; 7400.975;   96.525;    0.000
751.882; 7223.975;   92.525;    0.000
752.077; 7133.975;  109.525;    0.000
752.272; 7147.975;   96.525;    0.000
752.466; 7155.975;  110.525;    0.000
752.661; 7166.975;  120.525;    0.000
752.855; 6943.975;   70.525;    0.000
753.050; 7060.975;  129.525;    0.000
753.244; 6991.975;  126.525;    0.000
753.439; 6945.975;  115.525;    0.000
753.633; 6941.975;  120.525;    0.000
753.828; 6859.975;  129.525;    0.000
754.022; 6800.975;  139.525;    0.000
754.216; 7005.975;  121.525;    0.000
754.411; 6926.975;  108.525;    0.000
754.605; 6946.975;   94.525;    0.000
754.799; 6825.975;  125.525;    0.000
754.994; 6846.975;  160.525;    0.000
755.188; 6842.975;  151.525;    0.000
755.382; 6861.975;  102.525;    0.000
755.576; 6817.975;  103.525;    0.000
755.771; 6774.975;   99.525;    0.000
755.965; 6813.975;  158.525;    0.000
756.159; 6823.975;   96.525;    0.000
756.353; 6752.975;  157.525;    0.000
756.547; 6832.975;  132.525;    0.000
756.742; 6735.975;  106.525;    0.000
756.936; 6676.975;  113.525;    0.000
757.130; 6779.975;  114.525;    0.000
757.324; 6684.975;  111.525;    0.000
757.518; 6782.975;  142.525;    0.000
757.712; 6629.975;  137.525;    0.000
757.906; 6662.975;   93.525;    0.000
758.100; 6835.975;  119.525;    0.000
758.294; 6806.975;  132.525;    0.000
758.488; 6699.975;  153.525;    0.000
758.682; 6710.975;  101.525;    0.000
758.876; 6685.975;  129.525;    0.000
759.070; 6751.975;  168.525;    0.000
759.264; 6779.975;   96.525;    0.000
759.458; 6499.975;  117.525;    0.000
759.651; 6703.975;  135.525;    0.000
759.845; 6552.975;  127.525;    0.000
760.039; 6699.975;  120.525;    0.000
760.233; 6731.975;  124.525;    0.000
760.427; 6593.975;  115.525;    0.000
760.620; 6737.975;  130.525;    0.000
760.814; 6630.975;  102.525;    0.000
761.008; 6683.975;  174.525;    0.000
761.202; 6471.975;  132.525;    0.000
761.395; 6688.975;  126.525;    0.000
761.589; 6632.975;  133.525;    0.000
761.783; 6729.975;  147.525;    0.000
761.976; 6729.975;  147.525;    0.000
762.170; 6697.975;  174.525;    0.000
762.363; 6550.975;   97.525;    0.000
762.557; 6672.975;  141.525;    0.000
762.750; 6574.975;  112.525;    0.000
762.944; 6738.975;  110.525;    0.000
763.138; 6600.975;  125.525;    0.000
763.331; 6699.975;  101.525;    0.000
763.524; 6938.975;  101.525;    0.000
763.718; 6873.975;  156.525;    0.000
763.911; 6831.975;  143.525;    0.000
764.105; 6828.975;  139.525;    0.000
764.298; 6799.975;   89.525;    0.000
764.492; 6843.975;  111.525;    0.000
764.685; 6562.975;  136.525;    0.000
764.878; 6949.975;  146.525;    0.000
765.072; 6790.975;  110.525;    0.000
765.265; 6945.975;  141.525;    0.000
765.458; 6689.975;   82.525;    0.000
765.651; 6913.975;  144.525;    0.000
765.845; 6868.975;   79.525;    0.000
766.038; 6897.975;  123.525;    0.000
766.231; 7422.975;  125.525;    0.000
766.424;10042.975;  131.525;    0.000
766.617;10156.975;   62.525;    0.000
766.811; 7350.975;  142.525;    0.000
767.004; 7072.975;  134.525;    0.000
767.197; 6991.975;  147.525;    0.000
767.390; 7119.975;  100.525;    0.000
767.583; 7030.975;  121.525;    0.000
767.776; 6951.975;   91.525;    0.000
767.969; 6874.975;  113.525;    0.000
768.162; 6875.975;  170.525;    0.000
768.355; 6901.975;  134.525;    0.000
768.548; 7085.975;  177.525;    0.000
768.741; 7111.975;   96.525;    0.000
768.934; 7165.975;  143.525;    0.000
769.127; 7197.975;  147.525;    0.000
769.320; 7202.975;   93.525;    0.000
769.513; 7300.975;  137.525;    0.000
769.706; 7879.975;   96.525;    0.000
769.898;10024.975;  118.525;    0.000
770.091; 8510.975;  138.525;    0.000
770.284; 7267.975;  133.525;    0.000
770.477; 7392.975;  137.525;    0.000
770.670; 7433.975;  124.525;    0.000
770.862; 7374.975;  125.525;    0.000
771.055; 7499.975;  135.525;    0.000
771.248; 7633.975;  109.525;    0.000
771.441; 7624.975;  141.525;    0.000
771.633; 7682.975;  142.525;    0.000
771.826; 7713.975;  123.525;    0.000
772.018; 7663.975;  136.525;    0.000
772.211; 7886.975;  145.525;    0.000
772.404; 7938.975;  127.525;    0.000
772.596; 8037.975;  193.525;    0.000
772.789; 8084.975;   64.525;    0.000
772.981; 8099.975;  142.525;    0.000
773.174; 8131.975;  105.525;    0.000
773.366; 8291.975;  166.525;    0.000
773.559; 8342.975;  125.525;    0.000
773.751; 8542.975;  126.525;    0.000
773.944; 8741.975;  147.525;    0.000
774.136; 8785.975;  155.525;    0.000
774.329; 9109.975;  127.525;    0.000
774.521; 9191.975;  133.525;    0.000
774.713; 9635.975;  139.525;    0.000
774.906; 9808.975;  170.525;    0.000
775.098;10322.975;  144.525;    0.000
775.290;10628.975;  162.525;    0.000
775.483;11171.975;  137.525;    0.000
775.675;11925.975;  148.525;    0.000
775.867;12786.975;   81.525;    0.000
776.059;13635.975;  134.525;    0.000
776.251;15476.975;  137.525;    0.000
776.444;17575.975;  155.525;    0.000
776.636;20640.975;  148.525;    0.000
776.828;26329.975;  129.525;    0.000
777.020;39081.977;  133.525;    0.000
777.212;59858.977;  137.525;    0.000
777.404;65183.977;  124.525;    0.000
777.596;60948.977;  142.525;    0.000
777.788;43538.977;  155.525;    0.000
777.980;32346.975;  119.525;    0.000
778.172;25949.975;  129.525;    0.000
778.364;21772.975;  122.525;    0.000
778.556;18984.975;  129.525;    0.000
778.748;16897.975;  178.525;    0.000
778.940;15409.975;  128.525;    0.000
779.132;14062.975;  145.525;    0.000
779.324;12974.975;   89.525;    0.000
779.516;12164.975;  161.525;    0.000
779.708;11596.975;  183.525;    0.000
779.900;10960.975;  124.525;    0.000
780.091;10497.975;  143.525;    0.000
780.283;10083.975;  135.525;    0.000
780.475; 9714.975;  129.525;    0.000
780.667; 9558.975;  178.525;    0.000
780.859; 9064.975;  146.525;    0.000
781.050; 8998.975;  156.525;    0.000
781.242; 8449.975;  138.525;    0.000
781.434; 8481.975;  117.525;    0.000
781.625; 8467.975;  161.525;    0.000
781.817; 8214.975;  127.525;    0.000
782.008; 8159.975;  138.525;    0.000
782.200; 7956.975;  139.525;    0.000
782.392; 8010.975;  179.525;    0.000
782.583; 7797.975;  137.525;    0.000
782.775; 7677.975;  162.525;    0.000
782.966; 7579.975;  159.525;    0.000
783.158; 7510.975;  118.525;    0.000
783.349; 7453.975;  160.525;    0.000
783.541; 7396.975;  139.525;    0.000
783.732; 7302.975;  145.525;    0.000
783.924; 7285.975;  146.525;    0.000
784.115; 7077.975;  125.525;    0.000
784.306; 7114.975;  118.525;    0.000
784.498; 7180.975;  144.525;    0.000
784.689; 7197.975;  145.525;    0.000
784.880; 7068.975;  137.525;    0.000
785.072; 6924.975;  157.525;    0.000
785.263; 6999.975;  149.525;    0.000
785.454; 6856.975;  128.525;    0.000
785.645; 6970.975;  131.525;    0.000
785.837; 6994.975;  137.525;    0.000
786.028; 6840.975;  161.525;    0.000
786.219; 6889.975;  155.525;    0.000
786.410; 6744.975;  146.525;    0.000
786.601; 6863.975;  120.525;    0.000
786.792; 6881.975;  179.525;    0.000
786.984; 6746.975;  113.525;    0.000
787.175; 6706.975;  156.525;    0.000
787.366; 6800.975;  131.525;    0.000
787.557; 6839.975;  138.525;    0.000
787.748; 6772.975;  112.525;    0.000
787.939; 6827.975;  115.525;    0.000
788.130; 6775.975;  150.525;    0.000
788.321; 6966.975;  122.525;    0.000
788.512; 7091.975;  147.525;    0.000
788.703; 6970.975;  126.525;    0.000
788.894; 6979.975;   80.525;    0.000
789.084; 6821.975;  127.525;    0.000
789.275; 7027.975;  141.525;    0.000
789.466; 7081.975;  108.525;    0.000
789.657; 6963.975;  137.525;    0.000
789.848; 6957.975;  126.525;    0.000
790.039; 7026.975;  144.525;    0.000
790.229; 7047.975;  105.525;    0.000
790.420; 6900.975;   96.525;    0.000
790.611; 7097.975;  171.525;    0.000
790.801; 6928.975;   89.525;    0.000
790.992; 7031.975;  140.525;    0.000
791.183; 6961.975;  143.525;    0.000
791.373; 7022.975;  128.525;    0.000
791.564; 6962.975;   96.525;    0.000
791.755; 6882.975;  111.525;    0.000
791.945; 6921.975;  112.525;    0.000
792.136; 6960.975;  124.525;    0.000
792.326; 6899.975;   88.525;    0.000
792.517; 6969.975;  130.525;    0.000
792.707; 6931.975;  144.525;    0.000
792.898; 6994.975;  120.525;    0.000
793.088; 7254.975;  106.525;    0.000
793.279; 7281.975;  104.525;    0.000
793.469; 7306.975;  103.525;    0.000
793.660; 7305.975;  120.525;    0.000
793.850; 7513.975;  106.525;    0.000
794.040; 7881.975;  135.525;    0.000
794.231; 8316.975;   80.525;    0.000
794.421; 8987.975;  120.525;    0.000
794.611;10242.975;  154.525;    0.000
794.802;12228.975;  103.525;    0.000
794.992;12936.975;  120.525;    0.000
795.182;13156.975;  156.525;    0.000
795.372;12219.975;  104.525;    0.000
795.563;10705.975;  153.525;    0.000
795.753; 9638.975;  112.525;    0.000
795.943; 8864.975;  128.525;    0.000
796.133; 8408.975;  128.525;    0.000
796.323; 8121.975;  152.525;    0.000
796.513; 7802.975;  123.525;    0.000
796.703; 7611.975;  134.525;    0.000
796.893; 7452.975;  120.525;    0.000
797.083; 7110.975;  136.525;    0.000
797.273; 6936.975;  128.525;    0.000
797.463; 6973.975;  140.525;    0.000
797.653; 6971.975;   75.525;    0.000
797.843; 6696.975;  114.525;    0.000
798.033; 6699.975;   90.525;    0.000
798.223; 6536.975;  136.525;    0.000
798.413; 6646.975;  164.525;    0.000
798.603; 6437.975;  150.525;    0.000
798.793; 6392.975;  137.525;    0.000
798.983; 6343.975;  119.525;    0.000
799.172; 6292.975;  136.525;    0.000
799.362; 6193.975;  138.525;    0.000
799.552; 6208.975;  123.525;    0.000
799.742; 6138.975;  117.525;    0.000
799.932; 5965.975;  108.525;    0.000
800.121; 6072.975;  152.525;    0.000
800.311; 6086.975;  117.525;    0.000
800.501; 5988.975;  100.525;    0.000
800.690; 6049.975;  139.525;    0.000
800.880; 6000.975;  138.525;    0.000
801.070; 5902.975;  120.525;    0.000
801.259; 5867.975;  143.525;    0.000
801.449; 6016.975;  110.525;    0.000
801.638; 6050.975;  140.525;    0.000
801.828; 5826.975;  103.525;    0.000
802.017; 5787.975;   78.525;    0.000
802.207; 5877.975;  126.525;    0.000
802.396; 5820.975;  151.525;    0.000
802.586; 5825.975;  106.525;    0.000
802.775; 5805.975;  152.525;    0.000
802.965; 5739.975;  117.525;    0.000
803.154; 5742.975;  171.525;    0.000
803.343; 5714.975;  126.525;    0.000
803.533; 5678.975;  135.525;    0.000
803.722; 5536.975;  144.525;    0.000
803.911; 5697.975;  109.525;    0.000
804.101; 5719.975;  146.525;    0.000
804.290; 5647.975;  115.525;    0.000
804.479; 5583.975;  128.525;    0.000
804.668; 5674.975;  156.525;    0.000
804.857; 5638.975;  151.525;    0.000
805.047; 5593.975;  131.525;    0.000
805.236; 5717.975;  144.525;    0.000
805.425; 5677.975;  160.525;    0.000
805.614; 5631.975;  112.525;    0.000
805.803; 5679.975;  120.525;    0.000
805.992; 5566.975;  148.525;    0.000
806.181; 5652.975;  108.525;    0.000
806.370; 5580.975;  142.525;    0.000
806.559; 5553.975;  116.525;    0.000
806.748; 5733.975;  108.525;    0.000
806.937; 5527.975;  110.525;    0.000
807.126; 5764.975;  126.525;    0.000
807.315; 5540.975;  121.525;    0.000
807.504; 5568.975;  102.525;    0.000
807.693; 5466.975;  134.525;    0.000
807.882; 5585.975;  135.525;    0.000
808.071; 5648.975;  135.525;    0.000
808.260; 5550.975;   93.525;    0.000
808.448; 5708.975;  151.525;    0.000
808.637; 5545.975;  105.525;    0.000
808.826; 5562.975;  178.525;    0.000
809.015; 5586.975;  152.525;    0.000
809.203; 5657.975;  147.525;    0.000
809.392; 5624.975;  144.525;    0.000
809.581; 5764.975;  167.525;    0.000
809.770; 5629.975;  151.525;    0.000
809.958; 5745.975;  128.525;    0.000
810.147; 5656.975;  152.525;    0.000
810.335; 5848.975;  160.525;    0.000
810.524; 5844.975;  130.525;    0.000
810.713; 5884.975;  128.525;    0.000
810.901; 5802.975;  140.525;    0.000
811.090; 5860.975;  152.525;    0.000
811.278; 5886.975;  126.525;    0.000
811.467; 6158.975;  161.525;    0.000
811.655; 6236.975;  184.525;    0.000
811.844; 6293.975;  148.525;    0.000
812.032; 6230.975;  138.525;    0.000
812.220; 6207.975;  157.525;    0.000
812.409; 6195.975;  143.525;    0.000
812.597; 6170.975;  124.525;    0.000
812.785; 6206.975;  170.525;    0.000
812.974; 6191.975;  135.525;    0.000
813.162; 6093.975;  135.525;    0.000
813.350; 6159.975;  182.525;    0.000
813.539; 6141.975;  126.525;    0.000
813.727; 6357.975;  127.525;    0.000
813.915; 6247.975;  140.525;    0.000
814.103; 6306.975;  176.525;    0.000
814.291; 6379.975;  115.525;    0.000
814.479; 6490.975;  119.525;    0.000
814.668; 6474.975;  134.525;    0.000
814.856; 6559.975;  120.525;    0.000
815.044; 6733.975;  164.525;    0.000
815.232; 6671.975;  146.525;    0.000
815.420; 6785.975;  154.525;    0.000
815.608; 7071.975;  137.525;    0.000
815.796; 6979.975;  108.525;    0.000
815.984; 7124.975;  134.525;    0.000
816.172; 7243.975;  123.525;    0.000
816.360; 7520.975;  181.525;    0.000
816.548; 7857.975;  139.525;    0.000
816.736; 8031.975;  138.525;    0.000
816.924; 8454.975;  151.525;    0.000
817.111; 8679.975;  156.525;    0.000
817.299; 9220.975;  147.525;    0.000
817.487; 9902.975;  188.525;    0.000
817.675;10733.975;  129.525;    0.000
817.863;12231.975;  128.525;    0.000
818.050;16203.975;  110.525;    0.000
818.238;28804.975;  166.525;    0.000
818.426;41009.977;  136.525;    0.000
818.613;30582.975;  143.525;    0.000
818.801;26747.975;  150.525;    0.000
818.989;25551.975;  179.525;    0.000
819.176;25656.975;  123.525;    0.000
819.364;36122.977;  148.525;    0.000
819.552;51681.977;   86.525;    0.000
819.739;36789.977;  169.525;    0.000
819.927;27243.975;  130.525;    0.000
820.114;23062.975;  144.525;    0.000
820.302;20579.975;  166.525;    0.000
820.489;18272.975;  145.525;    0.000
820.677;17354.975;  101.525;    0.000
820.864;17055.975;  149.525;    0.000
821.052;17445.975;  130.525;    0.000
821.239;18105.975;  147.525;    0.000
821.426;19724.975;  121.525;    0.000
821.614;24603.975;  187.525;    0.000
821.801;26737.975;  105.525;    0.000
821.988;22460.975;  167.525;    0.000
822.176;21374.975;  130.525;    0.000
822.363;21810.975;  143.525;    0.000
822.550;19721.975;  108.525;    0.000
822.737;17202.975;  109.525;    0.000
822.924;15772.975;  156.525;    0.000
823.112;14949.975;  123.525;    0.000
823.299;13781.975;  128.525;    0.000
823.486;13086.975;  138.525;    0.000
823.673;12333.975;  125.525;    0.000
823.860;11754.975;  138.525;    0.000
824.047;12094.975;  122.525;    0.000
824.234;14328.975;  134.525;    0.000
824.421;14441.975;   95.525;    0.000
824.608;12444.975;  151.525;    0.000
824.795;10951.975;  117.525;    0.000
824.982;10091.975;  143.525;    0.000
825.169; 9446.975;   83.525;    0.000
825.356; 8928.975;  126.525;    0.000
825.543; 8588.975;   92.525;    0.000
825.730; 8161.975;  113.525;    0.000
825.917; 7735.975;  142.525;    0.000
826.104; 7643.975;  182.525;    0.000
826.290; 7438.975;  137.525;    0.000
826.477; 7236.975;  126.525;    0.000
826.664; 7034.975;  135.525;    0.000
826.851; 6771.975;  139.525;    0.000
827.038; 6645.975;  135.525;    0.000
827.224; 6515.975;  143.525;    0.000
827.411; 6408.975;  153.525;    0.000
827.598; 6341.975;  122.525;    0.000
827.784; 6111.975;  138.525;    0.000
827.971; 6124.975;  134.525;    0.000
828.157; 6011.975;  152.525;    0.000
828.344; 5850.975;  135.525;    0.000
828.531; 5884.975;  137.525;    0.000
828.717; 5765.975;  117.525;    0.000
828.904; 5644.975;  127.525;    0.000
829.090; 5669.975;  172.525;    0.000
829.277; 5437.975;  144.525;    0.000
829.463; 5488.975;  159.525;    0.000
829.650; 5456.975;  187.525;    0.000
829.836; 5300.975;  138.525;    0.000
830.022; 5264.975;  196.525;    0.000
830.209; 5248.975;  118.525;    0.000
830.395; 5224.975;  148.525;    0.000
830.581; 5108.975;  108.525;    0.000
830.768; 5102.975;  137.525;    0.000
830.954; 5058.975;  162.525;    0.000
831.140; 5090.975;  117.525;    0.000
831.327; 4994.975;  176.525;    0.000
831.513; 4996.975;  162.525;    0.000
831.699; 4995.975;  157.525;    0.000
831.885; 4939.975;  153.525;    0.000
832.071; 4823.975;  123.525;    0.000
832.257; 4685.975;  142.525;    0.000
832.444; 4698.975;  165.525;    0.000
832.630; 4683.975;  159.525;    0.000
832.816; 4809.975;  145.525;    0.000
833.002; 4665.975;  120.525;    0.000
833.188; 4594.975;  145.525;    0.000
833.374; 4571.975;  137.525;    0.000
833.560; 4759.975;  152.525;    0.000
833.746; 4678.975;  139.525;    0.000
833.932; 4506.975;  170.525;    0.000
834.118; 4539.975;  111.525;    0.000
834.303; 4587.975;  141.525;    0.000
834.489; 4563.975;  146.525;    0.000
834.675; 4479.975;  156.525;    0.000
834.861; 4445.975;   87.525;    0.000
835.047; 4421.975;  134.525;    0.000
835.233; 4401.975;   89.525;    0.000
835.418; 4383.975;  145.525;    0.000
835.604; 4421.975;  136.525;    0.000
835.790; 4306.975;  132.525;    0.000
835.976; 4426.975;  161.525;    0.000
836.161; 4412.975;  157.525;    0.000
836.347; 4369.975;  147.525;    0.000
836.533; 4450.975;  116.525;    0.000
836.718; 4535.975;  168.525;    0.000
836.904; 4367.975;  199.525;    0.000
837.089; 4344.975;  165.525;    0.000
837.275; 4322.975;  166.525;    0.000
837.460; 4273.975;  144.525;    0.000
837.646; 4289.975;  164.525;    0.000
837.831; 4371.975;  122.525;    0.000
838.017; 4258.975;  163.525;    0.000
838.202; 4315.975;  139.525;    0.000
838.388; 4326.975;  174.525;    0.000
838.573; 4326.975;  140.525;    0.000
838.759; 4375.975;  167.525;    0.000
838.944; 4337.975;  142.525;    0.000
839.129; 4249.975;  164.525;    0.000
839.315; 4317.975;  129.525;    0.000
839.500; 4361.975;  150.525;    0.000
839.685; 4371.975;  118.525;    0.000
839.870; 4272.975;  177.525;    0.000
840.056; 4350.975;  144.525;    0.000
840.241; 4318.975;  121.525;    0.000
840.426; 4380.975;  131.525;    0.000
840.611; 4467.975;  177.525;    0.000
840.796; 4416.975;  173.525;    0.000
840.981; 4505.975;  156.525;    0.000
841.166; 4441.975;  145.525;    0.000
841.352; 4606.975;  150.525;    0.000
841.537; 4613.975;  143.525;    0.000
841.722; 4562.975;  165.525;    0.000
841.907; 4606.975;  184.525;    0.000
842.092; 4692.975;  171.525;    0.000
842.277; 4833.975;  155.525;    0.000
842.461; 4946.975;  152.525;    0.000
842.646; 4935.975;  107.525;    0.000
842.831; 5115.975;  160.525;    0.000
843.016; 5300.975;  160.525;    0.000
843.201; 5392.975;  164.525;    0.000
843.386; 5737.975;  134.525;    0.000
843.571; 5907.975;  132.525;    0.000
843.755; 6413.975;  158.525;    0.000
843.940; 6818.975;  152.525;    0.000
844.125; 7904.975;  154.525;    0.000
844.310; 9550.975;  147.525;    0.000
844.494;13179.975;  158.525;    0.000
844.679;19710.975;  173.525;    0.000
844.864;18757.975;  152.525;    0.000
845.048;14486.975;  139.525;    0.000
845.233;11445.975;  200.525;    0.000
845.418; 9817.975;  139.525;    0.000
845.602; 8575.975;  147.525;    0.000
845.787; 7668.975;  148.525;    0.000
845.971; 7063.975;  170.525;    0.000
846.156; 6502.975;  136.525;    0.000
846.340; 6144.975;  146.525;    0.000
846.525; 5979.975;  188.525;    0.000
846.709; 5564.975;  128.525;    0.000
846.893; 5469.975;  151.525;    0.000
847.078; 5161.975;  164.525;    0.000
847.262; 4904.975;  155.525;    0.000
847.447; 4801.975;  114.525;    0.000
847.631; 4696.975;  148.525;    0.000
847.815; 4474.975;  114.525;    0.000
848.000; 4600.975;  134.525;    0.000
848.184; 4496.975;  154.525;    0.000
848.368; 4400.975;  145.525;    0.000
848.552; 4322.975;  122.525;    0.000
848.736; 4253.975;  139.525;    0.000
848.921; 4252.975;  143.525;    0.000
849.105; 4170.975;  145.525;    0.000
849.289; 4260.975;  173.525;    0.000
849.473; 4071.975;  147.525;    0.000
849.657; 4118.975;  144.525;    0.000
849.841; 4026.975;  168.525;    0.000
850.025; 4041.975;  205.525;    0.000
850.209; 3978.975;  171.525;    0.000
850.393; 3811.975;  130.525;    0.000
850.577; 4015.975;  146.525;    0.000
850.761; 3893.975;  188.525;    0.000
850.945; 3946.975;  137.525;    0.000
851.129; 3941.975;  192.525;    0.000
851.313; 3819.975;  199.525;    0.000
851.497; 3831.975;  165.525;    0.000
851.680; 3878.975;  196.525;    0.000
851.864; 3865.975;  169.525;    0.000
852.048; 3766.975;  156.525;    0.000
852.232; 3847.975;  150.525;    0.000
852.416; 3941.975;  219.525;    0.000
852.599; 3889.975;  168.525;    0.000
852.783; 3822.975;  165.525;    0.000
852.967; 3795.975;  166.525;    0.000
853.150; 3787.975;  191.525;    0.000
853.334; 3794.975;  158.525;    0.000
853.518; 3732.975;  168.525;    0.000
853.701; 3771.975;  125.525;    0.000
853.885; 3713.975;  165.525;    0.000
854.068; 3669.975;  142.525;    0.000
854.252; 3703.975;  167.525;    0.000
854.435; 3698.975;  146.525;    0.000
854.619; 3657.975;  163.525;    0.000
854.802; 3728.975;  167.525;    0.000
854.986; 3658.975;  163.525;    0.000
855.169; 3677.975;  146.525;    0.000
855.353; 3785.975;  183.525;    0.000
855.536; 3686.975;  140.525;    0.000
855.719; 3832.975;  168.525;    0.000
855.903; 3817.975;  170.525;    0.000
856.086; 3802.975;  145.525;    0.000
856.269; 3846.975;  126.525;    0.000
856.452; 3911.975;  142.525;    0.000
856.636; 4140.975;  140.525;    0.000
856.819; 4522.975;  127.525;    0.000
857.002; 4593.975;  165.525;    0.000
857.185; 4409.975;  111.525;    0.000
857.368; 4239.975;  143.525;    0.000
857.552; 4176.975;  174.525;    0.000
857.735; 4135.975;  194.525;    0.000
857.918; 4084.975;  171.525;    0.000
858.101; 4042.975;  142.525;    0.000
858.284; 4107.975;  118.525;    0.000
858.467; 4160.975;  163.525;    0.000
858.650; 4203.975;  149.525;    0.000
858.833; 4200.975;  120.525;    0.000
859.016; 4427.975;  169.525;    0.000
859.199; 4619.975;  121.525;    0.000
859.382; 5374.975;  184.525;    0.000
859.564; 5831.975;  139.525;    0.000
859.747; 5558.975;  126.525;    0.000
859.930; 5187.975;  109.525;    0.000
860.113; 4939.975;  137.525;    0.000
860.296; 4817.975;  182.525;    0.000
860.478; 4705.975;  136.525;    0.000
860.661; 4585.975;  157.525;    0.000
860.844; 4611.975;  129.525;    0.000
861.027; 4481.975;  163.525;    0.000
861.209; 4486.975;  151.525;    0.000
861.392; 4474.975;  124.525;    0.000
861.575; 4542.975;  163.525;    0.000
861.757; 4585.975;  205.525;    0.000
861.940; 4632.975;  180.525;    0.000
862.122; 4657.975;  148.525;    0.000
862.305; 4763.975;  128.525;    0.000
862.487; 5175.975;  172.525;    0.000
862.670; 5562.975;  123.525;    0.000
862.852; 7040.975;  126.525;    0.000
863.035; 8768.975;  174.525;    0.000
863.217; 8335.975;  160.525;    0.000
863.400; 7437.975;  164.525;    0.000
863.582; 6731.975;  118.525;    0.000
863.764; 6262.975;  143.525;    0.000
863.947; 5902.975;  137.525;    0.000
864.129; 5699.975;  166.525;    0.000
864.311; 5544.975;  128.525;    0.000
864.493; 5409.975;  153.525;    0.000
864.676; 5165.975;  156.525;    0.000
864.858; 5165.975;  159.525;    0.000
865.040; 5215.975;  163.525;    0.000
865.222; 5260.975;  138.525;    0.000
865.404; 5470.975;  157.525;    0.000
865.587; 5728.975;  184.525;    0.000
865.769; 6156.975;  178.525;    0.000
865.951; 5865.975;  104.525;    0.000
866.133; 5952.975;  147.525;    0.000
866.315; 5765.975;  141.525;    0.000
866.497; 5856.975;  132.525;    0.000
866.679; 6100.975;  139.525;    0.000
866.861; 6288.975;  118.525;    0.000
867.043; 6636.975;  154.525;    0.000
867.225; 7014.975;  147.525;    0.000
867.407; 7558.975;  158.525;    0.000
867.589; 9000.975;  172.525;    0.000
867.770;11238.975;  159.525;    0.000
867.952;16664.975;  149.525;    0.000
868.134;22463.975;  156.525;    0.000
868.316;21869.975;  171.525;    0.000
868.498;20916.975;  200.525;    0.000
868.679;17565.975;  174.525;    0.000
868.861;14430.975;  175.525;    0.000
869.043;11589.975;  174.525;    0.000
869.224;10158.975;  122.525;    0.000
869.406; 8996.975;  166.525;    0.000
869.588; 8352.975;  143.525;    0.000
869.769; 7943.975;  152.525;    0.000
869.951; 7860.975;  165.525;    0.000
870.132; 7755.975;  115.525;    0.000
870.314; 9098.975;  139.525;    0.000
870.495; 9306.975;  168.525;    0.000
870.677; 8243.975;  188.525;    0.000
870.858; 7858.975;  123.525;    0.000
871.040; 8447.975;  170.525;    0.000
871.221; 9741.975;  148.525;    0.000
871.403; 9077.975;  140.525;    0.000
871.584; 8175.975;  174.525;    0.000
871.765; 8199.975;  168.525;    0.000
871.947; 8965.975;  191.525;    0.000
872.128; 7984.975;  132.525;    0.000
872.309; 6916.975;  140.525;    0.000
872.491; 6199.975;  157.525;    0.000
872.672; 5913.975;  130.525;    0.000
872.853; 5640.975;  148.525;    0.000
873.034; 5510.975;  138.525;    0.000
873.215; 5148.975;  152.525;    0.000
873.396; 4861.975;  149.525;    0.000
873.578; 4570.975;  173.525;    0.000
873.759; 4510.975;  158.525;    0.000
873.940; 4423.975;  147.525;    0.000
874.121; 4168.975;  136.525;    0.000
874.302; 4094.975;  151.525;    0.000
874.483; 4097.975;  137.525;    0.000
874.664; 4131.975;  163.525;    0.000
874.845; 4047.975;  124.525;    0.000
875.026; 3942.975;  134.525;    0.000
875.207; 3805.975;  164.525;    0.000
875.388; 3796.975;  163.525;    0.000
875.568; 3695.975;  176.525;    0.000
875.749; 3565.975;  108.525;    0.000
875.930; 3503.975;  191.525;    0.000
876.111; 3480.975;  170.525;    0.000
876.292; 3548.975;  180.525;    0.000
876.472; 3501.975;  150.525;    0.000
876.653; 3454.975;  162.525;    0.000
876.834; 3419.975;  176.525;    0.000
877.015; 3398.975;  203.525;    0.000
877.195; 3362.975;  178.525;    0.000
877.376; 3290.975;  141.525;    0.000
877.556; 3319.975;  135.525;    0.000
877.737; 3289.975;  174.525;    0.000
877.918; 3209.975;  150.525;    0.000
878.098; 3285.975;  133.525;    0.000
878.279; 3199.975;  129.525;    0.000
878.459; 3145.975;  162.525;    0.000
878.640; 3244.975;  187.525;    0.000
878.820; 3190.975;  151.525;    0.000
879.000; 3232.975;  159.525;    0.000
879.181; 3161.975;  171.525;    0.000
879.361; 3232.975;  167.525;    0.000
879.542; 3094.975;  126.525;    0.000
879.722; 3063.975;  152.525;    0.000
879.902; 3068.975;  144.525;    0.000
880.083; 3172.975;  154.525;    0.000
880.263; 3106.975;  148.525;    0.000
880.443; 3389.975;  185.525;    0.000
880.623; 3629.975;  172.525;    0.000
880.803; 4124.975;  152.525;    0.000
880.984; 3552.975;  165.525;    0.000
881.164; 3399.975;  164.525;    0.000
881.344; 3354.975;  141.525;    0.000
881.524; 3338.975;  160.525;    0.000
881.704; 3464.975;  164.525;    0.000
881.884; 3588.975;  159.525;    0.000
882.064; 3821.975;  158.525;    0.000
882.244; 3969.975;  147.525;    0.000
882.424; 3547.975;  160.525;    0.000
882.604; 3518.975;  150.525;    0.000
882.784; 3370.975;  138.525;    0.000
882.964; 3222.975;  157.525;    0.000
883.144; 3186.975;  128.525;    0.000
883.324; 3221.975;  220.525;    0.000
883.504; 3141.975;  177.525;    0.000
883.683; 2949.975;  159.525;    0.000
883.863; 3027.975;  143.525;    0.000
884.043; 3005.975;  156.525;    0.000
884.223; 2990.975;  152.525;    0.000
884.402; 2970.975;  169.525;    0.000
884.582; 2926.975;  162.525;    0.000
884.762; 2925.975;  172.525;    0.000
884.941; 2862.975;  220.525;    0.000
885.121; 2857.975;  128.525;    0.000
885.301; 2897.975;  141.525;    0.000
885.480; 2765.975;  141.525;    0.000
885.660; 2924.975;  132.525;    0.000
885.839; 2873.975;  146.525;    0.000
886.019; 2860.975;  170.525;    0.000
886.198; 2830.975;  143.525;    0.000
886.378; 2776.975;  159.525;    0.000
886.557; 2764.975;  148.525;    0.000
886.737; 2820.975;  125.525;    0.000
886.916; 2734.975;  177.525;    0.000
887.095; 2727.975;  186.525;    0.000
887.275; 2596.975;  134.525;    0.000
887.454; 2748.975;  148.525;    0.000
887.633; 2828.975;  171.525;    0.000
887.813; 2813.975;  187.525;    0.000
887.992; 2819.975;  157.525;    0.000
888.171; 2712.975;  143.525;    0.000
888.350; 2786.975;  182.525;    0.000
888.530; 2672.975;  142.525;    0.000
888.709; 2688.975;  160.525;    0.000
888.888; 2759.975;  197.525;    0.000
889.067; 2752.975;  126.525;    0.000
889.246; 2819.975;  197.525;    0.000
889.425; 2736.975;  161.525;    0.000
889.604; 2746.975;  180.525;    0.000
889.783; 2819.975;  135.525;    0.000
889.962; 2714.975;  107.525;    0.000
890.141; 2665.975;  167.525;    0.000
890.320; 2726.975;  149.525;    0.000
890.499; 2695.975;  194.525;    0.000
890.678; 2637.975;  138.525;    0.000
890.857; 2685.975;  146.525;    0.000
891.036; 2712.975;  178.525;    0.000
891.214; 2651.975;  151.525;    0.000
891.393; 2693.975;  137.525;    0.000
891.572; 2640.975;  177.525;    0.000
891.751; 2614.975;  149.525;    0.000
891.930; 2640.975;  189.525;    0.000
892.108; 2555.975;  136.525;    0.000
892.287; 2628.975;  129.525;    0.000
892.466; 2692.975;  163.525;    0.000
892.644; 2639.975;  147.525;    0.000
892.823; 2638.975;  127.525;    0.000
893.001; 2683.975;  192.525;    0.000
893.180; 2740.975;  157.525;    0.000
893.359; 2708.975;  176.525;    0.000
893.537; 2677.975;  146.525;    0.000
893.716; 2575.975;  154.525;    0.000
893.894; 2609.975;  166.525;    0.000
894.073; 2664.975;  163.525;    0.000
894.251; 2754.975;  166.525;    0.000
894.429; 2630.975;  149.525;    0.000
894.608; 2707.975;  141.525;    0.000
894.786; 2632.975;  139.525;    0.000
894.964; 2684.975;  180.525;    0.000
895.143; 2633.975;  193.525;    0.000
895.321; 2619.975;  163.525;    0.000
895.499; 2655.975;  163.525;    0.000
895.677; 2686.975;  194.525;    0.000
895.856; 2702.975;  176.525;    0.000
896.034; 2728.975;  173.525;    0.000
896.212; 2685.975;  180.525;    0.000
896.390; 2703.975;  146.525;    0.000
896.568; 2715.975;  167.525;    0.000
896.746; 2709.975;  158.525;    0.000
896.924; 2704.975;  163.525;    0.000
897.102; 2792.975;  170.525;    0.000
897.280; 2733.975;  159.525;    0.000
897.458; 2645.975;  182.525;    0.000
897.636; 2692.975;  151.525;    0.000
897.814; 2750.975;  130.525;    0.000
897.992; 2730.975;  213.525;    0.000
898.170; 2742.975;  164.525;    0.000
898.348; 2780.975;  159.525;    0.000
898.526; 2696.975;  182.525;    0.000
898.704; 2705.975;  209.525;    0.000
898.882; 2697.975;  145.525;    0.000
899.059; 2733.975;  172.525;    0.000
899.237; 2724.975;  172.525;    0.000
899.415; 2844.975;  211.525;    0.000
899.593; 2756.975;  151.525;    0.000
899.770; 2722.975;  147.525;    0.000
899.948; 2884.975;  218.525;    0.000
900.125; 2880.975;  166.525;    0.000
900.303; 2838.975;  146.525;    0.000
900.481; 2828.975;  174.525;    0.000
900.658; 2775.975;  198.525;    0.000
900.836; 2960.975;  125.525;    0.000
901.013; 2932.975;  197.525;    0.000
901.191; 2895.975;  181.525;    0.000
901.368; 2982.975;  185.525;    0.000
901.546; 2991.975;  197.525;    0.000
901.723; 3156.975;  205.525;    0.000
901.901; 3208.975;  187.525;    0.000
902.078; 3305.975;  163.525;    0.000
902.255; 3309.975;  141.525;    0.000
902.433; 3181.975;  183.525;    0.000
902.610; 3384.975;  181.525;    0.000
902.787; 3346.975;  174.525;    0.000
902.964; 3482.975;  174.525;    0.000
903.142; 3578.975;  141.525;    0.000
903.319; 3586.975;  214.525;    0.000
903.496; 3662.975;  187.525;    0.000
903.673; 3677.975;  183.525;    0.000
903.850; 3799.975;  125.525;    0.000
904.027; 3927.975;  197.525;    0.000
904.204; 4103.975;  197.525;    0.000
904.381; 4571.975;  196.525;    0.000
904.558; 5456.975;  176.525;    0.000
904.735; 6309.975;  179.525;    0.000
904.912; 6175.975;  203.525;    0.000
905.089; 6303.975;  159.525;    0.000
905.266; 5645.975;  176.525;    0.000
905.443; 5216.975;  184.525;    0.000
905.620; 4760.975;  168.525;    0.000
905.797; 4541.975;  214.525;    0.000
905.974; 4245.975;  154.525;    0.000
906.151; 4378.975;  132.525;    0.000
906.327; 4338.975;  192.525;    0.000
906.504; 4346.975;  186.525;    0.000
906.681; 3996.975;  171.525;    0.000
906.858; 4000.975;  181.525;    0.000
907.034; 3857.975;  164.525;    0.000
907.211; 3567.975;  184.525;    0.000
907.388; 3563.975;  177.525;    0.000
907.564; 3596.975;  150.525;    0.000
907.741; 3418.975;  195.525;    0.000
907.917; 3390.975;  190.525;    0.000
908.094; 3301.975;  214.525;    0.000
908.271; 3215.975;  173.525;    0.000
908.447; 3324.975;  229.525;    0.000
908.623; 3213.975;  162.525;    0.000
908.800; 3183.975;  195.525;    0.000
908.976; 3088.975;  171.525;    0.000
909.153; 3091.975;  167.525;    0.000
909.329; 3136.975;  227.525;    0.000
909.505; 3092.975;  167.525;    0.000
909.682; 3039.975;  174.525;    0.000
909.858; 2950.975;  158.525;    0.000
910.034; 2977.975;  188.525;    0.000
910.211; 2872.975;  158.525;    0.000
910.387; 2948.975;  208.525;    0.000
910.563; 2913.975;  203.525;    0.000
910.739; 3009.975;  201.525;    0.000
910.915; 2892.975;  170.525;    0.000
911.091; 2908.975;  171.525;    0.000
911.268; 2916.975;  220.525;    0.000
911.444; 2894.975;  202.525;    0.000
911.620; 2890.975;  175.525;    0.000
911.796; 2798.975;  175.525;    0.000
911.972; 2834.975;  164.525;    0.000
912.148; 2802.975;  174.525;    0.000
912.324; 2849.975;  155.525;    0.000
912.500; 2951.975;  156.525;    0.000
912.676; 2851.975;  138.525;    0.000
912.851; 2863.975;  158.525;    0.000
913.027; 2901.975;  161.525;    0.000
913.203; 2832.975;  168.525;    0.000
913.379; 2755.975;  172.525;    0.000
913.555; 2823.975;  193.525;    0.000
913.730; 2797.975;  149.525;    0.000
913.906; 2822.975;  159.525;    0.000
914.082; 2748.975;  184.525;    0.000
914.258; 2797.975;  194.525;    0.000
914.433; 2771.975;  175.525;    0.000
914.609; 2682.975;  175.525;    0.000
914.784; 2811.975;  170.525;    0.000
914.960; 2794.975;  212.525;    0.000
915.136; 2838.975;  157.525;    0.000
915.311; 2873.975;  204.525;    0.000
915.487; 2873.975;  180.525;    0.000
915.662; 2917.975;  203.525;    0.000
915.838; 2903.975;  194.525;    0.000
916.013; 2839.975;  217.525;    0.000
916.189; 2868.975;  196.525;    0.000
916.364; 2854.975;  236.525;    0.000
916.539; 2810.975;  192.525;    0.000
916.715; 2889.975;  181.525;    0.000
916.890; 2833.975;  185.525;    0.000
917.065; 2896.975;  166.525;    0.000
917.240; 2907.975;  182.525;    0.000
917.416; 2801.975;  188.525;    0.000
917.591; 2862.975;  185.525;    0.000
917.766; 2850.975;  187.525;    0.000
917.941; 2852.975;  181.525;    0.000
918.116; 2839.975;  207.525;    0.000
918.292; 2818.975;  140.525;    0.000
918.467; 2901.975;  187.525;    0.000
918.642; 2877.975;  208.525;    0.000
918.817; 2862.975;  203.525;    0.000
918.992; 2819.975;  162.525;    0.000
919.167; 2793.975;  206.525;    0.000
919.342; 2868.975;  188.525;    0.000
919.517; 2868.975;  190.525;    0.000
919.692; 2981.975;  174.525;    0.000
919.867; 2889.975;  181.525;    0.000
920.041; 2906.975;  179.525;    0.000
920.216; 3002.975;  186.525;    0.000
920.391; 3038.975;  209.525;    0.000
920.566; 3038.975;  205.525;    0.000
920.741; 3092.975;  205.525;    0.000
920.915; 3297.975;  206.525;    0.000
921.090; 3393.975;  219.525;    0.000
921.265; 3955.975;  185.525;    0.000
921.439; 4529.975;  171.525;    0.000
921.614; 3894.975;  197.525;    0.000
921.789; 3634.975;  189.525;    0.000
921.963; 3630.975;  210.525;    0.000
922.138; 3415.975;  171.525;    0.000
922.312; 3414.975;  194.525;    0.000
922.487; 3401.975;  231.525;    0.000
922.661; 3567.975;  179.525;    0.000
922.836; 3913.975;  213.525;    0.000
923.010; 3983.975;  182.525;    0.000
923.185; 3657.975;  239.525;    0.000
923.359; 3560.975;  200.525;    0.000
923.534; 3375.975;  232.525;    0.000
923.708; 3726.975;  221.525;    0.000
923.882; 3801.975;  193.525;    0.000
924.057; 3664.975;  204.525;    0.000
924.231; 3560.975;  172.525;    0.000
924.405; 3563.975;  202.525;    0.000
924.579; 3537.975;  207.525;    0.000
924.753; 3468.975;  167.525;    0.000
924.928; 3376.975;  202.525;    0.000
925.102; 3420.975;  200.525;    0.000
925.276; 3479.975;  185.525;    0.000
925.450; 3512.975;  170.525;    0.000
925.624; 3606.975;  176.525;    0.000
925.798; 3812.975;  221.525;    0.000
925.972; 3994.975;  162.525;    0.000
926.146; 4339.975;  207.525;    0.000
926.320; 4824.975;  185.525;    0.000
926.494; 5431.975;  192.525;    0.000
926.668; 5708.975;  179.525;    0.000
926.842; 5981.975;  181.525;    0.000
927.016; 5901.975;  224.525;    0.000
927.190; 5562.975;  193.525;    0.000
927.363; 5367.975;  194.525;    0.000
927.537; 5188.975;  210.525;    0.000
927.711; 4866.975;  153.525;    0.000
927.885; 4792.975;  184.525;    0.000
928.058; 4557.975;  197.525;    0.000
928.232; 4549.975;  219.525;    0.000
928.406; 4374.975;  175.525;    0.000
928.579; 4159.975;  179.525;    0.000
928.753; 4244.975;  208.525;    0.000
928.927; 3878.975;  163.525;    0.000
929.100; 3884.975;  138.525;    0.000
929.274; 3843.975;  160.525;    0.000
929.447; 3761.975;  152.525;    0.000
929.621; 3680.975;  168.525;    0.000
929.794; 3637.975;  152.525;    0.000
929.968; 3598.975;  163.525;    0.000
930.141; 3551.975;  164.525;    0.000
930.315; 3406.975;  170.525;    0.000
930.488; 3424.975;  216.525;    0.000
930.661; 3346.975;  184.525;    0.000
930.835; 3285.975;  156.525;    0.000
931.008; 3329.975;  206.525;    0.000
931.181; 3241.975;  163.525;    0.000
931.354; 3214.975;  198.525;    0.000
931.528; 3151.975;  156.525;    0.000
931.701; 3048.975;  170.525;    0.000
931.874; 3038.975;  167.525;    0.000
932.047; 3100.975;  146.525;    0.000
932.220; 3069.975;  159.525;    0.000
932.393; 3041.975;  186.525;    0.000
932.566; 2946.975;  147.525;    0.000
932.739; 2959.975;  192.525;    0.000
932.912; 2900.975;  197.525;    0.000
933.085; 2944.975;  176.525;    0.000
933.258; 2884.975;  171.525;    0.000
933.431; 2855.975;  150.525;    0.000
933.604; 2909.975;  176.525;    0.000
933.777; 2832.975;  215.525;    0.000
933.950; 2796.975;  164.525;    0.000
934.123; 2780.975;  174.525;    0.000
934.296; 2885.975;  203.525;    0.000
934.468; 2758.975;  208.525;    0.000
934.641; 2760.975;  182.525;    0.000
934.814; 2710.975;  170.525;    0.000
934.987; 2724.975;  183.525;    0.000
935.159; 2772.975;  154.525;    0.000
935.332; 2781.975;  178.525;    0.000
935.505; 2718.975;  213.525;    0.000
935.677; 2747.975;  173.525;    0.000
935.850; 2672.975;  190.525;    0.000
936.022; 2718.975;  205.525;    0.000
936.195; 2820.975;  201.525;    0.000
936.367; 2841.975;  189.525;    0.000
936.540; 2853.975;  179.525;    0.000
936.712; 2802.975;  195.525;    0.000
936.885; 2809.975;  207.525;    0.000
937.057; 2740.975;  163.525;    0.000
937.229; 2896.975;  175.525;    0.000
937.402; 3006.975;  168.525;    0.000
937.574; 2955.975;  136.525;    0.000
937.746; 2960.975;  166.525;    0.000
937.919; 3242.975;  178.525;    0.000
938.091; 3306.975;  192.525;    0.000
938.263; 3537.975;  164.525;    0.000
938.435; 4035.975;  204.525;    0.000
938.608; 4780.975;  153.525;    0.000
938.780; 5765.975;  159.525;    0.000
938.952; 5847.975;  160.525;    0.000
939.124; 5948.975;  156.525;    0.000
939.296; 7077.975;  110.525;    0.000
939.468; 7364.975;  135.525;    0.000
939.640; 6318.975;  144.525;    0.000
939.812; 5335.975;  232.525;    0.000
939.984; 4836.975;  128.525;    0.000
940.156; 4406.975;  195.525;    0.000
940.328; 4060.975;  226.525;    0.000
940.500; 3753.975;  146.525;    0.000
940.672; 3631.975;  190.525;    0.000
940.843; 3546.975;  156.525;    0.000
941.015; 3329.975;  200.525;    0.000
941.187; 3248.975;  159.525;    0.000
941.359; 3240.975;  183.525;    0.000
941.531; 3191.975;  137.525;    0.000
941.702; 3115.975;  186.525;    0.000
941.874; 3066.975;  164.525;    0.000
942.046; 2918.975;  202.525;    0.000
942.217; 2874.975;  146.525;    0.000
942.389; 2889.975;  165.525;    0.000
942.560; 2899.975;  191.525;    0.000
942.732; 2699.975;  240.525;    0.000
942.904; 2727.975;  173.525;    0.000
943.075; 2619.975;  157.525;    0.000
943.247; 2580.975;  155.525;    0.000
943.418; 2577.975;  164.525;    0.000
943.589; 2589.975;  150.525;    0.000
943.761; 2615.975;  143.525;    0.000
943.932; 2583.975;  151.525;    0.000
944.104; 2528.975;  194.525;    0.000
944.275; 2450.975;  154.525;    0.000
944.446; 2514.975;  169.525;    0.000
944.617; 2509.975;  138.525;    0.000
944.789; 2427.975;  158.525;    0.000
944.960; 2452.975;  197.525;    0.000
945.131; 2333.975;  139.525;    0.000
945.302; 2469.975;  169.525;    0.000
945.473; 2404.975;  149.525;    0.000
945.645; 2481.975;  171.525;    0.000
945.816; 2506.975;  167.525;    0.000
945.987; 2546.975;  156.525;    0.000
946.158; 2608.975;  185.525;    0.000
946.329; 2662.975;  201.525;    0.000
946.500; 2554.975;  182.525;    0.000
946.671; 2473.975;  156.525;    0.000
946.842; 2499.975;  190.525;    0.000
947.013; 2340.975;  159.525;    0.000
947.183; 2461.975;  209.525;    0.000
947.354; 2353.975;  171.525;    0.000
947.525; 2320.975;  180.525;    0.000
947.696; 2393.975;  163.525;    0.000
947.867; 2366.975;  168.525;    0.000
948.037; 2362.975;  153.525;    0.000
948.208; 2454.975;  178.525;    0.000
948.379; 2438.975;  192.525;    0.000
948.550; 2350.975;  180.525;    0.000
948.720; 2357.975;  196.525;    0.000
948.891; 2335.975;  173.525;    0.000
949.061; 2273.975;  207.525;    0.000
949.232; 2231.975;  176.525;    0.000
949.403; 2295.975;  152.525;    0.000
949.573; 2296.975;  186.525;    0.000
949.744; 2241.975;  181.525;    0.000
949.914; 2294.975;  174.525;    0.000
950.085; 2267.975;  146.525;    0.000
950.255; 2259.975;  162.525;    0.000
950.425; 2302.975;  189.525;    0.000
950.596; 2214.975;  175.525;    0.000
950.766; 2261.975;  209.525;    0.000
950.936; 2199.975;  201.525;    0.000
951.107; 2197.975;  141.525;    0.000
951.277; 2279.975;  211.525;    0.000
951.447; 2255.975;  218.525;    0.000
951.617; 2184.975;  191.525;    0.000
951.788; 2141.975;  193.525;    0.000
951.958; 2180.975;  217.525;    0.000
952.128; 2135.975;  192.525;    0.000
952.298; 2211.975;  237.525;    0.000
952.468; 2156.975;  194.525;    0.000
952.638; 2118.975;  201.525;    0.000
952.808; 2168.975;  203.525;    0.000
952.978; 2209.975;  216.525;    0.000
953.148; 2143.975;  209.525;    0.000
953.318; 2134.975;  213.525;    0.000
953.488; 2117.975;  161.525;    0.000
953.658; 2186.975;  222.525;    0.000
953.828; 2060.975;  196.525;    0.000
953.998; 2089.975;  227.525;    0.000
954.167; 2107.975;  163.525;    0.000
954.337; 2030.975;  201.525;    0.000
954.507; 2105.975;  227.525;    0.000
954.677; 2066.975;  204.525;    0.000
954.846; 2072.975;  210.525;    0.000
955.016; 2045.975;  198.525;    0.000
955.186; 1987.975;  203.525;    0.000
955.355; 2034.975;  198.525;    0.000
955.525; 2005.975;  198.525;    0.000
955.695; 1980.975;  187.525;    0.000
955.864; 1972.975;  243.525;    0.000
956.034; 2041.975;  192.525;    0.000
956.203; 2075.975;  259.525;    0.000
956.373; 1958.975;  185.525;    0.000
956.542; 1984.975;  230.525;    0.000
956.711; 1966.975;  218.525;    0.000
956.881; 1930.975;  232.525;    0.000
957.050; 1989.975;  246.525;    0.000
957.220; 1971.975;  229.525;    0.000
957.389; 1970.975;  211.525;    0.000
957.558; 1885.975;  173.525;    0.000
957.727; 1947.975;  226.525;    0.000
957.897; 1938.975;  209.525;    0.000
958.066; 1929.975;  217.525;    0.000
958.235; 1911.975;  160.525;    0.000
958.404; 1894.975;  199.525;    0.000
958.573; 1929.975;  223.525;    0.000
958.743; 1803.975;  189.525;    0.000
958.912; 1862.975;  199.525;    0.000
959.081; 1857.975;  216.525;    0.000
959.250; 1827.975;  192.525;    0.000
959.419; 1888.975;  216.525;    0.000
959.588; 1921.975;  209.525;    0.000
959.757; 1907.975;  194.525;    0.000
959.926; 1832.975;  200.525;    0.000
960.094; 1845.975;  174.525;    0.000
960.263; 1834.975;  218.525;    0.000
960.432; 1866.975;  173.525;    0.000
960.601; 1867.975;  177.525;    0.000
960.770; 1762.975;  188.525;    0.000
960.939; 1846.975;  167.525;    0.000
961.107; 1803.975;  195.525;    0.000
961.276; 1795.975;  183.525;    0.000
961.445; 1827.975;  195.525;    0.000
961.613; 1819.975;  198.525;    0.000
961.782; 1867.975;  224.525;    0.000
961.951; 1807.975;  178.525;    0.000
962.119; 1783.975;  214.525;    0.000
962.288; 1791.975;  174.525;    0.000
962.456; 1787.975;  197.525;    0.000
962.625; 1791.975;  212.525;    0.000
962.793; 1799.975;  183.525;    0.000
962.962; 1823.975;  189.525;    0.000
963.130; 1805.975;  151.525;    0.000
963.298; 1707.975;  197.525;    0.000
963.467; 1855.975;  202.525;    0.000
963.635; 1775.975;  172.525;    0.000
963.803; 1799.975;  203.525;    0.000
963.972; 1858.975;  204.525;    0.000
964.140; 1769.975;  193.525;    0.000
964.308; 1841.975;  159.525;    0.000
964.477; 1759.975;  142.525;    0.000
964.645; 1823.975;  202.525;    0.000
964.813; 1791.975;  158.525;    0.000
964.981; 1850.975;  179.525;    0.000
965.149; 1870.975;  176.525;    0.000
965.317; 1795.975;  229.525;    0.000
965.485; 1799.975;  179.525;    0.000
965.653; 1755.975;  205.525;    0.000
965.821; 1807.975;  196.525;    0.000
965.989; 1799.975;  202.525;    0.000
966.157; 1799.975;  199.525;    0.000
966.325; 1755.975;  178.525;    0.000
966.493; 1711.975;  177.525;    0.000
966.661; 1731.975;  172.525;    0.000
966.829; 1777.975;  167.525;    0.000
966.996; 1675.975;  202.525;    0.000
967.164; 1779.975;  175.525;    0.000
967.332; 1797.975;  207.525;    0.000
967.500; 1707.975;  170.525;    0.000
967.667; 1838.975;  222.525;    0.000
967.835; 1881.975;  245.525;    0.000
968.003; 1845.975;  180.525;    0.000
968.170; 1910.975;  222.525;    0.000
968.338; 1769.975;  183.525;    0.000
968.505; 1793.975;  197.525;    0.000
968.673; 1782.975;  209.525;    0.000
968.841; 1714.975;  162.525;    0.000
969.008; 1755.975;  187.525;    0.000
969.175; 1746.975;  204.525;    0.000
969.343; 1718.975;  157.525;    0.000
969.510; 1787.975;  189.525;    0.000
969.678; 1723.975;  153.525;    0.000
969.845; 1771.975;  190.525;    0.000
970.012; 1747.975;  162.525;    0.000
970.180; 1843.975;  223.525;    0.000
970.347; 1667.975;  195.525;    0.000
970.514; 1725.975;  185.525;    0.000
970.681; 1711.975;  187.525;    0.000
970.849; 1727.975;  183.525;    0.000
971.016; 1771.975;  168.525;    0.000
971.183; 1723.975;  160.525;    0.000
971.350; 1770.975;  193.525;    0.000
971.517; 1767.975;  202.525;    0.000
971.684; 1789.975;  242.525;    0.000
971.851; 1731.975;  192.525;    0.000
972.018; 1747.975;  194.525;    0.000
972.185; 1735.975;  193.525;    0.000
972.352; 1791.975;  187.525;    0.000
972.519; 1708.975;  233.525;    0.000
972.686; 1753.975;  186.525;    0.000
972.853; 1735.975;  165.525;    0.000
973.020; 1699.975;  183.525;    0.000
973.186; 1719.975;  186.525;    0.000
973.353; 1682.975;  177.525;    0.000
973.520; 1758.975;  203.525;    0.000
973.687; 1771.975;  211.525;    0.000
973.853; 1751.975;  194.525;    0.000
974.020; 1703.975;  201.525;    0.000
974.187; 1693.975;  187.525;    0.000
974.353; 1751.975;  188.525;    0.000
974.520; 1787.975;  136.525;    0.000
974.687; 1713.975;  169.525;    0.000
974.853; 1647.975;  207.525;    0.000
975.020; 1658.975;  190.525;    0.000
975.186; 1715.975;  182.525;    0.000
975.353; 1721.975;  202.525;    0.000
975.519; 1698.975;  189.525;    0.000
975.685; 1655.975;  176.525;    0.000
975.852; 1669.975;  175.525;    0.000
976.018; 1627.975;  155.525;    0.000
976.184; 1696.975;  179.525;    0.000
976.351; 1705.975;  191.525;    0.000
976.517; 1755.975;  246.525;    0.000
976.683; 1724.975;  222.525;    0.000
976.849; 1685.975;  216.525;    0.000
977.016; 1638.975;  212.525;    0.000
977.182; 1678.975;  192.525;    0.000
977.348; 1695.975;  145.525;    0.000
977.514; 1658.975;  195.525;    0.000
977.680; 1714.975;  210.525;    0.000
977.846; 1605.975;  172.525;    0.000
978.012; 1619.975;  190.525;    0.000
978.178; 1639.975;  201.525;    0.000
978.344; 1691.975;  190.525;    0.000
978.510; 1671.975;  199.525;    0.000
978.676; 1694.975;  174.525;    0.000
978.842; 1625.975;  195.525;    0.000
979.008; 1685.975;  205.525;    0.000
979.174; 1599.975;  187.525;    0.000
979.340; 1719.975;  194.525;    0.000
979.505; 1779.975;  221.525;    0.000
979.671; 1622.975;  178.525;    0.000
979.837; 1672.975;  215.525;    0.000
980.003; 1663.975;  176.525;    0.000
980.168; 1743.975;  185.525;    0.000
980.334; 1679.975;  165.525;    0.000
980.499; 1703.975;  231.525;    0.000
980.665; 1830.975;  238.525;    0.000
980.831; 1753.975;  194.525;    0.000
980.996; 1733.975;  169.525;    0.000
981.162; 1727.975;  199.525;    0.000
981.327; 1719.975;  158.525;    0.000
981.493; 1717.975;  193.525;    0.000
981.658; 1630.975;  181.525;    0.000
981.823; 1794.975;  199.525;    0.000
981.989; 1701.975;  186.525;    0.000
982.154; 1687.975;  225.525;    0.000
982.319; 1682.975;  191.525;    0.000
982.485; 1773.975;  205.525;    0.000
982.650; 1781.975;  234.525;    0.000
982.815; 1758.975;  193.525;    0.000
982.980; 1733.975;  177.525;    0.000
983.146; 1697.975;  212.525;    0.000
983.311; 1678.975;  177.525;    0.000
983.476; 1764.975;  185.525;    0.000
983.641; 1655.975;  149.525;    0.000
983.806; 1686.975;  175.525;    0.000
983.971; 1724.975;  234.525;    0.000
984.136; 1683.975;  191.525;    0.000
984.301; 1694.975;  215.525;    0.000
984.466; 1721.975;  207.525;    0.000
984.631; 1653.975;  206.525;    0.000
984.796; 1666.975;  229.525;    0.000
984.961; 1681.975;  220.525;    0.000
985.126; 1711.975;  204.525;    0.000
985.291; 1634.975;  210.525;    0.000
985.455; 1678.975;  193.525;    0.000
985.620; 1667.975;  207.525;    0.000
985.785; 1586.975;  188.525;    0.000
985.950; 1663.975;  168.525;    0.000
986.114; 1739.975;  239.525;    0.000
986.279; 1721.975;  223.525;    0.000
986.444; 1703.975;  154.525;    0.000
986.608; 1863.975;  232.525;    0.000
986.773; 1811.975;  214.525;    0.000
986.937; 1799.975;  220.525;    0.000
987.102; 1814.975;  224.525;    0.000
987.266; 1725.975;  157.525;    0.000
987.431; 1835.975;  246.525;    0.000
987.595; 1703.975;  203.525;    0.000
987.760; 1651.975;  202.525;    0.000
987.924; 1715.975;  208.525;    0.000
988.088; 1734.975;  169.525;    0.000
988.253; 1733.975;  237.525;    0.000
988.417; 1707.975;  202.525;    0.000
988.581; 1739.975;  215.525;    0.000
988.746; 1661.975;  210.525;    0.000
988.910; 1755.975;  191.525;    0.000
989.074; 1720.975;  197.525;    0.000
989.238; 1695.975;  191.525;    0.000
989.402; 1703.975;  222.525;    0.000
989.566; 1678.975;  221.525;    0.000
989.731; 1671.975;  216.525;    0.000
989.895; 1636.975;  183.525;    0.000
990.059; 1659.975;  150.525;    0.000
990.223; 1675.975;  183.525;    0.000
990.387; 1637.975;  241.525;    0.000
990.551; 1647.975;  198.525;    0.000
990.714; 1586.975;  176.525;    0.000
990.878; 1577.975;  203.525;    0.000
991.042; 1587.975;  146.525;    0.000
991.206; 1626.975;  199.525;    0.000
991.370; 1617.975;  223.525;    0.000
991.534; 1631.975;  158.525;    0.000
991.697; 1638.975;  182.525;    0.000
991.861; 1573.975;  195.525;    0.000
992.025; 1643.975;  206.525;    0.000
992.188; 1506.975;  174.525;    0.000
992.352; 1599.975;  183.525;    0.000
992.516; 1571.975;  181.525;    0.000
992.679; 1552.975;  162.525;    0.000
992.843; 1577.975;  173.525;    0.000
993.006; 1587.975;  189.525;    0.000
993.170; 1685.975;  200.525;    0.000
993.333; 1519.975;  167.525;    0.000
993.497; 1588.975;  217.525;    0.000
993.660; 1626.975;  179.525;    0.000
993.824; 1587.975;  195.525;    0.000
993.987; 1658.975;  186.525;    0.000
994.150; 1551.975;  164.525;    0.000
994.314; 1610.975;  215.525;    0.000
994.477; 1511.975;  186.525;    0.000
994.640; 1587.975;  192.525;    0.000
994.803; 1559.975;  215.525;    0.000
994.967; 1607.975;  208.525;    0.000
995.130; 1527.975;  196.525;    0.000
995.293; 1587.975;  221.525;    0.000
995.456; 1503.975;  164.525;    0.000
995.619; 1583.975;  224.525;    0.000
995.782; 1555.975;  184.525;    0.000
995.945; 1561.975;  220.525;    0.000
996.108; 1559.975;  187.525;    0.000
996.271; 1513.975;  192.525;    0.000
996.434; 1525.975;  162.525;    0.000
996.597; 1479.975;  148.525;    0.000
996.760; 1510.975;  186.525;    0.000
996.923; 1585.975;  154.525;    0.000
997.086; 1572.975;  156.525;    0.000
997.248; 1540.975;  215.525;    0.000
997.411; 1511.975;  160.525;    0.000
997.574; 1505.975;  159.525;    0.000
997.737; 1490.975;  179.525;    0.000
997.899; 1522.975;  184.525;    0.000
998.062; 1478.975;  180.525;    0.000
998.225; 1563.975;  168.525;    0.000
998.387; 1574.975;  192.525;    0.000
998.550; 1491.975;  178.525;    0.000
998.712; 1499.975;  192.525;    0.000
998.875; 1523.975;  230.525;    0.000
999.037; 1523.975;  200.525;    0.000
999.200; 1495.975;  196.525;    0.000
999.362; 1515.975;  173.525;    0.000
999.525; 1457.975;  196.525;    0.000
999.687; 1511.975;  159.525;    0.000
999.849; 1533.975;  180.525;    0.000
1000.012; 1567.975;  210.525;    0.000
1000.174; 1511.975;  175.525;    0.000
1000.336; 1516.975;  174.525;    0.000
1000.499; 1491.975;  180.525;    0.000
1000.661; 1552.975;  204.525;    0.000
1000.823; 1489.975;  181.525;    0.000
1000.985; 1505.975;  178.525;    0.000
1001.147; 1570.975;  215.525;    0.000
1001.309; 1585.975;  212.525;    0.000
1001.471; 1550.975;  192.525;    0.000
1001.633; 1548.975;  207.525;    0.000
1001.796; 1606.975;  211.525;    0.000
1001.958; 1671.975;  200.525;    0.000
1002.119; 1638.975;  210.525;    0.000
1002.281; 1715.975;  204.525;    0.000
1002.443; 1702.975;  230.525;    0.000
1002.605; 1799.975;  178.525;    0.000
1002.767; 1799.975;  228.525;    0.000
1002.929; 1939.975;  199.525;    0.000
1003.091; 1913.975;  220.525;    0.000
1003.252; 2015.975;  219.525;    0.000
1003.414; 2101.975;  213.525;    0.000
1003.576; 2145.975;  202.525;    0.000
1003.738; 2143.975;  184.525;    0.000
1003.899; 2334.975;  218.525;    0.000
1004.061; 2291.975;  210.525;    0.000
1004.222; 2412.975;  179.525;    0.000
1004.384; 2538.975;  183.525;    0.000
1004.546; 2545.975;  206.525;    0.000
1004.707; 2577.975;  191.525;    0.000
1004.869; 2583.975;  197.525;    0.000
1005.030; 2448.975;  186.525;    0.000
1005.191; 2473.975;  188.525;    0.000
1005.353; 2472.975;  215.525;    0.000
1005.514; 2322.975;  184.525;    0.000
1005.675; 2289.975;  209.525;    0.000
1005.837; 2246.975;  239.525;    0.000
1005.998; 2098.975;  218.525;    0.000
1006.159; 2174.975;  212.525;    0.000
1006.321; 2203.975;  220.525;    0.000
1006.482; 2250.975;  201.525;    0.000
1006.643; 2325.975;  222.525;    0.000
1006.804; 2423.975;  191.525;    0.000
1006.965; 2453.975;  214.525;    0.000
1007.126; 2523.975;  214.525;    0.000
1007.287; 2499.975;  243.525;    0.000
1007.448; 2456.975;  251.525;    0.000
1007.609; 2501.975;  244.525;    0.000
1007.770; 2416.975;  211.525;    0.000
1007.931; 2375.975;  225.525;    0.000
1008.092; 2361.975;  188.525;    0.000
1008.253; 2470.975;  224.525;    0.000
1008.414; 2466.975;  198.525;    0.000
1008.575; 2606.975;  244.525;    0.000
1008.736; 2547.975;  219.525;    0.000
1008.896; 2484.975;  206.525;    0.000
1009.057; 2533.975;  258.525;    0.000
1009.218; 2527.975;  209.525;    0.000
1009.379; 2485.975;  204.525;    0.000
1009.539; 2575.975;  242.525;    0.000
1009.700; 2600.975;  205.525;    0.000
1009.860; 2638.975;  211.525;    0.000
1010.021; 2635.975;  219.525;    0.000
1010.182; 2652.975;  206.525;    0.000
1010.342; 2707.975;  219.525;    0.000
1010.503; 2820.975;  231.525;    0.000
1010.663; 2957.975;  260.525;    0.000
1010.823; 2891.975;  200.525;    0.000
1010.984; 3274.975;  189.525;    0.000
1011.144; 3329.975;  234.525;    0.000
1011.305; 3292.975;  212.525;    0.000
1011.465; 3460.975;  202.525;    0.000
1011.625; 3639.975;  236.525;    0.000
1011.785; 3741.975;  203.525;    0.000
1011.946; 3698.975;  195.525;    0.000
1012.106; 3592.975;  176.525;    0.000
1012.266; 3486.975;  211.525;    0.000
1012.426; 3401.975;  244.525;    0.000
1012.586; 3508.975;  202.525;    0.000
1012.746; 3555.975;  234.525;    0.000
1012.906; 3346.975;  246.525;    0.000
1013.066; 3301.975;  232.525;    0.000
1013.226; 3332.975;  248.525;    0.000
1013.386; 3196.975;  231.525;    0.000
1013.546; 3243.975;  233.525;    0.000
1013.706; 3123.975;  211.525;    0.000
1013.866; 3094.975;  240.525;    0.000
1014.026; 3096.975;  188.525;    0.000
1014.186; 3014.975;  186.525;    0.000
1014.346; 3167.975;  203.525;    0.000
1014.505; 3133.975;  238.525;    0.000
1014.665; 3143.975;  206.525;    0.000
1014.825; 3156.975;  200.525;    0.000
1014.985; 3021.975;  215.525;    0.000
1015.144; 3265.975;  250.525;    0.000
1015.304; 3330.975;  195.525;    0.000
1015.464; 3149.975;  237.525;    0.000
1015.623; 3104.975;  232.525;    0.000
1015.783; 3356.975;  220.525;    0.000
1015.942; 3712.975;  219.525;    0.000
1016.102; 3595.975;  202.525;    0.000
1016.261; 3382.975;  225.525;    0.000
1016.420; 3648.975;  246.525;    0.000
1016.580; 4202.975;  226.525;    0.000
1016.739; 4020.975;  214.525;    0.000
1016.899; 3705.975;  205.525;    0.000
1017.058; 3977.975;  217.525;    0.000
1017.217; 4336.975;  199.525;    0.000
1017.376; 4017.975;  219.525;    0.000
1017.536; 3584.975;  209.525;    0.000
1017.695; 3722.975;  213.525;    0.000
1017.854; 3790.975;  187.525;    0.000
1018.013; 3566.975;  222.525;    0.000
1018.172; 3314.975;  204.525;    0.000
1018.331; 3428.975;  195.525;    0.000
1018.490; 3731.975;  213.525;    0.000
1018.649; 3861.975;  216.525;    0.000
1018.808; 3821.975;  227.525;    0.000
1018.967; 3807.975;  206.525;    0.000
1019.126; 4034.975;  206.525;    0.000
1019.285; 4121.975;  219.525;    0.000
1019.444; 3934.975;  218.525;    0.000
1019.603; 3640.975;  206.525;    0.000
1019.762; 3541.975;  189.525;    0.000
1019.921; 3819.975;  217.525;    0.000
1020.079; 3950.975;  200.525;    0.000
1020.238; 4065.975;  219.525;    0.000
1020.397; 3902.975;  227.525;    0.000
1020.555; 3696.975;  207.525;    0.000
1020.714; 3987.975;  253.525;    0.000
1020.873; 4123.975;  230.525;    0.000
1021.031; 3982.975;  232.525;    0.000
1021.190; 3841.975;  226.525;    0.000
1021.348; 3748.975;  224.525;    0.000
1021.507; 4185.975;  215.525;    0.000
1021.665; 4267.975;  233.525;    0.000
1021.824; 3977.975;  196.525;    0.000
1021.982; 3882.975;  215.525;    0.000
1022.141; 3912.975;  200.525;    0.000
1022.299; 4406.975;  200.525;    0.000
1022.457; 4407.975;  179.525;    0.000
1022.616; 3952.975;  226.525;    0.000
1022.774; 3623.975;  216.525;    0.000
1022.932; 3918.975;  212.525;    0.000
1023.090; 4621.975;  220.525;    0.000
1023.249; 4487.975;  194.525;    0.000
1023.407; 4150.975;  227.525;    0.000
1023.565; 3737.975;  190.525;    0.000
1023.723; 4135.975;  190.525;    0.000
1023.881; 4610.975;  214.525;    0.000
1024.039; 4501.975;  179.525;    0.000
1024.197; 4145.975;  274.525;    0.000
1024.355; 3970.975;  269.525;    0.000
1024.513; 4057.975;  259.525;    0.000
1024.671; 4649.975;  211.525;    0.000
1024.829; 4560.975;  230.525;    0.000
1024.987; 4260.975;  239.525;    0.000
1025.145; 3857.975;  231.525;    0.000
1025.302; 4122.975;  212.525;    0.000
1025.460; 4436.975;  224.525;    0.000
1025.618; 4728.975;  217.525;    0.000
1025.776; 4308.975;  232.525;    0.000
1025.933; 3918.975;  212.525;    0.000
1026.091; 4071.975;  214.525;    0.000
1026.249; 4482.975;  224.525;    0.000
1026.406; 4834.975;  219.525;    0.000
1026.564; 4562.975;  262.525;    0.000
1026.721; 4079.975;  206.525;    0.000
1026.879; 4007.975;  227.525;    0.000
1027.036; 4435.975;  234.525;    0.000
1027.194; 4859.975;  256.525;    0.000
1027.351; 4815.975;  229.525;    0.000
1027.509; 4327.975;  253.525;    0.000
1027.666; 4109.975;  248.525;    0.000
1027.823; 4427.975;  215.525;    0.000
1027.981; 4775.975;  248.525;    0.000
1028.138; 5031.975;  257.525;    0.000
1028.295; 4609.975;  215.525;    0.000
1028.452; 4222.975;  236.525;    0.000
1028.609; 4351.975;  240.525;    0.000
1028.767; 4693.975;  258.525;    0.000
1028.924; 5095.975;  211.525;    0.000
1029.081; 4962.975;  226.525;    0.000
1029.238; 4661.975;  228.525;    0.000
1029.395; 4401.975;  264.525;    0.000
1029.552; 4572.975;  227.525;    0.000
1029.709; 4965.975;  232.525;    0.000
1029.866; 5063.975;  223.525;    0.000
1030.023; 4930.975;  220.525;    0.000
1030.180; 4426.975;  222.525;    0.000
1030.337; 4438.975;  224.525;    0.000
1030.494; 4814.975;  228.525;    0.000
1030.650; 4987.975;  242.525;    0.000
1030.807; 5343.975;  214.525;    0.000
1030.964; 4815.975;  207.525;    0.000
1031.121; 4561.975;  236.525;    0.000
1031.277; 4447.975;  206.525;    0.000
1031.434; 4851.975;  249.525;    0.000
1031.591; 5337.975;  253.525;    0.000
1031.747; 5241.975;  240.525;    0.000
1031.904; 5118.975;  212.525;    0.000
1032.060; 4919.975;  185.525;    0.000
1032.217; 4735.975;  201.525;    0.000
1032.373; 5150.975;  207.525;    0.000
1032.530; 5350.975;  226.525;    0.000
1032.686; 5951.975;  226.525;    0.000
1032.843; 5885.975;  203.525;    0.000
1032.999; 5637.975;  233.525;    0.000
1033.155; 5507.975;  232.525;    0.000
1033.312; 5573.975;  239.525;    0.000
1033.468; 6425.975;  207.525;    0.000
1033.624; 6904.975;  238.525;    0.000
1033.780; 7422.975;  255.525;    0.000
1033.937; 7407.975;  188.525;    0.000
1034.093; 6674.975;  244.525;    0.000
1034.249; 6774.975;  182.525;    0.000
1034.405; 6810.975;  251.525;    0.000
1034.561; 7297.975;  250.525;    0.000
1034.717; 7699.975;  208.525;    0.000
1034.873; 7935.975;  210.525;    0.000
1035.029; 8059.975;  245.525;    0.000
1035.185; 7433.975;  230.525;    0.000
1035.341; 7074.975;  209.525;    0.000
1035.497; 7609.975;  244.525;    0.000
1035.653; 7737.975;  229.525;    0.000
1035.809; 8387.975;  275.525;    0.000
1035.964; 9370.975;  203.525;    0.000
1036.120; 8559.975;  215.525;    0.000
1036.276; 8688.975;  228.525;    0.000
1036.432; 8540.975;  183.525;    0.000
1036.587; 7827.975;  214.525;    0.000
1036.743; 8479.975;  240.525;    0.000
1036.899; 9383.975;  202.525;    0.000
1037.054; 9448.975;  182.525;    0.000
1037.210;10512.975;  228.525;    0.000
1037.365;10501.975;  239.525;    0.000
1037.521; 9889.975;  230.525;    0.000
1037.676; 9679.975;  217.525;    0.000
1037.832; 9050.975;  235.525;    0.000
1037.987; 9304.975;  210.525;    0.000
1038.143; 9310.975;  206.525;    0.000
1038.298;10614.975;  177.525;    0.000
1038.453;10453.975;  215.525;    0.000
1038.609;11145.975;  210.525;    0.000
1038.764;11478.975;  227.525;    0.000
1038.919;10637.975;  197.525;    0.000
1039.074;10611.975;  183.525;    0.000
1039.229;10022.975;  218.525;    0.000
1039.385; 9712.975;  251.525;    0.000
1039.540; 9985.975;  222.525;    0.000
1039.695;10956.975;  215.525;    0.000
1039.850;11905.975;  204.525;    0.000
1040.005;12579.975;  241.525;    0.000
1040.160;13320.975;  180.525;    0.000
1040.315;12860.975;  197.525;    0.000
1040.470;12020.975;  180.525;    0.000
1040.625;11624.975;  196.525;    0.000
1040.780;11421.975;  245.525;    0.000
1040.935;11350.975;  204.525;    0.000
1041.089;11692.975;  213.525;    0.000
1041.244;13392.975;  200.525;    0.000
1041.399;13994.975;  212.525;    0.000
1041.554;15046.975;  239.525;    0.000
1041.708;16035.975;  238.525;    0.000
1041.863;16366.975;  213.525;    0.000
1042.018;15552.975;  236.525;    0.000
1042.172;15351.975;  238.525;    0.000
1042.327;14543.975;  254.525;    0.000
1042.481;14449.975;  197.525;    0.000
1042.636;14707.975;  205.525;    0.000
1042.791;15234.975;  218.525;    0.000
1042.945;17381.975;  261.525;    0.000
1043.099;19197.975;  201.525;    0.000
1043.254;18458.975;  191.525;    0.000
1043.408;19457.975;  279.525;    0.000
1043.563;21051.975;  203.525;    0.000
1043.717;20082.975;  229.525;    0.000
1043.871;18596.975;  213.525;    0.000
1044.025;17735.975;  240.525;    0.000
1044.180;16846.975;  220.525;    0.000
1044.334;17077.975;  268.525;    0.000
1044.488;18051.975;  261.525;    0.000
1044.642;18834.975;  205.525;    0.000
1044.796;20591.975;  240.525;    0.000
1044.950;23997.975;  258.525;    0.000
1045.104;26092.975;  218.525;    0.000
1045.258;25887.975;  213.525;    0.000
1045.412;24941.975;  223.525;    0.000
1045.566;24743.975;  240.525;    0.000
1045.720;23458.975;  235.525;    0.000
1045.874;22050.975;  221.525;    0.000
1046.028;20983.975;  247.525;    0.000
1046.182;21302.975;  200.525;    0.000
1046.336;22259.975;  220.525;    0.000
1046.489;22109.975;  228.525;    0.000
1046.643;22419.975;  249.525;    0.000
1046.797;24159.975;  230.525;    0.000
1046.951;25465.975;  234.525;    0.000
1047.104;26183.975;  262.525;    0.000
1047.258;27674.975;  210.525;    0.000
1047.411;28251.975;  235.525;    0.000
1047.565;28991.975;  237.525;    0.000
1047.719;27218.975;  237.525;    0.000
1047.872;26139.975;  225.525;    0.000
1048.026;24651.975;  237.525;    0.000
1048.179;24689.975;  220.525;    0.000
1048.332;24117.975;  219.525;    0.000
1048.486;24229.975;  195.525;    0.000
1048.639;24859.975;  213.525;    0.000
1048.792;25655.975;  245.525;    0.000
1048.946;28292.975;  234.525;    0.000
1049.099;31018.975;  226.525;    0.000
1049.252;31612.975;  282.525;    0.000
1049.406;28975.975;  255.525;    0.000
1049.559;30483.975;  223.525;    0.000
1049.712;34030.977;  253.525;    0.000
1049.865;35897.977;  271.525;    0.000
1050.018;35034.977;  241.525;    0.000
1050.171;30755.975;  202.525;    0.000
1050.324;29107.975;  250.525;    0.000
1050.477;30523.975;  251.525;    0.000
1050.630;33186.977;  216.525;    0.000
1050.783;34093.977;  205.525;    0.000
1050.936;32427.975;  219.525;    0.000
1051.089;30003.975;  247.525;    0.000
1051.242;29939.975;  238.525;    0.000
1051.394;34891.977;  252.525;    0.000
1051.547;36664.977;  245.525;    0.000
1051.700;34697.977;  206.525;    0.000
1051.853;32837.977;  270.525;    0.000
1052.005;34545.977;  245.525;    0.000
1052.158;38341.977;  290.525;    0.000
1052.311;42290.977;  237.525;    0.000
1052.463;41986.977;  271.525;    0.000
1052.616;37752.977;  255.525;    0.000
1052.768;33664.977;  257.525;    0.000
1052.921;32130.975;  289.525;    0.000
1053.073;33645.977;  287.525;    0.000
1053.226;38849.977;  268.525;    0.000
1053.378;45094.977;  294.525;    0.000
1053.531;47050.977;  255.525;    0.000
1053.683;44761.977;  293.525;    0.000
1053.835;38670.977;  274.525;    0.000
1053.988;30030.975;  282.525;    0.000
1054.140; 5325.975;  291.525;    0.000
1054.292; 1287.975;  292.525;    0.000
1054.444; 1042.975;  299.525;    0.000
1054.596;  937.975;  319.525;    0.000
1054.749;  895.975;  295.525;    0.000
1054.901;  808.975;  266.525;    0.000
1055.053;  765.975;  300.525;    0.000
1055.205;  769.975;  290.525;    0.000
1055.357;  718.975;  304.525;    0.000
1055.509;  639.975;  292.525;    0.000
1055.661;  692.975;  339.525;    0.000
1055.813;  660.975;  306.525;    0.000
1055.965;  670.975;  293.525;    0.000
1056.116;  633.975;  300.525;    0.000
1056.268;  603.975;  306.525;    0.000
1056.420;  618.975;  288.525;    0.000

