
Integration time [ms]:   0.300
Averaging Nr. [scans]: 1
Smoothing Nr. [pixels]: 0
Data measured with spectrometer [name]: NIR
Wave   ;Sample   ;Dark     ;Reference
[nm]   ;[counts] ;[counts] ;[counts] 

691.496;   13.625;  102.875;    0.000
691.696;   60.625;  181.875;    0.000
691.896;   -8.375;  138.875;    0.000
692.096;   14.625;  182.875;    0.000
692.296;  -26.375;  145.875;    0.000
692.496;   -3.375;  154.875;    0.000
692.695;   23.625;  108.875;    0.000
692.895;   39.625;  176.875;    0.000
693.095;   -7.375;  138.875;    0.000
693.295;   40.625;  192.875;    0.000
693.495;   25.625;  170.875;    0.000
693.695;   15.625;  147.875;    0.000
693.894;   31.625;  191.875;    0.000
694.094;   25.625;  148.875;    0.000
694.294;   -2.375;  147.875;    0.000
694.494;  296.625;  140.875;    0.000
694.693; 2727.625;  137.875;    0.000
694.893; 3009.625;  141.875;    0.000
695.093; 3124.625;  105.875;    0.000
695.293; 3104.625;  115.875;    0.000
695.492; 3211.625;   81.875;    0.000
695.692; 3179.625;  162.875;    0.000
695.891; 3168.625;  162.875;    0.000
696.091; 3219.625;  166.875;    0.000
696.291; 3193.625;  143.875;    0.000
696.490; 3037.625;  170.875;    0.000
696.690; 3163.625;  142.875;    0.000
696.889; 3161.625;  186.875;    0.000
697.089; 3151.625;  120.875;    0.000
697.288; 3192.625;  215.875;    0.000
697.488; 3182.625;  178.875;    0.000
697.687; 3245.625;  170.875;    0.000
697.887; 3176.625;  140.875;    0.000
698.086; 3293.625;  131.875;    0.000
698.286; 3293.625;  117.875;    0.000
698.485; 3282.625;  136.875;    0.000
698.684; 3252.625;  126.875;    0.000
698.884; 3133.625;  161.875;    0.000
699.083; 3204.625;   95.875;    0.000
699.282; 3214.625;  120.875;    0.000
699.482; 3210.625;  131.875;    0.000
699.681; 3205.625;  168.875;    0.000
699.880; 3304.625;  154.875;    0.000
700.080; 3313.625;  149.875;    0.000
700.279; 3242.625;   99.875;    0.000
700.478; 3306.625;  157.875;    0.000
700.677; 3364.625;  111.875;    0.000
700.877; 3391.625;  126.875;    0.000
701.076; 3322.625;  142.875;    0.000
701.275; 3318.625;  107.875;    0.000
701.474; 3240.625;   72.875;    0.000
701.673; 3333.625;   87.875;    0.000
701.872; 3353.625;  170.875;    0.000
702.071; 3320.625;  136.875;    0.000
702.271; 3406.625;  121.875;    0.000
702.470; 3381.625;  139.875;    0.000
702.669; 3446.625;  121.875;    0.000
702.868; 3368.625;  146.875;    0.000
703.067; 3435.625;  159.875;    0.000
703.266; 3390.625;  122.875;    0.000
703.465; 3388.625;  121.875;    0.000
703.664; 3412.625;  144.875;    0.000
703.863; 3401.625;  140.875;    0.000
704.062; 3287.625;  109.875;    0.000
704.260; 3464.625;  164.875;    0.000
704.459; 3473.625;  124.875;    0.000
704.658; 3537.625;  109.875;    0.000
704.857; 3456.625;  149.875;    0.000
705.056; 3327.625;  112.875;    0.000
705.255; 3431.625;   95.875;    0.000
705.454; 3438.625;  105.875;    0.000
705.652; 3476.625;  134.875;    0.000
705.851; 3453.625;   92.875;    0.000
706.050; 3461.625;  127.875;    0.000
706.249; 3441.625;  111.875;    0.000
706.447; 3526.625;   98.875;    0.000
706.646; 3453.625;  108.875;    0.000
706.845; 3522.625;   95.875;    0.000
707.043; 3516.625;   95.875;    0.000
707.242; 3492.625;   97.875;    0.000
707.441; 3584.625;  142.875;    0.000
707.639; 3510.625;  121.875;    0.000
707.838; 3610.625;  141.875;    0.000
708.037; 3529.625;  125.875;    0.000
708.235; 3481.625;  100.875;    0.000
708.434; 3537.625;  106.875;    0.000
708.632; 3538.625;   86.875;    0.000
708.831; 3618.625;  138.875;    0.000
709.029; 3516.625;   86.875;    0.000
709.228; 3530.625;  103.875;    0.000
709.426; 3600.625;  146.875;    0.000
709.625; 3584.625;  136.875;    0.000
709.823; 3572.625;  114.875;    0.000
710.022; 3557.625;  144.875;    0.000
710.220; 3696.625;  109.875;    0.000
710.418; 3677.625;  116.875;    0.000
710.617; 3611.625;   67.875;    0.000
710.815; 3673.625;  104.875;    0.000
711.013; 3706.625;  109.875;    0.000
711.212; 3757.625;  106.875;    0.000
711.410; 3688.625;   95.875;    0.000
711.608; 3627.625;  155.875;    0.000
711.807; 3776.625;  103.875;    0.000
712.005; 3660.625;  104.875;    0.000
712.203; 3704.625;   94.875;    0.000
712.401; 3703.625;  125.875;    0.000
712.599; 3665.625;  127.875;    0.000
712.798; 3825.625;  141.875;    0.000
712.996; 3701.625;   85.875;    0.000
713.194; 3769.625;   96.875;    0.000
713.392; 3783.625;   54.875;    0.000
713.590; 3906.625;  123.875;    0.000
713.788; 3884.625;  130.875;    0.000
713.986; 3898.625;  104.875;    0.000
714.184; 3768.625;   91.875;    0.000
714.382; 3951.625;  120.875;    0.000
714.580; 3918.625;   71.875;    0.000
714.778; 3995.625;   92.875;    0.000
714.976; 4016.625;  129.875;    0.000
715.174; 4167.625;   99.875;    0.000
715.372; 4217.625;  119.875;    0.000
715.570; 4416.625;   95.875;    0.000
715.768; 4823.625;  113.875;    0.000
715.966; 4843.625;   64.875;    0.000
716.164; 4747.625;  135.875;    0.000
716.362; 4578.625;  125.875;    0.000
716.560; 4485.625;  135.875;    0.000
716.758; 4601.625;   84.875;    0.000
716.955; 4383.625;  109.875;    0.000
717.153; 4279.625;   73.875;    0.000
717.351; 4224.625;  110.875;    0.000
717.549; 4242.625;  149.875;    0.000
717.746; 4196.625;  121.875;    0.000
717.944; 4257.625;  128.875;    0.000
718.142; 4135.625;  124.875;    0.000
718.340; 4147.625;   96.875;    0.000
718.537; 4184.625;  138.875;    0.000
718.735; 4353.625;  144.875;    0.000
718.933; 4270.625;   97.875;    0.000
719.130; 4069.625;  109.875;    0.000
719.328; 4293.625;  123.875;    0.000
719.525; 4135.625;  118.875;    0.000
719.723; 4096.625;  117.875;    0.000
719.920; 4070.625;   72.875;    0.000
720.118; 4094.625;   92.875;    0.000
720.316; 4212.625;  141.875;    0.000
720.513; 4165.625;   98.875;    0.000
720.711; 4087.625;  146.875;    0.000
720.908; 4196.625;  113.875;    0.000
721.105; 4156.625;  157.875;    0.000
721.303; 4107.625;  106.875;    0.000
721.500; 4204.625;   88.875;    0.000
721.698; 4263.625;   88.875;    0.000
721.895; 4235.625;   94.875;    0.000
722.092; 4125.625;   82.875;    0.000
722.290; 4199.625;  136.875;    0.000
722.487; 4199.625;   67.875;    0.000
722.684; 4137.625;  115.875;    0.000
722.882; 4227.625;  104.875;    0.000
723.079; 4244.625;  122.875;    0.000
723.276; 4187.625;   91.875;    0.000
723.473; 4255.625;   89.875;    0.000
723.671; 4166.625;   97.875;    0.000
723.868; 4303.625;  117.875;    0.000
724.065; 4187.625;  102.875;    0.000
724.262; 4185.625;  137.875;    0.000
724.459; 4123.625;   48.875;    0.000
724.656; 4190.625;  122.875;    0.000
724.854; 4149.625;   96.875;    0.000
725.051; 4195.625;  120.875;    0.000
725.248; 4230.625;  146.875;    0.000
725.445; 4227.625;  117.875;    0.000
725.642; 4390.625;  106.875;    0.000
725.839; 4322.625;  143.875;    0.000
726.036; 4225.625;   79.875;    0.000
726.233; 4178.625;   90.875;    0.000
726.430; 4247.625;  124.875;    0.000
726.627; 4286.625;   98.875;    0.000
726.824; 4258.625;   91.875;    0.000
727.021; 4274.625;  131.875;    0.000
727.218; 4210.625;  110.875;    0.000
727.414; 4325.625;   83.875;    0.000
727.611; 4368.625;   86.875;    0.000
727.808; 4466.625;  131.875;    0.000
728.005; 4308.625;  105.875;    0.000
728.202; 4262.625;  128.875;    0.000
728.399; 4314.625;  113.875;    0.000
728.595; 4277.625;  102.875;    0.000
728.792; 4390.625;   91.875;    0.000
728.989; 4379.625;  122.875;    0.000
729.186; 4302.625;  103.875;    0.000
729.382; 4266.625;  106.875;    0.000
729.579; 4390.625;  114.875;    0.000
729.776; 4264.625;  115.875;    0.000
729.972; 4419.625;  108.875;    0.000
730.169; 4406.625;  111.875;    0.000
730.366; 4256.625;  100.875;    0.000
730.562; 4310.625;   86.875;    0.000
730.759; 4311.625;   93.875;    0.000
730.955; 4393.625;  127.875;    0.000
731.152; 4466.625;   99.875;    0.000
731.348; 4383.625;   97.875;    0.000
731.545; 4470.625;   98.875;    0.000
731.741; 4445.625;  130.875;    0.000
731.938; 4404.625;  115.875;    0.000
732.134; 4442.625;  107.875;    0.000
732.331; 4367.625;   80.875;    0.000
732.527; 4408.625;  108.875;    0.000
732.724; 4382.625;  104.875;    0.000
732.920; 4443.625;  109.875;    0.000
733.116; 4522.625;  117.875;    0.000
733.313; 4399.625;   81.875;    0.000
733.509; 4453.625;   87.875;    0.000
733.705; 4542.625;  143.875;    0.000
733.902; 4351.625;   74.875;    0.000
734.098; 4368.625;   90.875;    0.000
734.294; 4543.625;  104.875;    0.000
734.490; 4522.625;  139.875;    0.000
734.687; 4510.625;  113.875;    0.000
734.883; 4423.625;   72.875;    0.000
735.079; 4563.625;  100.875;    0.000
735.275; 4543.625;  113.875;    0.000
735.471; 4466.625;   55.875;    0.000
735.667; 4574.625;  106.875;    0.000
735.863; 4529.625;  131.875;    0.000
736.060; 4581.625;  127.875;    0.000
736.256; 4605.625;   76.875;    0.000
736.452; 4590.625;  127.875;    0.000
736.648; 4604.625;  136.875;    0.000
736.844; 4650.625;  113.875;    0.000
737.040; 4646.625;  125.875;    0.000
737.236; 4614.625;   99.875;    0.000
737.432; 4640.625;   75.875;    0.000
737.628; 4667.625;  155.875;    0.000
737.824; 4696.625;  116.875;    0.000
738.019; 4606.625;   92.875;    0.000
738.215; 4766.625;  113.875;    0.000
738.411; 4687.625;  135.875;    0.000
738.607; 4643.625;   53.875;    0.000
738.803; 4671.625;   79.875;    0.000
738.999; 4828.625;  117.875;    0.000
739.195; 4762.625;  106.875;    0.000
739.390; 4775.625;  125.875;    0.000
739.586; 4863.625;  102.875;    0.000
739.782; 4879.625;  125.875;    0.000
739.978; 4971.625;  124.875;    0.000
740.173; 4948.625;   96.875;    0.000
740.369; 4837.625;  118.875;    0.000
740.565; 4929.625;  128.875;    0.000
740.760; 4917.625;  118.875;    0.000
740.956; 4919.625;  109.875;    0.000
741.152; 5017.625;  151.875;    0.000
741.347; 4882.625;  112.875;    0.000
741.543; 4940.625;  113.875;    0.000
741.738; 5108.625;  128.875;    0.000
741.934; 5367.625;  144.875;    0.000
742.129; 5664.625;  105.875;    0.000
742.325; 6212.625;  137.875;    0.000
742.520; 6815.625;  128.875;    0.000
742.716; 6489.625;  121.875;    0.000
742.911; 6291.625;   75.875;    0.000
743.107; 5887.625;  100.875;    0.000
743.302; 6017.625;   72.875;    0.000
743.498; 6095.625;  137.875;    0.000
743.693; 6046.625;  124.875;    0.000
743.888; 6361.625;  121.875;    0.000
744.084; 7191.625;   93.875;    0.000
744.279; 8874.625;   75.875;    0.000
744.474; 9025.625;  136.875;    0.000
744.670; 7960.625;  109.875;    0.000
744.865; 7384.625;  142.875;    0.000
745.060; 7023.625;   84.875;    0.000
745.255; 6768.625;  149.875;    0.000
745.451; 6642.625;  101.875;    0.000
745.646; 6381.625;  132.875;    0.000
745.841; 6317.625;  126.875;    0.000
746.036; 6455.625;  125.875;    0.000
746.231; 6727.625;  150.875;    0.000
746.426; 6890.625;  118.875;    0.000
746.622; 8170.625;  135.875;    0.000
746.817;10522.625;  122.875;    0.000
747.012;11767.625;  134.875;    0.000
747.207;10421.625;  124.875;    0.000
747.402; 9226.625;  122.875;    0.000
747.597; 8570.625;   95.875;    0.000
747.792; 8174.625;  168.875;    0.000
747.987; 7735.625;  110.875;    0.000
748.182; 7638.625;  119.875;    0.000
748.377; 7194.625;   70.875;    0.000
748.572; 6998.625;  113.875;    0.000
748.767; 6686.625;  123.875;    0.000
748.961; 6621.625;  110.875;    0.000
749.156; 6488.625;  135.875;    0.000
749.351; 6292.625;   98.875;    0.000
749.546; 6194.625;  126.875;    0.000
749.741; 6080.625;  129.875;    0.000
749.936; 6152.625;   86.875;    0.000
750.130; 6051.625;   97.875;    0.000
750.325; 5995.625;  110.875;    0.000
750.520; 5916.625;  120.875;    0.000
750.715; 5873.625;  122.875;    0.000
750.909; 5735.625;  120.875;    0.000
751.104; 5859.625;  118.875;    0.000
751.299; 5743.625;  122.875;    0.000
751.493; 5713.625;  129.875;    0.000
751.688; 5742.625;  138.875;    0.000
751.882; 5619.625;   87.875;    0.000
752.077; 5557.625;  142.875;    0.000
752.272; 5583.625;  110.875;    0.000
752.466; 5594.625;  154.875;    0.000
752.661; 5434.625;   96.875;    0.000
752.855; 5451.625;   93.875;    0.000
753.050; 5486.625;  122.875;    0.000
753.244; 5437.625;  110.875;    0.000
753.439; 5288.625;  116.875;    0.000
753.633; 5312.625;  131.875;    0.000
753.828; 5277.625;  130.875;    0.000
754.022; 5130.625;   96.875;    0.000
754.216; 5234.625;  114.875;    0.000
754.411; 5335.625;  145.875;    0.000
754.605; 5157.625;   65.875;    0.000
754.799; 5278.625;  116.875;    0.000
754.994; 5104.625;  117.875;    0.000
755.188; 5138.625;  124.875;    0.000
755.382; 5201.625;   80.875;    0.000
755.576; 5240.625;   90.875;    0.000
755.771; 5144.625;  115.875;    0.000
755.965; 5143.625;  106.875;    0.000
756.159; 5066.625;   87.875;    0.000
756.353; 5162.625;  125.875;    0.000
756.547; 5003.625;  146.875;    0.000
756.742; 5155.625;  111.875;    0.000
756.936; 5109.625;  108.875;    0.000
757.130; 5194.625;  101.875;    0.000
757.324; 5006.625;  114.875;    0.000
757.518; 5217.625;  136.875;    0.000
757.712; 5229.625;  123.875;    0.000
757.906; 5184.625;  115.875;    0.000
758.100; 5034.625;  186.875;    0.000
758.294; 5136.625;  118.875;    0.000
758.488; 5308.625;  167.875;    0.000
758.682; 5068.625;  137.875;    0.000
758.876; 5033.625;  135.875;    0.000
759.070; 5050.625;  132.875;    0.000
759.264; 5097.625;  118.875;    0.000
759.458; 4985.625;  111.875;    0.000
759.651; 5037.625;  142.875;    0.000
759.845; 5030.625;  105.875;    0.000
760.039; 5112.625;   73.875;    0.000
760.233; 5056.625;  156.875;    0.000
760.427; 4952.625;  119.875;    0.000
760.620; 5136.625;  136.875;    0.000
760.814; 5098.625;  126.875;    0.000
761.008; 5027.625;  126.875;    0.000
761.202; 5085.625;  123.875;    0.000
761.395; 5079.625;  141.875;    0.000
761.589; 5147.625;  107.875;    0.000
761.783; 5038.625;  122.875;    0.000
761.976; 5037.625;  120.875;    0.000
762.170; 5060.625;  147.875;    0.000
762.363; 5085.625;  144.875;    0.000
762.557; 5099.625;  119.875;    0.000
762.750; 5030.625;  118.875;    0.000
762.944; 5092.625;  145.875;    0.000
763.138; 5075.625;  123.875;    0.000
763.331; 5160.625;  129.875;    0.000
763.524; 5199.625;  109.875;    0.000
763.718; 5238.625;  150.875;    0.000
763.911; 5261.625;  140.875;    0.000
764.105; 5325.625;   97.875;    0.000
764.298; 5107.625;  128.875;    0.000
764.492; 5107.625;  132.875;    0.000
764.685; 5076.625;   92.875;    0.000
764.878; 5142.625;  111.875;    0.000
765.072; 5168.625;  116.875;    0.000
765.265; 5157.625;  135.875;    0.000
765.458; 5175.625;   69.875;    0.000
765.651; 5247.625;  145.875;    0.000
765.845; 5170.625;   95.875;    0.000
766.038; 5161.625;  147.875;    0.000
766.231; 5216.625;  119.875;    0.000
766.424; 5829.625;  126.875;    0.000
766.617; 5893.625;   92.875;    0.000
766.811; 5284.625;  109.875;    0.000
767.004; 5196.625;  107.875;    0.000
767.197; 5223.625;  171.875;    0.000
767.390; 5242.625;  114.875;    0.000
767.583; 5240.625;  109.875;    0.000
767.776; 5365.625;  130.875;    0.000
767.969; 5319.625;  103.875;    0.000
768.162; 5359.625;  139.875;    0.000
768.355; 5296.625;  142.875;    0.000
768.548; 5359.625;  140.875;    0.000
768.741; 5392.625;   82.875;    0.000
768.934; 5391.625;  107.875;    0.000
769.127; 5471.625;  121.875;    0.000
769.320; 5377.625;  106.875;    0.000
769.513; 5435.625;  145.875;    0.000
769.706; 5543.625;  120.875;    0.000
769.898; 5893.625;  135.875;    0.000
770.091; 5777.625;  146.875;    0.000
770.284; 5488.625;  108.875;    0.000
770.477; 5553.625;  148.875;    0.000
770.670; 5653.625;  163.875;    0.000
770.862; 5674.625;   97.875;    0.000
771.055; 5586.625;  116.875;    0.000
771.248; 5591.625;  143.875;    0.000
771.441; 5684.625;  125.875;    0.000
771.633; 5756.625;  125.875;    0.000
771.826; 5914.625;  132.875;    0.000
772.018; 5860.625;  123.875;    0.000
772.211; 6003.625;  143.875;    0.000
772.404; 6001.625;  144.875;    0.000
772.596; 6135.625;  130.875;    0.000
772.789; 6070.625;  109.875;    0.000
772.981; 6101.625;  151.875;    0.000
773.174; 6133.625;  119.875;    0.000
773.366; 6278.625;  179.875;    0.000
773.559; 6415.625;  106.875;    0.000
773.751; 6586.625;  120.875;    0.000
773.944; 6586.625;  159.875;    0.000
774.136; 6698.625;  131.875;    0.000
774.329; 6644.625;  141.875;    0.000
774.521; 6989.625;  114.875;    0.000
774.713; 7294.625;  169.875;    0.000
774.906; 7370.625;  151.875;    0.000
775.098; 7760.625;   99.875;    0.000
775.290; 8113.625;  166.875;    0.000
775.483; 8504.625;  146.875;    0.000
775.675; 9036.625;  106.875;    0.000
775.867; 9612.625;   91.875;    0.000
776.059;10347.625;  137.875;    0.000
776.251;11478.625;  124.875;    0.000
776.444;12973.625;  168.875;    0.000
776.636;15297.625;  138.875;    0.000
776.828;19241.625;  155.875;    0.000
777.020;27539.625;  160.875;    0.000
777.212;41314.625;  153.875;    0.000
777.404;46480.625;  135.875;    0.000
777.596;42910.625;  144.875;    0.000
777.788;31932.625;  127.875;    0.000
777.980;24017.625;  141.875;    0.000
778.172;19438.625;  138.875;    0.000
778.364;16435.625;  143.875;    0.000
778.556;14516.625;  123.875;    0.000
778.748;12737.625;  103.875;    0.000
778.940;11582.625;  176.875;    0.000
779.132;10580.625;  144.875;    0.000
779.324; 9843.625;   75.875;    0.000
779.516; 9301.625;  117.875;    0.000
779.708; 8888.625;  151.875;    0.000
779.900; 8302.625;  127.875;    0.000
780.091; 8087.625;  155.875;    0.000
780.283; 7629.625;  157.875;    0.000
780.475; 7396.625;  140.875;    0.000
780.667; 7291.625;  141.875;    0.000
780.859; 6952.625;  113.875;    0.000
781.050; 6897.625;  153.875;    0.000
781.242; 6728.625;  118.875;    0.000
781.434; 6533.625;  121.875;    0.000
781.625; 6483.625;  146.875;    0.000
781.817; 6243.625;  154.875;    0.000
782.008; 6092.625;  144.875;    0.000
782.200; 6115.625;  152.875;    0.000
782.392; 5946.625;  160.875;    0.000
782.583; 5913.625;  122.875;    0.000
782.775; 5967.625;  144.875;    0.000
782.966; 5773.625;  143.875;    0.000
783.158; 5735.625;  125.875;    0.000
783.349; 5682.625;  173.875;    0.000
783.541; 5680.625;  166.875;    0.000
783.732; 5585.625;  163.875;    0.000
783.924; 5634.625;  157.875;    0.000
784.115; 5571.625;  158.875;    0.000
784.306; 5440.625;  160.875;    0.000
784.498; 5347.625;  132.875;    0.000
784.689; 5476.625;  181.875;    0.000
784.880; 5378.625;  156.875;    0.000
785.072; 5267.625;  134.875;    0.000
785.263; 5343.625;  155.875;    0.000
785.454; 5177.625;  141.875;    0.000
785.645; 5155.625;  114.875;    0.000
785.837; 5308.625;  137.875;    0.000
786.028; 5185.625;  158.875;    0.000
786.219; 5243.625;  135.875;    0.000
786.410; 5174.625;  152.875;    0.000
786.601; 5203.625;  132.875;    0.000
786.792; 5175.625;  152.875;    0.000
786.984; 5050.625;  162.875;    0.000
787.175; 4953.625;   97.875;    0.000
787.366; 5116.625;  129.875;    0.000
787.557; 5103.625;  135.875;    0.000
787.748; 5019.625;  127.875;    0.000
787.939; 5096.625;  152.875;    0.000
788.130; 5122.625;  182.875;    0.000
788.321; 5005.625;  130.875;    0.000
788.512; 5155.625;  161.875;    0.000
788.703; 5019.625;  127.875;    0.000
788.894; 5085.625;  121.875;    0.000
789.084; 5104.625;  134.875;    0.000
789.275; 5090.625;  108.875;    0.000
789.466; 5085.625;  152.875;    0.000
789.657; 5117.625;  115.875;    0.000
789.848; 5182.625;  150.875;    0.000
790.039; 5097.625;  132.875;    0.000
790.229; 5102.625;  169.875;    0.000
790.420; 5010.625;  159.875;    0.000
790.611; 5052.625;  123.875;    0.000
790.801; 5032.625;  144.875;    0.000
790.992; 5106.625;  177.875;    0.000
791.183; 5122.625;  128.875;    0.000
791.373; 5116.625;  123.875;    0.000
791.564; 4961.625;  131.875;    0.000
791.755; 5075.625;  103.875;    0.000
791.945; 5160.625;  104.875;    0.000
792.136; 5102.625;  115.875;    0.000
792.326; 5143.625;   99.875;    0.000
792.517; 5180.625;  139.875;    0.000
792.707; 5261.625;  155.875;    0.000
792.898; 5323.625;  139.875;    0.000
793.088; 5274.625;  153.875;    0.000
793.279; 5365.625;  137.875;    0.000
793.469; 5383.625;  109.875;    0.000
793.660; 5446.625;  119.875;    0.000
793.850; 5767.625;  119.875;    0.000
794.040; 5818.625;  132.875;    0.000
794.231; 6358.625;  122.875;    0.000
794.421; 6733.625;  124.875;    0.000
794.611; 7574.625;  151.875;    0.000
794.802; 8835.625;  121.875;    0.000
794.992; 9168.625;  139.875;    0.000
795.182; 9446.625;  132.875;    0.000
795.372; 8928.625;  149.875;    0.000
795.563; 8126.625;  153.875;    0.000
795.753; 7181.625;  120.875;    0.000
795.943; 6835.625;  121.875;    0.000
796.133; 6530.625;   97.875;    0.000
796.323; 6085.625;  122.875;    0.000
796.513; 5782.625;  142.875;    0.000
796.703; 5850.625;  125.875;    0.000
796.893; 5653.625;  126.875;    0.000
797.083; 5518.625;  150.875;    0.000
797.273; 5504.625;  108.875;    0.000
797.463; 5378.625;  156.875;    0.000
797.653; 5334.625;   80.875;    0.000
797.843; 5190.625;   88.875;    0.000
798.033; 5148.625;   96.875;    0.000
798.223; 5203.625;  159.875;    0.000
798.413; 4986.625;  155.875;    0.000
798.603; 5060.625;  125.875;    0.000
798.793; 4930.625;  141.875;    0.000
798.983; 4879.625;  113.875;    0.000
799.172; 4895.625;   85.875;    0.000
799.362; 4898.625;  141.875;    0.000
799.552; 4813.625;  122.875;    0.000
799.742; 4748.625;  124.875;    0.000
799.932; 4785.625;  102.875;    0.000
800.121; 4801.625;  146.875;    0.000
800.311; 4774.625;  122.875;    0.000
800.501; 4786.625;  120.875;    0.000
800.690; 4803.625;  141.875;    0.000
800.880; 4794.625;  146.875;    0.000
801.070; 4798.625;  122.875;    0.000
801.259; 4834.625;  138.875;    0.000
801.449; 4784.625;  115.875;    0.000
801.638; 4909.625;  132.875;    0.000
801.828; 4758.625;   92.875;    0.000
802.017; 4892.625;  150.875;    0.000
802.207; 4828.625;  134.875;    0.000
802.396; 4751.625;  133.875;    0.000
802.586; 4714.625;  117.875;    0.000
802.775; 4850.625;  155.875;    0.000
802.965; 4627.625;  132.875;    0.000
803.154; 4667.625;  176.875;    0.000
803.343; 4721.625;  106.875;    0.000
803.533; 4866.625;  154.875;    0.000
803.722; 4704.625;   97.875;    0.000
803.911; 4673.625;  107.875;    0.000
804.101; 4669.625;  145.875;    0.000
804.290; 4602.625;  130.875;    0.000
804.479; 4676.625;  152.875;    0.000
804.668; 4649.625;  160.875;    0.000
804.857; 4768.625;  161.875;    0.000
805.047; 4750.625;  126.875;    0.000
805.236; 4790.625;  136.875;    0.000
805.425; 4835.625;  153.875;    0.000
805.614; 4820.625;  139.875;    0.000
805.803; 4825.625;  144.875;    0.000
805.992; 4726.625;  160.875;    0.000
806.181; 4810.625;  139.875;    0.000
806.370; 4767.625;  104.875;    0.000
806.559; 4835.625;  103.875;    0.000
806.748; 4824.625;  145.875;    0.000
806.937; 4884.625;  151.875;    0.000
807.126; 4882.625;  119.875;    0.000
807.315; 4815.625;  139.875;    0.000
807.504; 5017.625;  143.875;    0.000
807.693; 4883.625;  164.875;    0.000
807.882; 4957.625;  135.875;    0.000
808.071; 4966.625;  131.875;    0.000
808.260; 5049.625;  113.875;    0.000
808.448; 5084.625;  161.875;    0.000
808.637; 5003.625;  125.875;    0.000
808.826; 5118.625;  155.875;    0.000
809.015; 5024.625;  113.875;    0.000
809.203; 5132.625;  152.875;    0.000
809.392; 5117.625;   90.875;    0.000
809.581; 5229.625;  186.875;    0.000
809.770; 5288.625;   99.875;    0.000
809.958; 5301.625;  146.875;    0.000
810.147; 5359.625;  115.875;    0.000
810.335; 5428.625;  122.875;    0.000
810.524; 5444.625;  150.875;    0.000
810.713; 5495.625;  121.875;    0.000
810.901; 5644.625;  156.875;    0.000
811.090; 5717.625;  161.875;    0.000
811.278; 5719.625;  138.875;    0.000
811.467; 5929.625;  184.875;    0.000
811.655; 5995.625;  150.875;    0.000
811.844; 6167.625;  137.875;    0.000
812.032; 6000.625;  142.875;    0.000
812.220; 6157.625;  134.875;    0.000
812.409; 6060.625;  143.875;    0.000
812.597; 6151.625;  164.875;    0.000
812.785; 6219.625;  188.875;    0.000
812.974; 6305.625;  156.875;    0.000
813.162; 6542.625;  166.875;    0.000
813.350; 6521.625;  115.875;    0.000
813.539; 6545.625;  167.875;    0.000
813.727; 6723.625;  165.875;    0.000
813.915; 6774.625;  137.875;    0.000
814.103; 6762.625;  166.875;    0.000
814.291; 6784.625;  151.875;    0.000
814.479; 7126.625;  147.875;    0.000
814.668; 7231.625;  166.875;    0.000
814.856; 7394.625;  160.875;    0.000
815.044; 7662.625;  172.875;    0.000
815.232; 7883.625;  193.875;    0.000
815.420; 8130.625;  173.875;    0.000
815.608; 8251.625;  134.875;    0.000
815.796; 8460.625;  105.875;    0.000
815.984; 8810.625;  125.875;    0.000
816.172; 9123.625;  160.875;    0.000
816.360; 9596.625;  162.875;    0.000
816.548;10013.625;  160.875;    0.000
816.736;10629.625;  132.875;    0.000
816.924;11300.625;  184.875;    0.000
817.111;12059.625;  145.875;    0.000
817.299;13075.625;  132.875;    0.000
817.487;14660.625;  193.875;    0.000
817.675;16502.625;  153.875;    0.000
817.863;19635.625;  153.875;    0.000
818.050;26605.625;  172.875;    0.000
818.238;42337.625;  131.875;    0.000
818.426;55457.625;  160.875;    0.000
818.613;44998.625;  136.875;    0.000
818.801;37975.625;  162.875;    0.000
818.989;35952.625;  153.875;    0.000
819.176;38610.625;  181.875;    0.000
819.364;51014.625;  165.875;    0.000
819.552;64762.625;  111.875;    0.000
819.739;54471.625;  192.875;    0.000
819.927;42769.625;  146.875;    0.000
820.114;36258.625;  154.875;    0.000
820.302;31874.625;  144.875;    0.000
820.489;28054.625;  133.875;    0.000
820.677;25821.625;  135.875;    0.000
820.864;23588.625;  130.875;    0.000
821.052;22838.625;   88.875;    0.000
821.239;22248.625;  143.875;    0.000
821.426;21748.625;  186.875;    0.000
821.614;23574.625;  171.875;    0.000
821.801;23887.625;   90.875;    0.000
821.988;21386.625;  143.875;    0.000
822.176;20331.625;   95.875;    0.000
822.363;20285.625;  148.875;    0.000
822.550;18688.625;  139.875;    0.000
822.737;16969.625;  122.875;    0.000
822.924;15900.625;  171.875;    0.000
823.112;15051.625;  147.875;    0.000
823.299;14294.625;  111.875;    0.000
823.486;13515.625;  161.875;    0.000
823.673;12776.625;  124.875;    0.000
823.860;12423.625;  151.875;    0.000
824.047;12201.625;  145.875;    0.000
824.234;12926.625;  139.875;    0.000
824.421;12967.625;  110.875;    0.000
824.608;11745.625;  145.875;    0.000
824.795;10957.625;  115.875;    0.000
824.982;10400.625;  148.875;    0.000
825.169; 9774.625;  135.875;    0.000
825.356; 9331.625;  122.875;    0.000
825.543; 8938.625;  142.875;    0.000
825.730; 8670.625;   89.875;    0.000
825.917; 8213.625;  127.875;    0.000
826.104; 8044.625;  187.875;    0.000
826.290; 7875.625;  138.875;    0.000
826.477; 7576.625;  140.875;    0.000
826.664; 7500.625;  106.875;    0.000
826.851; 7340.625;  155.875;    0.000
827.038; 6995.625;  125.875;    0.000
827.224; 6957.625;  126.875;    0.000
827.411; 6753.625;  163.875;    0.000
827.598; 6525.625;  140.875;    0.000
827.784; 6361.625;  117.875;    0.000
827.971; 6355.625;  114.875;    0.000
828.157; 6276.625;  146.875;    0.000
828.344; 5992.625;  161.875;    0.000
828.531; 5978.625;  155.875;    0.000
828.717; 5966.625;  130.875;    0.000
828.904; 5801.625;  138.875;    0.000
829.090; 5725.625;  176.875;    0.000
829.277; 5741.625;  152.875;    0.000
829.463; 5400.625;  139.875;    0.000
829.650; 5420.625;  168.875;    0.000
829.836; 5350.625;  176.875;    0.000
830.022; 5280.625;  159.875;    0.000
830.209; 5284.625;  135.875;    0.000
830.395; 5071.625;  177.875;    0.000
830.581; 5211.625;  125.875;    0.000
830.768; 4966.625;  155.875;    0.000
830.954; 5105.625;  187.875;    0.000
831.140; 4969.625;  135.875;    0.000
831.327; 4879.625;  158.875;    0.000
831.513; 4819.625;  126.875;    0.000
831.699; 4844.625;  167.875;    0.000
831.885; 4698.625;  165.875;    0.000
832.071; 4540.625;  167.875;    0.000
832.257; 4559.625;  144.875;    0.000
832.444; 4611.625;  158.875;    0.000
832.630; 4563.625;  167.875;    0.000
832.816; 4576.625;  150.875;    0.000
833.002; 4395.625;  157.875;    0.000
833.188; 4249.625;  169.875;    0.000
833.374; 4325.625;  144.875;    0.000
833.560; 4391.625;  179.875;    0.000
833.746; 4327.625;  134.875;    0.000
833.932; 4345.625;  150.875;    0.000
834.118; 4138.625;   98.875;    0.000
834.303; 4094.625;  121.875;    0.000
834.489; 4195.625;  179.875;    0.000
834.675; 4137.625;  136.875;    0.000
834.861; 4072.625;  130.875;    0.000
835.047; 4172.625;  132.875;    0.000
835.233; 4020.625;  104.875;    0.000
835.418; 4099.625;  143.875;    0.000
835.604; 4000.625;  127.875;    0.000
835.790; 3979.625;  138.875;    0.000
835.976; 3883.625;  137.875;    0.000
836.161; 3933.625;  155.875;    0.000
836.347; 3797.625;  101.875;    0.000
836.533; 3823.625;  121.875;    0.000
836.718; 3837.625;  150.875;    0.000
836.904; 3941.625;  168.875;    0.000
837.089; 3914.625;  169.875;    0.000
837.275; 3748.625;  172.875;    0.000
837.460; 3911.625;  140.875;    0.000
837.646; 3726.625;  144.875;    0.000
837.831; 3852.625;  137.875;    0.000
838.017; 3842.625;  176.875;    0.000
838.202; 3727.625;  107.875;    0.000
838.388; 3819.625;  181.875;    0.000
838.573; 3720.625;  151.875;    0.000
838.759; 3805.625;  160.875;    0.000
838.944; 3672.625;  121.875;    0.000
839.129; 3765.625;  145.875;    0.000
839.315; 3703.625;  166.875;    0.000
839.500; 3741.625;  143.875;    0.000
839.685; 3650.625;   93.875;    0.000
839.870; 3645.625;  160.875;    0.000
840.056; 3678.625;  132.875;    0.000
840.241; 3687.625;  154.875;    0.000
840.426; 3664.625;  161.875;    0.000
840.611; 3778.625;  186.875;    0.000
840.796; 3742.625;  135.875;    0.000
840.981; 3734.625;  147.875;    0.000
841.166; 3799.625;  138.875;    0.000
841.352; 3743.625;  156.875;    0.000
841.537; 3728.625;  170.875;    0.000
841.722; 3846.625;  143.875;    0.000
841.907; 3890.625;  143.875;    0.000
842.092; 3987.625;  166.875;    0.000
842.277; 3927.625;  113.875;    0.000
842.461; 3989.625;  126.875;    0.000
842.646; 4040.625;  145.875;    0.000
842.831; 4308.625;  193.875;    0.000
843.016; 4297.625;  162.875;    0.000
843.201; 4347.625;  144.875;    0.000
843.386; 4500.625;  160.875;    0.000
843.571; 4759.625;  136.875;    0.000
843.755; 4969.625;  134.875;    0.000
843.940; 5296.625;  136.875;    0.000
844.125; 6149.625;  169.875;    0.000
844.310; 7187.625;  189.875;    0.000
844.494; 9523.625;  167.875;    0.000
844.679;12838.625;  184.875;    0.000
844.864;12871.625;  147.875;    0.000
845.048;10328.625;  140.875;    0.000
845.233; 8535.625;  178.875;    0.000
845.418; 7343.625;  145.875;    0.000
845.602; 6420.625;  147.875;    0.000
845.787; 6119.625;  147.875;    0.000
845.971; 5479.625;  165.875;    0.000
846.156; 5033.625;  106.875;    0.000
846.340; 4991.625;  168.875;    0.000
846.525; 4681.625;  155.875;    0.000
846.709; 4405.625;  157.875;    0.000
846.893; 4325.625;  166.875;    0.000
847.078; 4114.625;  138.875;    0.000
847.262; 4061.625;  171.875;    0.000
847.447; 3866.625;  135.875;    0.000
847.631; 3816.625;  136.875;    0.000
847.815; 3684.625;  136.875;    0.000
848.000; 3598.625;  126.875;    0.000
848.184; 3548.625;  131.875;    0.000
848.368; 3448.625;  153.875;    0.000
848.552; 3493.625;  137.875;    0.000
848.736; 3385.625;  151.875;    0.000
848.921; 3458.625;  156.875;    0.000
849.105; 3425.625;  153.875;    0.000
849.289; 3359.625;  180.875;    0.000
849.473; 3262.625;  156.875;    0.000
849.657; 3230.625;  157.875;    0.000
849.841; 3206.625;  147.875;    0.000
850.025; 3254.625;  194.875;    0.000
850.209; 3167.625;  147.875;    0.000
850.393; 3162.625;  141.875;    0.000
850.577; 3100.625;  156.875;    0.000
850.761; 3202.625;  157.875;    0.000
850.945; 3016.625;  128.875;    0.000
851.129; 3133.625;  151.875;    0.000
851.313; 3078.625;  180.875;    0.000
851.497; 2981.625;  123.875;    0.000
851.680; 3032.625;  188.875;    0.000
851.864; 3087.625;  177.875;    0.000
852.048; 3118.625;  163.875;    0.000
852.232; 3046.625;  149.875;    0.000
852.416; 3026.625;  187.875;    0.000
852.599; 3017.625;  169.875;    0.000
852.783; 2939.625;  154.875;    0.000
852.967; 3036.625;  191.875;    0.000
853.150; 2938.625;  170.875;    0.000
853.334; 2896.625;  173.875;    0.000
853.518; 3034.625;  186.875;    0.000
853.701; 2961.625;  142.875;    0.000
853.885; 2843.625;  153.875;    0.000
854.068; 2958.625;  132.875;    0.000
854.252; 2951.625;  184.875;    0.000
854.435; 2958.625;  152.875;    0.000
854.619; 2968.625;  152.875;    0.000
854.802; 2883.625;  164.875;    0.000
854.986; 2884.625;  151.875;    0.000
855.169; 2891.625;  153.875;    0.000
855.353; 3026.625;  183.875;    0.000
855.536; 2903.625;  113.875;    0.000
855.719; 2919.625;  181.875;    0.000
855.903; 3023.625;  159.875;    0.000
856.086; 2925.625;  142.875;    0.000
856.269; 2988.625;  171.875;    0.000
856.452; 3039.625;  132.875;    0.000
856.636; 3189.625;  140.875;    0.000
856.819; 3447.625;  165.875;    0.000
857.002; 3336.625;  170.875;    0.000
857.185; 3313.625;  173.875;    0.000
857.368; 3177.625;  129.875;    0.000
857.552; 3192.625;  151.875;    0.000
857.735; 3129.625;  146.875;    0.000
857.918; 3037.625;  114.875;    0.000
858.101; 3026.625;  152.875;    0.000
858.284; 3168.625;  164.875;    0.000
858.467; 3263.625;  147.875;    0.000
858.650; 3300.625;  146.875;    0.000
858.833; 3222.625;  118.875;    0.000
859.016; 3296.625;  161.875;    0.000
859.199; 3473.625;  135.875;    0.000
859.382; 3859.625;  157.875;    0.000
859.564; 4013.625;  124.875;    0.000
859.747; 4006.625;  154.875;    0.000
859.930; 3703.625;  138.875;    0.000
860.113; 3632.625;  153.875;    0.000
860.296; 3589.625;  180.875;    0.000
860.478; 3514.625;  145.875;    0.000
860.661; 3470.625;  160.875;    0.000
860.844; 3441.625;   96.875;    0.000
861.027; 3313.625;  128.875;    0.000
861.209; 3210.625;  127.875;    0.000
861.392; 3288.625;  126.875;    0.000
861.575; 3390.625;  155.875;    0.000
861.757; 3394.625;  141.875;    0.000
861.940; 3378.625;  181.875;    0.000
862.122; 3396.625;  145.875;    0.000
862.305; 3559.625;  124.875;    0.000
862.487; 3632.625;  151.875;    0.000
862.670; 4028.625;  132.875;    0.000
862.852; 4728.625;  112.875;    0.000
863.035; 5669.625;  116.875;    0.000
863.217; 5671.625;  131.875;    0.000
863.400; 4975.625;  145.875;    0.000
863.582; 4771.625;  147.875;    0.000
863.764; 4393.625;  163.875;    0.000
863.947; 4262.625;  129.875;    0.000
864.129; 4135.625;  159.875;    0.000
864.311; 3817.625;  144.875;    0.000
864.493; 3839.625;  141.875;    0.000
864.676; 3884.625;  159.875;    0.000
864.858; 3838.625;  146.875;    0.000
865.040; 3729.625;  163.875;    0.000
865.222; 3810.625;  133.875;    0.000
865.404; 3863.625;  148.875;    0.000
865.587; 4101.625;  177.875;    0.000
865.769; 4302.625;  172.875;    0.000
865.951; 4196.625;  145.875;    0.000
866.133; 4264.625;  168.875;    0.000
866.315; 4111.625;  147.875;    0.000
866.497; 4228.625;  164.875;    0.000
866.679; 4362.625;  143.875;    0.000
866.861; 4433.625;  170.875;    0.000
867.043; 4651.625;  185.875;    0.000
867.225; 4905.625;  149.875;    0.000
867.407; 5385.625;  143.875;    0.000
867.589; 6196.625;  169.875;    0.000
867.770; 7552.625;  166.875;    0.000
867.952;10435.625;  158.875;    0.000
868.134;13882.625;  170.875;    0.000
868.316;13950.625;  157.875;    0.000
868.498;13251.625;  186.875;    0.000
868.679;11473.625;  158.875;    0.000
868.861; 9497.625;  180.875;    0.000
869.043; 7924.625;  164.875;    0.000
869.224; 6820.625;  156.875;    0.000
869.406; 6391.625;  176.875;    0.000
869.588; 5866.625;  152.875;    0.000
869.769; 5570.625;  131.875;    0.000
869.951; 5369.625;  203.875;    0.000
870.132; 5423.625;  143.875;    0.000
870.314; 6039.625;  129.875;    0.000
870.495; 6258.625;  175.875;    0.000
870.677; 5752.625;  165.875;    0.000
870.858; 5440.625;  151.875;    0.000
871.040; 5761.625;  155.875;    0.000
871.221; 6333.625;  144.875;    0.000
871.403; 6182.625;  131.875;    0.000
871.584; 5565.625;  174.875;    0.000
871.765; 5675.625;  169.875;    0.000
871.947; 5956.625;  187.875;    0.000
872.128; 5460.625;  181.875;    0.000
872.309; 4860.625;  129.875;    0.000
872.491; 4470.625;  142.875;    0.000
872.672; 4157.625;  158.875;    0.000
872.853; 3929.625;  179.875;    0.000
873.034; 3861.625;  164.875;    0.000
873.215; 3735.625;  168.875;    0.000
873.396; 3468.625;  114.875;    0.000
873.578; 3412.625;  126.875;    0.000
873.759; 3324.625;  177.875;    0.000
873.940; 3288.625;  169.875;    0.000
874.121; 3027.625;  133.875;    0.000
874.302; 3079.625;  164.875;    0.000
874.483; 2969.625;  162.875;    0.000
874.664; 3097.625;  140.875;    0.000
874.845; 3069.625;  124.875;    0.000
875.026; 2945.625;  146.875;    0.000
875.207; 2775.625;  147.875;    0.000
875.388; 2780.625;  174.875;    0.000
875.568; 2794.625;  179.875;    0.000
875.749; 2724.625;  155.875;    0.000
875.930; 2652.625;  166.875;    0.000
876.111; 2727.625;  153.875;    0.000
876.292; 2741.625;  146.875;    0.000
876.472; 2572.625;  167.875;    0.000
876.653; 2531.625;  145.875;    0.000
876.834; 2503.625;  172.875;    0.000
877.015; 2593.625;  184.875;    0.000
877.195; 2536.625;  160.875;    0.000
877.376; 2511.625;  163.875;    0.000
877.556; 2455.625;  164.875;    0.000
877.737; 2565.625;  179.875;    0.000
877.918; 2470.625;  137.875;    0.000
878.098; 2449.625;  117.875;    0.000
878.279; 2409.625;  135.875;    0.000
878.459; 2455.625;  149.875;    0.000
878.640; 2468.625;  171.875;    0.000
878.820; 2380.625;  142.875;    0.000
879.000; 2422.625;  166.875;    0.000
879.181; 2416.625;  177.875;    0.000
879.361; 2443.625;  176.875;    0.000
879.542; 2313.625;  159.875;    0.000
879.722; 2433.625;  122.875;    0.000
879.902; 2386.625;  166.875;    0.000
880.083; 2343.625;  164.875;    0.000
880.263; 2335.625;  139.875;    0.000
880.443; 2454.625;  179.875;    0.000
880.623; 2358.625;  154.875;    0.000
880.803; 2312.625;  160.875;    0.000
880.984; 2403.625;  181.875;    0.000
881.164; 2441.625;  167.875;    0.000
881.344; 2314.625;  141.875;    0.000
881.524; 2448.625;  190.875;    0.000
881.704; 2567.625;  165.875;    0.000
881.884; 2631.625;  144.875;    0.000
882.064; 2764.625;  135.875;    0.000
882.244; 2890.625;  186.875;    0.000
882.424; 2747.625;  150.875;    0.000
882.604; 2611.625;  168.875;    0.000
882.784; 2407.625;  155.875;    0.000
882.964; 2379.625;  137.875;    0.000
883.144; 2346.625;  136.875;    0.000
883.324; 2417.625;  200.875;    0.000
883.504; 2405.625;  203.875;    0.000
883.683; 2319.625;  149.875;    0.000
883.863; 2259.625;  160.875;    0.000
884.043; 2300.625;  161.875;    0.000
884.223; 2276.625;  147.875;    0.000
884.402; 2238.625;  175.875;    0.000
884.582; 2199.625;  188.875;    0.000
884.762; 2225.625;  173.875;    0.000
884.941; 2275.625;  164.875;    0.000
885.121; 2169.625;  147.875;    0.000
885.301; 2252.625;  135.875;    0.000
885.480; 2237.625;  145.875;    0.000
885.660; 2212.625;  144.875;    0.000
885.839; 2143.625;  155.875;    0.000
886.019; 2230.625;  207.875;    0.000
886.198; 2095.625;  165.875;    0.000
886.378; 2182.625;  120.875;    0.000
886.557; 2093.625;  133.875;    0.000
886.737; 2151.625;  119.875;    0.000
886.916; 2090.625;  129.875;    0.000
887.095; 2143.625;  158.875;    0.000
887.275; 2124.625;  169.875;    0.000
887.454; 2080.625;  184.875;    0.000
887.633; 2075.625;  143.875;    0.000
887.813; 2032.625;  154.875;    0.000
887.992; 2123.625;  188.875;    0.000
888.171; 2125.625;  176.875;    0.000
888.350; 2075.625;  161.875;    0.000
888.530; 2145.625;  163.875;    0.000
888.709; 2087.625;  136.875;    0.000
888.888; 2051.625;  177.875;    0.000
889.067; 2084.625;  169.875;    0.000
889.246; 2083.625;  188.875;    0.000
889.425; 2120.625;  187.875;    0.000
889.604; 2043.625;  169.875;    0.000
889.783; 2021.625;  182.875;    0.000
889.962; 2057.625;  112.875;    0.000
890.141; 2085.625;  231.875;    0.000
890.320; 1979.625;  161.875;    0.000
890.499; 2101.625;  164.875;    0.000
890.678; 2046.625;  176.875;    0.000
890.857; 2062.625;  163.875;    0.000
891.036; 2092.625;  161.875;    0.000
891.214; 2085.625;  156.875;    0.000
891.393; 2012.625;  167.875;    0.000
891.572; 2034.625;  163.875;    0.000
891.751; 2062.625;  205.875;    0.000
891.930; 1977.625;  162.875;    0.000
892.108; 2076.625;  153.875;    0.000
892.287; 2093.625;  153.875;    0.000
892.466; 2068.625;  201.875;    0.000
892.644; 1984.625;  158.875;    0.000
892.823; 1962.625;  122.875;    0.000
893.001; 2003.625;  148.875;    0.000
893.180; 1942.625;  142.875;    0.000
893.359; 2049.625;  192.875;    0.000
893.537; 2033.625;  166.875;    0.000
893.716; 1996.625;  144.875;    0.000
893.894; 2031.625;  145.875;    0.000
894.073; 2004.625;  180.875;    0.000
894.251; 2008.625;  165.875;    0.000
894.429; 2018.625;  182.875;    0.000
894.608; 2021.625;  181.875;    0.000
894.786; 2067.625;  180.875;    0.000
894.964; 1983.625;  207.875;    0.000
895.143; 2033.625;  190.875;    0.000
895.321; 2020.625;  206.875;    0.000
895.499; 1996.625;  164.875;    0.000
895.677; 2093.625;  199.875;    0.000
895.856; 2043.625;  203.875;    0.000
896.034; 2084.625;  200.875;    0.000
896.212; 2053.625;  198.875;    0.000
896.390; 2051.625;  161.875;    0.000
896.568; 2074.625;  205.875;    0.000
896.746; 2041.625;  185.875;    0.000
896.924; 2093.625;  179.875;    0.000
897.102; 2028.625;  190.875;    0.000
897.280; 2029.625;  160.875;    0.000
897.458; 2076.625;  196.875;    0.000
897.636; 2060.625;  168.875;    0.000
897.814; 2100.625;  159.875;    0.000
897.992; 2091.625;  216.875;    0.000
898.170; 2030.625;  195.875;    0.000
898.348; 2119.625;  185.875;    0.000
898.526; 2107.625;  199.875;    0.000
898.704; 2113.625;  215.875;    0.000
898.882; 2123.625;  195.875;    0.000
899.059; 2066.625;  197.875;    0.000
899.237; 2061.625;  168.875;    0.000
899.415; 2077.625;  221.875;    0.000
899.593; 2042.625;  171.875;    0.000
899.770; 2129.625;  191.875;    0.000
899.948; 2162.625;  206.875;    0.000
900.125; 2166.625;  175.875;    0.000
900.303; 2114.625;  176.875;    0.000
900.481; 2164.625;  199.875;    0.000
900.658; 2170.625;  217.875;    0.000
900.836; 2116.625;  192.875;    0.000
901.013; 2184.625;  221.875;    0.000
901.191; 2254.625;  203.875;    0.000
901.368; 2219.625;  189.875;    0.000
901.546; 2342.625;  212.875;    0.000
901.723; 2315.625;  189.875;    0.000
901.901; 2273.625;  198.875;    0.000
902.078; 2412.625;  193.875;    0.000
902.255; 2417.625;  176.875;    0.000
902.433; 2454.625;  201.875;    0.000
902.610; 2461.625;  170.875;    0.000
902.787; 2374.625;  164.875;    0.000
902.964; 2551.625;  216.875;    0.000
903.142; 2550.625;  153.875;    0.000
903.319; 2620.625;  204.875;    0.000
903.496; 2594.625;  188.875;    0.000
903.673; 2710.625;  209.875;    0.000
903.850; 2677.625;  173.875;    0.000
904.027; 2830.625;  186.875;    0.000
904.204; 2909.625;  241.875;    0.000
904.381; 3140.625;  187.875;    0.000
904.558; 3682.625;  196.875;    0.000
904.735; 4160.625;  206.875;    0.000
904.912; 4230.625;  228.875;    0.000
905.089; 4182.625;  172.875;    0.000
905.266; 3881.625;  175.875;    0.000
905.443; 3552.625;  239.875;    0.000
905.620; 3279.625;  176.875;    0.000
905.797; 3132.625;  205.875;    0.000
905.974; 3016.625;  187.875;    0.000
906.151; 2996.625;  135.875;    0.000
906.327; 3113.625;  209.875;    0.000
906.504; 2911.625;  145.875;    0.000
906.681; 2849.625;  178.875;    0.000
906.858; 2763.625;  179.875;    0.000
907.034; 2837.625;  221.875;    0.000
907.211; 2592.625;  166.875;    0.000
907.388; 2567.625;  206.875;    0.000
907.564; 2570.625;  150.875;    0.000
907.741; 2603.625;  187.875;    0.000
907.917; 2522.625;  180.875;    0.000
908.094; 2537.625;  206.875;    0.000
908.271; 2363.625;  184.875;    0.000
908.447; 2430.625;  212.875;    0.000
908.623; 2263.625;  193.875;    0.000
908.800; 2384.625;  185.875;    0.000
908.976; 2250.625;  202.875;    0.000
909.153; 2411.625;  175.875;    0.000
909.329; 2264.625;  193.875;    0.000
909.505; 2255.625;  154.875;    0.000
909.682; 2271.625;  188.875;    0.000
909.858; 2262.625;  162.875;    0.000
910.034; 2217.625;  181.875;    0.000
910.211; 2179.625;  142.875;    0.000
910.387; 2237.625;  200.875;    0.000
910.563; 2179.625;  163.875;    0.000
910.739; 2220.625;  156.875;    0.000
910.915; 2176.625;  202.875;    0.000
911.091; 2183.625;  186.875;    0.000
911.268; 2190.625;  167.875;    0.000
911.444; 2193.625;  193.875;    0.000
911.620; 2113.625;  175.875;    0.000
911.796; 2175.625;  168.875;    0.000
911.972; 2157.625;  154.875;    0.000
912.148; 2174.625;  201.875;    0.000
912.324; 2174.625;  146.875;    0.000
912.500; 2208.625;  185.875;    0.000
912.676; 2141.625;  183.875;    0.000
912.851; 2126.625;  204.875;    0.000
913.027; 2242.625;  196.875;    0.000
913.203; 2138.625;  174.875;    0.000
913.379; 2167.625;  210.875;    0.000
913.555; 2142.625;  197.875;    0.000
913.730; 2076.625;  209.875;    0.000
913.906; 2148.625;  169.875;    0.000
914.082; 2158.625;  236.875;    0.000
914.258; 2109.625;  216.875;    0.000
914.433; 2068.625;  212.875;    0.000
914.609; 2097.625;  180.875;    0.000
914.784; 2099.625;  176.875;    0.000
914.960; 2054.625;  227.875;    0.000
915.136; 2016.625;  149.875;    0.000
915.311; 2183.625;  165.875;    0.000
915.487; 2128.625;  167.875;    0.000
915.662; 2135.625;  225.875;    0.000
915.838; 2122.625;  165.875;    0.000
916.013; 2125.625;  188.875;    0.000
916.189; 2131.625;  200.875;    0.000
916.364; 2131.625;  201.875;    0.000
916.539; 2149.625;  240.875;    0.000
916.715; 2066.625;  180.875;    0.000
916.890; 2232.625;  191.875;    0.000
917.065; 2145.625;  211.875;    0.000
917.240; 2127.625;  212.875;    0.000
917.416; 2138.625;  207.875;    0.000
917.591; 2156.625;  189.875;    0.000
917.766; 2185.625;  205.875;    0.000
917.941; 2134.625;  191.875;    0.000
918.116; 2159.625;  195.875;    0.000
918.292; 2118.625;  183.875;    0.000
918.467; 2225.625;  206.875;    0.000
918.642; 2136.625;  190.875;    0.000
918.817; 2276.625;  193.875;    0.000
918.992; 2115.625;  171.875;    0.000
919.167; 2170.625;  191.875;    0.000
919.342; 2160.625;  202.875;    0.000
919.517; 2285.625;  182.875;    0.000
919.692; 2175.625;  190.875;    0.000
919.867; 2211.625;  221.875;    0.000
920.041; 2230.625;  195.875;    0.000
920.216; 2283.625;  226.875;    0.000
920.391; 2282.625;  230.875;    0.000
920.566; 2303.625;  210.875;    0.000
920.741; 2365.625;  204.875;    0.000
920.915; 2478.625;  213.875;    0.000
921.090; 2687.625;  194.875;    0.000
921.265; 3328.625;  234.875;    0.000
921.439; 3819.625;  228.875;    0.000
921.614; 3300.625;  199.875;    0.000
921.789; 3030.625;  194.875;    0.000
921.963; 2825.625;  236.875;    0.000
922.138; 2581.625;  192.875;    0.000
922.312; 2689.625;  203.875;    0.000
922.487; 2681.625;  207.875;    0.000
922.661; 2788.625;  216.875;    0.000
922.836; 3320.625;  199.875;    0.000
923.010; 3376.625;  179.875;    0.000
923.185; 3138.625;  241.875;    0.000
923.359; 2800.625;  199.875;    0.000
923.534; 2855.625;  227.875;    0.000
923.708; 3001.625;  213.875;    0.000
923.882; 3161.625;  203.875;    0.000
924.057; 2982.625;  194.875;    0.000
924.231; 2819.625;  185.875;    0.000
924.405; 2703.625;  223.875;    0.000
924.579; 2728.625;  196.875;    0.000
924.753; 2618.625;  209.875;    0.000
924.928; 2534.625;  202.875;    0.000
925.102; 2627.625;  184.875;    0.000
925.276; 2571.625;  191.875;    0.000
925.450; 2649.625;  199.875;    0.000
925.624; 2696.625;  190.875;    0.000
925.798; 2848.625;  214.875;    0.000
925.972; 2843.625;  193.875;    0.000
926.146; 3073.625;  191.875;    0.000
926.320; 3322.625;  177.875;    0.000
926.494; 3787.625;  190.875;    0.000
926.668; 3735.625;  182.875;    0.000
926.842; 4071.625;  182.875;    0.000
927.016; 3956.625;  235.875;    0.000
927.190; 3918.625;  234.875;    0.000
927.363; 3825.625;  214.875;    0.000
927.537; 3813.625;  198.875;    0.000
927.711; 3603.625;  154.875;    0.000
927.885; 3559.625;  167.875;    0.000
928.058; 3436.625;  210.875;    0.000
928.232; 3372.625;  206.875;    0.000
928.406; 3208.625;  176.875;    0.000
928.579; 3179.625;  182.875;    0.000
928.753; 3051.625;  179.875;    0.000
928.927; 3033.625;  186.875;    0.000
929.100; 3011.625;  188.875;    0.000
929.274; 2829.625;  167.875;    0.000
929.447; 2781.625;  152.875;    0.000
929.621; 2825.625;  195.875;    0.000
929.794; 2768.625;  200.875;    0.000
929.968; 2755.625;  203.875;    0.000
930.141; 2600.625;  237.875;    0.000
930.315; 2630.625;  165.875;    0.000
930.488; 2700.625;  175.875;    0.000
930.661; 2599.625;  173.875;    0.000
930.835; 2521.625;  171.875;    0.000
931.008; 2539.625;  210.875;    0.000
931.181; 2476.625;  206.875;    0.000
931.354; 2395.625;  195.875;    0.000
931.528; 2443.625;  178.875;    0.000
931.701; 2340.625;  179.875;    0.000
931.874; 2359.625;  150.875;    0.000
932.047; 2373.625;  154.875;    0.000
932.220; 2353.625;  185.875;    0.000
932.393; 2357.625;  166.875;    0.000
932.566; 2241.625;  171.875;    0.000
932.739; 2239.625;  196.875;    0.000
932.912; 2242.625;  212.875;    0.000
933.085; 2300.625;  234.875;    0.000
933.258; 2214.625;  212.875;    0.000
933.431; 2244.625;  181.875;    0.000
933.604; 2079.625;  201.875;    0.000
933.777; 2220.625;  201.875;    0.000
933.950; 2111.625;  176.875;    0.000
934.123; 2188.625;  175.875;    0.000
934.296; 2157.625;  174.875;    0.000
934.468; 2233.625;  186.875;    0.000
934.641; 2121.625;  192.875;    0.000
934.814; 2141.625;  187.875;    0.000
934.987; 2185.625;  165.875;    0.000
935.159; 2128.625;  162.875;    0.000
935.332; 2134.625;  210.875;    0.000
935.505; 2130.625;  191.875;    0.000
935.677; 2090.625;  159.875;    0.000
935.850; 2104.625;  170.875;    0.000
936.022; 2135.625;  172.875;    0.000
936.195; 2208.625;  202.875;    0.000
936.367; 2122.625;  179.875;    0.000
936.540; 2220.625;  207.875;    0.000
936.712; 2197.625;  200.875;    0.000
936.885; 2107.625;  219.875;    0.000
937.057; 2227.625;  150.875;    0.000
937.229; 2268.625;  187.875;    0.000
937.402; 2261.625;  169.875;    0.000
937.574; 2260.625;  127.875;    0.000
937.746; 2337.625;  171.875;    0.000
937.919; 2441.625;  176.875;    0.000
938.091; 2587.625;  193.875;    0.000
938.263; 2608.625;  200.875;    0.000
938.435; 2963.625;  181.875;    0.000
938.608; 3278.625;  191.875;    0.000
938.780; 3778.625;  173.875;    0.000
938.952; 4035.625;  184.875;    0.000
939.124; 4085.625;  171.875;    0.000
939.296; 4597.625;  156.875;    0.000
939.468; 4832.625;  147.875;    0.000
939.640; 4204.625;  186.875;    0.000
939.812; 3755.625;  217.875;    0.000
939.984; 3368.625;  155.875;    0.000
940.156; 3200.625;  191.875;    0.000
940.328; 2897.625;  201.875;    0.000
940.500; 2811.625;  176.875;    0.000
940.672; 2707.625;  190.875;    0.000
940.843; 2701.625;  143.875;    0.000
941.015; 2587.625;  189.875;    0.000
941.187; 2528.625;  172.875;    0.000
941.359; 2561.625;  175.875;    0.000
941.531; 2559.625;  154.875;    0.000
941.702; 2478.625;  183.875;    0.000
941.874; 2397.625;  140.875;    0.000
942.046; 2287.625;  177.875;    0.000
942.217; 2284.625;  147.875;    0.000
942.389; 2271.625;  196.875;    0.000
942.560; 2284.625;  163.875;    0.000
942.732; 2206.625;  187.875;    0.000
942.904; 2169.625;  226.875;    0.000
943.075; 2145.625;  159.875;    0.000
943.247; 2085.625;  209.875;    0.000
943.418; 2059.625;  167.875;    0.000
943.589; 2008.625;  195.875;    0.000
943.761; 2078.625;  190.875;    0.000
943.932; 2038.625;  187.875;    0.000
944.104; 2036.625;  194.875;    0.000
944.275; 1917.625;  177.875;    0.000
944.446; 2061.625;  155.875;    0.000
944.617; 1986.625;  176.875;    0.000
944.789; 1958.625;  171.875;    0.000
944.960; 1997.625;  172.875;    0.000
945.131; 1898.625;  158.875;    0.000
945.302; 1978.625;  201.875;    0.000
945.473; 1908.625;  141.875;    0.000
945.645; 1902.625;  197.875;    0.000
945.816; 1970.625;  165.875;    0.000
945.987; 2128.625;  190.875;    0.000
946.158; 2064.625;  158.875;    0.000
946.329; 2085.625;  160.875;    0.000
946.500; 2000.625;  190.875;    0.000
946.671; 1928.625;  152.875;    0.000
946.842; 1931.625;  182.875;    0.000
947.013; 1853.625;  160.875;    0.000
947.183; 1824.625;  203.875;    0.000
947.354; 1847.625;  174.875;    0.000
947.525; 1865.625;  173.875;    0.000
947.696; 1815.625;  170.875;    0.000
947.867; 1814.625;  187.875;    0.000
948.037; 1813.625;  165.875;    0.000
948.208; 1861.625;  154.875;    0.000
948.379; 1860.625;  176.875;    0.000
948.550; 1817.625;  176.875;    0.000
948.720; 1798.625;  169.875;    0.000
948.891; 1878.625;  216.875;    0.000
949.061; 1818.625;  200.875;    0.000
949.232; 1883.625;  163.875;    0.000
949.403; 1774.625;  157.875;    0.000
949.573; 1822.625;  158.875;    0.000
949.744; 1722.625;  213.875;    0.000
949.914; 1804.625;  177.875;    0.000
950.085; 1785.625;  195.875;    0.000
950.255; 1818.625;  166.875;    0.000
950.425; 1738.625;  196.875;    0.000
950.596; 1836.625;  176.875;    0.000
950.766; 1827.625;  228.875;    0.000
950.936; 1722.625;  185.875;    0.000
951.107; 1702.625;  178.875;    0.000
951.277; 1718.625;  227.875;    0.000
951.447; 1797.625;  219.875;    0.000
951.617; 1815.625;  219.875;    0.000
951.788; 1754.625;  198.875;    0.000
951.958; 1728.625;  202.875;    0.000
952.128; 1784.625;  197.875;    0.000
952.298; 1686.625;  211.875;    0.000
952.468; 1785.625;  233.875;    0.000
952.638; 1744.625;  222.875;    0.000
952.808; 1669.625;  210.875;    0.000
952.978; 1735.625;  216.875;    0.000
953.148; 1702.625;  203.875;    0.000
953.318; 1702.625;  212.875;    0.000
953.488; 1699.625;  156.875;    0.000
953.658; 1748.625;  226.875;    0.000
953.828; 1645.625;  223.875;    0.000
953.998; 1638.625;  209.875;    0.000
954.167; 1584.625;  203.875;    0.000
954.337; 1655.625;  209.875;    0.000
954.507; 1659.625;  252.875;    0.000
954.677; 1678.625;  207.875;    0.000
954.846; 1616.625;  240.875;    0.000
955.016; 1647.625;  197.875;    0.000
955.186; 1637.625;  208.875;    0.000
955.355; 1627.625;  243.875;    0.000
955.525; 1662.625;  211.875;    0.000
955.695; 1659.625;  187.875;    0.000
955.864; 1561.625;  204.875;    0.000
956.034; 1614.625;  199.875;    0.000
956.203; 1671.625;  257.875;    0.000
956.373; 1562.625;  193.875;    0.000
956.542; 1641.625;  187.875;    0.000
956.711; 1632.625;  259.875;    0.000
956.881; 1596.625;  227.875;    0.000
957.050; 1609.625;  260.875;    0.000
957.220; 1602.625;  246.875;    0.000
957.389; 1592.625;  211.875;    0.000
957.558; 1561.625;  197.875;    0.000
957.727; 1567.625;  227.875;    0.000
957.897; 1574.625;  219.875;    0.000
958.066; 1528.625;  180.875;    0.000
958.235; 1499.625;  179.875;    0.000
958.404; 1544.625;  194.875;    0.000
958.573; 1513.625;  235.875;    0.000
958.743; 1510.625;  191.875;    0.000
958.912; 1553.625;  181.875;    0.000
959.081; 1533.625;  193.875;    0.000
959.250; 1547.625;  180.875;    0.000
959.419; 1492.625;  205.875;    0.000
959.588; 1564.625;  241.875;    0.000
959.757; 1474.625;  202.875;    0.000
959.926; 1498.625;  212.875;    0.000
960.094; 1501.625;  199.875;    0.000
960.263; 1505.625;  226.875;    0.000
960.432; 1489.625;  188.875;    0.000
960.601; 1524.625;  200.875;    0.000
960.770; 1502.625;  197.875;    0.000
960.939; 1496.625;  195.875;    0.000
961.107; 1446.625;  198.875;    0.000
961.276; 1474.625;  151.875;    0.000
961.445; 1515.625;  227.875;    0.000
961.613; 1488.625;  186.875;    0.000
961.782; 1527.625;  187.875;    0.000
961.951; 1534.625;  194.875;    0.000
962.119; 1524.625;  227.875;    0.000
962.288; 1483.625;  181.875;    0.000
962.456; 1511.625;  206.875;    0.000
962.625; 1515.625;  181.875;    0.000
962.793; 1534.625;  216.875;    0.000
962.962; 1423.625;  237.875;    0.000
963.130; 1439.625;  194.875;    0.000
963.298; 1475.625;  190.875;    0.000
963.467; 1451.625;  204.875;    0.000
963.635; 1456.625;  159.875;    0.000
963.803; 1415.625;  208.875;    0.000
963.972; 1437.625;  206.875;    0.000
964.140; 1489.625;  178.875;    0.000
964.308; 1459.625;  185.875;    0.000
964.477; 1489.625;  189.875;    0.000
964.645; 1515.625;  201.875;    0.000
964.813; 1420.625;  200.875;    0.000
964.981; 1534.625;  160.875;    0.000
965.149; 1517.625;  230.875;    0.000
965.317; 1496.625;  214.875;    0.000
965.485; 1519.625;  190.875;    0.000
965.653; 1463.625;  239.875;    0.000
965.821; 1450.625;  211.875;    0.000
965.989; 1426.625;  216.875;    0.000
966.157; 1551.625;  198.875;    0.000
966.325; 1433.625;  200.875;    0.000
966.493; 1487.625;  187.875;    0.000
966.661; 1450.625;  181.875;    0.000
966.829; 1434.625;  181.875;    0.000
966.996; 1443.625;  220.875;    0.000
967.164; 1446.625;  179.875;    0.000
967.332; 1457.625;  203.875;    0.000
967.500; 1502.625;  200.875;    0.000
967.667; 1460.625;  196.875;    0.000
967.835; 1559.625;  199.875;    0.000
968.003; 1542.625;  191.875;    0.000
968.170; 1502.625;  141.875;    0.000
968.338; 1436.625;  185.875;    0.000
968.505; 1433.625;  199.875;    0.000
968.673; 1441.625;  191.875;    0.000
968.841; 1488.625;  165.875;    0.000
969.008; 1446.625;  192.875;    0.000
969.175; 1447.625;  172.875;    0.000
969.343; 1560.625;  191.875;    0.000
969.510; 1460.625;  199.875;    0.000
969.678; 1443.625;  156.875;    0.000
969.845; 1398.625;  191.875;    0.000
970.012; 1453.625;  205.875;    0.000
970.180; 1463.625;  201.875;    0.000
970.347; 1415.625;  229.875;    0.000
970.514; 1449.625;  207.875;    0.000
970.681; 1530.625;  169.875;    0.000
970.849; 1394.625;  196.875;    0.000
971.016; 1417.625;  212.875;    0.000
971.183; 1415.625;  178.875;    0.000
971.350; 1452.625;  193.875;    0.000
971.517; 1464.625;  190.875;    0.000
971.684; 1474.625;  261.875;    0.000
971.851; 1460.625;  203.875;    0.000
972.018; 1417.625;  184.875;    0.000
972.185; 1389.625;  226.875;    0.000
972.352; 1453.625;  180.875;    0.000
972.519; 1430.625;  226.875;    0.000
972.686; 1425.625;  233.875;    0.000
972.853; 1420.625;  173.875;    0.000
973.020; 1434.625;  208.875;    0.000
973.186; 1448.625;  173.875;    0.000
973.353; 1422.625;  218.875;    0.000
973.520; 1380.625;  218.875;    0.000
973.687; 1451.625;  176.875;    0.000
973.853; 1478.625;  203.875;    0.000
974.020; 1531.625;  196.875;    0.000
974.187; 1394.625;  188.875;    0.000
974.353; 1411.625;  230.875;    0.000
974.520; 1447.625;  195.875;    0.000
974.687; 1394.625;  209.875;    0.000
974.853; 1431.625;  189.875;    0.000
975.020; 1408.625;  179.875;    0.000
975.186; 1407.625;  204.875;    0.000
975.353; 1407.625;  201.875;    0.000
975.519; 1362.625;  200.875;    0.000
975.685; 1359.625;  176.875;    0.000
975.852; 1373.625;  197.875;    0.000
976.018; 1451.625;  201.875;    0.000
976.184; 1425.625;  176.875;    0.000
976.351; 1350.625;  221.875;    0.000
976.517; 1427.625;  203.875;    0.000
976.683; 1446.625;  236.875;    0.000
976.849; 1391.625;  190.875;    0.000
977.016; 1348.625;  173.875;    0.000
977.182; 1424.625;  200.875;    0.000
977.348; 1405.625;  179.875;    0.000
977.514; 1338.625;  159.875;    0.000
977.680; 1361.625;  200.875;    0.000
977.846; 1395.625;  206.875;    0.000
978.012; 1351.625;  219.875;    0.000
978.178; 1374.625;  229.875;    0.000
978.344; 1378.625;  195.875;    0.000
978.510; 1366.625;  209.875;    0.000
978.676; 1321.625;  190.875;    0.000
978.842; 1339.625;  195.875;    0.000
979.008; 1298.625;  186.875;    0.000
979.174; 1392.625;  185.875;    0.000
979.340; 1386.625;  198.875;    0.000
979.505; 1460.625;  214.875;    0.000
979.671; 1403.625;  159.875;    0.000
979.837; 1432.625;  202.875;    0.000
980.003; 1365.625;  190.875;    0.000
980.168; 1390.625;  216.875;    0.000
980.334; 1389.625;  194.875;    0.000
980.499; 1427.625;  229.875;    0.000
980.665; 1389.625;  240.875;    0.000
980.831; 1380.625;  202.875;    0.000
980.996; 1372.625;  179.875;    0.000
981.162; 1384.625;  212.875;    0.000
981.327; 1391.625;  202.875;    0.000
981.493; 1412.625;  219.875;    0.000
981.658; 1371.625;  218.875;    0.000
981.823; 1369.625;  207.875;    0.000
981.989; 1395.625;  207.875;    0.000
982.154; 1407.625;  224.875;    0.000
982.319; 1353.625;  217.875;    0.000
982.485; 1439.625;  266.875;    0.000
982.650; 1470.625;  245.875;    0.000
982.815; 1427.625;  229.875;    0.000
982.980; 1419.625;  203.875;    0.000
983.146; 1436.625;  242.875;    0.000
983.311; 1353.625;  144.875;    0.000
983.476; 1376.625;  222.875;    0.000
983.641; 1367.625;  206.875;    0.000
983.806; 1371.625;  217.875;    0.000
983.971; 1439.625;  254.875;    0.000
984.136; 1368.625;  217.875;    0.000
984.301; 1337.625;  202.875;    0.000
984.466; 1383.625;  206.875;    0.000
984.631; 1437.625;  224.875;    0.000
984.796; 1399.625;  218.875;    0.000
984.961; 1329.625;  202.875;    0.000
985.126; 1358.625;  238.875;    0.000
985.291; 1349.625;  220.875;    0.000
985.455; 1364.625;  223.875;    0.000
985.620; 1337.625;  218.875;    0.000
985.785; 1362.625;  228.875;    0.000
985.950; 1390.625;  212.875;    0.000
986.114; 1410.625;  215.875;    0.000
986.279; 1471.625;  243.875;    0.000
986.444; 1400.625;  222.875;    0.000
986.608; 1434.625;  243.875;    0.000
986.773; 1424.625;  213.875;    0.000
986.937; 1448.625;  267.875;    0.000
987.102; 1441.625;  235.875;    0.000
987.266; 1357.625;  210.875;    0.000
987.431; 1468.625;  239.875;    0.000
987.595; 1457.625;  230.875;    0.000
987.760; 1393.625;  229.875;    0.000
987.924; 1396.625;  217.875;    0.000
988.088; 1342.625;  210.875;    0.000
988.253; 1427.625;  215.875;    0.000
988.417; 1332.625;  186.875;    0.000
988.581; 1408.625;  214.875;    0.000
988.746; 1333.625;  212.875;    0.000
988.910; 1376.625;  192.875;    0.000
989.074; 1383.625;  195.875;    0.000
989.238; 1269.625;  226.875;    0.000
989.402; 1433.625;  214.875;    0.000
989.566; 1360.625;  201.875;    0.000
989.731; 1333.625;  199.875;    0.000
989.895; 1375.625;  205.875;    0.000
990.059; 1336.625;  204.875;    0.000
990.223; 1294.625;  182.875;    0.000
990.387; 1373.625;  220.875;    0.000
990.551; 1430.625;  199.875;    0.000
990.714; 1297.625;  202.875;    0.000
990.878; 1335.625;  201.875;    0.000
991.042; 1398.625;  202.875;    0.000
991.206; 1430.625;  215.875;    0.000
991.370; 1390.625;  217.875;    0.000
991.534; 1290.625;  152.875;    0.000
991.697; 1349.625;  194.875;    0.000
991.861; 1336.625;  208.875;    0.000
992.025; 1410.625;  209.875;    0.000
992.188; 1316.625;  182.875;    0.000
992.352; 1312.625;  181.875;    0.000
992.516; 1326.625;  192.875;    0.000
992.679; 1329.625;  183.875;    0.000
992.843; 1338.625;  156.875;    0.000
993.006; 1359.625;  192.875;    0.000
993.170; 1297.625;  172.875;    0.000
993.333; 1250.625;  195.875;    0.000
993.497; 1352.625;  185.875;    0.000
993.660; 1350.625;  155.875;    0.000
993.824; 1321.625;  199.875;    0.000
993.987; 1364.625;  211.875;    0.000
994.150; 1300.625;  173.875;    0.000
994.314; 1317.625;  202.875;    0.000
994.477; 1272.625;  171.875;    0.000
994.640; 1390.625;  191.875;    0.000
994.803; 1333.625;  203.875;    0.000
994.967; 1375.625;  198.875;    0.000
995.130; 1314.625;  192.875;    0.000
995.293; 1321.625;  211.875;    0.000
995.456; 1304.625;  207.875;    0.000
995.619; 1370.625;  207.875;    0.000
995.782; 1315.625;  186.875;    0.000
995.945; 1298.625;  203.875;    0.000
996.108; 1326.625;  195.875;    0.000
996.271; 1263.625;  195.875;    0.000
996.434; 1288.625;  179.875;    0.000
996.597; 1295.625;  170.875;    0.000
996.760; 1278.625;  161.875;    0.000
996.923; 1326.625;  177.875;    0.000
997.086; 1249.625;  199.875;    0.000
997.248; 1301.625;  225.875;    0.000
997.411; 1309.625;  194.875;    0.000
997.574; 1254.625;  204.875;    0.000
997.737; 1292.625;  236.875;    0.000
997.899; 1362.625;  191.875;    0.000
998.062; 1270.625;  178.875;    0.000
998.225; 1316.625;  176.875;    0.000
998.387; 1314.625;  203.875;    0.000
998.550; 1293.625;  155.875;    0.000
998.712; 1242.625;  169.875;    0.000
998.875; 1286.625;  234.875;    0.000
999.037; 1285.625;  211.875;    0.000
999.200; 1262.625;  185.875;    0.000
999.362; 1368.625;  199.875;    0.000
999.525; 1204.625;  234.875;    0.000
999.687; 1270.625;  194.875;    0.000
999.849; 1258.625;  223.875;    0.000
1000.012; 1308.625;  222.875;    0.000
1000.174; 1335.625;  187.875;    0.000
1000.336; 1335.625;  204.875;    0.000
1000.499; 1352.625;  240.875;    0.000
1000.661; 1324.625;  215.875;    0.000
1000.823; 1337.625;  206.875;    0.000
1000.985; 1277.625;  197.875;    0.000
1001.147; 1357.625;  221.875;    0.000
1001.309; 1247.625;  207.875;    0.000
1001.471; 1353.625;  227.875;    0.000
1001.633; 1350.625;  208.875;    0.000
1001.796; 1330.625;  158.875;    0.000
1001.958; 1370.625;  210.875;    0.000
1002.119; 1357.625;  223.875;    0.000
1002.281; 1480.625;  211.875;    0.000
1002.443; 1510.625;  227.875;    0.000
1002.605; 1502.625;  186.875;    0.000
1002.767; 1582.625;  242.875;    0.000
1002.929; 1600.625;  219.875;    0.000
1003.091; 1687.625;  191.875;    0.000
1003.252; 1798.625;  233.875;    0.000
1003.414; 1752.625;  214.875;    0.000
1003.576; 1938.625;  186.875;    0.000
1003.738; 1895.625;  175.875;    0.000
1003.899; 2039.625;  237.875;    0.000
1004.061; 2190.625;  220.875;    0.000
1004.222; 2301.625;  186.875;    0.000
1004.384; 2288.625;  216.875;    0.000
1004.546; 2299.625;  203.875;    0.000
1004.707; 2379.625;  216.875;    0.000
1004.869; 2432.625;  219.875;    0.000
1005.030; 2362.625;  188.875;    0.000
1005.191; 2417.625;  223.875;    0.000
1005.353; 2335.625;  227.875;    0.000
1005.514; 2273.625;  235.875;    0.000
1005.675; 2173.625;  201.875;    0.000
1005.837; 2144.625;  199.875;    0.000
1005.998; 2034.625;  219.875;    0.000
1006.159; 2005.625;  235.875;    0.000
1006.321; 1976.625;  199.875;    0.000
1006.482; 2012.625;  222.875;    0.000
1006.643; 2219.625;  195.875;    0.000
1006.804; 2186.625;  205.875;    0.000
1006.965; 2250.625;  199.875;    0.000
1007.126; 2311.625;  231.875;    0.000
1007.287; 2387.625;  208.875;    0.000
1007.448; 2341.625;  205.875;    0.000
1007.609; 2338.625;  256.875;    0.000
1007.770; 2188.625;  231.875;    0.000
1007.931; 2213.625;  223.875;    0.000
1008.092; 2291.625;  217.875;    0.000
1008.253; 2328.625;  236.875;    0.000
1008.414; 2298.625;  197.875;    0.000
1008.575; 2359.625;  233.875;    0.000
1008.736; 2384.625;  193.875;    0.000
1008.896; 2425.625;  238.875;    0.000
1009.057; 2369.625;  245.875;    0.000
1009.218; 2350.625;  240.875;    0.000
1009.379; 2377.625;  210.875;    0.000
1009.539; 2369.625;  234.875;    0.000
1009.700; 2482.625;  228.875;    0.000
1009.860; 2414.625;  238.875;    0.000
1010.021; 2536.625;  199.875;    0.000
1010.182; 2528.625;  214.875;    0.000
1010.342; 2504.625;  216.875;    0.000
1010.503; 2508.625;  207.875;    0.000
1010.663; 2630.625;  258.875;    0.000
1010.823; 2671.625;  243.875;    0.000
1010.984; 2721.625;  268.875;    0.000
1011.144; 2799.625;  217.875;    0.000
1011.305; 2813.625;  237.875;    0.000
1011.465; 3018.625;  216.875;    0.000
1011.625; 3011.625;  195.875;    0.000
1011.785; 3178.625;  201.875;    0.000
1011.946; 3069.625;  200.875;    0.000
1012.106; 3074.625;  206.875;    0.000
1012.266; 3042.625;  227.875;    0.000
1012.426; 2973.625;  221.875;    0.000
1012.586; 2956.625;  198.875;    0.000
1012.746; 2976.625;  215.875;    0.000
1012.906; 2862.625;  226.875;    0.000
1013.066; 2914.625;  221.875;    0.000
1013.226; 2834.625;  202.875;    0.000
1013.386; 2889.625;  210.875;    0.000
1013.546; 2859.625;  243.875;    0.000
1013.706; 2708.625;  200.875;    0.000
1013.866; 2788.625;  232.875;    0.000
1014.026; 2834.625;  206.875;    0.000
1014.186; 2796.625;  222.875;    0.000
1014.346; 2717.625;  233.875;    0.000
1014.505; 2899.625;  241.875;    0.000
1014.665; 2811.625;  225.875;    0.000
1014.825; 2892.625;  196.875;    0.000
1014.985; 2845.625;  234.875;    0.000
1015.144; 2926.625;  232.875;    0.000
1015.304; 3105.625;  214.875;    0.000
1015.464; 3005.625;  210.875;    0.000
1015.623; 2915.625;  219.875;    0.000
1015.783; 3310.625;  216.875;    0.000
1015.942; 3398.625;  267.875;    0.000
1016.102; 3268.625;  234.875;    0.000
1016.261; 3248.625;  230.875;    0.000
1016.420; 3497.625;  225.875;    0.000
1016.580; 3928.625;  205.875;    0.000
1016.739; 3820.625;  199.875;    0.000
1016.899; 3705.625;  218.875;    0.000
1017.058; 3919.625;  204.875;    0.000
1017.217; 4152.625;  196.875;    0.000
1017.376; 3811.625;  204.875;    0.000
1017.536; 3543.625;  195.875;    0.000
1017.695; 3514.625;  216.875;    0.000
1017.854; 3787.625;  235.875;    0.000
1018.013; 3539.625;  189.875;    0.000
1018.172; 3205.625;  217.875;    0.000
1018.331; 3291.625;  215.875;    0.000
1018.490; 3340.625;  233.875;    0.000
1018.649; 3627.625;  211.875;    0.000
1018.808; 3731.625;  196.875;    0.000
1018.967; 3738.625;  222.875;    0.000
1019.126; 3783.625;  221.875;    0.000
1019.285; 3961.625;  212.875;    0.000
1019.444; 3921.625;  231.875;    0.000
1019.603; 3741.625;  227.875;    0.000
1019.762; 3376.625;  192.875;    0.000
1019.921; 3389.625;  240.875;    0.000
1020.079; 3830.625;  209.875;    0.000
1020.238; 4086.625;  211.875;    0.000
1020.397; 3910.625;  253.875;    0.000
1020.555; 3501.625;  179.875;    0.000
1020.714; 3702.625;  225.875;    0.000
1020.873; 4036.625;  232.875;    0.000
1021.031; 4138.625;  245.875;    0.000
1021.190; 3736.625;  230.875;    0.000
1021.348; 3562.625;  221.875;    0.000
1021.507; 4098.625;  212.875;    0.000
1021.665; 4425.625;  211.875;    0.000
1021.824; 3978.625;  206.875;    0.000
1021.982; 3645.625;  218.875;    0.000
1022.141; 3656.625;  232.875;    0.000
1022.299; 4362.625;  193.875;    0.000
1022.457; 4556.625;  217.875;    0.000
1022.616; 3966.625;  248.875;    0.000
1022.774; 3608.625;  222.875;    0.000
1022.932; 3809.625;  211.875;    0.000
1023.090; 4616.625;  288.875;    0.000
1023.249; 4607.625;  214.875;    0.000
1023.407; 3994.625;  233.875;    0.000
1023.565; 3713.625;  208.875;    0.000
1023.723; 3900.625;  217.875;    0.000
1023.881; 4513.625;  235.875;    0.000
1024.039; 4529.625;  228.875;    0.000
1024.197; 4158.625;  216.875;    0.000
1024.355; 3776.625;  251.875;    0.000
1024.513; 4033.625;  232.875;    0.000
1024.671; 4824.625;  217.875;    0.000
1024.829; 4788.625;  255.875;    0.000
1024.987; 4318.625;  203.875;    0.000
1025.145; 3771.625;  239.875;    0.000
1025.302; 4126.625;  209.875;    0.000
1025.460; 4585.625;  224.875;    0.000
1025.618; 4907.625;  193.875;    0.000
1025.776; 4514.625;  209.875;    0.000
1025.933; 3863.625;  229.875;    0.000
1026.091; 4096.625;  218.875;    0.000
1026.249; 4608.625;  269.875;    0.000
1026.406; 5127.625;  264.875;    0.000
1026.564; 4736.625;  230.875;    0.000
1026.721; 4281.625;  198.875;    0.000
1026.879; 4117.625;  216.875;    0.000
1027.036; 4547.625;  226.875;    0.000
1027.194; 5085.625;  245.875;    0.000
1027.351; 5261.625;  236.875;    0.000
1027.509; 4514.625;  262.875;    0.000
1027.666; 4200.625;  227.875;    0.000
1027.823; 4503.625;  214.875;    0.000
1027.981; 4790.625;  258.875;    0.000
1028.138; 5056.625;  239.875;    0.000
1028.295; 4738.625;  226.875;    0.000
1028.452; 4465.625;  225.875;    0.000
1028.609; 4361.625;  276.875;    0.000
1028.767; 4748.625;  228.875;    0.000
1028.924; 5033.625;  213.875;    0.000
1029.081; 5058.625;  232.875;    0.000
1029.238; 4822.625;  250.875;    0.000
1029.395; 4452.625;  255.875;    0.000
1029.552; 4577.625;  217.875;    0.000
1029.709; 4968.625;  210.875;    0.000
1029.866; 5378.625;  243.875;    0.000
1030.023; 5070.625;  202.875;    0.000
1030.180; 4715.625;  233.875;    0.000
1030.337; 4600.625;  234.875;    0.000
1030.494; 4817.625;  222.875;    0.000
1030.650; 5214.625;  241.875;    0.000
1030.807; 5638.625;  206.875;    0.000
1030.964; 5083.625;  206.875;    0.000
1031.121; 4863.625;  228.875;    0.000
1031.277; 4520.625;  228.875;    0.000
1031.434; 5046.625;  234.875;    0.000
1031.591; 5290.625;  250.875;    0.000
1031.747; 5335.625;  246.875;    0.000
1031.904; 5205.625;  201.875;    0.000
1032.060; 4967.625;  237.875;    0.000
1032.217; 4860.625;  232.875;    0.000
1032.373; 5318.625;  210.875;    0.000
1032.530; 5329.625;  246.875;    0.000
1032.686; 6008.625;  196.875;    0.000
1032.843; 5835.625;  212.875;    0.000
1032.999; 5633.625;  243.875;    0.000
1033.155; 5820.625;  234.875;    0.000
1033.312; 5860.625;  246.875;    0.000
1033.468; 6629.625;  233.875;    0.000
1033.624; 7201.625;  237.875;    0.000
1033.780; 7524.625;  263.875;    0.000
1033.937; 7429.625;  214.875;    0.000
1034.093; 6943.625;  230.875;    0.000
1034.249; 7072.625;  206.875;    0.000
1034.405; 6980.625;  238.875;    0.000
1034.561; 7703.625;  231.875;    0.000
1034.717; 7900.625;  228.875;    0.000
1034.873; 7895.625;  262.875;    0.000
1035.029; 8087.625;  252.875;    0.000
1035.185; 7465.625;  232.875;    0.000
1035.341; 7349.625;  245.875;    0.000
1035.497; 8107.625;  253.875;    0.000
1035.653; 8153.625;  252.875;    0.000
1035.809; 8861.625;  245.875;    0.000
1035.964; 9632.625;  229.875;    0.000
1036.120; 8678.625;  226.875;    0.000
1036.276; 8887.625;  236.875;    0.000
1036.432; 8682.625;  203.875;    0.000
1036.587; 8166.625;  228.875;    0.000
1036.743; 8957.625;  240.875;    0.000
1036.899; 9226.625;  220.875;    0.000
1037.054; 9355.625;  153.875;    0.000
1037.210;10366.625;  219.875;    0.000
1037.365;10238.625;  229.875;    0.000
1037.521; 9520.625;  257.875;    0.000
1037.676; 9446.625;  211.875;    0.000
1037.832; 8887.625;  234.875;    0.000
1037.987; 9242.625;  235.875;    0.000
1038.143; 9366.625;  176.875;    0.000
1038.298;10705.625;  262.875;    0.000
1038.453;10370.625;  209.875;    0.000
1038.609;11175.625;  230.875;    0.000
1038.764;11700.625;  253.875;    0.000
1038.919;10318.625;  195.875;    0.000
1039.074;10670.625;  234.875;    0.000
1039.229;10454.625;  234.875;    0.000
1039.385; 9913.625;  266.875;    0.000
1039.540;10421.625;  252.875;    0.000
1039.695;11060.625;  231.875;    0.000
1039.850;11876.625;  208.875;    0.000
1040.005;12710.625;  232.875;    0.000
1040.160;13236.625;  214.875;    0.000
1040.315;13234.625;  221.875;    0.000
1040.470;12703.625;  207.875;    0.000
1040.625;12197.625;  249.875;    0.000
1040.780;12050.625;  251.875;    0.000
1040.935;11985.625;  254.875;    0.000
1041.089;12426.625;  210.875;    0.000
1041.244;13719.625;  225.875;    0.000
1041.399;14120.625;  208.875;    0.000
1041.554;15050.625;  249.875;    0.000
1041.708;16392.625;  254.875;    0.000
1041.863;16246.625;  248.875;    0.000
1042.018;15571.625;  280.875;    0.000
1042.172;16235.625;  233.875;    0.000
1042.327;15398.625;  256.875;    0.000
1042.481;14631.625;  210.875;    0.000
1042.636;14780.625;  229.875;    0.000
1042.791;15289.625;  215.875;    0.000
1042.945;17229.625;  256.875;    0.000
1043.099;19144.625;  251.875;    0.000
1043.254;18591.625;  204.875;    0.000
1043.408;19377.625;  278.875;    0.000
1043.563;21542.625;  211.875;    0.000
1043.717;19084.625;  259.875;    0.000
1043.871;18855.625;  233.875;    0.000
1044.025;18963.625;  221.875;    0.000
1044.180;18202.625;  208.875;    0.000
1044.334;18712.625;  255.875;    0.000
1044.488;19605.625;  269.875;    0.000
1044.642;20255.625;  228.875;    0.000
1044.796;22339.625;  232.875;    0.000
1044.950;25170.625;  249.875;    0.000
1045.104;25477.625;  205.875;    0.000
1045.258;26424.625;  206.875;    0.000
1045.412;26695.625;  251.875;    0.000
1045.566;25313.625;  249.875;    0.000
1045.720;24030.625;  206.875;    0.000
1045.874;22710.625;  232.875;    0.000
1046.028;20725.625;  266.875;    0.000
1046.182;21253.625;  217.875;    0.000
1046.336;22652.625;  216.875;    0.000
1046.489;23238.625;  236.875;    0.000
1046.643;23160.625;  253.875;    0.000
1046.797;25902.625;  244.875;    0.000
1046.951;26636.625;  234.875;    0.000
1047.104;27097.625;  281.875;    0.000
1047.258;27588.625;  253.875;    0.000
1047.411;29939.625;  228.875;    0.000
1047.565;29968.625;  273.875;    0.000
1047.719;29157.625;  232.875;    0.000
1047.872;26380.625;  230.875;    0.000
1048.026;26555.625;  282.875;    0.000
1048.179;25425.625;  225.875;    0.000
1048.332;25281.625;  234.875;    0.000
1048.486;24568.625;  223.875;    0.000
1048.639;25189.625;  248.875;    0.000
1048.792;26071.625;  244.875;    0.000
1048.946;27454.625;  210.875;    0.000
1049.099;30784.625;  242.875;    0.000
1049.252;31659.625;  269.875;    0.000
1049.406;29270.625;  285.875;    0.000
1049.559;31113.625;  277.875;    0.000
1049.712;34752.625;  254.875;    0.000
1049.865;37269.625;  252.875;    0.000
1050.018;36559.625;  270.875;    0.000
1050.171;32424.625;  230.875;    0.000
1050.324;30436.625;  268.875;    0.000
1050.477;32119.625;  262.875;    0.000
1050.630;35044.625;  243.875;    0.000
1050.783;35873.625;  216.875;    0.000
1050.936;32939.625;  250.875;    0.000
1051.089;30439.625;  247.875;    0.000
1051.242;33481.625;  300.875;    0.000
1051.394;37581.625;  233.875;    0.000
1051.547;39386.625;  263.875;    0.000
1051.700;35115.625;  238.875;    0.000
1051.853;33093.625;  299.875;    0.000
1052.005;36098.625;  275.875;    0.000
1052.158;41116.625;  304.875;    0.000
1052.311;47004.625;  251.875;    0.000
1052.463;44767.625;  276.875;    0.000
1052.616;39950.625;  271.875;    0.000
1052.768;35194.625;  285.875;    0.000
1052.921;33335.625;  261.875;    0.000
1053.073;37509.625;  333.875;    0.000
1053.226;41785.625;  271.875;    0.000
1053.378;48056.625;  309.875;    0.000
1053.531;50602.625;  266.875;    0.000
1053.683;47355.625;  278.875;    0.000
1053.835;40326.625;  274.875;    0.000
1053.988;30722.625;  287.875;    0.000
1054.140; 5535.625;  350.875;    0.000
1054.292; 1406.625;  338.875;    0.000
1054.444; 1049.625;  270.875;    0.000
1054.596; 1026.625;  294.875;    0.000
1054.749;  924.625;  285.875;    0.000
1054.901;  855.625;  254.875;    0.000
1055.053;  824.625;  320.875;    0.000
1055.205;  798.625;  284.875;    0.000
1055.357;  770.625;  298.875;    0.000
1055.509;  713.625;  304.875;    0.000
1055.661;  707.625;  350.875;    0.000
1055.813;  691.625;  289.875;    0.000
1055.965;  684.625;  277.875;    0.000
1056.116;  664.625;  288.875;    0.000
1056.268;  626.625;  311.875;    0.000
1056.420;  657.625;  308.875;    0.000

