
Integration time [ms]:   0.300
Averaging Nr. [scans]: 1
Smoothing Nr. [pixels]: 0
Data measured with spectrometer [name]: VIS
Wave   ;Sample   ;Dark     ;Reference
[nm]   ;[counts] ;[counts] ;[counts] 

450.961;  222.350;  204.350;    0.000
451.100;  217.350;  243.350;    0.000
451.239;  208.350;  228.350;    0.000
451.377;  224.350;  250.350;    0.000
451.516;  233.350;  189.350;    0.000
451.655;  216.350;  235.350;    0.000
451.794;  188.350;  223.350;    0.000
451.932;  241.350;  269.350;    0.000
452.071;  209.350;  250.350;    0.000
452.210;  232.350;  262.350;    0.000
452.348;  263.350;  259.350;    0.000
452.487;  239.350;  231.350;    0.000
452.626;  216.350;  220.350;    0.000
452.764;  236.350;  252.350;    0.000
452.903;  211.350;  236.350;    0.000
453.042;  285.350;  217.350;    0.000
453.180; 2833.350;  273.350;    0.000
453.319; 2935.350;  261.350;    0.000
453.458; 2941.350;  219.350;    0.000
453.596; 2961.350;  307.350;    0.000
453.735; 2942.350;  246.350;    0.000
453.873; 2994.350;  270.350;    0.000
454.012; 2969.350;  232.350;    0.000
454.150; 3038.350;  211.350;    0.000
454.289; 3150.350;  245.350;    0.000
454.427; 3172.350;  224.350;    0.000
454.566; 3114.350;  252.350;    0.000
454.704; 3146.350;  225.350;    0.000
454.843; 3298.350;  195.350;    0.000
454.981; 3242.350;  258.350;    0.000
455.120; 3215.350;  191.350;    0.000
455.258; 3318.350;  243.350;    0.000
455.397; 3304.350;  188.350;    0.000
455.535; 3396.350;  219.350;    0.000
455.674; 3330.350;  184.350;    0.000
455.812; 3481.350;  225.350;    0.000
455.951; 3430.350;  201.350;    0.000
456.089; 3491.350;  187.350;    0.000
456.227; 3471.350;  199.350;    0.000
456.366; 3702.350;  235.350;    0.000
456.504; 3658.350;  216.350;    0.000
456.642; 3606.350;  256.350;    0.000
456.781; 3619.350;  201.350;    0.000
456.919; 3765.350;  231.350;    0.000
457.057; 3746.350;  181.350;    0.000
457.196; 3734.350;  231.350;    0.000
457.334; 3838.350;  229.350;    0.000
457.472; 3907.350;  242.350;    0.000
457.610; 3906.350;  221.350;    0.000
457.749; 4042.350;  218.350;    0.000
457.887; 4048.350;  213.350;    0.000
458.025; 4078.350;  228.350;    0.000
458.163; 4099.350;  204.350;    0.000
458.301; 4170.350;  230.350;    0.000
458.440; 4244.350;  200.350;    0.000
458.578; 4341.350;  222.350;    0.000
458.716; 4406.350;  137.350;    0.000
458.854; 4475.350;  259.350;    0.000
458.992; 4344.350;  172.350;    0.000
459.130; 4643.350;  253.350;    0.000
459.269; 4540.350;  212.350;    0.000
459.407; 4626.350;  212.350;    0.000
459.545; 4691.350;  225.350;    0.000
459.683; 4819.350;  225.350;    0.000
459.821; 4799.350;  192.350;    0.000
459.959; 4893.350;  205.350;    0.000
460.097; 4822.350;  199.350;    0.000
460.235; 4939.350;  232.350;    0.000
460.373; 5093.350;  248.350;    0.000
460.511; 4999.350;  225.350;    0.000
460.649; 5050.350;  204.350;    0.000
460.787; 5122.350;  221.350;    0.000
460.925; 5085.350;  181.350;    0.000
461.063; 5238.350;  243.350;    0.000
461.201; 5227.350;  212.350;    0.000
461.339; 5244.350;  229.350;    0.000
461.477; 5316.350;  162.350;    0.000
461.615; 5252.350;  232.350;    0.000
461.753; 5286.350;  193.350;    0.000
461.891; 5349.350;  217.350;    0.000
462.029; 5507.350;  224.350;    0.000
462.166; 5715.350;  222.350;    0.000
462.304; 5749.350;  185.350;    0.000
462.442; 5732.350;  246.350;    0.000
462.580; 5878.350;  246.350;    0.000
462.718; 5865.350;  235.350;    0.000
462.856; 5859.350;  230.350;    0.000
462.993; 5928.350;  266.350;    0.000
463.131; 5747.350;  208.350;    0.000
463.269; 5794.350;  218.350;    0.000
463.407; 5690.350;  215.350;    0.000
463.545; 5543.350;  200.350;    0.000
463.682; 5775.350;  206.350;    0.000
463.820; 5993.350;  211.350;    0.000
463.958; 6068.350;  206.350;    0.000
464.095; 6218.350;  193.350;    0.000
464.233; 6279.350;  203.350;    0.000
464.371; 6259.350;  258.350;    0.000
464.509; 6284.350;  219.350;    0.000
464.646; 6245.350;  210.350;    0.000
464.784; 6264.350;  206.350;    0.000
464.921; 6135.350;  233.350;    0.000
465.059; 6097.350;  186.350;    0.000
465.197; 5919.350;  213.350;    0.000
465.334; 5758.350;  202.350;    0.000
465.472; 5745.350;  236.350;    0.000
465.609; 5723.350;  206.350;    0.000
465.747; 5622.350;  208.350;    0.000
465.885; 5589.350;  198.350;    0.000
466.022; 5600.350;  210.350;    0.000
466.160; 5492.350;  245.350;    0.000
466.297; 5539.350;  226.350;    0.000
466.435; 5544.350;  235.350;    0.000
466.572; 5554.350;  226.350;    0.000
466.710; 5595.350;  266.350;    0.000
466.847; 5481.350;  258.350;    0.000
466.985; 5597.350;  228.350;    0.000
467.122; 5543.350;  201.350;    0.000
467.260; 5532.350;  170.350;    0.000
467.397; 5401.350;  174.350;    0.000
467.534; 5392.350;  244.350;    0.000
467.672; 5404.350;  247.350;    0.000
467.809; 5317.350;  182.350;    0.000
467.947; 5289.350;  208.350;    0.000
468.084; 5430.350;  206.350;    0.000
468.221; 5461.350;  249.350;    0.000
468.359; 5407.350;  253.350;    0.000
468.496; 5270.350;  208.350;    0.000
468.633; 5338.350;  189.350;    0.000
468.771; 5338.350;  216.350;    0.000
468.908; 5394.350;  240.350;    0.000
469.045; 5417.350;  234.350;    0.000
469.183; 5396.350;  203.350;    0.000
469.320; 5396.350;  230.350;    0.000
469.457; 5578.350;  219.350;    0.000
469.594; 5624.350;  233.350;    0.000
469.732; 5634.350;  230.350;    0.000
469.869; 5723.350;  239.350;    0.000
470.006; 5729.350;  224.350;    0.000
470.143; 5806.350;  241.350;    0.000
470.280; 5711.350;  234.350;    0.000
470.417; 5706.350;  236.350;    0.000
470.555; 5785.350;  207.350;    0.000
470.692; 5762.350;  251.350;    0.000
470.829; 5882.350;  238.350;    0.000
470.966; 5791.350;  242.350;    0.000
471.103; 5688.350;  215.350;    0.000
471.240; 5746.350;  237.350;    0.000
471.377; 5576.350;  235.350;    0.000
471.514; 5670.350;  256.350;    0.000
471.651; 5605.350;  198.350;    0.000
471.789; 5599.350;  215.350;    0.000
471.926; 5462.350;  210.350;    0.000
472.063; 5517.350;  237.350;    0.000
472.200; 5520.350;  265.350;    0.000
472.337; 5460.350;  240.350;    0.000
472.474; 5493.350;  195.350;    0.000
472.611; 5514.350;  228.350;    0.000
472.748; 5348.350;  234.350;    0.000
472.884; 5411.350;  230.350;    0.000
473.021; 5219.350;  219.350;    0.000
473.158; 5330.350;  253.350;    0.000
473.295; 5382.350;  207.350;    0.000
473.432; 5409.350;  238.350;    0.000
473.569; 5469.350;  236.350;    0.000
473.706; 5259.350;  203.350;    0.000
473.843; 5346.350;  232.350;    0.000
473.980; 5456.350;  207.350;    0.000
474.117; 5436.350;  182.350;    0.000
474.253; 5434.350;  261.350;    0.000
474.390; 5353.350;  211.350;    0.000
474.527; 5436.350;  229.350;    0.000
474.664; 5589.350;  181.350;    0.000
474.801; 5341.350;  250.350;    0.000
474.937; 5654.350;  196.350;    0.000
475.074; 5566.350;  213.350;    0.000
475.211; 5517.350;  232.350;    0.000
475.348; 5640.350;  228.350;    0.000
475.484; 5490.350;  240.350;    0.000
475.621; 5464.350;  235.350;    0.000
475.758; 5566.350;  232.350;    0.000
475.894; 5424.350;  227.350;    0.000
476.031; 5431.350;  233.350;    0.000
476.168; 5568.350;  205.350;    0.000
476.304; 5579.350;  263.350;    0.000
476.441; 5632.350;  255.350;    0.000
476.578; 5529.350;  191.350;    0.000
476.714; 5639.350;  218.350;    0.000
476.851; 5645.350;  224.350;    0.000
476.987; 5783.350;  225.350;    0.000
477.124; 5621.350;  231.350;    0.000
477.261; 5762.350;  291.350;    0.000
477.397; 5611.350;  218.350;    0.000
477.534; 5758.350;  209.350;    0.000
477.670; 5861.350;  210.350;    0.000
477.807; 5854.350;  199.350;    0.000
477.943; 5900.350;  219.350;    0.000
478.080; 5997.350;  234.350;    0.000
478.216; 5934.350;  196.350;    0.000
478.353; 5828.350;  234.350;    0.000
478.489; 6110.350;  219.350;    0.000
478.626; 6071.350;  209.350;    0.000
478.762; 6020.350;  206.350;    0.000
478.898; 6104.350;  209.350;    0.000
479.035; 6177.350;  232.350;    0.000
479.171; 6136.350;  219.350;    0.000
479.308; 6049.350;  226.350;    0.000
479.444; 6081.350;  184.350;    0.000
479.580; 6099.350;  192.350;    0.000
479.717; 6234.350;  247.350;    0.000
479.853; 6187.350;  181.350;    0.000
479.989; 6160.350;  212.350;    0.000
480.126; 6152.350;  187.350;    0.000
480.262; 6421.350;  217.350;    0.000
480.398; 6246.350;  249.350;    0.000
480.535; 6245.350;  196.350;    0.000
480.671; 6173.350;  199.350;    0.000
480.807; 6203.350;  231.350;    0.000
480.943; 6216.350;  192.350;    0.000
481.080; 6234.350;  206.350;    0.000
481.216; 6154.350;  189.350;    0.000
481.352; 6138.350;  215.350;    0.000
481.488; 6109.350;  223.350;    0.000
481.624; 6003.350;  235.350;    0.000
481.760; 6038.350;  218.350;    0.000
481.897; 6124.350;  204.350;    0.000
482.033; 6064.350;  243.350;    0.000
482.169; 6042.350;  239.350;    0.000
482.305; 6047.350;  221.350;    0.000
482.441; 5930.350;  162.350;    0.000
482.577; 5981.350;  241.350;    0.000
482.713; 6001.350;  223.350;    0.000
482.849; 6040.350;  195.350;    0.000
482.985; 6125.350;  230.350;    0.000
483.121; 5952.350;  230.350;    0.000
483.258; 5928.350;  254.350;    0.000
483.394; 5876.350;  199.350;    0.000
483.530; 5959.350;  209.350;    0.000
483.665; 5994.350;  196.350;    0.000
483.801; 6027.350;  208.350;    0.000
483.937; 6075.350;  202.350;    0.000
484.073; 5965.350;  247.350;    0.000
484.209; 6047.350;  188.350;    0.000
484.345; 6140.350;  241.350;    0.000
484.481; 6081.350;  247.350;    0.000
484.617; 5999.350;  248.350;    0.000
484.753; 6130.350;  255.350;    0.000
484.889; 6079.350;  253.350;    0.000
485.025; 6169.350;  226.350;    0.000
485.161; 6142.350;  207.350;    0.000
485.296; 6073.350;  247.350;    0.000
485.432; 6080.350;  255.350;    0.000
485.568; 6265.350;  216.350;    0.000
485.704; 6108.350;  232.350;    0.000
485.840; 6176.350;  231.350;    0.000
485.975; 6186.350;  233.350;    0.000
486.111; 6195.350;  207.350;    0.000
486.247; 6282.350;  211.350;    0.000
486.383; 6087.350;  219.350;    0.000
486.518; 6229.350;  213.350;    0.000
486.654; 6144.350;  216.350;    0.000
486.790; 6205.350;  253.350;    0.000
486.926; 6098.350;  229.350;    0.000
487.061; 6197.350;  241.350;    0.000
487.197; 6170.350;  218.350;    0.000
487.333; 6157.350;  221.350;    0.000
487.468; 6094.350;  206.350;    0.000
487.604; 6126.350;  254.350;    0.000
487.740; 6176.350;  240.350;    0.000
487.875; 6132.350;  260.350;    0.000
488.011; 6220.350;  232.350;    0.000
488.146; 6282.350;  206.350;    0.000
488.282; 6148.350;  236.350;    0.000
488.417; 6219.350;  255.350;    0.000
488.553; 6169.350;  221.350;    0.000
488.688; 6203.350;  233.350;    0.000
488.824; 6270.350;  246.350;    0.000
488.960; 6305.350;  267.350;    0.000
489.095; 6225.350;  217.350;    0.000
489.230; 6252.350;  226.350;    0.000
489.366; 6275.350;  232.350;    0.000
489.501; 6328.350;  220.350;    0.000
489.637; 6360.350;  245.350;    0.000
489.772; 6344.350;  228.350;    0.000
489.908; 6233.350;  250.350;    0.000
490.043; 6311.350;  239.350;    0.000
490.178; 6401.350;  213.350;    0.000
490.314; 6369.350;  270.350;    0.000
490.449; 6377.350;  245.350;    0.000
490.585; 6334.350;  218.350;    0.000
490.720; 6399.350;  243.350;    0.000
490.855; 6368.350;  196.350;    0.000
490.991; 6304.350;  208.350;    0.000
491.126; 6332.350;  268.350;    0.000
491.261; 6438.350;  226.350;    0.000
491.396; 6509.350;  201.350;    0.000
491.532; 6481.350;  213.350;    0.000
491.667; 6473.350;  183.350;    0.000
491.802; 6415.350;  239.350;    0.000
491.937; 6462.350;  228.350;    0.000
492.073; 6620.350;  258.350;    0.000
492.208; 6644.350;  218.350;    0.000
492.343; 6556.350;  205.350;    0.000
492.478; 6791.350;  247.350;    0.000
492.613; 6774.350;  217.350;    0.000
492.749; 6625.350;  258.350;    0.000
492.884; 6563.350;  208.350;    0.000
493.019; 6617.350;  248.350;    0.000
493.154; 6783.350;  231.350;    0.000
493.289; 6626.350;  226.350;    0.000
493.424; 6668.350;  216.350;    0.000
493.559; 6581.350;  205.350;    0.000
493.694; 6468.350;  203.350;    0.000
493.829; 6507.350;  231.350;    0.000
493.964; 6616.350;  200.350;    0.000
494.099; 6649.350;  253.350;    0.000
494.234; 6648.350;  244.350;    0.000
494.369; 6563.350;  239.350;    0.000
494.504; 6563.350;  223.350;    0.000
494.639; 6589.350;  263.350;    0.000
494.774; 6768.350;  240.350;    0.000
494.909; 6501.350;  231.350;    0.000
495.044; 6599.350;  195.350;    0.000
495.179; 6517.350;  231.350;    0.000
495.314; 6616.350;  231.350;    0.000
495.449; 6649.350;  239.350;    0.000
495.584; 6620.350;  201.350;    0.000
495.719; 6691.350;  201.350;    0.000
495.854; 6650.350;  201.350;    0.000
495.988; 6749.350;  239.350;    0.000
496.123; 6740.350;  199.350;    0.000
496.258; 6871.350;  256.350;    0.000
496.393; 6851.350;  214.350;    0.000
496.528; 6892.350;  220.350;    0.000
496.663; 6992.350;  207.350;    0.000
496.797; 7069.350;  241.350;    0.000
496.932; 7111.350;  215.350;    0.000
497.067; 7227.350;  240.350;    0.000
497.202; 7273.350;  177.350;    0.000
497.336; 7353.350;  221.350;    0.000
497.471; 7576.350;  228.350;    0.000
497.606; 7699.350;  213.350;    0.000
497.740; 7985.350;  217.350;    0.000
497.875; 8088.350;  182.350;    0.000
498.010; 8312.350;  230.350;    0.000
498.144; 8631.350;  217.350;    0.000
498.279; 8719.350;  194.350;    0.000
498.414; 8860.350;  270.350;    0.000
498.548; 8975.350;  184.350;    0.000
498.683; 8953.350;  188.350;    0.000
498.817; 8901.350;  216.350;    0.000
498.952; 9219.350;  208.350;    0.000
499.087; 9421.350;  236.350;    0.000
499.221; 9563.350;  219.350;    0.000
499.356; 9660.350;  263.350;    0.000
499.490;10066.350;  221.350;    0.000
499.625;10365.350;  233.350;    0.000
499.759;10496.350;  245.350;    0.000
499.894;10965.350;  241.350;    0.000
500.028;11153.350;  237.350;    0.000
500.162;11378.350;  282.350;    0.000
500.297;11396.350;  232.350;    0.000
500.431;11629.350;  266.350;    0.000
500.566;11556.350;  254.350;    0.000
500.700;11518.350;  238.350;    0.000
500.835;11254.350;  264.350;    0.000
500.969;10709.350;  165.350;    0.000
501.103;10660.350;  190.350;    0.000
501.238;10181.350;  274.350;    0.000
501.372; 9926.350;  270.350;    0.000
501.506; 9534.350;  231.350;    0.000
501.641; 9256.350;  224.350;    0.000
501.775; 8879.350;  224.350;    0.000
501.909; 8526.350;  218.350;    0.000
502.043; 8386.350;  238.350;    0.000
502.178; 8356.350;  289.350;    0.000
502.312; 8161.350;  225.350;    0.000
502.446; 8085.350;  295.350;    0.000
502.580; 7812.350;  200.350;    0.000
502.715; 7806.350;  256.350;    0.000
502.849; 7589.350;  226.350;    0.000
502.983; 7670.350;  250.350;    0.000
503.117; 7484.350;  229.350;    0.000
503.251; 7599.350;  267.350;    0.000
503.385; 7354.350;  237.350;    0.000
503.520; 7164.350;  210.350;    0.000
503.654; 7264.350;  204.350;    0.000
503.788; 6929.350;  236.350;    0.000
503.922; 6767.350;  225.350;    0.000
504.056; 6820.350;  222.350;    0.000
504.190; 6797.350;  220.350;    0.000
504.324; 6657.350;  257.350;    0.000
504.458; 6780.350;  223.350;    0.000
504.592; 6691.350;  252.350;    0.000
504.726; 6455.350;  216.350;    0.000
504.860; 6414.350;  231.350;    0.000
504.994; 6340.350;  228.350;    0.000
505.128; 6193.350;  239.350;    0.000
505.262; 6121.350;  245.350;    0.000
505.396; 6021.350;  231.350;    0.000
505.530; 5986.350;  211.350;    0.000
505.664; 5869.350;  223.350;    0.000
505.798; 5870.350;  239.350;    0.000
505.932; 5804.350;  232.350;    0.000
506.066; 5688.350;  263.350;    0.000
506.199; 5628.350;  231.350;    0.000
506.333; 5686.350;  213.350;    0.000
506.467; 5594.350;  241.350;    0.000
506.601; 5445.350;  233.350;    0.000
506.735; 5485.350;  235.350;    0.000
506.869; 5609.350;  269.350;    0.000
507.002; 5478.350;  244.350;    0.000
507.136; 5334.350;  258.350;    0.000
507.270; 5480.350;  218.350;    0.000
507.404; 5202.350;  191.350;    0.000
507.537; 5324.350;  226.350;    0.000
507.671; 5304.350;  243.350;    0.000
507.805; 5396.350;  234.350;    0.000
507.939; 5133.350;  234.350;    0.000
508.072; 5204.350;  261.350;    0.000
508.206; 5185.350;  220.350;    0.000
508.340; 5259.350;  241.350;    0.000
508.473; 5221.350;  214.350;    0.000
508.607; 5210.350;  232.350;    0.000
508.740; 5045.350;  222.350;    0.000
508.874; 5072.350;  225.350;    0.000
509.008; 5099.350;  258.350;    0.000
509.141; 4904.350;  210.350;    0.000
509.275; 4996.350;  199.350;    0.000
509.408; 4996.350;  260.350;    0.000
509.542; 4875.350;  252.350;    0.000
509.675; 4973.350;  276.350;    0.000
509.809; 4965.350;  266.350;    0.000
509.942; 5001.350;  227.350;    0.000
510.076; 4957.350;  243.350;    0.000
510.209; 4987.350;  221.350;    0.000
510.343; 5034.350;  229.350;    0.000
510.476; 4980.350;  246.350;    0.000
510.610; 4906.350;  211.350;    0.000
510.743; 4932.350;  279.350;    0.000
510.877; 4895.350;  274.350;    0.000
511.010; 4834.350;  252.350;    0.000
511.143; 4799.350;  228.350;    0.000
511.277; 4832.350;  261.350;    0.000
511.410; 4787.350;  217.350;    0.000
511.543; 4833.350;  230.350;    0.000
511.677; 4732.350;  245.350;    0.000
511.810; 4795.350;  237.350;    0.000
511.943; 4847.350;  224.350;    0.000
512.077; 4699.350;  194.350;    0.000
512.210; 4690.350;  212.350;    0.000
512.343; 4749.350;  236.350;    0.000
512.476; 4725.350;  248.350;    0.000
512.610; 4691.350;  249.350;    0.000
512.743; 4759.350;  224.350;    0.000
512.876; 4724.350;  277.350;    0.000
513.009; 4814.350;  261.350;    0.000
513.142; 4696.350;  213.350;    0.000
513.276; 4689.350;  192.350;    0.000
513.409; 4767.350;  267.350;    0.000
513.542; 4855.350;  224.350;    0.000
513.675; 4640.350;  244.350;    0.000
513.808; 4609.350;  218.350;    0.000
513.941; 4706.350;  237.350;    0.000
514.074; 4749.350;  257.350;    0.000
514.207; 4813.350;  245.350;    0.000
514.340; 4707.350;  195.350;    0.000
514.474; 4848.350;  244.350;    0.000
514.607; 4810.350;  230.350;    0.000
514.740; 4806.350;  246.350;    0.000
514.873; 4796.350;  268.350;    0.000
515.006; 5065.350;  253.350;    0.000
515.139; 5059.350;  235.350;    0.000
515.272; 5128.350;  214.350;    0.000
515.404; 5268.350;  228.350;    0.000
515.537; 5167.350;  263.350;    0.000
515.670; 5072.350;  270.350;    0.000
515.803; 4995.350;  243.350;    0.000
515.936; 5095.350;  226.350;    0.000
516.069; 4985.350;  227.350;    0.000
516.202; 5027.350;  259.350;    0.000
516.335; 5095.350;  260.350;    0.000
516.468; 5057.350;  243.350;    0.000
516.600; 5091.350;  258.350;    0.000
516.733; 5284.350;  235.350;    0.000
516.866; 5283.350;  267.350;    0.000
516.999; 5271.350;  251.350;    0.000
517.132; 5422.350;  261.350;    0.000
517.264; 5715.350;  260.350;    0.000
517.397; 5603.350;  231.350;    0.000
517.530; 5485.350;  257.350;    0.000
517.663; 5227.350;  263.350;    0.000
517.795; 5286.350;  250.350;    0.000
517.928; 5249.350;  257.350;    0.000
518.061; 5191.350;  227.350;    0.000
518.193; 5326.350;  252.350;    0.000
518.326; 5731.350;  227.350;    0.000
518.459; 5630.350;  210.350;    0.000
518.591; 5350.350;  214.350;    0.000
518.724; 5277.350;  269.350;    0.000
518.857; 4950.350;  215.350;    0.000
518.989; 5035.350;  259.350;    0.000
519.122; 4830.350;  238.350;    0.000
519.254; 4850.350;  248.350;    0.000
519.387; 4806.350;  246.350;    0.000
519.519; 4670.350;  239.350;    0.000
519.652; 4725.350;  249.350;    0.000
519.784; 4708.350;  238.350;    0.000
519.917; 4714.350;  231.350;    0.000
520.049; 4660.350;  244.350;    0.000
520.182; 4750.350;  205.350;    0.000
520.314; 4698.350;  262.350;    0.000
520.447; 4549.350;  234.350;    0.000
520.579; 4650.350;  273.350;    0.000
520.712; 4647.350;  215.350;    0.000
520.844; 4642.350;  258.350;    0.000
520.976; 4590.350;  242.350;    0.000
521.109; 4614.350;  232.350;    0.000
521.241; 4496.350;  236.350;    0.000
521.373; 4407.350;  227.350;    0.000
521.506; 4430.350;  212.350;    0.000
521.638; 4436.350;  292.350;    0.000
521.770; 4442.350;  259.350;    0.000
521.903; 4379.350;  263.350;    0.000
522.035; 4421.350;  269.350;    0.000
522.167; 4370.350;  289.350;    0.000
522.300; 4163.350;  255.350;    0.000
522.432; 4322.350;  247.350;    0.000
522.564; 4085.350;  239.350;    0.000
522.696; 4108.350;  246.350;    0.000
522.828; 4206.350;  230.350;    0.000
522.961; 4103.350;  239.350;    0.000
523.093; 4100.350;  269.350;    0.000
523.225; 4058.350;  251.350;    0.000
523.357; 4135.350;  244.350;    0.000
523.489; 4134.350;  266.350;    0.000
523.621; 4139.350;  267.350;    0.000
523.753; 3957.350;  234.350;    0.000
523.885; 4002.350;  229.350;    0.000
524.018; 4059.350;  221.350;    0.000
524.150; 4092.350;  264.350;    0.000
524.282; 4047.350;  283.350;    0.000
524.414; 3930.350;  258.350;    0.000
524.546; 3978.350;  286.350;    0.000
524.678; 3999.350;  274.350;    0.000
524.810; 4003.350;  253.350;    0.000
524.942; 3971.350;  183.350;    0.000
525.074; 4026.350;  232.350;    0.000
525.206; 3906.350;  250.350;    0.000
525.338; 3945.350;  228.350;    0.000
525.469; 3837.350;  224.350;    0.000
525.601; 3893.350;  247.350;    0.000
525.733; 3910.350;  199.350;    0.000
525.865; 3932.350;  230.350;    0.000
525.997; 3882.350;  209.350;    0.000
526.129; 3850.350;  211.350;    0.000
526.261; 3926.350;  233.350;    0.000
526.393; 3908.350;  261.350;    0.000
526.524; 3875.350;  206.350;    0.000
526.656; 3872.350;  260.350;    0.000
526.788; 3882.350;  293.350;    0.000
526.920; 3870.350;  208.350;    0.000
527.052; 3871.350;  204.350;    0.000
527.183; 3843.350;  244.350;    0.000
527.315; 3851.350;  237.350;    0.000
527.447; 3772.350;  236.350;    0.000
527.578; 3866.350;  235.350;    0.000
527.710; 3807.350;  253.350;    0.000
527.842; 3759.350;  231.350;    0.000
527.973; 3779.350;  224.350;    0.000
528.105; 3911.350;  237.350;    0.000
528.237; 3788.350;  213.350;    0.000
528.368; 3741.350;  194.350;    0.000
528.500; 3781.350;  195.350;    0.000
528.632; 3801.350;  201.350;    0.000
528.763; 3855.350;  196.350;    0.000
528.895; 3757.350;  204.350;    0.000
529.026; 3814.350;  214.350;    0.000
529.158; 3700.350;  197.350;    0.000
529.289; 3792.350;  230.350;    0.000
529.421; 3851.350;  247.350;    0.000
529.552; 3756.350;  255.350;    0.000
529.684; 3872.350;  270.350;    0.000
529.815; 3791.350;  248.350;    0.000
529.947; 3821.350;  234.350;    0.000
530.078; 3763.350;  223.350;    0.000
530.210; 3747.350;  243.350;    0.000
530.341; 3781.350;  222.350;    0.000
530.472; 3811.350;  217.350;    0.000
530.604; 3838.350;  242.350;    0.000
530.735; 3861.350;  249.350;    0.000
530.867; 3867.350;  257.350;    0.000
530.998; 3910.350;  250.350;    0.000
531.129; 3945.350;  244.350;    0.000
531.260; 3944.350;  276.350;    0.000
531.392; 3948.350;  220.350;    0.000
531.523; 3911.350;  262.350;    0.000
531.654; 3968.350;  264.350;    0.000
531.786; 4026.350;  225.350;    0.000
531.917; 3977.350;  285.350;    0.000
532.048; 4013.350;  239.350;    0.000
532.179; 3979.350;  248.350;    0.000
532.311; 3971.350;  219.350;    0.000
532.442; 4050.350;  264.350;    0.000
532.573; 3838.350;  230.350;    0.000
532.704; 3950.350;  253.350;    0.000
532.835; 3831.350;  239.350;    0.000
532.966; 3865.350;  247.350;    0.000
533.097; 3826.350;  225.350;    0.000
533.229; 3846.350;  282.350;    0.000
533.360; 3890.350;  236.350;    0.000
533.491; 3995.350;  247.350;    0.000
533.622; 3914.350;  265.350;    0.000
533.753; 3866.350;  226.350;    0.000
533.884; 3938.350;  294.350;    0.000
534.015; 3986.350;  215.350;    0.000
534.146; 3941.350;  223.350;    0.000
534.277; 4024.350;  264.350;    0.000
534.408; 4016.350;  232.350;    0.000
534.539; 3858.350;  274.350;    0.000
534.670; 3880.350;  275.350;    0.000
534.801; 4016.350;  261.350;    0.000
534.932; 3915.350;  225.350;    0.000
535.063; 3815.350;  235.350;    0.000
535.194; 3844.350;  300.350;    0.000
535.324; 3737.350;  249.350;    0.000
535.455; 3731.350;  260.350;    0.000
535.586; 3827.350;  288.350;    0.000
535.717; 3711.350;  237.350;    0.000
535.848; 3841.350;  271.350;    0.000
535.979; 3738.350;  234.350;    0.000
536.109; 3775.350;  255.350;    0.000
536.240; 3713.350;  269.350;    0.000
536.371; 3779.350;  232.350;    0.000
536.502; 3806.350;  253.350;    0.000
536.632; 3702.350;  240.350;    0.000
536.763; 3663.350;  251.350;    0.000
536.894; 3798.350;  256.350;    0.000
537.025; 3629.350;  247.350;    0.000
537.155; 3668.350;  272.350;    0.000
537.286; 3728.350;  241.350;    0.000
537.417; 3749.350;  279.350;    0.000
537.547; 3642.350;  229.350;    0.000
537.678; 3730.350;  227.350;    0.000
537.808; 3619.350;  225.350;    0.000
537.939; 3737.350;  250.350;    0.000
538.070; 3606.350;  263.350;    0.000
538.200; 3664.350;  270.350;    0.000
538.331; 3734.350;  249.350;    0.000
538.461; 3685.350;  230.350;    0.000
538.592; 3732.350;  282.350;    0.000
538.722; 3672.350;  253.350;    0.000
538.853; 3731.350;  240.350;    0.000
538.983; 3674.350;  232.350;    0.000
539.114; 3722.350;  248.350;    0.000
539.244; 3583.350;  256.350;    0.000
539.375; 3703.350;  248.350;    0.000
539.505; 3697.350;  235.350;    0.000
539.636; 3738.350;  237.350;    0.000
539.766; 3750.350;  263.350;    0.000
539.896; 3681.350;  217.350;    0.000
540.027; 3785.350;  217.350;    0.000
540.157; 3684.350;  231.350;    0.000
540.287; 3718.350;  210.350;    0.000
540.418; 3728.350;  239.350;    0.000
540.548; 3672.350;  260.350;    0.000
540.678; 3756.350;  228.350;    0.000
540.809; 3689.350;  241.350;    0.000
540.939; 3706.350;  238.350;    0.000
541.069; 3761.350;  245.350;    0.000
541.200; 3769.350;  225.350;    0.000
541.330; 3785.350;  219.350;    0.000
541.460; 3854.350;  254.350;    0.000
541.590; 3816.350;  234.350;    0.000
541.720; 3744.350;  196.350;    0.000
541.851; 3808.350;  200.350;    0.000
541.981; 3804.350;  235.350;    0.000
542.111; 3918.350;  246.350;    0.000
542.241; 4019.350;  214.350;    0.000
542.371; 3921.350;  221.350;    0.000
542.501; 4059.350;  259.350;    0.000
542.631; 4227.350;  213.350;    0.000
542.761; 4050.350;  240.350;    0.000
542.891; 4157.350;  242.350;    0.000
543.021; 4132.350;  230.350;    0.000
543.151; 4237.350;  261.350;    0.000
543.281; 4191.350;  212.350;    0.000
543.411; 4058.350;  229.350;    0.000
543.542; 3972.350;  204.350;    0.000
543.671; 3963.350;  260.350;    0.000
543.801; 4020.350;  236.350;    0.000
543.931; 3951.350;  243.350;    0.000
544.061; 4086.350;  262.350;    0.000
544.191; 4001.350;  223.350;    0.000
544.321; 4065.350;  217.350;    0.000
544.451; 3987.350;  209.350;    0.000
544.581; 4087.350;  213.350;    0.000
544.711; 4160.350;  256.350;    0.000
544.841; 4166.350;  235.350;    0.000
544.970; 4168.350;  260.350;    0.000
545.100; 4333.350;  236.350;    0.000
545.230; 4451.350;  220.350;    0.000
545.360; 4399.350;  219.350;    0.000
545.490; 4350.350;  217.350;    0.000
545.619; 4297.350;  199.350;    0.000
545.749; 4132.350;  183.350;    0.000
545.879; 4121.350;  169.350;    0.000
546.009; 4069.350;  215.350;    0.000
546.138; 3956.350;  228.350;    0.000
546.268; 3992.350;  209.350;    0.000
546.398; 4023.350;  167.350;    0.000
546.527; 4098.350;  178.350;    0.000
546.657; 3988.350;  175.350;    0.000
546.786; 3941.350;  225.350;    0.000
546.916; 4055.350;  196.350;    0.000
547.046; 3987.350;  185.350;    0.000
547.175; 3976.350;  184.350;    0.000
547.305; 4055.350;  197.350;    0.000
547.434; 3980.350;  168.350;    0.000
547.564; 4051.350;  183.350;    0.000
547.693; 3971.350;  204.350;    0.000
547.823; 3893.350;  211.350;    0.000
547.953; 4075.350;  174.350;    0.000
548.082; 4027.350;  217.350;    0.000
548.211; 4005.350;  201.350;    0.000
548.341; 3961.350;  195.350;    0.000
548.470; 3976.350;  225.350;    0.000
548.600; 4033.350;  194.350;    0.000
548.729; 4017.350;  218.350;    0.000
548.859; 3914.350;  202.350;    0.000
548.988; 3958.350;  193.350;    0.000
549.117; 3883.350;  182.350;    0.000
549.247; 4120.350;  198.350;    0.000
549.376; 3996.350;  200.350;    0.000
549.505; 4058.350;  200.350;    0.000
549.635; 4052.350;  224.350;    0.000
549.764; 3975.350;  200.350;    0.000
549.893; 4069.350;  224.350;    0.000
550.023; 4079.350;  207.350;    0.000
550.152; 4142.350;  167.350;    0.000
550.281; 4205.350;  219.350;    0.000
550.410; 4113.350;  217.350;    0.000
550.539; 4102.350;  211.350;    0.000
550.669; 4227.350;  173.350;    0.000
550.798; 4246.350;  211.350;    0.000
550.927; 4110.350;  195.350;    0.000
551.056; 4202.350;  176.350;    0.000
551.185; 4140.350;  203.350;    0.000
551.314; 4121.350;  178.350;    0.000
551.443; 4054.350;  185.350;    0.000
551.573; 4110.350;  167.350;    0.000
551.702; 4076.350;  193.350;    0.000
551.831; 4245.350;  245.350;    0.000
551.960; 4120.350;  190.350;    0.000
552.089; 4208.350;  202.350;    0.000
552.218; 4132.350;  211.350;    0.000
552.347; 4311.350;  184.350;    0.000
552.476; 4346.350;  200.350;    0.000
552.605; 4337.350;  174.350;    0.000
552.734; 4309.350;  206.350;    0.000
552.863; 4285.350;  189.350;    0.000
552.992; 4279.350;  209.350;    0.000
553.121; 4274.350;  201.350;    0.000
553.249; 4332.350;  208.350;    0.000
553.378; 4290.350;  142.350;    0.000
553.507; 4304.350;  208.350;    0.000
553.636; 4265.350;  192.350;    0.000
553.765; 4262.350;  182.350;    0.000
553.894; 4259.350;  183.350;    0.000
554.023; 4180.350;  182.350;    0.000
554.151; 4193.350;  211.350;    0.000
554.280; 4246.350;  179.350;    0.000
554.409; 4168.350;  182.350;    0.000
554.538; 4195.350;  209.350;    0.000
554.666; 4217.350;  182.350;    0.000
554.795; 4068.350;  179.350;    0.000
554.924; 4174.350;  217.350;    0.000
555.052; 4211.350;  220.350;    0.000
555.181; 4257.350;  228.350;    0.000
555.310; 4188.350;  212.350;    0.000
555.439; 4083.350;  199.350;    0.000
555.567; 4080.350;  220.350;    0.000
555.696; 4137.350;  187.350;    0.000
555.824; 4100.350;  189.350;    0.000
555.953; 4145.350;  217.350;    0.000
556.082; 4027.350;  187.350;    0.000
556.210; 4167.350;  245.350;    0.000
556.339; 4140.350;  195.350;    0.000
556.467; 4131.350;  218.350;    0.000
556.596; 4146.350;  198.350;    0.000
556.724; 4005.350;  201.350;    0.000
556.853; 4055.350;  196.350;    0.000
556.981; 4109.350;  175.350;    0.000
557.110; 4071.350;  210.350;    0.000
557.238; 4182.350;  190.350;    0.000
557.367; 4076.350;  192.350;    0.000
557.495; 4033.350;  219.350;    0.000
557.623; 3974.350;  203.350;    0.000
557.752; 3959.350;  166.350;    0.000
557.880; 4088.350;  172.350;    0.000
558.008; 4043.350;  221.350;    0.000
558.137; 4172.350;  211.350;    0.000
558.265; 4094.350;  157.350;    0.000
558.393; 4071.350;  198.350;    0.000
558.522; 4039.350;  209.350;    0.000
558.650; 4177.350;  260.350;    0.000
558.778; 4155.350;  203.350;    0.000
558.906; 4060.350;  210.350;    0.000
559.035; 4101.350;  194.350;    0.000
559.163; 4147.350;  192.350;    0.000
559.291; 4122.350;  215.350;    0.000
559.419; 4219.350;  197.350;    0.000
559.548; 4035.350;  160.350;    0.000
559.676; 4286.350;  200.350;    0.000
559.804; 4217.350;  223.350;    0.000
559.932; 4264.350;  213.350;    0.000
560.060; 4159.350;  224.350;    0.000
560.188; 4167.350;  221.350;    0.000
560.316; 4332.350;  223.350;    0.000
560.444; 4354.350;  159.350;    0.000
560.572; 4341.350;  204.350;    0.000
560.700; 4391.350;  213.350;    0.000
560.828; 4379.350;  216.350;    0.000
560.956; 4433.350;  207.350;    0.000
561.085; 4436.350;  231.350;    0.000
561.212; 4458.350;  197.350;    0.000
561.340; 4513.350;  192.350;    0.000
561.468; 4529.350;  215.350;    0.000
561.596; 4598.350;  215.350;    0.000
561.724; 4477.350;  181.350;    0.000
561.852; 4506.350;  184.350;    0.000
561.980; 4538.350;  217.350;    0.000
562.108; 4488.350;  199.350;    0.000
562.236; 4544.350;  181.350;    0.000
562.364; 4578.350;  234.350;    0.000
562.492; 4554.350;  225.350;    0.000
562.619; 4664.350;  204.350;    0.000
562.747; 4617.350;  223.350;    0.000
562.875; 4623.350;  210.350;    0.000
563.003; 4700.350;  232.350;    0.000
563.130; 4642.350;  224.350;    0.000
563.258; 4839.350;  213.350;    0.000
563.386; 4944.350;  191.350;    0.000
563.514; 4949.350;  252.350;    0.000
563.641; 5091.350;  201.350;    0.000
563.769; 5110.350;  201.350;    0.000
563.897; 5177.350;  176.350;    0.000
564.024; 5431.350;  167.350;    0.000
564.152; 5390.350;  205.350;    0.000
564.280; 5383.350;  222.350;    0.000
564.407; 5362.350;  192.350;    0.000
564.535; 5470.350;  231.350;    0.000
564.662; 5601.350;  197.350;    0.000
564.790; 5530.350;  200.350;    0.000
564.917; 5643.350;  172.350;    0.000
565.045; 5716.350;  187.350;    0.000
565.173; 5534.350;  173.350;    0.000
565.300; 5700.350;  196.350;    0.000
565.428; 5742.350;  195.350;    0.000
565.555; 5957.350;  191.350;    0.000
565.682; 6015.350;  169.350;    0.000
565.810; 5998.350;  198.350;    0.000
565.937; 6229.350;  213.350;    0.000
566.065; 6494.350;  221.350;    0.000
566.192; 6398.350;  173.350;    0.000
566.320; 6777.350;  214.350;    0.000
566.447; 6850.350;  214.350;    0.000
566.574; 6916.350;  188.350;    0.000
566.702; 7194.350;  198.350;    0.000
566.829; 7318.350;  200.350;    0.000
566.956; 7278.350;  194.350;    0.000
567.083; 7360.350;  176.350;    0.000
567.211; 7519.350;  189.350;    0.000
567.338; 7418.350;  184.350;    0.000
567.465; 7420.350;  181.350;    0.000
567.593; 7518.350;  194.350;    0.000
567.720; 7607.350;  193.350;    0.000
567.847; 7659.350;  196.350;    0.000
567.974; 7866.350;  199.350;    0.000
568.101; 8253.350;  150.350;    0.000
568.228; 9560.350;  174.350;    0.000
568.356;10249.350;  164.350;    0.000
568.483;10077.350;  163.350;    0.000
568.610; 9974.350;  187.350;    0.000
568.737;11342.350;  192.350;    0.000
568.864;13139.350;  218.350;    0.000
568.991;12678.350;  169.350;    0.000
569.118;11386.350;  161.350;    0.000
569.245;10198.350;  161.350;    0.000
569.372; 9384.350;  187.350;    0.000
569.499; 8761.350;  146.350;    0.000
569.626; 8442.350;  172.350;    0.000
569.753; 8012.350;  188.350;    0.000
569.880; 7488.350;  180.350;    0.000
570.007; 7323.350;  187.350;    0.000
570.134; 7218.350;  196.350;    0.000
570.261; 7074.350;  127.350;    0.000
570.388; 6771.350;  189.350;    0.000
570.515; 6711.350;  219.350;    0.000
570.642; 6553.350;  187.350;    0.000
570.768; 6590.350;  175.350;    0.000
570.895; 6408.350;  165.350;    0.000
571.022; 6313.350;  180.350;    0.000
571.149; 6061.350;  209.350;    0.000
571.276; 5922.350;  187.350;    0.000
571.402; 5988.350;  227.350;    0.000
571.529; 5925.350;  166.350;    0.000
571.656; 5716.350;  203.350;    0.000
571.783; 5666.350;  156.350;    0.000
571.909; 5618.350;  195.350;    0.000
572.036; 5611.350;  165.350;    0.000
572.163; 5572.350;  156.350;    0.000
572.289; 5381.350;  193.350;    0.000
572.416; 5330.350;  199.350;    0.000
572.543; 5378.350;  185.350;    0.000
572.669; 5303.350;  180.350;    0.000
572.796; 5331.350;  173.350;    0.000
572.922; 5208.350;  186.350;    0.000
573.049; 5232.350;  185.350;    0.000
573.176; 5254.350;  196.350;    0.000
573.302; 5155.350;  189.350;    0.000
573.429; 5149.350;  186.350;    0.000
573.555; 5047.350;  220.350;    0.000
573.682; 5193.350;  196.350;    0.000
573.808; 4998.350;  201.350;    0.000
573.935; 5029.350;  188.350;    0.000
574.061; 4964.350;  216.350;    0.000
574.188; 5031.350;  161.350;    0.000
574.314; 5162.350;  189.350;    0.000
574.440; 5068.350;  190.350;    0.000
574.567; 5088.350;  201.350;    0.000
574.693; 4925.350;  175.350;    0.000
574.820; 4925.350;  188.350;    0.000
574.946; 4980.350;  182.350;    0.000
575.072; 4993.350;  188.350;    0.000
575.198; 4915.350;  232.350;    0.000
575.325; 4908.350;  159.350;    0.000
575.451; 5040.350;  231.350;    0.000
575.577; 4951.350;  196.350;    0.000
575.704; 4888.350;  177.350;    0.000
575.830; 4901.350;  171.350;    0.000
575.956; 4883.350;  163.350;    0.000
576.082; 4905.350;  197.350;    0.000
576.208; 4947.350;  181.350;    0.000
576.335; 4879.350;  218.350;    0.000
576.461; 4988.350;  207.350;    0.000
576.587; 4869.350;  173.350;    0.000
576.713; 4884.350;  170.350;    0.000
576.839; 4931.350;  186.350;    0.000
576.965; 4915.350;  194.350;    0.000
577.091; 4973.350;  167.350;    0.000
577.217; 5022.350;  212.350;    0.000
577.343; 4937.350;  214.350;    0.000
577.469; 4933.350;  208.350;    0.000
577.596; 4875.350;  188.350;    0.000
577.722; 4930.350;  221.350;    0.000
577.848; 4978.350;  197.350;    0.000
577.974; 4960.350;  222.350;    0.000
578.099; 4986.350;  187.350;    0.000
578.225; 5063.350;  213.350;    0.000
578.351; 5014.350;  190.350;    0.000
578.477; 5038.350;  212.350;    0.000
578.603; 4983.350;  178.350;    0.000
578.729; 4902.350;  193.350;    0.000
578.855; 4927.350;  194.350;    0.000
578.981; 5036.350;  152.350;    0.000
579.107; 4970.350;  175.350;    0.000
579.232; 5103.350;  192.350;    0.000
579.358; 5068.350;  186.350;    0.000
579.484; 5081.350;  186.350;    0.000
579.610; 5173.350;  199.350;    0.000
579.735; 5124.350;  197.350;    0.000
579.861; 5171.350;  203.350;    0.000
579.987; 5175.350;  220.350;    0.000
580.113; 5108.350;  210.350;    0.000
580.238; 5270.350;  189.350;    0.000
580.364; 5423.350;  214.350;    0.000
580.490; 5345.350;  205.350;    0.000
580.615; 5229.350;  231.350;    0.000
580.741; 5297.350;  212.350;    0.000
580.867; 5530.350;  196.350;    0.000
580.992; 5459.350;  214.350;    0.000
581.118; 5452.350;  178.350;    0.000
581.243; 5490.350;  209.350;    0.000
581.369; 5570.350;  173.350;    0.000
581.494; 5690.350;  209.350;    0.000
581.620; 5787.350;  204.350;    0.000
581.745; 5841.350;  168.350;    0.000
581.871; 5698.350;  236.350;    0.000
581.996; 5922.350;  212.350;    0.000
582.122; 5862.350;  192.350;    0.000
582.247; 5841.350;  179.350;    0.000
582.373; 5944.350;  189.350;    0.000
582.498; 6062.350;  217.350;    0.000
582.624; 6180.350;  231.350;    0.000
582.749; 6256.350;  237.350;    0.000
582.874; 6266.350;  205.350;    0.000
583.000; 6299.350;  204.350;    0.000
583.125; 6402.350;  192.350;    0.000
583.250; 6431.350;  229.350;    0.000
583.376; 6589.350;  256.350;    0.000
583.501; 6696.350;  200.350;    0.000
583.626; 6725.350;  207.350;    0.000
583.751; 6948.350;  215.350;    0.000
583.877; 6999.350;  212.350;    0.000
584.002; 7038.350;  227.350;    0.000
584.127; 7155.350;  153.350;    0.000
584.252; 7232.350;  197.350;    0.000
584.377; 7363.350;  183.350;    0.000
584.503; 7533.350;  211.350;    0.000
584.628; 7782.350;  215.350;    0.000
584.753; 7863.350;  194.350;    0.000
584.878; 8101.350;  154.350;    0.000
585.003; 8169.350;  213.350;    0.000
585.128; 8376.350;  199.350;    0.000
585.253; 8726.350;  219.350;    0.000
585.378; 8703.350;  174.350;    0.000
585.503; 9102.350;  202.350;    0.000
585.628; 9382.350;  186.350;    0.000
585.753; 9437.350;  209.350;    0.000
585.878; 9876.350;  167.350;    0.000
586.003;10171.350;  226.350;    0.000
586.128;10588.350;  206.350;    0.000
586.253;10992.350;  198.350;    0.000
586.378;11184.350;  180.350;    0.000
586.503;11787.350;  201.350;    0.000
586.628;12293.350;  206.350;    0.000
586.753;12749.350;  178.350;    0.000
586.878;13317.350;  228.350;    0.000
587.003;14133.350;  199.350;    0.000
587.127;14927.350;  194.350;    0.000
587.252;15696.350;  212.350;    0.000
587.377;16712.350;  172.350;    0.000
587.502;17866.350;  219.350;    0.000
587.627;18870.350;  247.350;    0.000
587.751;20313.350;  184.350;    0.000
587.876;21893.350;  215.350;    0.000
588.001;23473.350;  163.350;    0.000
588.125;25852.350;  185.350;    0.000
588.250;28716.350;  171.350;    0.000
588.375;32234.350;  255.350;    0.000
588.499;36768.352;  185.350;    0.000
588.624;43340.352;  167.350;    0.000
588.749;53435.352;  170.350;    0.000
588.873;64719.352;  173.350;    0.000
588.998;65266.352;  203.350;    0.000
589.122;65266.352;  184.350;    0.000
589.247;65266.352;  217.350;    0.000
589.372;64131.352;  250.350;    0.000
589.496;65266.352;  200.350;    0.000
589.621;65266.352;  199.350;    0.000
589.745;65266.352;  235.350;    0.000
589.870;57968.352;  206.350;    0.000
589.994;47323.352;  194.350;    0.000
590.118;40555.352;  177.350;    0.000
590.243;35311.352;  231.350;    0.000
590.367;31180.350;  173.350;    0.000
590.492;28311.350;  170.350;    0.000
590.616;26101.350;  182.350;    0.000
590.740;23897.350;  178.350;    0.000
590.865;22051.350;  219.350;    0.000
590.989;20527.350;  210.350;    0.000
591.114;19321.350;  194.350;    0.000
591.238;18162.350;  154.350;    0.000
591.362;17118.350;  210.350;    0.000
591.486;16243.350;  215.350;    0.000
591.611;15649.350;  194.350;    0.000
591.735;14748.350;  206.350;    0.000
591.859;14064.350;  188.350;    0.000
591.983;13736.350;  202.350;    0.000
592.107;13259.350;  175.350;    0.000
592.232;12504.350;  214.350;    0.000
592.356;12131.350;  232.350;    0.000
592.480;11871.350;  203.350;    0.000
592.604;11565.350;  204.350;    0.000
592.728;11257.350;  187.350;    0.000
592.852;10907.350;  204.350;    0.000
592.976;10537.350;  163.350;    0.000
593.100;10337.350;  177.350;    0.000
593.224; 9998.350;  209.350;    0.000
593.349; 9832.350;  255.350;    0.000
593.473; 9495.350;  225.350;    0.000
593.597; 9386.350;  211.350;    0.000
593.721; 9164.350;  222.350;    0.000
593.844; 8946.350;  202.350;    0.000
593.968; 8883.350;  223.350;    0.000
594.092; 8471.350;  162.350;    0.000
594.216; 8548.350;  211.350;    0.000
594.340; 8221.350;  198.350;    0.000
594.464; 8104.350;  242.350;    0.000
594.588; 7997.350;  213.350;    0.000
594.712; 7695.350;  198.350;    0.000
594.836; 7605.350;  207.350;    0.000
594.959; 7330.350;  192.350;    0.000
595.083; 7433.350;  180.350;    0.000
595.207; 7250.350;  242.350;    0.000
595.331; 7103.350;  172.350;    0.000
595.455; 6920.350;  185.350;    0.000
595.578; 6934.350;  221.350;    0.000
595.702; 6770.350;  233.350;    0.000
595.826; 6702.350;  164.350;    0.000
595.949; 6607.350;  215.350;    0.000
596.073; 6491.350;  198.350;    0.000
596.197; 6500.350;  266.350;    0.000
596.320; 6298.350;  236.350;    0.000
596.444; 6142.350;  215.350;    0.000
596.568; 6127.350;  213.350;    0.000
596.691; 6007.350;  198.350;    0.000
596.815; 5805.350;  210.350;    0.000
596.938; 5912.350;  207.350;    0.000
597.062; 5824.350;  187.350;    0.000
597.186; 5689.350;  234.350;    0.000
597.309; 5791.350;  176.350;    0.000
597.433; 5736.350;  222.350;    0.000
597.556; 5463.350;  219.350;    0.000
597.680; 5509.350;  227.350;    0.000
597.803; 5348.350;  240.350;    0.000
597.926; 5501.350;  227.350;    0.000
598.050; 5387.350;  198.350;    0.000
598.173; 5323.350;  235.350;    0.000
598.297; 5238.350;  233.350;    0.000
598.420; 5195.350;  211.350;    0.000
598.543; 5228.350;  207.350;    0.000
598.667; 5147.350;  232.350;    0.000
598.790; 5231.350;  205.350;    0.000
598.913; 5020.350;  200.350;    0.000
599.037; 4943.350;  193.350;    0.000
599.160; 4991.350;  199.350;    0.000
599.283; 5025.350;  237.350;    0.000
599.406; 4899.350;  168.350;    0.000
599.530; 4909.350;  231.350;    0.000
599.653; 4889.350;  220.350;    0.000
599.776; 4881.350;  203.350;    0.000
599.899; 4834.350;  202.350;    0.000
600.022; 4721.350;  189.350;    0.000
600.145; 4786.350;  175.350;    0.000
600.269; 4924.350;  235.350;    0.000
600.392; 4660.350;  213.350;    0.000
600.515; 4630.350;  236.350;    0.000
600.638; 4636.350;  198.350;    0.000
600.761; 4588.350;  195.350;    0.000
600.884; 4505.350;  221.350;    0.000
601.007; 4417.350;  236.350;    0.000
601.130; 4470.350;  223.350;    0.000
601.253; 4577.350;  250.350;    0.000
601.376; 4515.350;  195.350;    0.000
601.499; 4502.350;  168.350;    0.000
601.622; 4470.350;  221.350;    0.000
601.745; 4342.350;  223.350;    0.000
601.868; 4406.350;  204.350;    0.000
601.991; 4483.350;  207.350;    0.000
602.113; 4362.350;  223.350;    0.000
602.236; 4248.350;  182.350;    0.000
602.359; 4358.350;  235.350;    0.000
602.482; 4304.350;  173.350;    0.000
602.605; 4217.350;  227.350;    0.000
602.728; 4222.350;  227.350;    0.000
602.850; 4345.350;  250.350;    0.000
602.973; 4260.350;  195.350;    0.000
603.096; 4247.350;  270.350;    0.000
603.219; 4130.350;  197.350;    0.000
603.341; 4118.350;  195.350;    0.000
603.464; 4190.350;  204.350;    0.000
603.587; 4257.350;  243.350;    0.000
603.709; 4163.350;  188.350;    0.000
603.832; 4176.350;  214.350;    0.000
603.955; 4074.350;  213.350;    0.000
604.077; 4160.350;  201.350;    0.000
604.200; 4138.350;  209.350;    0.000
604.323; 4081.350;  201.350;    0.000
604.445; 4039.350;  202.350;    0.000
604.568; 4086.350;  230.350;    0.000
604.690; 3963.350;  212.350;    0.000
604.813; 4058.350;  226.350;    0.000
604.935; 3996.350;  216.350;    0.000
605.058; 3899.350;  182.350;    0.000
605.180; 3904.350;  204.350;    0.000
605.303; 4071.350;  199.350;    0.000
605.425; 3962.350;  178.350;    0.000
605.547; 3891.350;  209.350;    0.000
605.670; 3919.350;  206.350;    0.000
605.792; 3903.350;  199.350;    0.000
605.915; 3909.350;  221.350;    0.000
606.037; 3952.350;  222.350;    0.000
606.159; 3899.350;  160.350;    0.000
606.282; 3889.350;  188.350;    0.000
606.404; 3931.350;  205.350;    0.000
606.526; 3788.350;  228.350;    0.000
606.648; 3849.350;  184.350;    0.000
606.771; 3869.350;  195.350;    0.000
606.893; 3860.350;  193.350;    0.000
607.015; 3849.350;  202.350;    0.000
607.137; 3861.350;  189.350;    0.000
607.260; 3958.350;  201.350;    0.000
607.382; 3864.350;  211.350;    0.000
607.504; 3795.350;  206.350;    0.000
607.626; 3900.350;  236.350;    0.000
607.748; 3822.350;  228.350;    0.000
607.870; 3748.350;  212.350;    0.000
607.992; 3753.350;  201.350;    0.000
608.114; 3815.350;  214.350;    0.000
608.237; 3741.350;  235.350;    0.000
608.359; 3650.350;  215.350;    0.000
608.481; 3671.350;  183.350;    0.000
608.603; 3740.350;  206.350;    0.000
608.725; 3685.350;  238.350;    0.000
608.847; 3750.350;  237.350;    0.000
608.969; 3666.350;  227.350;    0.000
609.090; 3685.350;  205.350;    0.000
609.212; 3701.350;  182.350;    0.000
609.334; 3610.350;  210.350;    0.000
609.456; 3688.350;  208.350;    0.000
609.578; 3582.350;  195.350;    0.000
609.700; 3654.350;  196.350;    0.000
609.822; 3666.350;  184.350;    0.000
609.944; 3644.350;  258.350;    0.000
610.065; 3627.350;  219.350;    0.000
610.187; 3724.350;  217.350;    0.000
610.309; 3716.350;  179.350;    0.000
610.431; 3688.350;  189.350;    0.000
610.552; 3693.350;  212.350;    0.000
610.674; 3523.350;  211.350;    0.000
610.796; 3623.350;  168.350;    0.000
610.918; 3647.350;  201.350;    0.000
611.039; 3601.350;  212.350;    0.000
611.161; 3610.350;  207.350;    0.000
611.282; 3539.350;  219.350;    0.000
611.404; 3517.350;  243.350;    0.000
611.526; 3559.350;  180.350;    0.000
611.647; 3592.350;  235.350;    0.000
611.769; 3558.350;  189.350;    0.000
611.890; 3557.350;  201.350;    0.000
612.012; 3534.350;  191.350;    0.000
612.133; 3555.350;  227.350;    0.000
612.255; 3561.350;  191.350;    0.000
612.377; 3618.350;  192.350;    0.000
612.498; 3548.350;  202.350;    0.000
612.619; 3568.350;  207.350;    0.000
612.741; 3459.350;  241.350;    0.000
612.862; 3592.350;  219.350;    0.000
612.984; 3570.350;  203.350;    0.000
613.105; 3549.350;  228.350;    0.000
613.226; 3563.350;  199.350;    0.000
613.348; 3597.350;  238.350;    0.000
613.469; 3513.350;  239.350;    0.000
613.590; 3432.350;  183.350;    0.000
613.712; 3568.350;  245.350;    0.000
613.833; 3491.350;  241.350;    0.000
613.954; 3458.350;  208.350;    0.000
614.076; 3438.350;  181.350;    0.000
614.197; 3523.350;  217.350;    0.000
614.318; 3497.350;  182.350;    0.000
614.439; 3469.350;  204.350;    0.000
614.560; 3504.350;  219.350;    0.000
614.682; 3580.350;  238.350;    0.000
614.803; 3511.350;  240.350;    0.000
614.924; 3598.350;  212.350;    0.000
615.045; 3618.350;  225.350;    0.000
615.166; 3729.350;  227.350;    0.000
615.287; 3959.350;  230.350;    0.000
615.408; 4735.350;  187.350;    0.000
615.529; 5042.350;  211.350;    0.000
615.650; 4728.350;  202.350;    0.000
615.771; 4332.350;  203.350;    0.000
615.892; 4441.350;  222.350;    0.000
616.013; 5601.350;  215.350;    0.000
616.134; 6530.350;  193.350;    0.000
616.255; 6117.350;  242.350;    0.000
616.376; 5147.350;  205.350;    0.000
616.497; 4664.350;  200.350;    0.000
616.618; 4292.350;  177.350;    0.000
616.739; 4220.350;  218.350;    0.000
616.860; 4066.350;  214.350;    0.000
616.981; 3945.350;  208.350;    0.000
617.102; 3945.350;  203.350;    0.000
617.222; 3857.350;  212.350;    0.000
617.343; 3747.350;  162.350;    0.000
617.464; 3792.350;  230.350;    0.000
617.585; 3700.350;  197.350;    0.000
617.705; 3704.350;  209.350;    0.000
617.826; 3660.350;  229.350;    0.000
617.947; 3527.350;  216.350;    0.000
618.068; 3687.350;  192.350;    0.000
618.188; 3477.350;  230.350;    0.000
618.309; 3581.350;  238.350;    0.000
618.430; 3541.350;  242.350;    0.000
618.550; 3513.350;  235.350;    0.000
618.671; 3355.350;  207.350;    0.000
618.791; 3392.350;  228.350;    0.000
618.912; 3498.350;  266.350;    0.000
619.033; 3528.350;  232.350;    0.000
619.153; 3500.350;  207.350;    0.000
619.274; 3355.350;  193.350;    0.000
619.394; 3505.350;  237.350;    0.000
619.515; 3280.350;  216.350;    0.000
619.635; 3343.350;  203.350;    0.000
619.756; 3451.350;  227.350;    0.000
619.876; 3389.350;  244.350;    0.000
619.996; 3360.350;  220.350;    0.000
620.117; 3311.350;  231.350;    0.000
620.237; 3171.350;  235.350;    0.000
620.358; 3441.350;  241.350;    0.000
620.478; 3374.350;  237.350;    0.000
620.598; 3417.350;  255.350;    0.000
620.719; 3221.350;  243.350;    0.000
620.839; 3255.350;  237.350;    0.000
620.959; 3240.350;  216.350;    0.000
621.079; 3264.350;  240.350;    0.000
621.200; 3206.350;  195.350;    0.000
621.320; 3280.350;  287.350;    0.000
621.440; 3247.350;  236.350;    0.000
621.560; 3249.350;  231.350;    0.000
621.681; 3201.350;  177.350;    0.000
621.801; 3178.350;  257.350;    0.000
621.921; 3243.350;  241.350;    0.000
622.041; 3311.350;  239.350;    0.000
622.161; 3210.350;  233.350;    0.000
622.281; 3178.350;  204.350;    0.000
622.401; 3184.350;  204.350;    0.000
622.521; 3179.350;  242.350;    0.000
622.641; 3117.350;  205.350;    0.000
622.761; 3206.350;  254.350;    0.000
622.882; 3196.350;  225.350;    0.000
623.002; 3127.350;  255.350;    0.000
623.121; 3139.350;  244.350;    0.000
623.241; 3168.350;  238.350;    0.000
623.361; 3162.350;  208.350;    0.000
623.481; 3167.350;  194.350;    0.000
623.601; 3175.350;  249.350;    0.000
623.721; 3199.350;  229.350;    0.000
623.841; 3195.350;  244.350;    0.000
623.961; 3090.350;  253.350;    0.000
624.081; 3077.350;  218.350;    0.000
624.201; 3089.350;  218.350;    0.000
624.320; 3119.350;  212.350;    0.000
624.440; 3123.350;  251.350;    0.000
624.560; 3104.350;  244.350;    0.000
624.680; 3088.350;  224.350;    0.000
624.799; 3042.350;  198.350;    0.000
624.919; 3123.350;  215.350;    0.000
625.039; 3109.350;  225.350;    0.000
625.159; 3039.350;  209.350;    0.000
625.278; 3041.350;  211.350;    0.000
625.398; 3148.350;  260.350;    0.000
625.518; 2977.350;  205.350;    0.000
625.637; 3132.350;  240.350;    0.000
625.757; 2907.350;  208.350;    0.000
625.876; 3034.350;  221.350;    0.000
625.996; 3087.350;  245.350;    0.000
626.115; 2966.350;  196.350;    0.000
626.235; 3053.350;  241.350;    0.000
626.354; 3011.350;  231.350;    0.000
626.474; 2986.350;  220.350;    0.000
626.594; 2971.350;  210.350;    0.000
626.713; 3004.350;  229.350;    0.000
626.832; 3080.350;  236.350;    0.000
626.952; 2967.350;  223.350;    0.000
627.071; 3040.350;  211.350;    0.000
627.191; 2999.350;  220.350;    0.000
627.310; 3013.350;  206.350;    0.000
627.429; 2907.350;  223.350;    0.000
627.549; 2957.350;  205.350;    0.000
627.668; 2967.350;  227.350;    0.000
627.787; 2995.350;  221.350;    0.000
627.907; 2952.350;  194.350;    0.000
628.026; 3023.350;  231.350;    0.000
628.145; 2924.350;  210.350;    0.000
628.264; 2855.350;  245.350;    0.000
628.384; 2969.350;  234.350;    0.000
628.503; 2977.350;  210.350;    0.000
628.622; 2961.350;  223.350;    0.000
628.741; 3035.350;  210.350;    0.000
628.860; 2929.350;  222.350;    0.000
628.980; 2982.350;  184.350;    0.000
629.099; 3078.350;  234.350;    0.000
629.218; 2944.350;  157.350;    0.000
629.337; 3017.350;  220.350;    0.000
629.456; 3020.350;  210.350;    0.000
629.575; 2958.350;  239.350;    0.000
629.694; 2898.350;  216.350;    0.000
629.813; 2949.350;  218.350;    0.000
629.932; 2908.350;  175.350;    0.000
630.051; 3021.350;  218.350;    0.000
630.170; 2896.350;  215.350;    0.000
630.289; 2964.350;  203.350;    0.000
630.408; 2914.350;  180.350;    0.000
630.527; 2931.350;  249.350;    0.000
630.646; 2906.350;  186.350;    0.000
630.764; 2905.350;  189.350;    0.000
630.883; 2893.350;  221.350;    0.000
631.002; 2904.350;  191.350;    0.000
631.121; 2927.350;  210.350;    0.000
631.240; 2976.350;  256.350;    0.000
631.359; 2948.350;  246.350;    0.000
631.477; 2870.350;  230.350;    0.000
631.596; 2953.350;  229.350;    0.000
631.715; 2883.350;  242.350;    0.000
631.834; 2867.350;  261.350;    0.000
631.952; 2921.350;  250.350;    0.000
632.071; 2960.350;  218.350;    0.000
632.190; 2852.350;  200.350;    0.000
632.308; 2877.350;  226.350;    0.000
632.427; 2851.350;  234.350;    0.000
632.546; 2924.350;  250.350;    0.000
632.664; 2785.350;  224.350;    0.000
632.783; 2915.350;  211.350;    0.000
632.901; 2866.350;  254.350;    0.000
633.020; 2805.350;  204.350;    0.000
633.138; 2805.350;  228.350;    0.000
633.257; 2832.350;  219.350;    0.000
633.375; 2913.350;  243.350;    0.000
633.494; 2836.350;  242.350;    0.000
633.612; 2812.350;  227.350;    0.000
633.731; 2756.350;  221.350;    0.000
633.849; 2743.350;  239.350;    0.000
633.968; 2738.350;  219.350;    0.000
634.086; 2867.350;  218.350;    0.000
634.204; 2783.350;  203.350;    0.000
634.323; 2769.350;  222.350;    0.000
634.441; 2799.350;  257.350;    0.000
634.559; 2770.350;  201.350;    0.000
634.678; 2677.350;  214.350;    0.000
634.796; 2713.350;  207.350;    0.000
634.914; 2786.350;  226.350;    0.000
635.032; 2825.350;  250.350;    0.000
635.151; 2650.350;  228.350;    0.000
635.269; 2738.350;  188.350;    0.000
635.387; 2670.350;  247.350;    0.000
635.505; 2748.350;  250.350;    0.000
635.623; 2774.350;  230.350;    0.000
635.742; 2780.350;  209.350;    0.000
635.860; 2740.350;  239.350;    0.000
635.978; 2702.350;  213.350;    0.000
636.096; 2723.350;  176.350;    0.000
636.214; 2794.350;  246.350;    0.000
636.332; 2771.350;  224.350;    0.000
636.450; 2697.350;  215.350;    0.000
636.568; 2692.350;  246.350;    0.000
636.686; 2773.350;  225.350;    0.000
636.804; 2798.350;  218.350;    0.000
636.922; 2657.350;  195.350;    0.000
637.040; 2642.350;  213.350;    0.000
637.158; 2739.350;  228.350;    0.000
637.276; 2782.350;  206.350;    0.000
637.394; 2748.350;  224.350;    0.000
637.512; 2694.350;  245.350;    0.000
637.629; 2710.350;  234.350;    0.000
637.747; 2633.350;  233.350;    0.000
637.865; 2718.350;  236.350;    0.000
637.983; 2725.350;  235.350;    0.000
638.101; 2724.350;  232.350;    0.000
638.218; 2734.350;  256.350;    0.000
638.336; 2696.350;  216.350;    0.000
638.454; 2742.350;  255.350;    0.000
638.572; 2770.350;  237.350;    0.000
638.689; 2621.350;  271.350;    0.000
638.807; 2652.350;  243.350;    0.000
638.925; 2719.350;  259.350;    0.000
639.042; 2644.350;  185.350;    0.000
639.160; 2632.350;  250.350;    0.000
639.278; 2632.350;  207.350;    0.000
639.395; 2821.350;  243.350;    0.000
639.513; 2615.350;  235.350;    0.000
639.630; 2673.350;  230.350;    0.000
639.748; 2683.350;  192.350;    0.000
639.865; 2673.350;  219.350;    0.000
639.983; 2644.350;  183.350;    0.000
640.100; 2631.350;  251.350;    0.000
640.218; 2726.350;  246.350;    0.000
640.335; 2703.350;  227.350;    0.000
640.453; 2626.350;  259.350;    0.000
640.570; 2645.350;  251.350;    0.000
640.688; 2671.350;  223.350;    0.000
640.805; 2626.350;  246.350;    0.000
640.922; 2687.350;  249.350;    0.000
641.040; 2596.350;  257.350;    0.000
641.157; 2602.350;  207.350;    0.000
641.274; 2667.350;  241.350;    0.000
641.391; 2648.350;  246.350;    0.000
641.509; 2619.350;  216.350;    0.000
641.626; 2595.350;  252.350;    0.000
641.743; 2518.350;  215.350;    0.000
641.860; 2517.350;  234.350;    0.000
641.978; 2519.350;  216.350;    0.000
642.095; 2633.350;  247.350;    0.000
642.212; 2555.350;  199.350;    0.000
642.329; 2604.350;  237.350;    0.000
642.446; 2504.350;  222.350;    0.000
642.563; 2571.350;  287.350;    0.000
642.681; 2586.350;  261.350;    0.000
642.798; 2529.350;  251.350;    0.000
642.915; 2577.350;  238.350;    0.000
643.032; 2603.350;  246.350;    0.000
643.149; 2581.350;  239.350;    0.000
643.266; 2538.350;  238.350;    0.000
643.383; 2666.350;  231.350;    0.000
643.500; 2576.350;  212.350;    0.000
643.617; 2497.350;  236.350;    0.000
643.734; 2542.350;  239.350;    0.000
643.850; 2606.350;  234.350;    0.000
643.967; 2530.350;  253.350;    0.000
644.084; 2603.350;  253.350;    0.000
644.201; 2594.350;  227.350;    0.000
644.318; 2604.350;  247.350;    0.000
644.435; 2576.350;  264.350;    0.000
644.552; 2562.350;  230.350;    0.000
644.668; 2589.350;  250.350;    0.000
644.785; 2532.350;  235.350;    0.000
644.902; 2637.350;  227.350;    0.000
645.019; 2587.350;  203.350;    0.000
645.135; 2550.350;  210.350;    0.000
645.252; 2532.350;  206.350;    0.000
645.369; 2599.350;  235.350;    0.000
645.485; 2584.350;  223.350;    0.000
645.602; 2575.350;  205.350;    0.000
645.719; 2566.350;  222.350;    0.000
645.835; 2625.350;  246.350;    0.000
645.952; 2619.350;  239.350;    0.000
646.068; 2583.350;  225.350;    0.000
646.185; 2633.350;  248.350;    0.000
646.302; 2658.350;  226.350;    0.000
646.418; 2612.350;  228.350;    0.000
646.535; 2665.350;  219.350;    0.000
646.651; 2635.350;  204.350;    0.000
646.768; 2610.350;  247.350;    0.000
646.884; 2620.350;  228.350;    0.000
647.000; 2593.350;  223.350;    0.000
647.117; 2622.350;  251.350;    0.000
647.233; 2611.350;  223.350;    0.000
647.350; 2690.350;  237.350;    0.000
647.466; 2729.350;  223.350;    0.000
647.582; 2696.350;  243.350;    0.000
647.699; 2704.350;  223.350;    0.000
647.815; 2627.350;  215.350;    0.000
647.931; 2742.350;  214.350;    0.000
648.047; 2704.350;  199.350;    0.000
648.164; 2721.350;  233.350;    0.000
648.280; 2579.350;  231.350;    0.000
648.396; 2671.350;  215.350;    0.000
648.512; 2686.350;  252.350;    0.000
648.629; 2747.350;  237.350;    0.000
648.745; 2702.350;  216.350;    0.000
648.861; 2615.350;  207.350;    0.000
648.977; 2713.350;  247.350;    0.000
649.093; 2618.350;  221.350;    0.000
649.209; 2735.350;  232.350;    0.000
649.325; 2672.350;  245.350;    0.000
649.441; 2747.350;  253.350;    0.000
649.557; 2708.350;  221.350;    0.000
649.673; 2710.350;  182.350;    0.000
649.789; 2633.350;  245.350;    0.000
649.905; 2641.350;  204.350;    0.000
650.021; 2637.350;  270.350;    0.000
650.137; 2673.350;  218.350;    0.000
650.253; 2676.350;  268.350;    0.000
650.369; 2716.350;  222.350;    0.000
650.485; 2716.350;  215.350;    0.000
650.601; 2622.350;  218.350;    0.000
650.717; 2696.350;  208.350;    0.000
650.833; 2715.350;  263.350;    0.000
650.948; 2653.350;  266.350;    0.000
651.064; 2665.350;  271.350;    0.000
651.180; 2678.350;  232.350;    0.000
651.296; 2591.350;  237.350;    0.000
651.411; 2687.350;  233.350;    0.000
651.527; 2636.350;  232.350;    0.000
651.643; 2674.350;  259.350;    0.000
651.759; 2654.350;  257.350;    0.000
651.874; 2663.350;  216.350;    0.000
651.990; 2723.350;  234.350;    0.000
652.105; 2693.350;  195.350;    0.000
652.221; 2664.350;  245.350;    0.000
652.337; 2712.350;  210.350;    0.000
652.452; 2747.350;  259.350;    0.000
652.568; 2809.350;  202.350;    0.000
652.683; 2730.350;  233.350;    0.000
652.799; 2699.350;  230.350;    0.000
652.914; 2747.350;  198.350;    0.000
653.030; 2795.350;  203.350;    0.000
653.145; 2744.350;  228.350;    0.000
653.261; 2766.350;  244.350;    0.000
653.376; 2777.350;  214.350;    0.000
653.492; 2837.350;  246.350;    0.000
653.607; 2859.350;  241.350;    0.000
653.722; 2779.350;  257.350;    0.000
653.838; 2860.350;  265.350;    0.000
653.953; 2940.350;  252.350;    0.000
654.068; 2980.350;  270.350;    0.000
654.184; 2915.350;  248.350;    0.000
654.299; 3067.350;  226.350;    0.000
654.414; 2965.350;  190.350;    0.000
654.530; 3079.350;  263.350;    0.000
654.645; 3149.350;  240.350;    0.000
654.760; 3117.350;  243.350;    0.000
654.875; 3117.350;  210.350;    0.000
654.990; 3304.350;  250.350;    0.000
655.106; 3291.350;  277.350;    0.000
655.221; 3404.350;  249.350;    0.000
655.336; 3366.350;  239.350;    0.000
655.451; 3468.350;  226.350;    0.000
655.566; 3479.350;  236.350;    0.000
655.681; 3645.350;  272.350;    0.000
655.796; 3703.350;  224.350;    0.000
655.911; 3864.350;  247.350;    0.000
656.026; 3907.350;  240.350;    0.000
656.141; 4115.350;  239.350;    0.000
656.256; 4156.350;  241.350;    0.000
656.371; 4175.350;  213.350;    0.000
656.486; 4185.350;  275.350;    0.000
656.601; 4097.350;  225.350;    0.000
656.716; 4033.350;  239.350;    0.000
656.831; 3969.350;  260.350;    0.000
656.946; 3875.350;  250.350;    0.000
657.060; 3718.350;  257.350;    0.000
657.175; 3548.350;  256.350;    0.000
657.290; 3678.350;  255.350;    0.000
657.405; 3604.350;  303.350;    0.000
657.520; 3567.350;  272.350;    0.000
657.634; 3396.350;  268.350;    0.000
657.749; 3363.350;  261.350;    0.000
657.864; 3340.350;  235.350;    0.000
657.979; 3249.350;  257.350;    0.000
658.093; 3257.350;  243.350;    0.000
658.208; 3229.350;  281.350;    0.000
658.323; 3045.350;  240.350;    0.000
658.437; 3073.350;  285.350;    0.000
658.552; 3084.350;  262.350;    0.000
658.666; 3106.350;  269.350;    0.000
658.781; 3034.350;  244.350;    0.000
658.895; 3058.350;  259.350;    0.000
659.010; 3016.350;  254.350;    0.000
659.125; 2971.350;  210.350;    0.000
659.239; 2912.350;  212.350;    0.000
659.353; 2870.350;  269.350;    0.000
659.468; 2944.350;  269.350;    0.000
659.582; 2889.350;  244.350;    0.000
659.697; 2799.350;  262.350;    0.000
659.811; 2867.350;  271.350;    0.000
659.926; 2784.350;  232.350;    0.000
660.040; 2869.350;  250.350;    0.000
660.154; 2792.350;  209.350;    0.000
660.269; 2773.350;  212.350;    0.000
660.383; 2705.350;  237.350;    0.000
660.497; 2775.350;  231.350;    0.000
660.612; 2808.350;  232.350;    0.000
660.726; 2639.350;  276.350;    0.000
660.840; 2766.350;  235.350;    0.000
660.954; 2678.350;  224.350;    0.000
661.068; 2679.350;  241.350;    0.000
661.183; 2729.350;  223.350;    0.000
661.297; 2653.350;  255.350;    0.000
661.411; 2656.350;  223.350;    0.000
661.525; 2636.350;  249.350;    0.000
661.639; 2599.350;  264.350;    0.000
661.753; 2532.350;  225.350;    0.000
661.867; 2564.350;  245.350;    0.000
661.981; 2553.350;  225.350;    0.000
662.095; 2547.350;  262.350;    0.000
662.209; 2531.350;  225.350;    0.000
662.323; 2445.350;  228.350;    0.000
662.437; 2427.350;  230.350;    0.000
662.551; 2448.350;  234.350;    0.000
662.665; 2513.350;  212.350;    0.000
662.779; 2563.350;  254.350;    0.000
662.893; 2522.350;  269.350;    0.000
663.007; 2477.350;  196.350;    0.000
663.121; 2431.350;  262.350;    0.000
663.235; 2444.350;  263.350;    0.000
663.349; 2459.350;  242.350;    0.000
663.462; 2428.350;  234.350;    0.000
663.576; 2370.350;  219.350;    0.000
663.690; 2433.350;  234.350;    0.000
663.804; 2361.350;  205.350;    0.000
663.917; 2305.350;  224.350;    0.000
664.031; 2327.350;  208.350;    0.000
664.145; 2368.350;  241.350;    0.000
664.258; 2314.350;  188.350;    0.000
664.372; 2330.350;  214.350;    0.000
664.486; 2252.350;  203.350;    0.000
664.599; 2213.350;  217.350;    0.000
664.713; 2337.350;  286.350;    0.000
664.827; 2354.350;  199.350;    0.000
664.940; 2286.350;  250.350;    0.000
665.054; 2269.350;  261.350;    0.000
665.167; 2294.350;  258.350;    0.000
665.281; 2322.350;  234.350;    0.000
665.394; 2288.350;  213.350;    0.000
665.508; 2198.350;  222.350;    0.000
665.621; 2254.350;  254.350;    0.000
665.735; 2304.350;  252.350;    0.000
665.848; 2312.350;  248.350;    0.000
665.961; 2257.350;  234.350;    0.000
666.075; 2252.350;  262.350;    0.000
666.188; 2288.350;  270.350;    0.000
666.301; 2299.350;  237.350;    0.000
666.415; 2185.350;  245.350;    0.000
666.528; 2320.350;  248.350;    0.000
666.641; 2183.350;  210.350;    0.000
666.755; 2225.350;  218.350;    0.000
666.868; 2219.350;  224.350;    0.000
666.981; 2206.350;  244.350;    0.000
667.094; 2233.350;  279.350;    0.000
667.207; 2249.350;  190.350;    0.000
667.321; 2136.350;  210.350;    0.000
667.434; 2181.350;  205.350;    0.000
667.547; 2158.350;  253.350;    0.000
667.660; 2186.350;  243.350;    0.000
667.773; 2234.350;  242.350;    0.000
667.886; 2099.350;  218.350;    0.000
667.999; 2118.350;  226.350;    0.000
668.112; 2134.350;  258.350;    0.000
668.225; 2154.350;  243.350;    0.000
668.338; 2156.350;  224.350;    0.000
668.451; 2145.350;  250.350;    0.000
668.564; 2118.350;  260.350;    0.000
668.677; 2122.350;  204.350;    0.000
668.790; 2100.350;  229.350;    0.000
668.903; 2115.350;  269.350;    0.000
669.016; 2050.350;  228.350;    0.000
669.129; 2094.350;  253.350;    0.000
669.242; 2046.350;  245.350;    0.000
669.354; 2125.350;  234.350;    0.000
669.467; 2059.350;  256.350;    0.000
669.580; 2034.350;  223.350;    0.000
669.693; 2128.350;  252.350;    0.000
669.806; 2072.350;  212.350;    0.000
669.918; 2062.350;  228.350;    0.000
670.031; 2077.350;  265.350;    0.000
670.144; 1984.350;  255.350;    0.000
670.256; 2121.350;  229.350;    0.000
670.369; 2067.350;  301.350;    0.000
670.482; 2054.350;  263.350;    0.000
670.594; 2050.350;  246.350;    0.000
670.707; 2031.350;  255.350;    0.000
670.820; 2080.350;  256.350;    0.000
670.932; 1985.350;  210.350;    0.000
671.045; 2106.350;  249.350;    0.000
671.157; 2060.350;  254.350;    0.000
671.270; 2051.350;  265.350;    0.000
671.382; 2059.350;  219.350;    0.000
671.495; 2094.350;  242.350;    0.000
671.607; 2004.350;  266.350;    0.000
671.720; 2043.350;  238.350;    0.000
671.832; 2009.350;  220.350;    0.000
671.944; 2011.350;  251.350;    0.000
672.057; 2106.350;  232.350;    0.000
672.169; 2023.350;  240.350;    0.000
672.281; 1981.350;  270.350;    0.000
672.394; 2022.350;  257.350;    0.000
672.506; 1971.350;  247.350;    0.000
672.618; 1970.350;  229.350;    0.000
672.731; 2033.350;  227.350;    0.000
672.843; 2032.350;  282.350;    0.000
672.955; 2024.350;  262.350;    0.000
673.067; 2069.350;  277.350;    0.000
673.180; 2030.350;  280.350;    0.000
673.292; 2016.350;  241.350;    0.000
673.404; 2005.350;  234.350;    0.000
673.516; 1967.350;  224.350;    0.000
673.628; 1998.350;  272.350;    0.000
673.740; 2060.350;  249.350;    0.000
673.852; 2007.350;  288.350;    0.000
673.964; 1996.350;  278.350;    0.000
674.076; 2129.350;  273.350;    0.000
674.188; 2038.350;  251.350;    0.000
674.300; 2005.350;  244.350;    0.000
674.412; 1961.350;  267.350;    0.000
674.524; 2055.350;  276.350;    0.000
674.636; 2044.350;  234.350;    0.000
674.748; 2020.350;  267.350;    0.000
674.860; 2042.350;  255.350;    0.000
674.972; 1974.350;  253.350;    0.000
675.084; 1985.350;  253.350;    0.000
675.196; 1969.350;  300.350;    0.000
675.307; 2033.350;  307.350;    0.000
675.419; 1936.350;  245.350;    0.000
675.531; 1982.350;  292.350;    0.000
675.643; 1960.350;  244.350;    0.000
675.755; 1934.350;  265.350;    0.000
675.866; 2030.350;  281.350;    0.000
675.978; 1975.350;  266.350;    0.000
676.090; 2012.350;  267.350;    0.000
676.201; 1979.350;  265.350;    0.000
676.313; 1926.350;  222.350;    0.000
676.425; 1912.350;  248.350;    0.000
676.536; 1935.350;  234.350;    0.000
676.648; 1963.350;  261.350;    0.000
676.759; 1927.350;  280.350;    0.000
676.871; 1938.350;  260.350;    0.000
676.983; 1995.350;  277.350;    0.000
677.094; 1911.350;  252.350;    0.000
677.206; 1955.350;  238.350;    0.000
677.317; 1951.350;  269.350;    0.000
677.429; 1900.350;  245.350;    0.000
677.540; 1971.350;  244.350;    0.000
677.651; 1905.350;  225.350;    0.000
677.763; 1873.350;  216.350;    0.000
677.874; 1911.350;  226.350;    0.000
677.986; 1917.350;  234.350;    0.000
678.097; 1867.350;  237.350;    0.000
678.208; 1928.350;  278.350;    0.000
678.320; 1882.350;  243.350;    0.000
678.431; 1925.350;  248.350;    0.000
678.542; 1944.350;  240.350;    0.000
678.653; 1863.350;  250.350;    0.000
678.765; 1863.350;  258.350;    0.000
678.876; 1902.350;  221.350;    0.000
678.987; 1890.350;  229.350;    0.000
679.098; 1863.350;  233.350;    0.000
679.209; 1909.350;  274.350;    0.000
679.320; 1827.350;  216.350;    0.000
679.432; 1826.350;  246.350;    0.000
679.543; 1826.350;  226.350;    0.000
679.654; 1855.350;  232.350;    0.000
679.765; 1838.350;  246.350;    0.000
679.876; 1769.350;  263.350;    0.000
679.987; 1926.350;  216.350;    0.000
680.098; 1872.350;  262.350;    0.000
680.209; 1843.350;  219.350;    0.000
680.320; 1862.350;  232.350;    0.000
680.431; 1782.350;  261.350;    0.000
680.542; 1864.350;  219.350;    0.000
680.653; 1873.350;  238.350;    0.000
680.763; 1801.350;  191.350;    0.000
680.874; 1900.350;  267.350;    0.000
680.985; 1878.350;  240.350;    0.000
681.096; 1903.350;  251.350;    0.000
681.207; 1772.350;  232.350;    0.000
681.318; 1804.350;  211.350;    0.000
681.428; 1815.350;  233.350;    0.000
681.539; 1746.350;  197.350;    0.000
681.650; 1861.350;  197.350;    0.000
681.760; 1855.350;  243.350;    0.000
681.871; 1831.350;  245.350;    0.000
681.982; 1881.350;  218.350;    0.000
682.093; 1854.350;  262.350;    0.000
682.203; 1814.350;  250.350;    0.000
682.314; 1829.350;  239.350;    0.000
682.424; 1843.350;  250.350;    0.000
682.535; 1780.350;  206.350;    0.000
682.646; 1792.350;  302.350;    0.000
682.756; 1898.350;  258.350;    0.000
682.867; 1884.350;  265.350;    0.000
682.977; 1829.350;  218.350;    0.000
683.088; 1849.350;  264.350;    0.000
683.198; 1769.350;  236.350;    0.000
683.308; 1818.350;  246.350;    0.000
683.419; 1821.350;  296.350;    0.000
683.529; 1768.350;  242.350;    0.000
683.640; 1806.350;  245.350;    0.000
683.750; 1856.350;  213.350;    0.000
683.860; 1866.350;  256.350;    0.000
683.971; 1800.350;  251.350;    0.000
684.081; 1815.350;  232.350;    0.000
684.191; 1818.350;  252.350;    0.000
684.301; 1827.350;  214.350;    0.000
684.412; 1830.350;  261.350;    0.000
684.522; 1807.350;  243.350;    0.000
684.632; 1759.350;  257.350;    0.000
684.742; 1858.350;  271.350;    0.000
684.852; 1815.350;  258.350;    0.000
684.963; 1840.350;  262.350;    0.000
685.073; 1763.350;  219.350;    0.000
685.183; 1795.350;  270.350;    0.000
685.293; 1874.350;  233.350;    0.000
685.403; 1799.350;  274.350;    0.000
685.513; 1801.350;  280.350;    0.000
685.623; 1803.350;  267.350;    0.000
685.733; 1821.350;  274.350;    0.000
685.843; 1830.350;  274.350;    0.000
685.953; 1819.350;  244.350;    0.000
686.063; 1858.350;  261.350;    0.000
686.173; 1811.350;  283.350;    0.000
686.283; 1824.350;  260.350;    0.000
686.393; 1736.350;  256.350;    0.000
686.503; 1913.350;  295.350;    0.000
686.612; 1810.350;  294.350;    0.000
686.722; 1829.350;  263.350;    0.000
686.832; 1883.350;  291.350;    0.000
686.942; 1795.350;  229.350;    0.000
687.052; 1798.350;  241.350;    0.000
687.161; 1782.350;  304.350;    0.000
687.271; 1790.350;  223.350;    0.000
687.381; 1825.350;  273.350;    0.000
687.491; 1807.350;  246.350;    0.000
687.600; 1838.350;  242.350;    0.000
687.710; 1816.350;  225.350;    0.000
687.820; 1782.350;  259.350;    0.000
687.929; 1860.350;  232.350;    0.000
688.039; 1803.350;  248.350;    0.000
688.148; 1836.350;  250.350;    0.000
688.258; 1721.350;  240.350;    0.000
688.367; 1826.350;  253.350;    0.000
688.477; 1765.350;  229.350;    0.000
688.586; 1779.350;  259.350;    0.000
688.696; 1857.350;  250.350;    0.000
688.805; 1760.350;  279.350;    0.000
688.915; 1784.350;  250.350;    0.000
689.024; 1788.350;  240.350;    0.000
689.134; 1827.350;  269.350;    0.000
689.243; 1756.350;  214.350;    0.000
689.352; 1835.350;  257.350;    0.000
689.462; 1733.350;  248.350;    0.000
689.571; 1787.350;  233.350;    0.000
689.680; 1715.350;  236.350;    0.000
689.790; 1797.350;  238.350;    0.000
689.899; 1795.350;  232.350;    0.000
690.008; 1778.350;  259.350;    0.000
690.117; 1799.350;  254.350;    0.000
690.227; 1863.350;  251.350;    0.000
690.336; 1720.350;  240.350;    0.000
690.445; 1725.350;  235.350;    0.000
690.554; 1752.350;  243.350;    0.000
690.663; 1751.350;  214.350;    0.000
690.772; 1791.350;  247.350;    0.000
690.881; 1735.350;  249.350;    0.000
690.990; 1796.350;  265.350;    0.000
691.099; 1777.350;  217.350;    0.000
691.209; 1783.350;  272.350;    0.000
691.318; 1705.350;  223.350;    0.000
691.427; 1735.350;  212.350;    0.000
691.536; 1765.350;  260.350;    0.000
691.644; 1754.350;  246.350;    0.000
691.753; 1665.350;  251.350;    0.000
691.862; 1764.350;  239.350;    0.000
691.971; 1841.350;  253.350;    0.000
692.080; 1774.350;  255.350;    0.000
692.189; 1750.350;  228.350;    0.000
692.298; 1790.350;  243.350;    0.000
692.406; 1803.350;  269.350;    0.000
692.515; 1832.350;  254.350;    0.000
692.624; 1718.350;  225.350;    0.000
692.733; 1776.350;  245.350;    0.000
692.842; 1724.350;  259.350;    0.000
692.950; 1741.350;  226.350;    0.000
693.059; 1741.350;  216.350;    0.000
693.168; 1800.350;  266.350;    0.000
693.276; 1721.350;  236.350;    0.000
693.385; 1773.350;  257.350;    0.000
693.494; 1780.350;  268.350;    0.000
693.602; 1714.350;  239.350;    0.000
693.711; 1755.350;  224.350;    0.000
693.819; 1804.350;  263.350;    0.000
693.928; 1772.350;  270.350;    0.000
694.036; 1737.350;  247.350;    0.000
694.145; 1736.350;  261.350;    0.000
694.253; 1791.350;  261.350;    0.000
694.362; 1729.350;  253.350;    0.000
694.470; 1737.350;  270.350;    0.000
694.579; 1732.350;  233.350;    0.000
694.687; 1773.350;  260.350;    0.000
694.795; 1655.350;  228.350;    0.000
694.904; 1700.350;  228.350;    0.000
695.012; 1778.350;  288.350;    0.000
695.120; 1757.350;  230.350;    0.000
695.229; 1738.350;  287.350;    0.000
695.337; 1821.350;  249.350;    0.000
695.445; 1779.350;  283.350;    0.000
695.553; 1790.350;  251.350;    0.000
695.662; 1810.350;  236.350;    0.000
695.770; 1782.350;  267.350;    0.000
695.878; 1770.350;  268.350;    0.000
695.986; 1829.350;  297.350;    0.000
696.094; 1724.350;  275.350;    0.000
696.202; 1722.350;  201.350;    0.000
696.310; 1788.350;  283.350;    0.000
696.419; 1840.350;  261.350;    0.000
696.527; 1750.350;  252.350;    0.000
696.635; 1745.350;  249.350;    0.000
696.743; 1778.350;  236.350;    0.000
696.851; 1767.350;  241.350;    0.000
696.959; 1725.350;  278.350;    0.000
697.067; 1718.350;  239.350;    0.000
697.174; 1696.350;  260.350;    0.000
697.282; 1670.350;  259.350;    0.000
697.390; 1777.350;  302.350;    0.000
697.498; 1772.350;  216.350;    0.000
697.606; 1760.350;  245.350;    0.000
697.714; 1733.350;  279.350;    0.000
697.822; 1772.350;  267.350;    0.000
697.929; 1818.350;  234.350;    0.000
698.037; 1757.350;  255.350;    0.000
698.145; 1719.350;  226.350;    0.000
698.253; 1758.350;  261.350;    0.000
698.360; 1741.350;  299.350;    0.000
698.468; 1688.350;  254.350;    0.000
698.576; 1734.350;  307.350;    0.000
698.683; 1807.350;  280.350;    0.000
698.791; 1818.350;  284.350;    0.000
698.899; 1758.350;  279.350;    0.000
699.006; 1759.350;  264.350;    0.000
699.114; 1736.350;  263.350;    0.000
699.221; 1715.350;  291.350;    0.000
699.329; 1798.350;  309.350;    0.000
699.436; 1738.350;  261.350;    0.000
699.544; 1789.350;  259.350;    0.000
699.651; 1685.350;  251.350;    0.000
699.759; 1669.350;  251.350;    0.000
699.866; 1738.350;  266.350;    0.000
699.974; 1700.350;  264.350;    0.000
700.081; 1698.350;  295.350;    0.000
700.188; 1718.350;  293.350;    0.000
700.296; 1664.350;  233.350;    0.000
700.403; 1710.350;  290.350;    0.000
700.510; 1725.350;  275.350;    0.000
700.618; 1714.350;  273.350;    0.000
700.725; 1694.350;  262.350;    0.000
700.832; 1733.350;  250.350;    0.000
700.940; 1710.350;  300.350;    0.000
701.047; 1764.350;  245.350;    0.000
701.154; 1692.350;  280.350;    0.000
701.261; 1734.350;  270.350;    0.000
701.368; 1778.350;  286.350;    0.000
701.475; 1728.350;  301.350;    0.000
701.582; 1691.350;  286.350;    0.000
701.690; 1631.350;  279.350;    0.000
701.797; 1696.350;  292.350;    0.000
701.904; 1776.350;  314.350;    0.000
702.011; 1741.350;  340.350;    0.000
702.118; 1713.350;  276.350;    0.000
702.225; 1757.350;  351.350;    0.000
702.332; 1783.350;  301.350;    0.000
702.439; 1765.350;  334.350;    0.000
702.546; 1810.350;  325.350;    0.000
702.652; 1786.350;  343.350;    0.000
702.759; 1794.350;  339.350;    0.000
702.866; 1721.350;  344.350;    0.000
702.973; 1804.350;  330.350;    0.000
703.080; 1798.350;  322.350;    0.000
703.187; 1718.350;  327.350;    0.000
703.294; 1802.350;  339.350;    0.000
703.400; 1660.350;  325.350;    0.000
703.507;  503.350;  372.350;    0.000
703.614;  294.350;  348.350;    0.000
703.720;  312.350;  333.350;    0.000
703.827;  306.350;  331.350;    0.000
703.934;  287.350;  330.350;    0.000
704.040;  299.350;  327.350;    0.000
704.147;  330.350;  327.350;    0.000
704.254;  329.350;  354.350;    0.000
704.360;  300.350;  337.350;    0.000
704.467;  335.350;  370.350;    0.000
704.573;  327.350;  367.350;    0.000
704.680;  320.350;  339.350;    0.000
704.786;  318.350;  356.350;    0.000
704.893;  297.350;  352.350;    0.000
704.999;  315.350;  332.350;    0.000
705.106;  305.350;  359.350;    0.000

