
Integration time [ms]:   0.300
Averaging Nr. [scans]: 1
Smoothing Nr. [pixels]: 0
Data measured with spectrometer [name]: NIR
Wave   ;Sample   ;Dark     ;Reference
[nm]   ;[counts] ;[counts] ;[counts] 

691.496;   10.800;  102.875;    0.000
691.696;    6.800;  181.875;    0.000
691.896;  -30.200;  138.875;    0.000
692.096;   10.800;  182.875;    0.000
692.296;  -41.200;  145.875;    0.000
692.496;   25.800;  154.875;    0.000
692.695;  -14.200;  108.875;    0.000
692.895;   16.800;  176.875;    0.000
693.095;  -26.200;  138.875;    0.000
693.295;   13.800;  192.875;    0.000
693.495;   12.800;  170.875;    0.000
693.695;    8.800;  147.875;    0.000
693.894;   14.800;  191.875;    0.000
694.094;   20.800;  148.875;    0.000
694.294;    8.800;  147.875;    0.000
694.494;  234.800;  140.875;    0.000
694.693; 2138.800;  137.875;    0.000
694.893; 2391.800;  141.875;    0.000
695.093; 2438.800;  105.875;    0.000
695.293; 2434.800;  115.875;    0.000
695.492; 2455.800;   81.875;    0.000
695.692; 2423.800;  162.875;    0.000
695.891; 2407.800;  162.875;    0.000
696.091; 2449.800;  166.875;    0.000
696.291; 2551.800;  143.875;    0.000
696.490; 2571.800;  170.875;    0.000
696.690; 2463.800;  142.875;    0.000
696.889; 2563.800;  186.875;    0.000
697.089; 2612.800;  120.875;    0.000
697.288; 2633.800;  215.875;    0.000
697.488; 2563.800;  178.875;    0.000
697.687; 2535.800;  170.875;    0.000
697.887; 2575.800;  140.875;    0.000
698.086; 2626.800;  131.875;    0.000
698.286; 2644.800;  117.875;    0.000
698.485; 2563.800;  136.875;    0.000
698.684; 2499.800;  126.875;    0.000
698.884; 2671.800;  161.875;    0.000
699.083; 2565.800;   95.875;    0.000
699.282; 2544.800;  120.875;    0.000
699.482; 2547.800;  131.875;    0.000
699.681; 2575.800;  168.875;    0.000
699.880; 2619.800;  154.875;    0.000
700.080; 2630.800;  149.875;    0.000
700.279; 2598.800;   99.875;    0.000
700.478; 2633.800;  157.875;    0.000
700.677; 2719.800;  111.875;    0.000
700.877; 2627.800;  126.875;    0.000
701.076; 2589.800;  142.875;    0.000
701.275; 2579.800;  107.875;    0.000
701.474; 2568.800;   72.875;    0.000
701.673; 2629.800;   87.875;    0.000
701.872; 2671.800;  170.875;    0.000
702.071; 2600.800;  136.875;    0.000
702.271; 2681.800;  121.875;    0.000
702.470; 2742.800;  139.875;    0.000
702.669; 2692.800;  121.875;    0.000
702.868; 2719.800;  146.875;    0.000
703.067; 2734.800;  159.875;    0.000
703.266; 2748.800;  122.875;    0.000
703.465; 2661.800;  121.875;    0.000
703.664; 2664.800;  144.875;    0.000
703.863; 2623.800;  140.875;    0.000
704.062; 2553.800;  109.875;    0.000
704.260; 2752.800;  164.875;    0.000
704.459; 2562.800;  124.875;    0.000
704.658; 2702.800;  109.875;    0.000
704.857; 2789.800;  149.875;    0.000
705.056; 2642.800;  112.875;    0.000
705.255; 2738.800;   95.875;    0.000
705.454; 2651.800;  105.875;    0.000
705.652; 2723.800;  134.875;    0.000
705.851; 2672.800;   92.875;    0.000
706.050; 2707.800;  127.875;    0.000
706.249; 2747.800;  111.875;    0.000
706.447; 2759.800;   98.875;    0.000
706.646; 2711.800;  108.875;    0.000
706.845; 2746.800;   95.875;    0.000
707.043; 2703.800;   95.875;    0.000
707.242; 2809.800;   97.875;    0.000
707.441; 2751.800;  142.875;    0.000
707.639; 2731.800;  121.875;    0.000
707.838; 2785.800;  141.875;    0.000
708.037; 2773.800;  125.875;    0.000
708.235; 2796.800;  100.875;    0.000
708.434; 2759.800;  106.875;    0.000
708.632; 2735.800;   86.875;    0.000
708.831; 2730.800;  138.875;    0.000
709.029; 2848.800;   86.875;    0.000
709.228; 2854.800;  103.875;    0.000
709.426; 2791.800;  146.875;    0.000
709.625; 2731.800;  136.875;    0.000
709.823; 2805.800;  114.875;    0.000
710.022; 2906.800;  144.875;    0.000
710.220; 2909.800;  109.875;    0.000
710.418; 2891.800;  116.875;    0.000
710.617; 2835.800;   67.875;    0.000
710.815; 2884.800;  104.875;    0.000
711.013; 2855.800;  109.875;    0.000
711.212; 2862.800;  106.875;    0.000
711.410; 2915.800;   95.875;    0.000
711.608; 2921.800;  155.875;    0.000
711.807; 2958.800;  103.875;    0.000
712.005; 2927.800;  104.875;    0.000
712.203; 2823.800;   94.875;    0.000
712.401; 2985.800;  125.875;    0.000
712.599; 2880.800;  127.875;    0.000
712.798; 3001.800;  141.875;    0.000
712.996; 2933.800;   85.875;    0.000
713.194; 2985.800;   96.875;    0.000
713.392; 2908.800;   54.875;    0.000
713.590; 2890.800;  123.875;    0.000
713.788; 2950.800;  130.875;    0.000
713.986; 3120.800;  104.875;    0.000
714.184; 3020.800;   91.875;    0.000
714.382; 2958.800;  120.875;    0.000
714.580; 3045.800;   71.875;    0.000
714.778; 3109.800;   92.875;    0.000
714.976; 3246.800;  129.875;    0.000
715.174; 3150.800;   99.875;    0.000
715.372; 3267.800;  119.875;    0.000
715.570; 3458.800;   95.875;    0.000
715.768; 3672.800;  113.875;    0.000
715.966; 3657.800;   64.875;    0.000
716.164; 3647.800;  135.875;    0.000
716.362; 3535.800;  125.875;    0.000
716.560; 3489.800;  135.875;    0.000
716.758; 3596.800;   84.875;    0.000
716.955; 3308.800;  109.875;    0.000
717.153; 3341.800;   73.875;    0.000
717.351; 3307.800;  110.875;    0.000
717.549; 3390.800;  149.875;    0.000
717.746; 3330.800;  121.875;    0.000
717.944; 3240.800;  128.875;    0.000
718.142; 3372.800;  124.875;    0.000
718.340; 3207.800;   96.875;    0.000
718.537; 3269.800;  138.875;    0.000
718.735; 3335.800;  144.875;    0.000
718.933; 3310.800;   97.875;    0.000
719.130; 3302.800;  109.875;    0.000
719.328; 3351.800;  123.875;    0.000
719.525; 3220.800;  118.875;    0.000
719.723; 3261.800;  117.875;    0.000
719.920; 3267.800;   72.875;    0.000
720.118; 3301.800;   92.875;    0.000
720.316; 3277.800;  141.875;    0.000
720.513; 3258.800;   98.875;    0.000
720.711; 3264.800;  146.875;    0.000
720.908; 3295.800;  113.875;    0.000
721.105; 3272.800;  157.875;    0.000
721.303; 3376.800;  106.875;    0.000
721.500; 3167.800;   88.875;    0.000
721.698; 3316.800;   88.875;    0.000
721.895; 3269.800;   94.875;    0.000
722.092; 3276.800;   82.875;    0.000
722.290; 3356.800;  136.875;    0.000
722.487; 3321.800;   67.875;    0.000
722.684; 3278.800;  115.875;    0.000
722.882; 3298.800;  104.875;    0.000
723.079; 3244.800;  122.875;    0.000
723.276; 3258.800;   91.875;    0.000
723.473; 3308.800;   89.875;    0.000
723.671; 3287.800;   97.875;    0.000
723.868; 3281.800;  117.875;    0.000
724.065; 3284.800;  102.875;    0.000
724.262; 3407.800;  137.875;    0.000
724.459; 3246.800;   48.875;    0.000
724.656; 3411.800;  122.875;    0.000
724.854; 3454.800;   96.875;    0.000
725.051; 3298.800;  120.875;    0.000
725.248; 3401.800;  146.875;    0.000
725.445; 3317.800;  117.875;    0.000
725.642; 3339.800;  106.875;    0.000
725.839; 3379.800;  143.875;    0.000
726.036; 3439.800;   79.875;    0.000
726.233; 3326.800;   90.875;    0.000
726.430; 3376.800;  124.875;    0.000
726.627; 3375.800;   98.875;    0.000
726.824; 3379.800;   91.875;    0.000
727.021; 3481.800;  131.875;    0.000
727.218; 3461.800;  110.875;    0.000
727.414; 3474.800;   83.875;    0.000
727.611; 3419.800;   86.875;    0.000
727.808; 3373.800;  131.875;    0.000
728.005; 3396.800;  105.875;    0.000
728.202; 3412.800;  128.875;    0.000
728.399; 3475.800;  113.875;    0.000
728.595; 3379.800;  102.875;    0.000
728.792; 3504.800;   91.875;    0.000
728.989; 3408.800;  122.875;    0.000
729.186; 3414.800;  103.875;    0.000
729.382; 3443.800;  106.875;    0.000
729.579; 3465.800;  114.875;    0.000
729.776; 3504.800;  115.875;    0.000
729.972; 3350.800;  108.875;    0.000
730.169; 3529.800;  111.875;    0.000
730.366; 3429.800;  100.875;    0.000
730.562; 3514.800;   86.875;    0.000
730.759; 3412.800;   93.875;    0.000
730.955; 3483.800;  127.875;    0.000
731.152; 3398.800;   99.875;    0.000
731.348; 3470.800;   97.875;    0.000
731.545; 3489.800;   98.875;    0.000
731.741; 3562.800;  130.875;    0.000
731.938; 3481.800;  115.875;    0.000
732.134; 3447.800;  107.875;    0.000
732.331; 3481.800;   80.875;    0.000
732.527; 3524.800;  108.875;    0.000
732.724; 3605.800;  104.875;    0.000
732.920; 3532.800;  109.875;    0.000
733.116; 3395.800;  117.875;    0.000
733.313; 3512.800;   81.875;    0.000
733.509; 3594.800;   87.875;    0.000
733.705; 3556.800;  143.875;    0.000
733.902; 3626.800;   74.875;    0.000
734.098; 3601.800;   90.875;    0.000
734.294; 3530.800;  104.875;    0.000
734.490; 3587.800;  139.875;    0.000
734.687; 3602.800;  113.875;    0.000
734.883; 3555.800;   72.875;    0.000
735.079; 3510.800;  100.875;    0.000
735.275; 3569.800;  113.875;    0.000
735.471; 3507.800;   55.875;    0.000
735.667; 3553.800;  106.875;    0.000
735.863; 3585.800;  131.875;    0.000
736.060; 3671.800;  127.875;    0.000
736.256; 3588.800;   76.875;    0.000
736.452; 3593.800;  127.875;    0.000
736.648; 3684.800;  136.875;    0.000
736.844; 3562.800;  113.875;    0.000
737.040; 3633.800;  125.875;    0.000
737.236; 3690.800;   99.875;    0.000
737.432; 3700.800;   75.875;    0.000
737.628; 3718.800;  155.875;    0.000
737.824; 3745.800;  116.875;    0.000
738.019; 3592.800;   92.875;    0.000
738.215; 3797.800;  113.875;    0.000
738.411; 3728.800;  135.875;    0.000
738.607; 3697.800;   53.875;    0.000
738.803; 3678.800;   79.875;    0.000
738.999; 3748.800;  117.875;    0.000
739.195; 3806.800;  106.875;    0.000
739.390; 3862.800;  125.875;    0.000
739.586; 3784.800;  102.875;    0.000
739.782; 3959.800;  125.875;    0.000
739.978; 3804.800;  124.875;    0.000
740.173; 3935.800;   96.875;    0.000
740.369; 3783.800;  118.875;    0.000
740.565; 3794.800;  128.875;    0.000
740.760; 3875.800;  118.875;    0.000
740.956; 3908.800;  109.875;    0.000
741.152; 3893.800;  151.875;    0.000
741.347; 3899.800;  112.875;    0.000
741.543; 4025.800;  113.875;    0.000
741.738; 4073.800;  128.875;    0.000
741.934; 4092.800;  144.875;    0.000
742.129; 4448.800;  105.875;    0.000
742.325; 4875.800;  137.875;    0.000
742.520; 5280.800;  128.875;    0.000
742.716; 5038.800;  121.875;    0.000
742.911; 4706.800;   75.875;    0.000
743.107; 4708.800;  100.875;    0.000
743.302; 4551.800;   72.875;    0.000
743.498; 4592.800;  137.875;    0.000
743.693; 4611.800;  124.875;    0.000
743.888; 4827.800;  121.875;    0.000
744.084; 5342.800;   93.875;    0.000
744.279; 6421.800;   75.875;    0.000
744.474; 6508.800;  136.875;    0.000
744.670; 5815.800;  109.875;    0.000
744.865; 5541.800;  142.875;    0.000
745.060; 5143.800;   84.875;    0.000
745.255; 5108.800;  149.875;    0.000
745.451; 5024.800;  101.875;    0.000
745.646; 5047.800;  132.875;    0.000
745.841; 4738.800;  126.875;    0.000
746.036; 4991.800;  125.875;    0.000
746.231; 5140.800;  150.875;    0.000
746.426; 5226.800;  118.875;    0.000
746.622; 6017.800;  135.875;    0.000
746.817; 7547.800;  122.875;    0.000
747.012; 8541.800;  134.875;    0.000
747.207; 7682.800;  124.875;    0.000
747.402; 6863.800;  122.875;    0.000
747.597; 6274.800;   95.875;    0.000
747.792; 6013.800;  168.875;    0.000
747.987; 5868.800;  110.875;    0.000
748.182; 5787.800;  119.875;    0.000
748.377; 5405.800;   70.875;    0.000
748.572; 5313.800;  113.875;    0.000
748.767; 5204.800;  123.875;    0.000
748.961; 4830.800;  110.875;    0.000
749.156; 4947.800;  135.875;    0.000
749.351; 4776.800;   98.875;    0.000
749.546; 4736.800;  126.875;    0.000
749.741; 4890.800;  129.875;    0.000
749.936; 4663.800;   86.875;    0.000
750.130; 4729.800;   97.875;    0.000
750.325; 4620.800;  110.875;    0.000
750.520; 4588.800;  120.875;    0.000
750.715; 4515.800;  122.875;    0.000
750.909; 4581.800;  120.875;    0.000
751.104; 4460.800;  118.875;    0.000
751.299; 4432.800;  122.875;    0.000
751.493; 4560.800;  129.875;    0.000
751.688; 4511.800;  138.875;    0.000
751.882; 4364.800;   87.875;    0.000
752.077; 4488.800;  142.875;    0.000
752.272; 4388.800;  110.875;    0.000
752.466; 4362.800;  154.875;    0.000
752.661; 4287.800;   96.875;    0.000
752.855; 4258.800;   93.875;    0.000
753.050; 4368.800;  122.875;    0.000
753.244; 4124.800;  110.875;    0.000
753.439; 4169.800;  116.875;    0.000
753.633; 4211.800;  131.875;    0.000
753.828; 4237.800;  130.875;    0.000
754.022; 4250.800;   96.875;    0.000
754.216; 4156.800;  114.875;    0.000
754.411; 4074.800;  145.875;    0.000
754.605; 4093.800;   65.875;    0.000
754.799; 4088.800;  116.875;    0.000
754.994; 4093.800;  117.875;    0.000
755.188; 4174.800;  124.875;    0.000
755.382; 4051.800;   80.875;    0.000
755.576; 4096.800;   90.875;    0.000
755.771; 4126.800;  115.875;    0.000
755.965; 4136.800;  106.875;    0.000
756.159; 4043.800;   87.875;    0.000
756.353; 4107.800;  125.875;    0.000
756.547; 4044.800;  146.875;    0.000
756.742; 3969.800;  111.875;    0.000
756.936; 4032.800;  108.875;    0.000
757.130; 4017.800;  101.875;    0.000
757.324; 4113.800;  114.875;    0.000
757.518; 4056.800;  136.875;    0.000
757.712; 3968.800;  123.875;    0.000
757.906; 4036.800;  115.875;    0.000
758.100; 4066.800;  186.875;    0.000
758.294; 4004.800;  118.875;    0.000
758.488; 4040.800;  167.875;    0.000
758.682; 4096.800;  137.875;    0.000
758.876; 3992.800;  135.875;    0.000
759.070; 3995.800;  132.875;    0.000
759.264; 4092.800;  118.875;    0.000
759.458; 4000.800;  111.875;    0.000
759.651; 4108.800;  142.875;    0.000
759.845; 4070.800;  105.875;    0.000
760.039; 3959.800;   73.875;    0.000
760.233; 4080.800;  156.875;    0.000
760.427; 3988.800;  119.875;    0.000
760.620; 4014.800;  136.875;    0.000
760.814; 3999.800;  126.875;    0.000
761.008; 4041.800;  126.875;    0.000
761.202; 3940.800;  123.875;    0.000
761.395; 4042.800;  141.875;    0.000
761.589; 4079.800;  107.875;    0.000
761.783; 4023.800;  122.875;    0.000
761.976; 4078.800;  120.875;    0.000
762.170; 4074.800;  147.875;    0.000
762.363; 3933.800;  144.875;    0.000
762.557; 4047.800;  119.875;    0.000
762.750; 3915.800;  118.875;    0.000
762.944; 4157.800;  145.875;    0.000
763.138; 3995.800;  123.875;    0.000
763.331; 4004.800;  129.875;    0.000
763.524; 4031.800;  109.875;    0.000
763.718; 4175.800;  150.875;    0.000
763.911; 4052.800;  140.875;    0.000
764.105; 4073.800;   97.875;    0.000
764.298; 4048.800;  128.875;    0.000
764.492; 4087.800;  132.875;    0.000
764.685; 4049.800;   92.875;    0.000
764.878; 4082.800;  111.875;    0.000
765.072; 4024.800;  116.875;    0.000
765.265; 4106.800;  135.875;    0.000
765.458; 3981.800;   69.875;    0.000
765.651; 4154.800;  145.875;    0.000
765.845; 4061.800;   95.875;    0.000
766.038; 4200.800;  147.875;    0.000
766.231; 4163.800;  119.875;    0.000
766.424; 4594.800;  126.875;    0.000
766.617; 4581.800;   92.875;    0.000
766.811; 4214.800;  109.875;    0.000
767.004; 4130.800;  107.875;    0.000
767.197; 4203.800;  171.875;    0.000
767.390; 4135.800;  114.875;    0.000
767.583; 4220.800;  109.875;    0.000
767.776; 4089.800;  130.875;    0.000
767.969; 4271.800;  103.875;    0.000
768.162; 4203.800;  139.875;    0.000
768.355; 4205.800;  142.875;    0.000
768.548; 4204.800;  140.875;    0.000
768.741; 4160.800;   82.875;    0.000
768.934; 4259.800;  107.875;    0.000
769.127; 4329.800;  121.875;    0.000
769.320; 4276.800;  106.875;    0.000
769.513; 4320.800;  145.875;    0.000
769.706; 4380.800;  120.875;    0.000
769.898; 4649.800;  135.875;    0.000
770.091; 4496.800;  146.875;    0.000
770.284; 4346.800;  108.875;    0.000
770.477; 4270.800;  148.875;    0.000
770.670; 4432.800;  163.875;    0.000
770.862; 4378.800;   97.875;    0.000
771.055; 4446.800;  116.875;    0.000
771.248; 4447.800;  143.875;    0.000
771.441; 4529.800;  125.875;    0.000
771.633; 4406.800;  125.875;    0.000
771.826; 4533.800;  132.875;    0.000
772.018; 4649.800;  123.875;    0.000
772.211; 4563.800;  143.875;    0.000
772.404; 4640.800;  144.875;    0.000
772.596; 4751.800;  130.875;    0.000
772.789; 4820.800;  109.875;    0.000
772.981; 4980.800;  151.875;    0.000
773.174; 4817.800;  119.875;    0.000
773.366; 4790.800;  179.875;    0.000
773.559; 4903.800;  106.875;    0.000
773.751; 4920.800;  120.875;    0.000
773.944; 5050.800;  159.875;    0.000
774.136; 5194.800;  131.875;    0.000
774.329; 5251.800;  141.875;    0.000
774.521; 5545.800;  114.875;    0.000
774.713; 5588.800;  169.875;    0.000
774.906; 5727.800;  151.875;    0.000
775.098; 5895.800;   99.875;    0.000
775.290; 6191.800;  166.875;    0.000
775.483; 6472.800;  146.875;    0.000
775.675; 6532.800;  106.875;    0.000
775.867; 7143.800;   91.875;    0.000
776.059; 7789.800;  137.875;    0.000
776.251; 8539.800;  124.875;    0.000
776.444; 9586.800;  168.875;    0.000
776.636;11126.800;  138.875;    0.000
776.828;13609.800;  155.875;    0.000
777.020;19156.801;  160.875;    0.000
777.212;28447.801;  153.875;    0.000
777.404;31737.801;  135.875;    0.000
777.596;29445.801;  144.875;    0.000
777.788;22060.801;  127.875;    0.000
777.980;16778.801;  141.875;    0.000
778.172;13739.800;  138.875;    0.000
778.364;11598.800;  143.875;    0.000
778.556;10424.800;  123.875;    0.000
778.748; 9280.800;  103.875;    0.000
778.940; 8581.800;  176.875;    0.000
779.132; 8139.800;  144.875;    0.000
779.324; 7233.800;   75.875;    0.000
779.516; 7084.800;  117.875;    0.000
779.708; 6612.800;  151.875;    0.000
779.900; 6416.800;  127.875;    0.000
780.091; 6135.800;  155.875;    0.000
780.283; 5954.800;  157.875;    0.000
780.475; 5908.800;  140.875;    0.000
780.667; 5494.800;  141.875;    0.000
780.859; 5288.800;  113.875;    0.000
781.050; 5277.800;  153.875;    0.000
781.242; 5197.800;  118.875;    0.000
781.434; 5094.800;  121.875;    0.000
781.625; 5051.800;  146.875;    0.000
781.817; 4930.800;  154.875;    0.000
782.008; 4816.800;  144.875;    0.000
782.200; 4736.800;  152.875;    0.000
782.392; 4673.800;  160.875;    0.000
782.583; 4637.800;  122.875;    0.000
782.775; 4545.800;  144.875;    0.000
782.966; 4684.800;  143.875;    0.000
783.158; 4488.800;  125.875;    0.000
783.349; 4436.800;  173.875;    0.000
783.541; 4514.800;  166.875;    0.000
783.732; 4346.800;  163.875;    0.000
783.924; 4316.800;  157.875;    0.000
784.115; 4342.800;  158.875;    0.000
784.306; 4316.800;  160.875;    0.000
784.498; 4305.800;  132.875;    0.000
784.689; 4295.800;  181.875;    0.000
784.880; 4206.800;  156.875;    0.000
785.072; 4169.800;  134.875;    0.000
785.263; 4102.800;  155.875;    0.000
785.454; 4100.800;  141.875;    0.000
785.645; 4061.800;  114.875;    0.000
785.837; 4021.800;  137.875;    0.000
786.028; 4096.800;  158.875;    0.000
786.219; 4017.800;  135.875;    0.000
786.410; 4072.800;  152.875;    0.000
786.601; 4088.800;  132.875;    0.000
786.792; 4118.800;  152.875;    0.000
786.984; 3998.800;  162.875;    0.000
787.175; 4002.800;   97.875;    0.000
787.366; 3966.800;  129.875;    0.000
787.557; 4022.800;  135.875;    0.000
787.748; 3961.800;  127.875;    0.000
787.939; 3953.800;  152.875;    0.000
788.130; 4051.800;  182.875;    0.000
788.321; 3987.800;  130.875;    0.000
788.512; 4001.800;  161.875;    0.000
788.703; 3982.800;  127.875;    0.000
788.894; 3986.800;  121.875;    0.000
789.084; 3969.800;  134.875;    0.000
789.275; 3999.800;  108.875;    0.000
789.466; 4118.800;  152.875;    0.000
789.657; 4013.800;  115.875;    0.000
789.848; 3991.800;  150.875;    0.000
790.039; 4120.800;  132.875;    0.000
790.229; 4107.800;  169.875;    0.000
790.420; 3975.800;  159.875;    0.000
790.611; 4034.800;  123.875;    0.000
790.801; 3851.800;  144.875;    0.000
790.992; 4076.800;  177.875;    0.000
791.183; 3937.800;  128.875;    0.000
791.373; 4017.800;  123.875;    0.000
791.564; 3979.800;  131.875;    0.000
791.755; 4039.800;  103.875;    0.000
791.945; 4016.800;  104.875;    0.000
792.136; 4016.800;  115.875;    0.000
792.326; 3974.800;   99.875;    0.000
792.517; 3941.800;  139.875;    0.000
792.707; 4019.800;  155.875;    0.000
792.898; 4186.800;  139.875;    0.000
793.088; 4214.800;  153.875;    0.000
793.279; 4295.800;  137.875;    0.000
793.469; 4258.800;  109.875;    0.000
793.660; 4387.800;  119.875;    0.000
793.850; 4531.800;  119.875;    0.000
794.040; 4499.800;  132.875;    0.000
794.231; 4817.800;  122.875;    0.000
794.421; 5077.800;  124.875;    0.000
794.611; 5531.800;  151.875;    0.000
794.802; 6273.800;  121.875;    0.000
794.992; 6795.800;  139.875;    0.000
795.182; 6864.800;  132.875;    0.000
795.372; 6564.800;  149.875;    0.000
795.563; 5941.800;  153.875;    0.000
795.753; 5480.800;  120.875;    0.000
795.943; 5085.800;  121.875;    0.000
796.133; 4978.800;   97.875;    0.000
796.323; 4788.800;  122.875;    0.000
796.513; 4562.800;  142.875;    0.000
796.703; 4566.800;  125.875;    0.000
796.893; 4368.800;  126.875;    0.000
797.083; 4351.800;  150.875;    0.000
797.273; 4408.800;  108.875;    0.000
797.463; 4255.800;  156.875;    0.000
797.653; 4171.800;   80.875;    0.000
797.843; 4086.800;   88.875;    0.000
798.033; 4111.800;   96.875;    0.000
798.223; 4094.800;  159.875;    0.000
798.413; 4073.800;  155.875;    0.000
798.603; 3857.800;  125.875;    0.000
798.793; 3935.800;  141.875;    0.000
798.983; 3887.800;  113.875;    0.000
799.172; 3897.800;   85.875;    0.000
799.362; 3876.800;  141.875;    0.000
799.552; 3806.800;  122.875;    0.000
799.742; 3893.800;  124.875;    0.000
799.932; 3779.800;  102.875;    0.000
800.121; 3830.800;  146.875;    0.000
800.311; 3824.800;  122.875;    0.000
800.501; 3835.800;  120.875;    0.000
800.690; 3888.800;  141.875;    0.000
800.880; 3835.800;  146.875;    0.000
801.070; 3767.800;  122.875;    0.000
801.259; 3830.800;  138.875;    0.000
801.449; 3825.800;  115.875;    0.000
801.638; 3780.800;  132.875;    0.000
801.828; 3959.800;   92.875;    0.000
802.017; 3793.800;  150.875;    0.000
802.207; 3839.800;  134.875;    0.000
802.396; 3782.800;  133.875;    0.000
802.586; 3916.800;  117.875;    0.000
802.775; 3841.800;  155.875;    0.000
802.965; 3826.800;  132.875;    0.000
803.154; 3785.800;  176.875;    0.000
803.343; 3715.800;  106.875;    0.000
803.533; 3676.800;  154.875;    0.000
803.722; 3702.800;   97.875;    0.000
803.911; 3787.800;  107.875;    0.000
804.101; 3796.800;  145.875;    0.000
804.290; 3695.800;  130.875;    0.000
804.479; 3826.800;  152.875;    0.000
804.668; 3791.800;  160.875;    0.000
804.857; 3689.800;  161.875;    0.000
805.047; 3796.800;  126.875;    0.000
805.236; 3823.800;  136.875;    0.000
805.425; 3861.800;  153.875;    0.000
805.614; 3697.800;  139.875;    0.000
805.803; 3892.800;  144.875;    0.000
805.992; 3786.800;  160.875;    0.000
806.181; 3831.800;  139.875;    0.000
806.370; 3800.800;  104.875;    0.000
806.559; 3846.800;  103.875;    0.000
806.748; 3922.800;  145.875;    0.000
806.937; 3873.800;  151.875;    0.000
807.126; 3951.800;  119.875;    0.000
807.315; 3874.800;  139.875;    0.000
807.504; 3873.800;  143.875;    0.000
807.693; 3905.800;  164.875;    0.000
807.882; 4044.800;  135.875;    0.000
808.071; 4015.800;  131.875;    0.000
808.260; 3923.800;  113.875;    0.000
808.448; 4034.800;  161.875;    0.000
808.637; 4154.800;  125.875;    0.000
808.826; 4104.800;  155.875;    0.000
809.015; 3949.800;  113.875;    0.000
809.203; 4113.800;  152.875;    0.000
809.392; 4107.800;   90.875;    0.000
809.581; 4223.800;  186.875;    0.000
809.770; 4138.800;   99.875;    0.000
809.958; 4240.800;  146.875;    0.000
810.147; 4232.800;  115.875;    0.000
810.335; 4365.800;  122.875;    0.000
810.524; 4371.800;  150.875;    0.000
810.713; 4479.800;  121.875;    0.000
810.901; 4442.800;  156.875;    0.000
811.090; 4470.800;  161.875;    0.000
811.278; 4714.800;  138.875;    0.000
811.467; 4735.800;  184.875;    0.000
811.655; 4775.800;  150.875;    0.000
811.844; 4809.800;  137.875;    0.000
812.032; 4825.800;  142.875;    0.000
812.220; 4789.800;  134.875;    0.000
812.409; 4753.800;  143.875;    0.000
812.597; 5109.800;  164.875;    0.000
812.785; 5026.800;  188.875;    0.000
812.974; 4988.800;  156.875;    0.000
813.162; 5076.800;  166.875;    0.000
813.350; 5156.800;  115.875;    0.000
813.539; 5188.800;  167.875;    0.000
813.727; 5425.800;  165.875;    0.000
813.915; 5380.800;  137.875;    0.000
814.103; 5440.800;  166.875;    0.000
814.291; 5508.800;  151.875;    0.000
814.479; 5696.800;  147.875;    0.000
814.668; 5724.800;  166.875;    0.000
814.856; 5948.800;  160.875;    0.000
815.044; 6140.800;  172.875;    0.000
815.232; 6242.800;  193.875;    0.000
815.420; 6442.800;  173.875;    0.000
815.608; 6670.800;  134.875;    0.000
815.796; 6814.800;  105.875;    0.000
815.984; 6996.800;  125.875;    0.000
816.172; 7469.800;  160.875;    0.000
816.360; 7685.800;  162.875;    0.000
816.548; 8171.800;  160.875;    0.000
816.736; 8631.800;  132.875;    0.000
816.924; 9272.800;  184.875;    0.000
817.111; 9810.800;  145.875;    0.000
817.299;10874.800;  132.875;    0.000
817.487;11977.800;  193.875;    0.000
817.675;13731.800;  153.875;    0.000
817.863;16490.801;  153.875;    0.000
818.050;22319.801;  172.875;    0.000
818.238;34323.801;  131.875;    0.000
818.426;44490.801;  160.875;    0.000
818.613;35803.801;  136.875;    0.000
818.801;30243.801;  162.875;    0.000
818.989;29351.801;  153.875;    0.000
819.176;31651.801;  181.875;    0.000
819.364;40913.801;  165.875;    0.000
819.552;50949.801;  111.875;    0.000
819.739;42217.801;  192.875;    0.000
819.927;33735.801;  146.875;    0.000
820.114;28809.801;  154.875;    0.000
820.302;25768.801;  144.875;    0.000
820.489;22580.801;  133.875;    0.000
820.677;20468.801;  135.875;    0.000
820.864;18893.801;  130.875;    0.000
821.052;18110.801;   88.875;    0.000
821.239;17378.801;  143.875;    0.000
821.426;16890.801;  186.875;    0.000
821.614;17802.801;  171.875;    0.000
821.801;17850.801;   90.875;    0.000
821.988;16059.800;  143.875;    0.000
822.176;15357.800;   95.875;    0.000
822.363;14915.800;  148.875;    0.000
822.550;14087.800;  139.875;    0.000
822.737;13135.800;  122.875;    0.000
822.924;12011.800;  171.875;    0.000
823.112;11538.800;  147.875;    0.000
823.299;10787.800;  111.875;    0.000
823.486;10493.800;  161.875;    0.000
823.673; 9797.800;  124.875;    0.000
823.860; 9593.800;  151.875;    0.000
824.047; 9305.800;  145.875;    0.000
824.234; 9951.800;  139.875;    0.000
824.421; 9754.800;  110.875;    0.000
824.608; 9060.800;  145.875;    0.000
824.795; 8298.800;  115.875;    0.000
824.982; 7958.800;  148.875;    0.000
825.169; 7529.800;  135.875;    0.000
825.356; 7257.800;  122.875;    0.000
825.543; 6876.800;  142.875;    0.000
825.730; 6571.800;   89.875;    0.000
825.917; 6459.800;  127.875;    0.000
826.104; 6210.800;  187.875;    0.000
826.290; 6128.800;  138.875;    0.000
826.477; 5906.800;  140.875;    0.000
826.664; 5895.800;  106.875;    0.000
826.851; 5653.800;  155.875;    0.000
827.038; 5523.800;  125.875;    0.000
827.224; 5394.800;  126.875;    0.000
827.411; 5371.800;  163.875;    0.000
827.598; 5189.800;  140.875;    0.000
827.784; 5204.800;  117.875;    0.000
827.971; 5041.800;  114.875;    0.000
828.157; 4891.800;  146.875;    0.000
828.344; 4829.800;  161.875;    0.000
828.531; 4756.800;  155.875;    0.000
828.717; 4702.800;  130.875;    0.000
828.904; 4626.800;  138.875;    0.000
829.090; 4615.800;  176.875;    0.000
829.277; 4406.800;  152.875;    0.000
829.463; 4400.800;  139.875;    0.000
829.650; 4409.800;  168.875;    0.000
829.836; 4245.800;  176.875;    0.000
830.022; 4257.800;  159.875;    0.000
830.209; 4237.800;  135.875;    0.000
830.395; 4104.800;  177.875;    0.000
830.581; 4122.800;  125.875;    0.000
830.768; 4026.800;  155.875;    0.000
830.954; 3962.800;  187.875;    0.000
831.140; 3822.800;  135.875;    0.000
831.327; 3918.800;  158.875;    0.000
831.513; 3793.800;  126.875;    0.000
831.699; 3685.800;  167.875;    0.000
831.885; 3745.800;  165.875;    0.000
832.071; 3729.800;  167.875;    0.000
832.257; 3573.800;  144.875;    0.000
832.444; 3674.800;  158.875;    0.000
832.630; 3594.800;  167.875;    0.000
832.816; 3542.800;  150.875;    0.000
833.002; 3592.800;  157.875;    0.000
833.188; 3672.800;  169.875;    0.000
833.374; 3519.800;  144.875;    0.000
833.560; 3497.800;  179.875;    0.000
833.746; 3421.800;  134.875;    0.000
833.932; 3308.800;  150.875;    0.000
834.118; 3322.800;   98.875;    0.000
834.303; 3315.800;  121.875;    0.000
834.489; 3274.800;  179.875;    0.000
834.675; 3344.800;  136.875;    0.000
834.861; 3232.800;  130.875;    0.000
835.047; 3285.800;  132.875;    0.000
835.233; 3223.800;  104.875;    0.000
835.418; 3295.800;  143.875;    0.000
835.604; 3136.800;  127.875;    0.000
835.790; 3188.800;  138.875;    0.000
835.976; 3104.800;  137.875;    0.000
836.161; 3083.800;  155.875;    0.000
836.347; 3011.800;  101.875;    0.000
836.533; 3120.800;  121.875;    0.000
836.718; 3060.800;  150.875;    0.000
836.904; 3120.800;  168.875;    0.000
837.089; 3049.800;  169.875;    0.000
837.275; 3021.800;  172.875;    0.000
837.460; 3122.800;  140.875;    0.000
837.646; 3034.800;  144.875;    0.000
837.831; 3086.800;  137.875;    0.000
838.017; 3044.800;  176.875;    0.000
838.202; 2912.800;  107.875;    0.000
838.388; 3045.800;  181.875;    0.000
838.573; 2973.800;  151.875;    0.000
838.759; 2933.800;  160.875;    0.000
838.944; 3020.800;  121.875;    0.000
839.129; 2876.800;  145.875;    0.000
839.315; 3004.800;  166.875;    0.000
839.500; 2908.800;  143.875;    0.000
839.685; 2854.800;   93.875;    0.000
839.870; 2904.800;  160.875;    0.000
840.056; 2824.800;  132.875;    0.000
840.241; 2916.800;  154.875;    0.000
840.426; 2988.800;  161.875;    0.000
840.611; 2875.800;  186.875;    0.000
840.796; 2896.800;  135.875;    0.000
840.981; 2964.800;  147.875;    0.000
841.166; 2934.800;  138.875;    0.000
841.352; 2942.800;  156.875;    0.000
841.537; 2981.800;  170.875;    0.000
841.722; 2912.800;  143.875;    0.000
841.907; 2996.800;  143.875;    0.000
842.092; 3077.800;  166.875;    0.000
842.277; 3105.800;  113.875;    0.000
842.461; 3188.800;  126.875;    0.000
842.646; 3198.800;  145.875;    0.000
842.831; 3146.800;  193.875;    0.000
843.016; 3294.800;  162.875;    0.000
843.201; 3294.800;  144.875;    0.000
843.386; 3466.800;  160.875;    0.000
843.571; 3607.800;  136.875;    0.000
843.755; 3745.800;  134.875;    0.000
843.940; 4043.800;  136.875;    0.000
844.125; 4427.800;  169.875;    0.000
844.310; 5257.800;  189.875;    0.000
844.494; 6567.800;  167.875;    0.000
844.679; 8872.800;  184.875;    0.000
844.864; 8947.800;  147.875;    0.000
845.048; 7159.800;  140.875;    0.000
845.233; 6058.800;  178.875;    0.000
845.418; 5417.800;  145.875;    0.000
845.602; 4738.800;  147.875;    0.000
845.787; 4413.800;  147.875;    0.000
845.971; 4189.800;  165.875;    0.000
846.156; 3827.800;  106.875;    0.000
846.340; 3642.800;  168.875;    0.000
846.525; 3603.800;  155.875;    0.000
846.709; 3412.800;  157.875;    0.000
846.893; 3284.800;  166.875;    0.000
847.078; 3165.800;  138.875;    0.000
847.262; 3111.800;  171.875;    0.000
847.447; 3011.800;  135.875;    0.000
847.631; 2954.800;  136.875;    0.000
847.815; 2900.800;  136.875;    0.000
848.000; 2858.800;  126.875;    0.000
848.184; 2811.800;  131.875;    0.000
848.368; 2827.800;  153.875;    0.000
848.552; 2739.800;  137.875;    0.000
848.736; 2744.800;  151.875;    0.000
848.921; 2717.800;  156.875;    0.000
849.105; 2739.800;  153.875;    0.000
849.289; 2633.800;  180.875;    0.000
849.473; 2573.800;  156.875;    0.000
849.657; 2630.800;  157.875;    0.000
849.841; 2484.800;  147.875;    0.000
850.025; 2687.800;  194.875;    0.000
850.209; 2534.800;  147.875;    0.000
850.393; 2444.800;  141.875;    0.000
850.577; 2497.800;  156.875;    0.000
850.761; 2424.800;  157.875;    0.000
850.945; 2505.800;  128.875;    0.000
851.129; 2493.800;  151.875;    0.000
851.313; 2448.800;  180.875;    0.000
851.497; 2504.800;  123.875;    0.000
851.680; 2380.800;  188.875;    0.000
851.864; 2436.800;  177.875;    0.000
852.048; 2514.800;  163.875;    0.000
852.232; 2402.800;  149.875;    0.000
852.416; 2428.800;  187.875;    0.000
852.599; 2426.800;  169.875;    0.000
852.783; 2380.800;  154.875;    0.000
852.967; 2457.800;  191.875;    0.000
853.150; 2287.800;  170.875;    0.000
853.334; 2302.800;  173.875;    0.000
853.518; 2419.800;  186.875;    0.000
853.701; 2322.800;  142.875;    0.000
853.885; 2338.800;  153.875;    0.000
854.068; 2309.800;  132.875;    0.000
854.252; 2323.800;  184.875;    0.000
854.435; 2311.800;  152.875;    0.000
854.619; 2329.800;  152.875;    0.000
854.802; 2413.800;  164.875;    0.000
854.986; 2370.800;  151.875;    0.000
855.169; 2355.800;  153.875;    0.000
855.353; 2439.800;  183.875;    0.000
855.536; 2362.800;  113.875;    0.000
855.719; 2346.800;  181.875;    0.000
855.903; 2371.800;  159.875;    0.000
856.086; 2333.800;  142.875;    0.000
856.269; 2345.800;  171.875;    0.000
856.452; 2515.800;  132.875;    0.000
856.636; 2411.800;  140.875;    0.000
856.819; 2721.800;  165.875;    0.000
857.002; 2682.800;  170.875;    0.000
857.185; 2634.800;  173.875;    0.000
857.368; 2557.800;  129.875;    0.000
857.552; 2525.800;  151.875;    0.000
857.735; 2562.800;  146.875;    0.000
857.918; 2475.800;  114.875;    0.000
858.101; 2421.800;  152.875;    0.000
858.284; 2414.800;  164.875;    0.000
858.467; 2558.800;  147.875;    0.000
858.650; 2543.800;  146.875;    0.000
858.833; 2561.800;  118.875;    0.000
859.016; 2682.800;  161.875;    0.000
859.199; 2773.800;  135.875;    0.000
859.382; 2985.800;  157.875;    0.000
859.564; 3155.800;  124.875;    0.000
859.747; 3094.800;  154.875;    0.000
859.930; 2943.800;  138.875;    0.000
860.113; 2744.800;  153.875;    0.000
860.296; 2736.800;  180.875;    0.000
860.478; 2675.800;  145.875;    0.000
860.661; 2669.800;  160.875;    0.000
860.844; 2659.800;   96.875;    0.000
861.027; 2594.800;  128.875;    0.000
861.209; 2698.800;  127.875;    0.000
861.392; 2511.800;  126.875;    0.000
861.575; 2668.800;  155.875;    0.000
861.757; 2691.800;  141.875;    0.000
861.940; 2681.800;  181.875;    0.000
862.122; 2667.800;  145.875;    0.000
862.305; 2723.800;  124.875;    0.000
862.487; 2922.800;  151.875;    0.000
862.670; 3081.800;  132.875;    0.000
862.852; 3448.800;  112.875;    0.000
863.035; 4203.800;  116.875;    0.000
863.217; 4157.800;  131.875;    0.000
863.400; 3667.800;  145.875;    0.000
863.582; 3506.800;  147.875;    0.000
863.764; 3392.800;  163.875;    0.000
863.947; 3225.800;  129.875;    0.000
864.129; 3020.800;  159.875;    0.000
864.311; 3037.800;  144.875;    0.000
864.493; 2951.800;  141.875;    0.000
864.676; 2914.800;  159.875;    0.000
864.858; 2940.800;  146.875;    0.000
865.040; 2978.800;  163.875;    0.000
865.222; 2860.800;  133.875;    0.000
865.404; 2971.800;  148.875;    0.000
865.587; 3065.800;  177.875;    0.000
865.769; 3282.800;  172.875;    0.000
865.951; 3117.800;  145.875;    0.000
866.133; 3228.800;  168.875;    0.000
866.315; 3099.800;  147.875;    0.000
866.497; 3136.800;  164.875;    0.000
866.679; 3389.800;  143.875;    0.000
866.861; 3376.800;  170.875;    0.000
867.043; 3514.800;  185.875;    0.000
867.225; 3671.800;  149.875;    0.000
867.407; 3896.800;  143.875;    0.000
867.589; 4430.800;  169.875;    0.000
867.770; 5230.800;  166.875;    0.000
867.952; 7405.800;  158.875;    0.000
868.134; 9645.800;  170.875;    0.000
868.316; 9486.800;  157.875;    0.000
868.498; 9185.800;  186.875;    0.000
868.679; 8041.800;  158.875;    0.000
868.861; 6766.800;  180.875;    0.000
869.043; 5686.800;  164.875;    0.000
869.224; 4973.800;  156.875;    0.000
869.406; 4568.800;  176.875;    0.000
869.588; 4352.800;  152.875;    0.000
869.769; 4141.800;  131.875;    0.000
869.951; 3969.800;  203.875;    0.000
870.132; 4022.800;  143.875;    0.000
870.314; 4570.800;  129.875;    0.000
870.495; 4578.800;  175.875;    0.000
870.677; 4210.800;  165.875;    0.000
870.858; 3956.800;  151.875;    0.000
871.040; 4229.800;  155.875;    0.000
871.221; 4829.800;  144.875;    0.000
871.403; 4459.800;  131.875;    0.000
871.584; 4131.800;  174.875;    0.000
871.765; 4222.800;  169.875;    0.000
871.947; 4566.800;  187.875;    0.000
872.128; 4096.800;  181.875;    0.000
872.309; 3499.800;  129.875;    0.000
872.491; 3367.800;  142.875;    0.000
872.672; 3147.800;  158.875;    0.000
872.853; 3039.800;  179.875;    0.000
873.034; 3076.800;  164.875;    0.000
873.215; 2927.800;  168.875;    0.000
873.396; 2633.800;  114.875;    0.000
873.578; 2657.800;  126.875;    0.000
873.759; 2611.800;  177.875;    0.000
873.940; 2526.800;  169.875;    0.000
874.121; 2425.800;  133.875;    0.000
874.302; 2424.800;  164.875;    0.000
874.483; 2336.800;  162.875;    0.000
874.664; 2395.800;  140.875;    0.000
874.845; 2365.800;  124.875;    0.000
875.026; 2224.800;  146.875;    0.000
875.207; 2320.800;  147.875;    0.000
875.388; 2352.800;  174.875;    0.000
875.568; 2249.800;  179.875;    0.000
875.749; 2240.800;  155.875;    0.000
875.930; 2194.800;  166.875;    0.000
876.111; 2212.800;  153.875;    0.000
876.292; 2230.800;  146.875;    0.000
876.472; 2174.800;  167.875;    0.000
876.653; 2108.800;  145.875;    0.000
876.834; 2119.800;  172.875;    0.000
877.015; 2116.800;  184.875;    0.000
877.195; 2131.800;  160.875;    0.000
877.376; 2073.800;  163.875;    0.000
877.556; 2014.800;  164.875;    0.000
877.737; 2139.800;  179.875;    0.000
877.918; 2044.800;  137.875;    0.000
878.098; 2011.800;  117.875;    0.000
878.279; 1964.800;  135.875;    0.000
878.459; 2021.800;  149.875;    0.000
878.640; 2001.800;  171.875;    0.000
878.820; 1890.800;  142.875;    0.000
879.000; 2003.800;  166.875;    0.000
879.181; 1936.800;  177.875;    0.000
879.361; 1934.800;  176.875;    0.000
879.542; 1990.800;  159.875;    0.000
879.722; 1967.800;  122.875;    0.000
879.902; 1981.800;  166.875;    0.000
880.083; 1990.800;  164.875;    0.000
880.263; 1885.800;  139.875;    0.000
880.443; 1879.800;  179.875;    0.000
880.623; 2027.800;  154.875;    0.000
880.803; 2046.800;  160.875;    0.000
880.984; 2093.800;  181.875;    0.000
881.164; 1956.800;  167.875;    0.000
881.344; 1921.800;  141.875;    0.000
881.524; 1961.800;  190.875;    0.000
881.704; 2103.800;  165.875;    0.000
881.884; 2086.800;  144.875;    0.000
882.064; 2242.800;  135.875;    0.000
882.244; 2240.800;  186.875;    0.000
882.424; 2178.800;  150.875;    0.000
882.604; 2061.800;  168.875;    0.000
882.784; 2049.800;  155.875;    0.000
882.964; 2077.800;  137.875;    0.000
883.144; 2006.800;  136.875;    0.000
883.324; 1979.800;  200.875;    0.000
883.504; 1958.800;  203.875;    0.000
883.683; 1892.800;  149.875;    0.000
883.863; 1908.800;  160.875;    0.000
884.043; 1811.800;  161.875;    0.000
884.223; 1869.800;  147.875;    0.000
884.402; 1853.800;  175.875;    0.000
884.582; 1894.800;  188.875;    0.000
884.762; 1904.800;  173.875;    0.000
884.941; 1845.800;  164.875;    0.000
885.121; 1844.800;  147.875;    0.000
885.301; 1872.800;  135.875;    0.000
885.480; 1843.800;  145.875;    0.000
885.660; 1884.800;  144.875;    0.000
885.839; 1848.800;  155.875;    0.000
886.019; 1848.800;  207.875;    0.000
886.198; 1772.800;  165.875;    0.000
886.378; 1747.800;  120.875;    0.000
886.557; 1832.800;  133.875;    0.000
886.737; 1786.800;  119.875;    0.000
886.916; 1784.800;  129.875;    0.000
887.095; 1784.800;  158.875;    0.000
887.275; 1797.800;  169.875;    0.000
887.454; 1884.800;  184.875;    0.000
887.633; 1813.800;  143.875;    0.000
887.813; 1748.800;  154.875;    0.000
887.992; 1758.800;  188.875;    0.000
888.171; 1698.800;  176.875;    0.000
888.350; 1858.800;  161.875;    0.000
888.530; 1782.800;  163.875;    0.000
888.709; 1686.800;  136.875;    0.000
888.888; 1779.800;  177.875;    0.000
889.067; 1761.800;  169.875;    0.000
889.246; 1867.800;  188.875;    0.000
889.425; 1717.800;  187.875;    0.000
889.604; 1731.800;  169.875;    0.000
889.783; 1795.800;  182.875;    0.000
889.962; 1752.800;  112.875;    0.000
890.141; 1827.800;  231.875;    0.000
890.320; 1832.800;  161.875;    0.000
890.499; 1779.800;  164.875;    0.000
890.678; 1685.800;  176.875;    0.000
890.857; 1720.800;  163.875;    0.000
891.036; 1747.800;  161.875;    0.000
891.214; 1744.800;  156.875;    0.000
891.393; 1751.800;  167.875;    0.000
891.572; 1766.800;  163.875;    0.000
891.751; 1698.800;  205.875;    0.000
891.930; 1737.800;  162.875;    0.000
892.108; 1744.800;  153.875;    0.000
892.287; 1733.800;  153.875;    0.000
892.466; 1687.800;  201.875;    0.000
892.644; 1763.800;  158.875;    0.000
892.823; 1694.800;  122.875;    0.000
893.001; 1756.800;  148.875;    0.000
893.180; 1710.800;  142.875;    0.000
893.359; 1745.800;  192.875;    0.000
893.537; 1761.800;  166.875;    0.000
893.716; 1643.800;  144.875;    0.000
893.894; 1774.800;  145.875;    0.000
894.073; 1711.800;  180.875;    0.000
894.251; 1652.800;  165.875;    0.000
894.429; 1756.800;  182.875;    0.000
894.608; 1717.800;  181.875;    0.000
894.786; 1747.800;  180.875;    0.000
894.964; 1711.800;  207.875;    0.000
895.143; 1670.800;  190.875;    0.000
895.321; 1800.800;  206.875;    0.000
895.499; 1690.800;  164.875;    0.000
895.677; 1709.800;  199.875;    0.000
895.856; 1741.800;  203.875;    0.000
896.034; 1813.800;  200.875;    0.000
896.212; 1804.800;  198.875;    0.000
896.390; 1777.800;  161.875;    0.000
896.568; 1740.800;  205.875;    0.000
896.746; 1736.800;  185.875;    0.000
896.924; 1768.800;  179.875;    0.000
897.102; 1774.800;  190.875;    0.000
897.280; 1684.800;  160.875;    0.000
897.458; 1710.800;  196.875;    0.000
897.636; 1738.800;  168.875;    0.000
897.814; 1752.800;  159.875;    0.000
897.992; 1793.800;  216.875;    0.000
898.170; 1776.800;  195.875;    0.000
898.348; 1733.800;  185.875;    0.000
898.526; 1805.800;  199.875;    0.000
898.704; 1796.800;  215.875;    0.000
898.882; 1776.800;  195.875;    0.000
899.059; 1776.800;  197.875;    0.000
899.237; 1856.800;  168.875;    0.000
899.415; 1794.800;  221.875;    0.000
899.593; 1768.800;  171.875;    0.000
899.770; 1806.800;  191.875;    0.000
899.948; 1864.800;  206.875;    0.000
900.125; 1730.800;  175.875;    0.000
900.303; 1851.800;  176.875;    0.000
900.481; 1818.800;  199.875;    0.000
900.658; 1883.800;  217.875;    0.000
900.836; 1786.800;  192.875;    0.000
901.013; 1729.800;  221.875;    0.000
901.191; 1871.800;  203.875;    0.000
901.368; 1857.800;  189.875;    0.000
901.546; 1919.800;  212.875;    0.000
901.723; 1971.800;  189.875;    0.000
901.901; 1924.800;  198.875;    0.000
902.078; 1961.800;  193.875;    0.000
902.255; 1970.800;  176.875;    0.000
902.433; 1995.800;  201.875;    0.000
902.610; 2011.800;  170.875;    0.000
902.787; 2002.800;  164.875;    0.000
902.964; 2022.800;  216.875;    0.000
903.142; 2015.800;  153.875;    0.000
903.319; 2089.800;  204.875;    0.000
903.496; 2127.800;  188.875;    0.000
903.673; 2185.800;  209.875;    0.000
903.850; 2197.800;  173.875;    0.000
904.027; 2277.800;  186.875;    0.000
904.204; 2354.800;  241.875;    0.000
904.381; 2457.800;  187.875;    0.000
904.558; 2738.800;  196.875;    0.000
904.735; 3170.800;  206.875;    0.000
904.912; 3112.800;  228.875;    0.000
905.089; 3183.800;  172.875;    0.000
905.266; 2920.800;  175.875;    0.000
905.443; 2705.800;  239.875;    0.000
905.620; 2619.800;  176.875;    0.000
905.797; 2450.800;  205.875;    0.000
905.974; 2433.800;  187.875;    0.000
906.151; 2402.800;  135.875;    0.000
906.327; 2488.800;  209.875;    0.000
906.504; 2381.800;  145.875;    0.000
906.681; 2267.800;  178.875;    0.000
906.858; 2186.800;  179.875;    0.000
907.034; 2259.800;  221.875;    0.000
907.211; 2104.800;  166.875;    0.000
907.388; 2062.800;  206.875;    0.000
907.564; 2005.800;  150.875;    0.000
907.741; 2059.800;  187.875;    0.000
907.917; 2113.800;  180.875;    0.000
908.094; 1940.800;  206.875;    0.000
908.271; 2043.800;  184.875;    0.000
908.447; 2044.800;  212.875;    0.000
908.623; 1919.800;  193.875;    0.000
908.800; 1950.800;  185.875;    0.000
908.976; 1970.800;  202.875;    0.000
909.153; 1873.800;  175.875;    0.000
909.329; 1946.800;  193.875;    0.000
909.505; 1919.800;  154.875;    0.000
909.682; 1849.800;  188.875;    0.000
909.858; 1891.800;  162.875;    0.000
910.034; 1894.800;  181.875;    0.000
910.211; 1865.800;  142.875;    0.000
910.387; 1887.800;  200.875;    0.000
910.563; 1870.800;  163.875;    0.000
910.739; 1853.800;  156.875;    0.000
910.915; 1845.800;  202.875;    0.000
911.091; 1832.800;  186.875;    0.000
911.268; 1863.800;  167.875;    0.000
911.444; 1921.800;  193.875;    0.000
911.620; 1768.800;  175.875;    0.000
911.796; 1820.800;  168.875;    0.000
911.972; 1810.800;  154.875;    0.000
912.148; 1807.800;  201.875;    0.000
912.324; 1778.800;  146.875;    0.000
912.500; 1824.800;  185.875;    0.000
912.676; 1798.800;  183.875;    0.000
912.851; 1797.800;  204.875;    0.000
913.027; 1805.800;  196.875;    0.000
913.203; 1879.800;  174.875;    0.000
913.379; 1742.800;  210.875;    0.000
913.555; 1819.800;  197.875;    0.000
913.730; 1798.800;  209.875;    0.000
913.906; 1782.800;  169.875;    0.000
914.082; 1807.800;  236.875;    0.000
914.258; 1819.800;  216.875;    0.000
914.433; 1875.800;  212.875;    0.000
914.609; 1811.800;  180.875;    0.000
914.784; 1773.800;  176.875;    0.000
914.960; 1813.800;  227.875;    0.000
915.136; 1833.800;  149.875;    0.000
915.311; 1875.800;  165.875;    0.000
915.487; 1791.800;  167.875;    0.000
915.662; 1804.800;  225.875;    0.000
915.838; 1800.800;  165.875;    0.000
916.013; 1844.800;  188.875;    0.000
916.189; 1817.800;  200.875;    0.000
916.364; 1861.800;  201.875;    0.000
916.539; 1802.800;  240.875;    0.000
916.715; 1832.800;  180.875;    0.000
916.890; 1830.800;  191.875;    0.000
917.065; 1794.800;  211.875;    0.000
917.240; 1776.800;  212.875;    0.000
917.416; 1853.800;  207.875;    0.000
917.591; 1790.800;  189.875;    0.000
917.766; 1843.800;  205.875;    0.000
917.941; 1783.800;  191.875;    0.000
918.116; 1866.800;  195.875;    0.000
918.292; 1878.800;  183.875;    0.000
918.467; 1847.800;  206.875;    0.000
918.642; 1801.800;  190.875;    0.000
918.817; 1813.800;  193.875;    0.000
918.992; 1757.800;  171.875;    0.000
919.167; 1877.800;  191.875;    0.000
919.342; 1781.800;  202.875;    0.000
919.517; 1794.800;  182.875;    0.000
919.692; 1836.800;  190.875;    0.000
919.867; 1844.800;  221.875;    0.000
920.041; 1822.800;  195.875;    0.000
920.216; 1814.800;  226.875;    0.000
920.391; 1929.800;  230.875;    0.000
920.566; 1890.800;  210.875;    0.000
920.741; 2028.800;  204.875;    0.000
920.915; 2075.800;  213.875;    0.000
921.090; 2215.800;  194.875;    0.000
921.265; 2584.800;  234.875;    0.000
921.439; 2967.800;  228.875;    0.000
921.614; 2584.800;  199.875;    0.000
921.789; 2405.800;  194.875;    0.000
921.963; 2263.800;  236.875;    0.000
922.138; 2162.800;  192.875;    0.000
922.312; 2215.800;  203.875;    0.000
922.487; 2260.800;  207.875;    0.000
922.661; 2260.800;  216.875;    0.000
922.836; 2569.800;  199.875;    0.000
923.010; 2615.800;  179.875;    0.000
923.185; 2539.800;  241.875;    0.000
923.359; 2332.800;  199.875;    0.000
923.534; 2394.800;  227.875;    0.000
923.708; 2414.800;  213.875;    0.000
923.882; 2447.800;  203.875;    0.000
924.057; 2441.800;  194.875;    0.000
924.231; 2338.800;  185.875;    0.000
924.405; 2319.800;  223.875;    0.000
924.579; 2181.800;  196.875;    0.000
924.753; 2197.800;  209.875;    0.000
924.928; 2138.800;  202.875;    0.000
925.102; 2103.800;  184.875;    0.000
925.276; 2199.800;  191.875;    0.000
925.450; 2188.800;  199.875;    0.000
925.624; 2214.800;  190.875;    0.000
925.798; 2279.800;  214.875;    0.000
925.972; 2329.800;  193.875;    0.000
926.146; 2373.800;  191.875;    0.000
926.320; 2604.800;  177.875;    0.000
926.494; 2809.800;  190.875;    0.000
926.668; 2861.800;  182.875;    0.000
926.842; 3044.800;  182.875;    0.000
927.016; 3060.800;  235.875;    0.000
927.190; 2954.800;  234.875;    0.000
927.363; 2838.800;  214.875;    0.000
927.537; 2818.800;  198.875;    0.000
927.711; 2828.800;  154.875;    0.000
927.885; 2660.800;  167.875;    0.000
928.058; 2655.800;  210.875;    0.000
928.232; 2635.800;  206.875;    0.000
928.406; 2551.800;  176.875;    0.000
928.579; 2384.800;  182.875;    0.000
928.753; 2474.800;  179.875;    0.000
928.927; 2421.800;  186.875;    0.000
929.100; 2341.800;  188.875;    0.000
929.274; 2317.800;  167.875;    0.000
929.447; 2290.800;  152.875;    0.000
929.621; 2259.800;  195.875;    0.000
929.794; 2214.800;  200.875;    0.000
929.968; 2172.800;  203.875;    0.000
930.141; 2140.800;  237.875;    0.000
930.315; 2159.800;  165.875;    0.000
930.488; 2095.800;  175.875;    0.000
930.661; 2123.800;  173.875;    0.000
930.835; 2042.800;  171.875;    0.000
931.008; 2120.800;  210.875;    0.000
931.181; 1985.800;  206.875;    0.000
931.354; 2037.800;  195.875;    0.000
931.528; 1945.800;  178.875;    0.000
931.701; 1953.800;  179.875;    0.000
931.874; 1942.800;  150.875;    0.000
932.047; 1952.800;  154.875;    0.000
932.220; 1932.800;  185.875;    0.000
932.393; 1924.800;  166.875;    0.000
932.566; 1894.800;  171.875;    0.000
932.739; 1977.800;  196.875;    0.000
932.912; 1898.800;  212.875;    0.000
933.085; 1840.800;  234.875;    0.000
933.258; 1860.800;  212.875;    0.000
933.431; 1897.800;  181.875;    0.000
933.604; 1936.800;  201.875;    0.000
933.777; 1917.800;  201.875;    0.000
933.950; 1880.800;  176.875;    0.000
934.123; 1818.800;  175.875;    0.000
934.296; 1832.800;  174.875;    0.000
934.468; 1808.800;  186.875;    0.000
934.641; 1798.800;  192.875;    0.000
934.814; 1860.800;  187.875;    0.000
934.987; 1793.800;  165.875;    0.000
935.159; 1828.800;  162.875;    0.000
935.332; 1790.800;  210.875;    0.000
935.505; 1831.800;  191.875;    0.000
935.677; 1712.800;  159.875;    0.000
935.850; 1862.800;  170.875;    0.000
936.022; 1774.800;  172.875;    0.000
936.195; 1849.800;  202.875;    0.000
936.367; 1845.800;  179.875;    0.000
936.540; 1826.800;  207.875;    0.000
936.712; 1917.800;  200.875;    0.000
936.885; 1889.800;  219.875;    0.000
937.057; 1870.800;  150.875;    0.000
937.229; 1808.800;  187.875;    0.000
937.402; 1931.800;  169.875;    0.000
937.574; 1870.800;  127.875;    0.000
937.746; 1970.800;  171.875;    0.000
937.919; 2061.800;  176.875;    0.000
938.091; 2014.800;  193.875;    0.000
938.263; 2279.800;  200.875;    0.000
938.435; 2339.800;  181.875;    0.000
938.608; 2635.800;  191.875;    0.000
938.780; 3058.800;  173.875;    0.000
938.952; 3025.800;  184.875;    0.000
939.124; 3057.800;  171.875;    0.000
939.296; 3469.800;  156.875;    0.000
939.468; 3687.800;  147.875;    0.000
939.640; 3179.800;  186.875;    0.000
939.812; 2986.800;  217.875;    0.000
939.984; 2710.800;  155.875;    0.000
940.156; 2496.800;  191.875;    0.000
940.328; 2343.800;  201.875;    0.000
940.500; 2295.800;  176.875;    0.000
940.672; 2219.800;  190.875;    0.000
940.843; 2127.800;  143.875;    0.000
941.015; 2050.800;  189.875;    0.000
941.187; 1993.800;  172.875;    0.000
941.359; 2091.800;  175.875;    0.000
941.531; 2065.800;  154.875;    0.000
941.702; 2037.800;  183.875;    0.000
941.874; 1999.800;  140.875;    0.000
942.046; 1986.800;  177.875;    0.000
942.217; 1921.800;  147.875;    0.000
942.389; 1954.800;  196.875;    0.000
942.560; 1906.800;  163.875;    0.000
942.732; 1873.800;  187.875;    0.000
942.904; 1805.800;  226.875;    0.000
943.075; 1820.800;  159.875;    0.000
943.247; 1801.800;  209.875;    0.000
943.418; 1809.800;  167.875;    0.000
943.589; 1752.800;  195.875;    0.000
943.761; 1806.800;  190.875;    0.000
943.932; 1824.800;  187.875;    0.000
944.104; 1786.800;  194.875;    0.000
944.275; 1730.800;  177.875;    0.000
944.446; 1764.800;  155.875;    0.000
944.617; 1663.800;  176.875;    0.000
944.789; 1710.800;  171.875;    0.000
944.960; 1737.800;  172.875;    0.000
945.131; 1687.800;  158.875;    0.000
945.302; 1724.800;  201.875;    0.000
945.473; 1703.800;  141.875;    0.000
945.645; 1703.800;  197.875;    0.000
945.816; 1696.800;  165.875;    0.000
945.987; 1735.800;  190.875;    0.000
946.158; 1798.800;  158.875;    0.000
946.329; 1767.800;  160.875;    0.000
946.500; 1671.800;  190.875;    0.000
946.671; 1736.800;  152.875;    0.000
946.842; 1701.800;  182.875;    0.000
947.013; 1715.800;  160.875;    0.000
947.183; 1735.800;  203.875;    0.000
947.354; 1591.800;  174.875;    0.000
947.525; 1556.800;  173.875;    0.000
947.696; 1566.800;  170.875;    0.000
947.867; 1633.800;  187.875;    0.000
948.037; 1623.800;  165.875;    0.000
948.208; 1647.800;  154.875;    0.000
948.379; 1686.800;  176.875;    0.000
948.550; 1567.800;  176.875;    0.000
948.720; 1582.800;  169.875;    0.000
948.891; 1619.800;  216.875;    0.000
949.061; 1625.800;  200.875;    0.000
949.232; 1573.800;  163.875;    0.000
949.403; 1535.800;  157.875;    0.000
949.573; 1627.800;  158.875;    0.000
949.744; 1655.800;  213.875;    0.000
949.914; 1610.800;  177.875;    0.000
950.085; 1632.800;  195.875;    0.000
950.255; 1619.800;  166.875;    0.000
950.425; 1625.800;  196.875;    0.000
950.596; 1617.800;  176.875;    0.000
950.766; 1659.800;  228.875;    0.000
950.936; 1600.800;  185.875;    0.000
951.107; 1549.800;  178.875;    0.000
951.277; 1552.800;  227.875;    0.000
951.447; 1546.800;  219.875;    0.000
951.617; 1653.800;  219.875;    0.000
951.788; 1540.800;  198.875;    0.000
951.958; 1582.800;  202.875;    0.000
952.128; 1520.800;  197.875;    0.000
952.298; 1559.800;  211.875;    0.000
952.468; 1654.800;  233.875;    0.000
952.638; 1646.800;  222.875;    0.000
952.808; 1557.800;  210.875;    0.000
952.978; 1596.800;  216.875;    0.000
953.148; 1535.800;  203.875;    0.000
953.318; 1597.800;  212.875;    0.000
953.488; 1477.800;  156.875;    0.000
953.658; 1526.800;  226.875;    0.000
953.828; 1528.800;  223.875;    0.000
953.998; 1499.800;  209.875;    0.000
954.167; 1556.800;  203.875;    0.000
954.337; 1490.800;  209.875;    0.000
954.507; 1523.800;  252.875;    0.000
954.677; 1486.800;  207.875;    0.000
954.846; 1543.800;  240.875;    0.000
955.016; 1460.800;  197.875;    0.000
955.186; 1501.800;  208.875;    0.000
955.355; 1539.800;  243.875;    0.000
955.525; 1507.800;  211.875;    0.000
955.695; 1519.800;  187.875;    0.000
955.864; 1546.800;  204.875;    0.000
956.034; 1500.800;  199.875;    0.000
956.203; 1527.800;  257.875;    0.000
956.373; 1461.800;  193.875;    0.000
956.542; 1437.800;  187.875;    0.000
956.711; 1533.800;  259.875;    0.000
956.881; 1494.800;  227.875;    0.000
957.050; 1491.800;  260.875;    0.000
957.220; 1566.800;  246.875;    0.000
957.389; 1478.800;  211.875;    0.000
957.558; 1438.800;  197.875;    0.000
957.727; 1537.800;  227.875;    0.000
957.897; 1497.800;  219.875;    0.000
958.066; 1461.800;  180.875;    0.000
958.235; 1475.800;  179.875;    0.000
958.404; 1473.800;  194.875;    0.000
958.573; 1466.800;  235.875;    0.000
958.743; 1408.800;  191.875;    0.000
958.912; 1452.800;  181.875;    0.000
959.081; 1419.800;  193.875;    0.000
959.250; 1396.800;  180.875;    0.000
959.419; 1425.800;  205.875;    0.000
959.588; 1430.800;  241.875;    0.000
959.757; 1360.800;  202.875;    0.000
959.926; 1407.800;  212.875;    0.000
960.094; 1436.800;  199.875;    0.000
960.263; 1454.800;  226.875;    0.000
960.432; 1425.800;  188.875;    0.000
960.601; 1388.800;  200.875;    0.000
960.770; 1369.800;  197.875;    0.000
960.939; 1348.800;  195.875;    0.000
961.107; 1403.800;  198.875;    0.000
961.276; 1358.800;  151.875;    0.000
961.445; 1380.800;  227.875;    0.000
961.613; 1356.800;  186.875;    0.000
961.782; 1404.800;  187.875;    0.000
961.951; 1409.800;  194.875;    0.000
962.119; 1387.800;  227.875;    0.000
962.288; 1408.800;  181.875;    0.000
962.456; 1340.800;  206.875;    0.000
962.625; 1418.800;  181.875;    0.000
962.793; 1326.800;  216.875;    0.000
962.962; 1439.800;  237.875;    0.000
963.130; 1330.800;  194.875;    0.000
963.298; 1378.800;  190.875;    0.000
963.467; 1383.800;  204.875;    0.000
963.635; 1353.800;  159.875;    0.000
963.803; 1357.800;  208.875;    0.000
963.972; 1405.800;  206.875;    0.000
964.140; 1389.800;  178.875;    0.000
964.308; 1387.800;  185.875;    0.000
964.477; 1364.800;  189.875;    0.000
964.645; 1438.800;  201.875;    0.000
964.813; 1404.800;  200.875;    0.000
964.981; 1400.800;  160.875;    0.000
965.149; 1387.800;  230.875;    0.000
965.317; 1440.800;  214.875;    0.000
965.485; 1393.800;  190.875;    0.000
965.653; 1410.800;  239.875;    0.000
965.821; 1404.800;  211.875;    0.000
965.989; 1411.800;  216.875;    0.000
966.157; 1414.800;  198.875;    0.000
966.325; 1358.800;  200.875;    0.000
966.493; 1353.800;  187.875;    0.000
966.661; 1292.800;  181.875;    0.000
966.829; 1331.800;  181.875;    0.000
966.996; 1287.800;  220.875;    0.000
967.164; 1415.800;  179.875;    0.000
967.332; 1468.800;  203.875;    0.000
967.500; 1364.800;  200.875;    0.000
967.667; 1301.800;  196.875;    0.000
967.835; 1451.800;  199.875;    0.000
968.003; 1449.800;  191.875;    0.000
968.170; 1374.800;  141.875;    0.000
968.338; 1396.800;  185.875;    0.000
968.505; 1448.800;  199.875;    0.000
968.673; 1411.800;  191.875;    0.000
968.841; 1438.800;  165.875;    0.000
969.008; 1395.800;  192.875;    0.000
969.175; 1438.800;  172.875;    0.000
969.343; 1330.800;  191.875;    0.000
969.510; 1367.800;  199.875;    0.000
969.678; 1385.800;  156.875;    0.000
969.845; 1323.800;  191.875;    0.000
970.012; 1401.800;  205.875;    0.000
970.180; 1457.800;  201.875;    0.000
970.347; 1401.800;  229.875;    0.000
970.514; 1354.800;  207.875;    0.000
970.681; 1385.800;  169.875;    0.000
970.849; 1376.800;  196.875;    0.000
971.016; 1368.800;  212.875;    0.000
971.183; 1384.800;  178.875;    0.000
971.350; 1405.800;  193.875;    0.000
971.517; 1388.800;  190.875;    0.000
971.684; 1498.800;  261.875;    0.000
971.851; 1396.800;  203.875;    0.000
972.018; 1388.800;  184.875;    0.000
972.185; 1342.800;  226.875;    0.000
972.352; 1394.800;  180.875;    0.000
972.519; 1425.800;  226.875;    0.000
972.686; 1424.800;  233.875;    0.000
972.853; 1330.800;  173.875;    0.000
973.020; 1383.800;  208.875;    0.000
973.186; 1363.800;  173.875;    0.000
973.353; 1376.800;  218.875;    0.000
973.520; 1402.800;  218.875;    0.000
973.687; 1357.800;  176.875;    0.000
973.853; 1383.800;  203.875;    0.000
974.020; 1429.800;  196.875;    0.000
974.187; 1372.800;  188.875;    0.000
974.353; 1411.800;  230.875;    0.000
974.520; 1262.800;  195.875;    0.000
974.687; 1377.800;  209.875;    0.000
974.853; 1402.800;  189.875;    0.000
975.020; 1386.800;  179.875;    0.000
975.186; 1323.800;  204.875;    0.000
975.353; 1357.800;  201.875;    0.000
975.519; 1338.800;  200.875;    0.000
975.685; 1407.800;  176.875;    0.000
975.852; 1391.800;  197.875;    0.000
976.018; 1341.800;  201.875;    0.000
976.184; 1358.800;  176.875;    0.000
976.351; 1409.800;  221.875;    0.000
976.517; 1379.800;  203.875;    0.000
976.683; 1369.800;  236.875;    0.000
976.849; 1336.800;  190.875;    0.000
977.016; 1353.800;  173.875;    0.000
977.182; 1354.800;  200.875;    0.000
977.348; 1389.800;  179.875;    0.000
977.514; 1280.800;  159.875;    0.000
977.680; 1344.800;  200.875;    0.000
977.846; 1326.800;  206.875;    0.000
978.012; 1371.800;  219.875;    0.000
978.178; 1344.800;  229.875;    0.000
978.344; 1350.800;  195.875;    0.000
978.510; 1306.800;  209.875;    0.000
978.676; 1331.800;  190.875;    0.000
978.842; 1313.800;  195.875;    0.000
979.008; 1332.800;  186.875;    0.000
979.174; 1303.800;  185.875;    0.000
979.340; 1343.800;  198.875;    0.000
979.505; 1365.800;  214.875;    0.000
979.671; 1260.800;  159.875;    0.000
979.837; 1426.800;  202.875;    0.000
980.003; 1321.800;  190.875;    0.000
980.168; 1349.800;  216.875;    0.000
980.334; 1368.800;  194.875;    0.000
980.499; 1390.800;  229.875;    0.000
980.665; 1389.800;  240.875;    0.000
980.831; 1344.800;  202.875;    0.000
980.996; 1306.800;  179.875;    0.000
981.162; 1338.800;  212.875;    0.000
981.327; 1333.800;  202.875;    0.000
981.493; 1304.800;  219.875;    0.000
981.658; 1340.800;  218.875;    0.000
981.823; 1411.800;  207.875;    0.000
981.989; 1439.800;  207.875;    0.000
982.154; 1414.800;  224.875;    0.000
982.319; 1384.800;  217.875;    0.000
982.485; 1384.800;  266.875;    0.000
982.650; 1433.800;  245.875;    0.000
982.815; 1359.800;  229.875;    0.000
982.980; 1325.800;  203.875;    0.000
983.146; 1318.800;  242.875;    0.000
983.311; 1348.800;  144.875;    0.000
983.476; 1346.800;  222.875;    0.000
983.641; 1411.800;  206.875;    0.000
983.806; 1362.800;  217.875;    0.000
983.971; 1417.800;  254.875;    0.000
984.136; 1336.800;  217.875;    0.000
984.301; 1411.800;  202.875;    0.000
984.466; 1355.800;  206.875;    0.000
984.631; 1387.800;  224.875;    0.000
984.796; 1340.800;  218.875;    0.000
984.961; 1366.800;  202.875;    0.000
985.126; 1393.800;  238.875;    0.000
985.291; 1325.800;  220.875;    0.000
985.455; 1305.800;  223.875;    0.000
985.620; 1356.800;  218.875;    0.000
985.785; 1309.800;  228.875;    0.000
985.950; 1288.800;  212.875;    0.000
986.114; 1412.800;  215.875;    0.000
986.279; 1400.800;  243.875;    0.000
986.444; 1364.800;  222.875;    0.000
986.608; 1414.800;  243.875;    0.000
986.773; 1396.800;  213.875;    0.000
986.937; 1412.800;  267.875;    0.000
987.102; 1420.800;  235.875;    0.000
987.266; 1354.800;  210.875;    0.000
987.431; 1445.800;  239.875;    0.000
987.595; 1396.800;  230.875;    0.000
987.760; 1388.800;  229.875;    0.000
987.924; 1402.800;  217.875;    0.000
988.088; 1341.800;  210.875;    0.000
988.253; 1400.800;  215.875;    0.000
988.417; 1332.800;  186.875;    0.000
988.581; 1334.800;  214.875;    0.000
988.746; 1337.800;  212.875;    0.000
988.910; 1362.800;  192.875;    0.000
989.074; 1324.800;  195.875;    0.000
989.238; 1442.800;  226.875;    0.000
989.402; 1411.800;  214.875;    0.000
989.566; 1338.800;  201.875;    0.000
989.731; 1327.800;  199.875;    0.000
989.895; 1326.800;  205.875;    0.000
990.059; 1275.800;  204.875;    0.000
990.223; 1253.800;  182.875;    0.000
990.387; 1295.800;  220.875;    0.000
990.551; 1359.800;  199.875;    0.000
990.714; 1353.800;  202.875;    0.000
990.878; 1365.800;  201.875;    0.000
991.042; 1318.800;  202.875;    0.000
991.206; 1323.800;  215.875;    0.000
991.370; 1389.800;  217.875;    0.000
991.534; 1360.800;  152.875;    0.000
991.697; 1366.800;  194.875;    0.000
991.861; 1351.800;  208.875;    0.000
992.025; 1425.800;  209.875;    0.000
992.188; 1308.800;  182.875;    0.000
992.352; 1286.800;  181.875;    0.000
992.516; 1329.800;  192.875;    0.000
992.679; 1337.800;  183.875;    0.000
992.843; 1368.800;  156.875;    0.000
993.006; 1282.800;  192.875;    0.000
993.170; 1337.800;  172.875;    0.000
993.333; 1322.800;  195.875;    0.000
993.497; 1298.800;  185.875;    0.000
993.660; 1326.800;  155.875;    0.000
993.824; 1349.800;  199.875;    0.000
993.987; 1338.800;  211.875;    0.000
994.150; 1307.800;  173.875;    0.000
994.314; 1295.800;  202.875;    0.000
994.477; 1277.800;  171.875;    0.000
994.640; 1294.800;  191.875;    0.000
994.803; 1385.800;  203.875;    0.000
994.967; 1327.800;  198.875;    0.000
995.130; 1357.800;  192.875;    0.000
995.293; 1302.800;  211.875;    0.000
995.456; 1309.800;  207.875;    0.000
995.619; 1318.800;  207.875;    0.000
995.782; 1225.800;  186.875;    0.000
995.945; 1298.800;  203.875;    0.000
996.108; 1379.800;  195.875;    0.000
996.271; 1266.800;  195.875;    0.000
996.434; 1349.800;  179.875;    0.000
996.597; 1300.800;  170.875;    0.000
996.760; 1239.800;  161.875;    0.000
996.923; 1245.800;  177.875;    0.000
997.086; 1375.800;  199.875;    0.000
997.248; 1312.800;  225.875;    0.000
997.411; 1260.800;  194.875;    0.000
997.574; 1255.800;  204.875;    0.000
997.737; 1354.800;  236.875;    0.000
997.899; 1305.800;  191.875;    0.000
998.062; 1316.800;  178.875;    0.000
998.225; 1262.800;  176.875;    0.000
998.387; 1301.800;  203.875;    0.000
998.550; 1277.800;  155.875;    0.000
998.712; 1316.800;  169.875;    0.000
998.875; 1340.800;  234.875;    0.000
999.037; 1289.800;  211.875;    0.000
999.200; 1296.800;  185.875;    0.000
999.362; 1332.800;  199.875;    0.000
999.525; 1296.800;  234.875;    0.000
999.687; 1274.800;  194.875;    0.000
999.849; 1332.800;  223.875;    0.000
1000.012; 1280.800;  222.875;    0.000
1000.174; 1312.800;  187.875;    0.000
1000.336; 1386.800;  204.875;    0.000
1000.499; 1291.800;  240.875;    0.000
1000.661; 1396.800;  215.875;    0.000
1000.823; 1268.800;  206.875;    0.000
1000.985; 1318.800;  197.875;    0.000
1001.147; 1415.800;  221.875;    0.000
1001.309; 1373.800;  207.875;    0.000
1001.471; 1414.800;  227.875;    0.000
1001.633; 1348.800;  208.875;    0.000
1001.796; 1355.800;  158.875;    0.000
1001.958; 1387.800;  210.875;    0.000
1002.119; 1378.800;  223.875;    0.000
1002.281; 1481.800;  211.875;    0.000
1002.443; 1494.800;  227.875;    0.000
1002.605; 1523.800;  186.875;    0.000
1002.767; 1559.800;  242.875;    0.000
1002.929; 1623.800;  219.875;    0.000
1003.091; 1698.800;  191.875;    0.000
1003.252; 1729.800;  233.875;    0.000
1003.414; 1795.800;  214.875;    0.000
1003.576; 1919.800;  186.875;    0.000
1003.738; 1989.800;  175.875;    0.000
1003.899; 2085.800;  237.875;    0.000
1004.061; 2188.800;  220.875;    0.000
1004.222; 2291.800;  186.875;    0.000
1004.384; 2349.800;  216.875;    0.000
1004.546; 2386.800;  203.875;    0.000
1004.707; 2488.800;  216.875;    0.000
1004.869; 2582.800;  219.875;    0.000
1005.030; 2491.800;  188.875;    0.000
1005.191; 2444.800;  223.875;    0.000
1005.353; 2453.800;  227.875;    0.000
1005.514; 2290.800;  235.875;    0.000
1005.675; 2265.800;  201.875;    0.000
1005.837; 2197.800;  199.875;    0.000
1005.998; 2042.800;  219.875;    0.000
1006.159; 2026.800;  235.875;    0.000
1006.321; 1961.800;  199.875;    0.000
1006.482; 2026.800;  222.875;    0.000
1006.643; 2094.800;  195.875;    0.000
1006.804; 2161.800;  205.875;    0.000
1006.965; 2247.800;  199.875;    0.000
1007.126; 2186.800;  231.875;    0.000
1007.287; 2327.800;  208.875;    0.000
1007.448; 2201.800;  205.875;    0.000
1007.609; 2256.800;  256.875;    0.000
1007.770; 2193.800;  231.875;    0.000
1007.931; 2187.800;  223.875;    0.000
1008.092; 2173.800;  217.875;    0.000
1008.253; 2216.800;  236.875;    0.000
1008.414; 2272.800;  197.875;    0.000
1008.575; 2270.800;  233.875;    0.000
1008.736; 2303.800;  193.875;    0.000
1008.896; 2364.800;  238.875;    0.000
1009.057; 2282.800;  245.875;    0.000
1009.218; 2174.800;  240.875;    0.000
1009.379; 2243.800;  210.875;    0.000
1009.539; 2235.800;  234.875;    0.000
1009.700; 2472.800;  228.875;    0.000
1009.860; 2359.800;  238.875;    0.000
1010.021; 2431.800;  199.875;    0.000
1010.182; 2399.800;  214.875;    0.000
1010.342; 2267.800;  216.875;    0.000
1010.503; 2438.800;  207.875;    0.000
1010.663; 2439.800;  258.875;    0.000
1010.823; 2489.800;  243.875;    0.000
1010.984; 2561.800;  268.875;    0.000
1011.144; 2597.800;  217.875;    0.000
1011.305; 2681.800;  237.875;    0.000
1011.465; 2621.800;  216.875;    0.000
1011.625; 2770.800;  195.875;    0.000
1011.785; 2738.800;  201.875;    0.000
1011.946; 2828.800;  200.875;    0.000
1012.106; 2712.800;  206.875;    0.000
1012.266; 2768.800;  227.875;    0.000
1012.426; 2787.800;  221.875;    0.000
1012.586; 2775.800;  198.875;    0.000
1012.746; 2766.800;  215.875;    0.000
1012.906; 2696.800;  226.875;    0.000
1013.066; 2638.800;  221.875;    0.000
1013.226; 2717.800;  202.875;    0.000
1013.386; 2655.800;  210.875;    0.000
1013.546; 2679.800;  243.875;    0.000
1013.706; 2560.800;  200.875;    0.000
1013.866; 2639.800;  232.875;    0.000
1014.026; 2674.800;  206.875;    0.000
1014.186; 2711.800;  222.875;    0.000
1014.346; 2709.800;  233.875;    0.000
1014.505; 2752.800;  241.875;    0.000
1014.665; 2821.800;  225.875;    0.000
1014.825; 2691.800;  196.875;    0.000
1014.985; 2663.800;  234.875;    0.000
1015.144; 2836.800;  232.875;    0.000
1015.304; 2944.800;  214.875;    0.000
1015.464; 2930.800;  210.875;    0.000
1015.623; 2845.800;  219.875;    0.000
1015.783; 3149.800;  216.875;    0.000
1015.942; 3340.800;  267.875;    0.000
1016.102; 3360.800;  234.875;    0.000
1016.261; 3317.800;  230.875;    0.000
1016.420; 3564.800;  225.875;    0.000
1016.580; 3866.800;  205.875;    0.000
1016.739; 4036.800;  199.875;    0.000
1016.899; 3828.800;  218.875;    0.000
1017.058; 3902.800;  204.875;    0.000
1017.217; 4126.800;  196.875;    0.000
1017.376; 4035.800;  204.875;    0.000
1017.536; 3614.800;  195.875;    0.000
1017.695; 3668.800;  216.875;    0.000
1017.854; 3697.800;  235.875;    0.000
1018.013; 3481.800;  189.875;    0.000
1018.172; 3365.800;  217.875;    0.000
1018.331; 3285.800;  215.875;    0.000
1018.490; 3484.800;  233.875;    0.000
1018.649; 3642.800;  211.875;    0.000
1018.808; 3908.800;  196.875;    0.000
1018.967; 3758.800;  222.875;    0.000
1019.126; 3894.800;  221.875;    0.000
1019.285; 3934.800;  212.875;    0.000
1019.444; 3877.800;  231.875;    0.000
1019.603; 3814.800;  227.875;    0.000
1019.762; 3639.800;  192.875;    0.000
1019.921; 3611.800;  240.875;    0.000
1020.079; 3801.800;  209.875;    0.000
1020.238; 4098.800;  211.875;    0.000
1020.397; 4011.800;  253.875;    0.000
1020.555; 3711.800;  179.875;    0.000
1020.714; 3921.800;  225.875;    0.000
1020.873; 4148.800;  232.875;    0.000
1021.031; 4131.800;  245.875;    0.000
1021.190; 3781.800;  230.875;    0.000
1021.348; 3929.800;  221.875;    0.000
1021.507; 4104.800;  212.875;    0.000
1021.665; 4326.800;  211.875;    0.000
1021.824; 4151.800;  206.875;    0.000
1021.982; 3946.800;  218.875;    0.000
1022.141; 3844.800;  232.875;    0.000
1022.299; 4366.800;  193.875;    0.000
1022.457; 4445.800;  217.875;    0.000
1022.616; 4143.800;  248.875;    0.000
1022.774; 3793.800;  222.875;    0.000
1022.932; 4068.800;  211.875;    0.000
1023.090; 4395.800;  288.875;    0.000
1023.249; 4406.800;  214.875;    0.000
1023.407; 4257.800;  233.875;    0.000
1023.565; 3860.800;  208.875;    0.000
1023.723; 4194.800;  217.875;    0.000
1023.881; 4563.800;  235.875;    0.000
1024.039; 4517.800;  228.875;    0.000
1024.197; 4252.800;  216.875;    0.000
1024.355; 4116.800;  251.875;    0.000
1024.513; 4279.800;  232.875;    0.000
1024.671; 4719.800;  217.875;    0.000
1024.829; 4722.800;  255.875;    0.000
1024.987; 4412.800;  203.875;    0.000
1025.145; 4112.800;  239.875;    0.000
1025.302; 4233.800;  209.875;    0.000
1025.460; 4669.800;  224.875;    0.000
1025.618; 4697.800;  193.875;    0.000
1025.776; 4438.800;  209.875;    0.000
1025.933; 4036.800;  229.875;    0.000
1026.091; 4260.800;  218.875;    0.000
1026.249; 4708.800;  269.875;    0.000
1026.406; 4918.800;  264.875;    0.000
1026.564; 4759.800;  230.875;    0.000
1026.721; 4424.800;  198.875;    0.000
1026.879; 4250.800;  216.875;    0.000
1027.036; 4680.800;  226.875;    0.000
1027.194; 4979.800;  245.875;    0.000
1027.351; 4897.800;  236.875;    0.000
1027.509; 4626.800;  262.875;    0.000
1027.666; 4421.800;  227.875;    0.000
1027.823; 4624.800;  214.875;    0.000
1027.981; 4841.800;  258.875;    0.000
1028.138; 5080.800;  239.875;    0.000
1028.295; 4761.800;  226.875;    0.000
1028.452; 4412.800;  225.875;    0.000
1028.609; 4564.800;  276.875;    0.000
1028.767; 4880.800;  228.875;    0.000
1028.924; 4950.800;  213.875;    0.000
1029.081; 4882.800;  232.875;    0.000
1029.238; 4852.800;  250.875;    0.000
1029.395; 4570.800;  255.875;    0.000
1029.552; 4762.800;  217.875;    0.000
1029.709; 5113.800;  210.875;    0.000
1029.866; 5245.800;  243.875;    0.000
1030.023; 5024.800;  202.875;    0.000
1030.180; 4643.800;  233.875;    0.000
1030.337; 4751.800;  234.875;    0.000
1030.494; 4932.800;  222.875;    0.000
1030.650; 5152.800;  241.875;    0.000
1030.807; 5464.800;  206.875;    0.000
1030.964; 4977.800;  206.875;    0.000
1031.121; 4957.800;  228.875;    0.000
1031.277; 4918.800;  228.875;    0.000
1031.434; 5052.800;  234.875;    0.000
1031.591; 5410.800;  250.875;    0.000
1031.747; 5486.800;  246.875;    0.000
1031.904; 5214.800;  201.875;    0.000
1032.060; 5063.800;  237.875;    0.000
1032.217; 4926.800;  232.875;    0.000
1032.373; 5393.800;  210.875;    0.000
1032.530; 5577.800;  246.875;    0.000
1032.686; 6163.800;  196.875;    0.000
1032.843; 5979.800;  212.875;    0.000
1032.999; 5467.800;  243.875;    0.000
1033.155; 5986.800;  234.875;    0.000
1033.312; 5812.800;  246.875;    0.000
1033.468; 7041.800;  233.875;    0.000
1033.624; 7533.800;  237.875;    0.000
1033.780; 7745.800;  263.875;    0.000
1033.937; 7651.800;  214.875;    0.000
1034.093; 6948.800;  230.875;    0.000
1034.249; 7468.800;  206.875;    0.000
1034.405; 7350.800;  238.875;    0.000
1034.561; 8054.800;  231.875;    0.000
1034.717; 8497.800;  228.875;    0.000
1034.873; 8038.800;  262.875;    0.000
1035.029; 8360.800;  252.875;    0.000
1035.185; 7483.800;  232.875;    0.000
1035.341; 7313.800;  245.875;    0.000
1035.497; 8658.800;  253.875;    0.000
1035.653; 8651.800;  252.875;    0.000
1035.809; 9668.800;  245.875;    0.000
1035.964;10221.800;  229.875;    0.000
1036.120; 9338.800;  226.875;    0.000
1036.276; 9417.800;  236.875;    0.000
1036.432; 9381.800;  203.875;    0.000
1036.587; 8818.800;  228.875;    0.000
1036.743; 9728.800;  240.875;    0.000
1036.899;10605.800;  220.875;    0.000
1037.054;10476.800;  153.875;    0.000
1037.210;11466.800;  219.875;    0.000
1037.365;11361.800;  229.875;    0.000
1037.521;10406.800;  257.875;    0.000
1037.676;10630.800;  211.875;    0.000
1037.832; 9662.800;  234.875;    0.000
1037.987; 9685.800;  235.875;    0.000
1038.143;10294.800;  176.875;    0.000
1038.298;11335.800;  262.875;    0.000
1038.453;11417.800;  209.875;    0.000
1038.609;12433.800;  230.875;    0.000
1038.764;12492.800;  253.875;    0.000
1038.919;11425.800;  195.875;    0.000
1039.074;11531.800;  234.875;    0.000
1039.229;10638.800;  234.875;    0.000
1039.385;10728.800;  266.875;    0.000
1039.540;11246.800;  252.875;    0.000
1039.695;12258.800;  231.875;    0.000
1039.850;12647.800;  208.875;    0.000
1040.005;13795.800;  232.875;    0.000
1040.160;14406.800;  214.875;    0.000
1040.315;13879.800;  221.875;    0.000
1040.470;13353.800;  207.875;    0.000
1040.625;12661.800;  249.875;    0.000
1040.780;12779.800;  251.875;    0.000
1040.935;12565.800;  254.875;    0.000
1041.089;12935.800;  210.875;    0.000
1041.244;15460.800;  225.875;    0.000
1041.399;15644.800;  208.875;    0.000
1041.554;17275.801;  249.875;    0.000
1041.708;18178.801;  254.875;    0.000
1041.863;17331.801;  248.875;    0.000
1042.018;17100.801;  280.875;    0.000
1042.172;17336.801;  233.875;    0.000
1042.327;15719.800;  256.875;    0.000
1042.481;15657.800;  210.875;    0.000
1042.636;15961.800;  229.875;    0.000
1042.791;16370.800;  215.875;    0.000
1042.945;18938.801;  256.875;    0.000
1043.099;20235.801;  251.875;    0.000
1043.254;20748.801;  204.875;    0.000
1043.408;20850.801;  278.875;    0.000
1043.563;21315.801;  211.875;    0.000
1043.717;21259.801;  259.875;    0.000
1043.871;19741.801;  233.875;    0.000
1044.025;18964.801;  221.875;    0.000
1044.180;19519.801;  208.875;    0.000
1044.334;20147.801;  255.875;    0.000
1044.488;20661.801;  269.875;    0.000
1044.642;22488.801;  228.875;    0.000
1044.796;24262.801;  232.875;    0.000
1044.950;26615.801;  249.875;    0.000
1045.104;28017.801;  205.875;    0.000
1045.258;29848.801;  206.875;    0.000
1045.412;27240.801;  251.875;    0.000
1045.566;27273.801;  249.875;    0.000
1045.720;25863.801;  206.875;    0.000
1045.874;24342.801;  232.875;    0.000
1046.028;23814.801;  266.875;    0.000
1046.182;23598.801;  217.875;    0.000
1046.336;24340.801;  216.875;    0.000
1046.489;24521.801;  236.875;    0.000
1046.643;25397.801;  253.875;    0.000
1046.797;27791.801;  244.875;    0.000
1046.951;28247.801;  234.875;    0.000
1047.104;28724.801;  281.875;    0.000
1047.258;30012.801;  253.875;    0.000
1047.411;32396.801;  228.875;    0.000
1047.565;32671.801;  273.875;    0.000
1047.719;29433.801;  232.875;    0.000
1047.872;28046.801;  230.875;    0.000
1048.026;27008.801;  282.875;    0.000
1048.179;27518.801;  225.875;    0.000
1048.332;28001.801;  234.875;    0.000
1048.486;26802.801;  223.875;    0.000
1048.639;26781.801;  248.875;    0.000
1048.792;27940.801;  244.875;    0.000
1048.946;31743.801;  210.875;    0.000
1049.099;32988.801;  242.875;    0.000
1049.252;33149.801;  269.875;    0.000
1049.406;31416.801;  285.875;    0.000
1049.559;32490.801;  277.875;    0.000
1049.712;35637.801;  254.875;    0.000
1049.865;37916.801;  252.875;    0.000
1050.018;37560.801;  270.875;    0.000
1050.171;33896.801;  230.875;    0.000
1050.324;32877.801;  268.875;    0.000
1050.477;34742.801;  262.875;    0.000
1050.630;37428.801;  243.875;    0.000
1050.783;38784.801;  216.875;    0.000
1050.936;37656.801;  250.875;    0.000
1051.089;36018.801;  247.875;    0.000
1051.242;36469.801;  300.875;    0.000
1051.394;40428.801;  233.875;    0.000
1051.547;42760.801;  263.875;    0.000
1051.700;39716.801;  238.875;    0.000
1051.853;39165.801;  299.875;    0.000
1052.005;40704.801;  275.875;    0.000
1052.158;43938.801;  304.875;    0.000
1052.311;45962.801;  251.875;    0.000
1052.463;43838.801;  276.875;    0.000
1052.616;40030.801;  271.875;    0.000
1052.768;36728.801;  285.875;    0.000
1052.921;35209.801;  261.875;    0.000
1053.073;37911.801;  333.875;    0.000
1053.226;42487.801;  271.875;    0.000
1053.378;50153.801;  309.875;    0.000
1053.531;52158.801;  266.875;    0.000
1053.683;49542.801;  278.875;    0.000
1053.835;43485.801;  274.875;    0.000
1053.988;34319.801;  287.875;    0.000
1054.140; 6114.800;  350.875;    0.000
1054.292; 1489.800;  338.875;    0.000
1054.444; 1141.800;  270.875;    0.000
1054.596; 1086.800;  294.875;    0.000
1054.749;  935.800;  285.875;    0.000
1054.901;  945.800;  254.875;    0.000
1055.053;  866.800;  320.875;    0.000
1055.205;  806.800;  284.875;    0.000
1055.357;  815.800;  298.875;    0.000
1055.509;  749.800;  304.875;    0.000
1055.661;  788.800;  350.875;    0.000
1055.813;  701.800;  289.875;    0.000
1055.965;  775.800;  277.875;    0.000
1056.116;  701.800;  288.875;    0.000
1056.268;  772.800;  311.875;    0.000
1056.420;  710.800;  308.875;    0.000

