
Integration time [ms]:   0.300
Averaging Nr. [scans]: 1
Smoothing Nr. [pixels]: 0
Data measured with spectrometer [name]: NIR
Wave   ;Sample   ;Dark     ;Reference
[nm]   ;[counts] ;[counts] ;[counts] 

691.496;   17.200;  102.875;    0.000
691.696;   69.200;  181.875;    0.000
691.896;   18.200;  138.875;    0.000
692.096;   27.200;  182.875;    0.000
692.296;    8.200;  145.875;    0.000
692.496;   31.200;  154.875;    0.000
692.695;  -28.800;  108.875;    0.000
692.895;   30.200;  176.875;    0.000
693.095;    8.200;  138.875;    0.000
693.295;   63.200;  192.875;    0.000
693.495;   48.200;  170.875;    0.000
693.695;   32.200;  147.875;    0.000
693.894;   28.200;  191.875;    0.000
694.094;   35.200;  148.875;    0.000
694.294;   24.200;  147.875;    0.000
694.494;  333.200;  140.875;    0.000
694.693; 3249.200;  137.875;    0.000
694.893; 3403.200;  141.875;    0.000
695.093; 3572.200;  105.875;    0.000
695.293; 3463.200;  115.875;    0.000
695.492; 3561.200;   81.875;    0.000
695.692; 3615.200;  162.875;    0.000
695.891; 3622.200;  162.875;    0.000
696.091; 3569.200;  166.875;    0.000
696.291; 3556.200;  143.875;    0.000
696.490; 3647.200;  170.875;    0.000
696.690; 3604.200;  142.875;    0.000
696.889; 3760.200;  186.875;    0.000
697.089; 3561.200;  120.875;    0.000
697.288; 3699.200;  215.875;    0.000
697.488; 3738.200;  178.875;    0.000
697.687; 3593.200;  170.875;    0.000
697.887; 3719.200;  140.875;    0.000
698.086; 3785.200;  131.875;    0.000
698.286; 3634.200;  117.875;    0.000
698.485; 3606.200;  136.875;    0.000
698.684; 3693.200;  126.875;    0.000
698.884; 3780.200;  161.875;    0.000
699.083; 3675.200;   95.875;    0.000
699.282; 3774.200;  120.875;    0.000
699.482; 3712.200;  131.875;    0.000
699.681; 3743.200;  168.875;    0.000
699.880; 3811.200;  154.875;    0.000
700.080; 3778.200;  149.875;    0.000
700.279; 3732.200;   99.875;    0.000
700.478; 3693.200;  157.875;    0.000
700.677; 3714.200;  111.875;    0.000
700.877; 3808.200;  126.875;    0.000
701.076; 3820.200;  142.875;    0.000
701.275; 3741.200;  107.875;    0.000
701.474; 3863.200;   72.875;    0.000
701.673; 3710.200;   87.875;    0.000
701.872; 3843.200;  170.875;    0.000
702.071; 3769.200;  136.875;    0.000
702.271; 3877.200;  121.875;    0.000
702.470; 3750.200;  139.875;    0.000
702.669; 3798.200;  121.875;    0.000
702.868; 3892.200;  146.875;    0.000
703.067; 3765.200;  159.875;    0.000
703.266; 3859.200;  122.875;    0.000
703.465; 3988.200;  121.875;    0.000
703.664; 3970.200;  144.875;    0.000
703.863; 3877.200;  140.875;    0.000
704.062; 3805.200;  109.875;    0.000
704.260; 3852.200;  164.875;    0.000
704.459; 3959.200;  124.875;    0.000
704.658; 3934.200;  109.875;    0.000
704.857; 3903.200;  149.875;    0.000
705.056; 3905.200;  112.875;    0.000
705.255; 3877.200;   95.875;    0.000
705.454; 3812.200;  105.875;    0.000
705.652; 3934.200;  134.875;    0.000
705.851; 3926.200;   92.875;    0.000
706.050; 3867.200;  127.875;    0.000
706.249; 3859.200;  111.875;    0.000
706.447; 3979.200;   98.875;    0.000
706.646; 3962.200;  108.875;    0.000
706.845; 3964.200;   95.875;    0.000
707.043; 3966.200;   95.875;    0.000
707.242; 4020.200;   97.875;    0.000
707.441; 4002.200;  142.875;    0.000
707.639; 4132.200;  121.875;    0.000
707.838; 3981.200;  141.875;    0.000
708.037; 3970.200;  125.875;    0.000
708.235; 3951.200;  100.875;    0.000
708.434; 3980.200;  106.875;    0.000
708.632; 4091.200;   86.875;    0.000
708.831; 4023.200;  138.875;    0.000
709.029; 4090.200;   86.875;    0.000
709.228; 4098.200;  103.875;    0.000
709.426; 4079.200;  146.875;    0.000
709.625; 4214.200;  136.875;    0.000
709.823; 4054.200;  114.875;    0.000
710.022; 4182.200;  144.875;    0.000
710.220; 4042.200;  109.875;    0.000
710.418; 4146.200;  116.875;    0.000
710.617; 3992.200;   67.875;    0.000
710.815; 4100.200;  104.875;    0.000
711.013; 4196.200;  109.875;    0.000
711.212; 4174.200;  106.875;    0.000
711.410; 4192.200;   95.875;    0.000
711.608; 4171.200;  155.875;    0.000
711.807; 4155.200;  103.875;    0.000
712.005; 4127.200;  104.875;    0.000
712.203; 4120.200;   94.875;    0.000
712.401; 4225.200;  125.875;    0.000
712.599; 4198.200;  127.875;    0.000
712.798; 4244.200;  141.875;    0.000
712.996; 4328.200;   85.875;    0.000
713.194; 4313.200;   96.875;    0.000
713.392; 4283.200;   54.875;    0.000
713.590; 4376.200;  123.875;    0.000
713.788; 4401.200;  130.875;    0.000
713.986; 4445.200;  104.875;    0.000
714.184; 4329.200;   91.875;    0.000
714.382; 4444.200;  120.875;    0.000
714.580; 4485.200;   71.875;    0.000
714.778; 4465.200;   92.875;    0.000
714.976; 4567.200;  129.875;    0.000
715.174; 4707.200;   99.875;    0.000
715.372; 4795.200;  119.875;    0.000
715.570; 5123.200;   95.875;    0.000
715.768; 5513.200;  113.875;    0.000
715.966; 5678.200;   64.875;    0.000
716.164; 5296.200;  135.875;    0.000
716.362; 5250.200;  125.875;    0.000
716.560; 5058.200;  135.875;    0.000
716.758; 4959.200;   84.875;    0.000
716.955; 4940.200;  109.875;    0.000
717.153; 4837.200;   73.875;    0.000
717.351; 4856.200;  110.875;    0.000
717.549; 4766.200;  149.875;    0.000
717.746; 4758.200;  121.875;    0.000
717.944; 4873.200;  128.875;    0.000
718.142; 4785.200;  124.875;    0.000
718.340; 4735.200;   96.875;    0.000
718.537; 4716.200;  138.875;    0.000
718.735; 4652.200;  144.875;    0.000
718.933; 4757.200;   97.875;    0.000
719.130; 4665.200;  109.875;    0.000
719.328; 4754.200;  123.875;    0.000
719.525; 4599.200;  118.875;    0.000
719.723; 4675.200;  117.875;    0.000
719.920; 4657.200;   72.875;    0.000
720.118; 4731.200;   92.875;    0.000
720.316; 4688.200;  141.875;    0.000
720.513; 4734.200;   98.875;    0.000
720.711; 4702.200;  146.875;    0.000
720.908; 4845.200;  113.875;    0.000
721.105; 4834.200;  157.875;    0.000
721.303; 4767.200;  106.875;    0.000
721.500; 4538.200;   88.875;    0.000
721.698; 4730.200;   88.875;    0.000
721.895; 4839.200;   94.875;    0.000
722.092; 4754.200;   82.875;    0.000
722.290; 4744.200;  136.875;    0.000
722.487; 4842.200;   67.875;    0.000
722.684; 4800.200;  115.875;    0.000
722.882; 4788.200;  104.875;    0.000
723.079; 4624.200;  122.875;    0.000
723.276; 4663.200;   91.875;    0.000
723.473; 4696.200;   89.875;    0.000
723.671; 4651.200;   97.875;    0.000
723.868; 4707.200;  117.875;    0.000
724.065; 4803.200;  102.875;    0.000
724.262; 4838.200;  137.875;    0.000
724.459; 4717.200;   48.875;    0.000
724.656; 4874.200;  122.875;    0.000
724.854; 4850.200;   96.875;    0.000
725.051; 4836.200;  120.875;    0.000
725.248; 4860.200;  146.875;    0.000
725.445; 4901.200;  117.875;    0.000
725.642; 4788.200;  106.875;    0.000
725.839; 4894.200;  143.875;    0.000
726.036; 4737.200;   79.875;    0.000
726.233; 4897.200;   90.875;    0.000
726.430; 4829.200;  124.875;    0.000
726.627; 4923.200;   98.875;    0.000
726.824; 4872.200;   91.875;    0.000
727.021; 4951.200;  131.875;    0.000
727.218; 4837.200;  110.875;    0.000
727.414; 4787.200;   83.875;    0.000
727.611; 4910.200;   86.875;    0.000
727.808; 4829.200;  131.875;    0.000
728.005; 4794.200;  105.875;    0.000
728.202; 4981.200;  128.875;    0.000
728.399; 4802.200;  113.875;    0.000
728.595; 4936.200;  102.875;    0.000
728.792; 4947.200;   91.875;    0.000
728.989; 4880.200;  122.875;    0.000
729.186; 4941.200;  103.875;    0.000
729.382; 5004.200;  106.875;    0.000
729.579; 4883.200;  114.875;    0.000
729.776; 4854.200;  115.875;    0.000
729.972; 4901.200;  108.875;    0.000
730.169; 4995.200;  111.875;    0.000
730.366; 4809.200;  100.875;    0.000
730.562; 4976.200;   86.875;    0.000
730.759; 4898.200;   93.875;    0.000
730.955; 4975.200;  127.875;    0.000
731.152; 5000.200;   99.875;    0.000
731.348; 4951.200;   97.875;    0.000
731.545; 4891.200;   98.875;    0.000
731.741; 4946.200;  130.875;    0.000
731.938; 5064.200;  115.875;    0.000
732.134; 5029.200;  107.875;    0.000
732.331; 5048.200;   80.875;    0.000
732.527; 5050.200;  108.875;    0.000
732.724; 5046.200;  104.875;    0.000
732.920; 4979.200;  109.875;    0.000
733.116; 4979.200;  117.875;    0.000
733.313; 4995.200;   81.875;    0.000
733.509; 5088.200;   87.875;    0.000
733.705; 5182.200;  143.875;    0.000
733.902; 5046.200;   74.875;    0.000
734.098; 5114.200;   90.875;    0.000
734.294; 5116.200;  104.875;    0.000
734.490; 5201.200;  139.875;    0.000
734.687; 5214.200;  113.875;    0.000
734.883; 5036.200;   72.875;    0.000
735.079; 5080.200;  100.875;    0.000
735.275; 5055.200;  113.875;    0.000
735.471; 5129.200;   55.875;    0.000
735.667; 5184.200;  106.875;    0.000
735.863; 5101.200;  131.875;    0.000
736.060; 5227.200;  127.875;    0.000
736.256; 5206.200;   76.875;    0.000
736.452; 5123.200;  127.875;    0.000
736.648; 5203.200;  136.875;    0.000
736.844; 5251.200;  113.875;    0.000
737.040; 5226.200;  125.875;    0.000
737.236; 5214.200;   99.875;    0.000
737.432; 5260.200;   75.875;    0.000
737.628; 5276.200;  155.875;    0.000
737.824; 5258.200;  116.875;    0.000
738.019; 5204.200;   92.875;    0.000
738.215; 5368.200;  113.875;    0.000
738.411; 5255.200;  135.875;    0.000
738.607; 5319.200;   53.875;    0.000
738.803; 5238.200;   79.875;    0.000
738.999; 5517.200;  117.875;    0.000
739.195; 5393.200;  106.875;    0.000
739.390; 5488.200;  125.875;    0.000
739.586; 5380.200;  102.875;    0.000
739.782; 5532.200;  125.875;    0.000
739.978; 5577.200;  124.875;    0.000
740.173; 5503.200;   96.875;    0.000
740.369; 5543.200;  118.875;    0.000
740.565; 5487.200;  128.875;    0.000
740.760; 5587.200;  118.875;    0.000
740.956; 5529.200;  109.875;    0.000
741.152; 5664.200;  151.875;    0.000
741.347; 5532.200;  112.875;    0.000
741.543; 5724.200;  113.875;    0.000
741.738; 6022.200;  128.875;    0.000
741.934; 5999.200;  144.875;    0.000
742.129; 6425.200;  105.875;    0.000
742.325; 7357.200;  137.875;    0.000
742.520; 7977.200;  128.875;    0.000
742.716; 7492.200;  121.875;    0.000
742.911; 7094.200;   75.875;    0.000
743.107; 6875.200;  100.875;    0.000
743.302; 6803.200;   72.875;    0.000
743.498; 6799.200;  137.875;    0.000
743.693; 6955.200;  124.875;    0.000
743.888; 7280.200;  121.875;    0.000
744.084; 8468.200;   93.875;    0.000
744.279;10576.200;   75.875;    0.000
744.474;10450.200;  136.875;    0.000
744.670; 9234.200;  109.875;    0.000
744.865; 8583.200;  142.875;    0.000
745.060; 7941.200;   84.875;    0.000
745.255; 7671.200;  149.875;    0.000
745.451; 7366.200;  101.875;    0.000
745.646; 7374.200;  132.875;    0.000
745.841; 7296.200;  126.875;    0.000
746.036; 7451.200;  125.875;    0.000
746.231; 7538.200;  150.875;    0.000
746.426; 7948.200;  118.875;    0.000
746.622; 9390.200;  135.875;    0.000
746.817;12399.200;  122.875;    0.000
747.012;14116.200;  134.875;    0.000
747.207;12294.200;  124.875;    0.000
747.402;10615.200;  122.875;    0.000
747.597; 9870.200;   95.875;    0.000
747.792; 9276.200;  168.875;    0.000
747.987; 8861.200;  110.875;    0.000
748.182; 8802.200;  119.875;    0.000
748.377; 8214.200;   70.875;    0.000
748.572; 7850.200;  113.875;    0.000
748.767; 7719.200;  123.875;    0.000
748.961; 7359.200;  110.875;    0.000
749.156; 7166.200;  135.875;    0.000
749.351; 6990.200;   98.875;    0.000
749.546; 6948.200;  126.875;    0.000
749.741; 6884.200;  129.875;    0.000
749.936; 6854.200;   86.875;    0.000
750.130; 6662.200;   97.875;    0.000
750.325; 6624.200;  110.875;    0.000
750.520; 6537.200;  120.875;    0.000
750.715; 6397.200;  122.875;    0.000
750.909; 6432.200;  120.875;    0.000
751.104; 6468.200;  118.875;    0.000
751.299; 6401.200;  122.875;    0.000
751.493; 6325.200;  129.875;    0.000
751.688; 6325.200;  138.875;    0.000
751.882; 6243.200;   87.875;    0.000
752.077; 6111.200;  142.875;    0.000
752.272; 6247.200;  110.875;    0.000
752.466; 6213.200;  154.875;    0.000
752.661; 6079.200;   96.875;    0.000
752.855; 5982.200;   93.875;    0.000
753.050; 6028.200;  122.875;    0.000
753.244; 6128.200;  110.875;    0.000
753.439; 5821.200;  116.875;    0.000
753.633; 6028.200;  131.875;    0.000
753.828; 5806.200;  130.875;    0.000
754.022; 5847.200;   96.875;    0.000
754.216; 5917.200;  114.875;    0.000
754.411; 5855.200;  145.875;    0.000
754.605; 5773.200;   65.875;    0.000
754.799; 5778.200;  116.875;    0.000
754.994; 5726.200;  117.875;    0.000
755.188; 5837.200;  124.875;    0.000
755.382; 5812.200;   80.875;    0.000
755.576; 5873.200;   90.875;    0.000
755.771; 5732.200;  115.875;    0.000
755.965; 5744.200;  106.875;    0.000
756.159; 5795.200;   87.875;    0.000
756.353; 5819.200;  125.875;    0.000
756.547; 5615.200;  146.875;    0.000
756.742; 5775.200;  111.875;    0.000
756.936; 5669.200;  108.875;    0.000
757.130; 5792.200;  101.875;    0.000
757.324; 5672.200;  114.875;    0.000
757.518; 5790.200;  136.875;    0.000
757.712; 5814.200;  123.875;    0.000
757.906; 5733.200;  115.875;    0.000
758.100; 5819.200;  186.875;    0.000
758.294; 5735.200;  118.875;    0.000
758.488; 5752.200;  167.875;    0.000
758.682; 5812.200;  137.875;    0.000
758.876; 5643.200;  135.875;    0.000
759.070; 5566.200;  132.875;    0.000
759.264; 5756.200;  118.875;    0.000
759.458; 5605.200;  111.875;    0.000
759.651; 5687.200;  142.875;    0.000
759.845; 5642.200;  105.875;    0.000
760.039; 5720.200;   73.875;    0.000
760.233; 5657.200;  156.875;    0.000
760.427; 5647.200;  119.875;    0.000
760.620; 5786.200;  136.875;    0.000
760.814; 5602.200;  126.875;    0.000
761.008; 5709.200;  126.875;    0.000
761.202; 5775.200;  123.875;    0.000
761.395; 5670.200;  141.875;    0.000
761.589; 5690.200;  107.875;    0.000
761.783; 5758.200;  122.875;    0.000
761.976; 5719.200;  120.875;    0.000
762.170; 5812.200;  147.875;    0.000
762.363; 5752.200;  144.875;    0.000
762.557; 5692.200;  119.875;    0.000
762.750; 5724.200;  118.875;    0.000
762.944; 5834.200;  145.875;    0.000
763.138; 5833.200;  123.875;    0.000
763.331; 5779.200;  129.875;    0.000
763.524; 5829.200;  109.875;    0.000
763.718; 5943.200;  150.875;    0.000
763.911; 5852.200;  140.875;    0.000
764.105; 5835.200;   97.875;    0.000
764.298; 5796.200;  128.875;    0.000
764.492; 5635.200;  132.875;    0.000
764.685; 5840.200;   92.875;    0.000
764.878; 5791.200;  111.875;    0.000
765.072; 5762.200;  116.875;    0.000
765.265; 5827.200;  135.875;    0.000
765.458; 5736.200;   69.875;    0.000
765.651; 5773.200;  145.875;    0.000
765.845; 5834.200;   95.875;    0.000
766.038; 5772.200;  147.875;    0.000
766.231; 6112.200;  119.875;    0.000
766.424; 6923.200;  126.875;    0.000
766.617; 7003.200;   92.875;    0.000
766.811; 5994.200;  109.875;    0.000
767.004; 5837.200;  107.875;    0.000
767.197; 5915.200;  171.875;    0.000
767.390; 5848.200;  114.875;    0.000
767.583; 5794.200;  109.875;    0.000
767.776; 5754.200;  130.875;    0.000
767.969; 5875.200;  103.875;    0.000
768.162; 5926.200;  139.875;    0.000
768.355; 5963.200;  142.875;    0.000
768.548; 6010.200;  140.875;    0.000
768.741; 5966.200;   82.875;    0.000
768.934; 6050.200;  107.875;    0.000
769.127; 6038.200;  121.875;    0.000
769.320; 6184.200;  106.875;    0.000
769.513; 6182.200;  145.875;    0.000
769.706; 6306.200;  120.875;    0.000
769.898; 6946.200;  135.875;    0.000
770.091; 6508.200;  146.875;    0.000
770.284; 6317.200;  108.875;    0.000
770.477; 6144.200;  148.875;    0.000
770.670; 6180.200;  163.875;    0.000
770.862; 6298.200;   97.875;    0.000
771.055; 6347.200;  116.875;    0.000
771.248; 6483.200;  143.875;    0.000
771.441; 6393.200;  125.875;    0.000
771.633; 6495.200;  125.875;    0.000
771.826; 6534.200;  132.875;    0.000
772.018; 6624.200;  123.875;    0.000
772.211; 6530.200;  143.875;    0.000
772.404; 6769.200;  144.875;    0.000
772.596; 6780.200;  130.875;    0.000
772.789; 6872.200;  109.875;    0.000
772.981; 6965.200;  151.875;    0.000
773.174; 6912.200;  119.875;    0.000
773.366; 6969.200;  179.875;    0.000
773.559; 7075.200;  106.875;    0.000
773.751; 7281.200;  120.875;    0.000
773.944; 7353.200;  159.875;    0.000
774.136; 7455.200;  131.875;    0.000
774.329; 7567.200;  141.875;    0.000
774.521; 7674.200;  114.875;    0.000
774.713; 7931.200;  169.875;    0.000
774.906; 8221.200;  151.875;    0.000
775.098; 8554.200;   99.875;    0.000
775.290; 8962.200;  166.875;    0.000
775.483; 9446.200;  146.875;    0.000
775.675; 9902.200;  106.875;    0.000
775.867;10545.200;   91.875;    0.000
776.059;11552.200;  137.875;    0.000
776.251;12792.200;  124.875;    0.000
776.444;14500.200;  168.875;    0.000
776.636;17134.199;  138.875;    0.000
776.828;21793.199;  155.875;    0.000
777.020;31923.199;  160.875;    0.000
777.212;48909.199;  153.875;    0.000
777.404;54993.199;  135.875;    0.000
777.596;50312.199;  144.875;    0.000
777.788;36539.199;  127.875;    0.000
777.980;26784.199;  141.875;    0.000
778.172;21417.199;  138.875;    0.000
778.364;18053.199;  143.875;    0.000
778.556;15951.200;  123.875;    0.000
778.748;14194.200;  103.875;    0.000
778.940;12773.200;  176.875;    0.000
779.132;11655.200;  144.875;    0.000
779.324;10769.200;   75.875;    0.000
779.516;10296.200;  117.875;    0.000
779.708; 9662.200;  151.875;    0.000
779.900; 9093.200;  127.875;    0.000
780.091; 8742.200;  155.875;    0.000
780.283; 8491.200;  157.875;    0.000
780.475; 8175.200;  140.875;    0.000
780.667; 7836.200;  141.875;    0.000
780.859; 7727.200;  113.875;    0.000
781.050; 7376.200;  153.875;    0.000
781.242; 7170.200;  118.875;    0.000
781.434; 7210.200;  121.875;    0.000
781.625; 7145.200;  146.875;    0.000
781.817; 6838.200;  154.875;    0.000
782.008; 6787.200;  144.875;    0.000
782.200; 6828.200;  152.875;    0.000
782.392; 6616.200;  160.875;    0.000
782.583; 6471.200;  122.875;    0.000
782.775; 6458.200;  144.875;    0.000
782.966; 6434.200;  143.875;    0.000
783.158; 6389.200;  125.875;    0.000
783.349; 6313.200;  173.875;    0.000
783.541; 6134.200;  166.875;    0.000
783.732; 6128.200;  163.875;    0.000
783.924; 6228.200;  157.875;    0.000
784.115; 6197.200;  158.875;    0.000
784.306; 6091.200;  160.875;    0.000
784.498; 6016.200;  132.875;    0.000
784.689; 5963.200;  181.875;    0.000
784.880; 5959.200;  156.875;    0.000
785.072; 5893.200;  134.875;    0.000
785.263; 5878.200;  155.875;    0.000
785.454; 5847.200;  141.875;    0.000
785.645; 5816.200;  114.875;    0.000
785.837; 5720.200;  137.875;    0.000
786.028; 5673.200;  158.875;    0.000
786.219; 5876.200;  135.875;    0.000
786.410; 5644.200;  152.875;    0.000
786.601; 5639.200;  132.875;    0.000
786.792; 5685.200;  152.875;    0.000
786.984; 5659.200;  162.875;    0.000
787.175; 5715.200;   97.875;    0.000
787.366; 5683.200;  129.875;    0.000
787.557; 5706.200;  135.875;    0.000
787.748; 5637.200;  127.875;    0.000
787.939; 5628.200;  152.875;    0.000
788.130; 5580.200;  182.875;    0.000
788.321; 5626.200;  130.875;    0.000
788.512; 5678.200;  161.875;    0.000
788.703; 5689.200;  127.875;    0.000
788.894; 5631.200;  121.875;    0.000
789.084; 5665.200;  134.875;    0.000
789.275; 5636.200;  108.875;    0.000
789.466; 5708.200;  152.875;    0.000
789.657; 5681.200;  115.875;    0.000
789.848; 5704.200;  150.875;    0.000
790.039; 5575.200;  132.875;    0.000
790.229; 5683.200;  169.875;    0.000
790.420; 5605.200;  159.875;    0.000
790.611; 5569.200;  123.875;    0.000
790.801; 5555.200;  144.875;    0.000
790.992; 5676.200;  177.875;    0.000
791.183; 5662.200;  128.875;    0.000
791.373; 5669.200;  123.875;    0.000
791.564; 5755.200;  131.875;    0.000
791.755; 5560.200;  103.875;    0.000
791.945; 5711.200;  104.875;    0.000
792.136; 5686.200;  115.875;    0.000
792.326; 5615.200;   99.875;    0.000
792.517; 5614.200;  139.875;    0.000
792.707; 5691.200;  155.875;    0.000
792.898; 5800.200;  139.875;    0.000
793.088; 5956.200;  153.875;    0.000
793.279; 6046.200;  137.875;    0.000
793.469; 6080.200;  109.875;    0.000
793.660; 6234.200;  119.875;    0.000
793.850; 6253.200;  119.875;    0.000
794.040; 6509.200;  132.875;    0.000
794.231; 6842.200;  122.875;    0.000
794.421; 7439.200;  124.875;    0.000
794.611; 8552.200;  151.875;    0.000
794.802; 9875.200;  121.875;    0.000
794.992;10549.200;  139.875;    0.000
795.182;10972.200;  132.875;    0.000
795.372;10030.200;  149.875;    0.000
795.563; 8819.200;  153.875;    0.000
795.753; 7950.200;  120.875;    0.000
795.943; 7431.200;  121.875;    0.000
796.133; 7071.200;   97.875;    0.000
796.323; 6848.200;  122.875;    0.000
796.513; 6446.200;  142.875;    0.000
796.703; 6460.200;  125.875;    0.000
796.893; 6164.200;  126.875;    0.000
797.083; 6038.200;  150.875;    0.000
797.273; 6067.200;  108.875;    0.000
797.463; 5948.200;  156.875;    0.000
797.653; 5909.200;   80.875;    0.000
797.843; 5683.200;   88.875;    0.000
798.033; 5674.200;   96.875;    0.000
798.223; 5576.200;  159.875;    0.000
798.413; 5641.200;  155.875;    0.000
798.603; 5403.200;  125.875;    0.000
798.793; 5628.200;  141.875;    0.000
798.983; 5480.200;  113.875;    0.000
799.172; 5399.200;   85.875;    0.000
799.362; 5469.200;  141.875;    0.000
799.552; 5188.200;  122.875;    0.000
799.742; 5283.200;  124.875;    0.000
799.932; 5239.200;  102.875;    0.000
800.121; 5272.200;  146.875;    0.000
800.311; 5249.200;  122.875;    0.000
800.501; 5391.200;  120.875;    0.000
800.690; 5248.200;  141.875;    0.000
800.880; 5306.200;  146.875;    0.000
801.070; 5269.200;  122.875;    0.000
801.259; 5265.200;  138.875;    0.000
801.449; 5234.200;  115.875;    0.000
801.638; 5405.200;  132.875;    0.000
801.828; 5282.200;   92.875;    0.000
802.017; 5221.200;  150.875;    0.000
802.207; 5251.200;  134.875;    0.000
802.396; 5256.200;  133.875;    0.000
802.586; 5119.200;  117.875;    0.000
802.775; 5244.200;  155.875;    0.000
802.965; 5209.200;  132.875;    0.000
803.154; 5140.200;  176.875;    0.000
803.343; 5093.200;  106.875;    0.000
803.533; 5176.200;  154.875;    0.000
803.722; 5105.200;   97.875;    0.000
803.911; 5233.200;  107.875;    0.000
804.101; 5271.200;  145.875;    0.000
804.290; 5189.200;  130.875;    0.000
804.479; 5215.200;  152.875;    0.000
804.668; 5113.200;  160.875;    0.000
804.857; 5225.200;  161.875;    0.000
805.047; 5190.200;  126.875;    0.000
805.236; 5191.200;  136.875;    0.000
805.425; 5220.200;  153.875;    0.000
805.614; 5133.200;  139.875;    0.000
805.803; 5169.200;  144.875;    0.000
805.992; 5190.200;  160.875;    0.000
806.181; 5166.200;  139.875;    0.000
806.370; 5371.200;  104.875;    0.000
806.559; 5367.200;  103.875;    0.000
806.748; 5291.200;  145.875;    0.000
806.937; 5342.200;  151.875;    0.000
807.126; 5356.200;  119.875;    0.000
807.315; 5318.200;  139.875;    0.000
807.504; 5280.200;  143.875;    0.000
807.693; 5376.200;  164.875;    0.000
807.882; 5372.200;  135.875;    0.000
808.071; 5421.200;  131.875;    0.000
808.260; 5394.200;  113.875;    0.000
808.448; 5429.200;  161.875;    0.000
808.637; 5439.200;  125.875;    0.000
808.826; 5483.200;  155.875;    0.000
809.015; 5465.200;  113.875;    0.000
809.203; 5516.200;  152.875;    0.000
809.392; 5551.200;   90.875;    0.000
809.581; 5680.200;  186.875;    0.000
809.770; 5590.200;   99.875;    0.000
809.958; 5711.200;  146.875;    0.000
810.147; 5739.200;  115.875;    0.000
810.335; 5866.200;  122.875;    0.000
810.524; 5907.200;  150.875;    0.000
810.713; 5884.200;  121.875;    0.000
810.901; 5940.200;  156.875;    0.000
811.090; 6196.200;  161.875;    0.000
811.278; 6102.200;  138.875;    0.000
811.467; 6328.200;  184.875;    0.000
811.655; 6535.200;  150.875;    0.000
811.844; 6433.200;  137.875;    0.000
812.032; 6559.200;  142.875;    0.000
812.220; 6628.200;  134.875;    0.000
812.409; 6475.200;  143.875;    0.000
812.597; 6664.200;  164.875;    0.000
812.785; 6831.200;  188.875;    0.000
812.974; 6760.200;  156.875;    0.000
813.162; 6713.200;  166.875;    0.000
813.350; 7034.200;  115.875;    0.000
813.539; 6885.200;  167.875;    0.000
813.727; 6980.200;  165.875;    0.000
813.915; 7155.200;  137.875;    0.000
814.103; 7253.200;  166.875;    0.000
814.291; 7242.200;  151.875;    0.000
814.479; 7409.200;  147.875;    0.000
814.668; 7437.200;  166.875;    0.000
814.856; 7750.200;  160.875;    0.000
815.044; 7951.200;  172.875;    0.000
815.232; 8218.200;  193.875;    0.000
815.420; 8367.200;  173.875;    0.000
815.608; 8709.200;  134.875;    0.000
815.796; 8878.200;  105.875;    0.000
815.984; 9290.200;  125.875;    0.000
816.172; 9462.200;  160.875;    0.000
816.360; 9890.200;  162.875;    0.000
816.548;10371.200;  160.875;    0.000
816.736;10918.200;  132.875;    0.000
816.924;11950.200;  184.875;    0.000
817.111;12566.200;  145.875;    0.000
817.299;13772.200;  132.875;    0.000
817.487;15504.200;  193.875;    0.000
817.675;17824.199;  153.875;    0.000
817.863;22168.199;  153.875;    0.000
818.050;31796.199;  172.875;    0.000
818.238;56425.199;  131.875;    0.000
818.426;65189.199;  160.875;    0.000
818.613;59667.199;  136.875;    0.000
818.801;47141.199;  162.875;    0.000
818.989;44173.199;  153.875;    0.000
819.176;48783.199;  181.875;    0.000
819.364;65189.199;  165.875;    0.000
819.552;65189.199;  111.875;    0.000
819.739;65189.199;  192.875;    0.000
819.927;55985.199;  146.875;    0.000
820.114;45124.199;  154.875;    0.000
820.302;37858.199;  144.875;    0.000
820.489;32709.199;  133.875;    0.000
820.677;29216.199;  135.875;    0.000
820.864;26641.199;  130.875;    0.000
821.052;25609.199;   88.875;    0.000
821.239;24492.199;  143.875;    0.000
821.426;24539.199;  186.875;    0.000
821.614;26871.199;  171.875;    0.000
821.801;27419.199;   90.875;    0.000
821.988;24141.199;  143.875;    0.000
822.176;22781.199;   95.875;    0.000
822.363;22760.199;  148.875;    0.000
822.550;20798.199;  139.875;    0.000
822.737;18622.199;  122.875;    0.000
822.924;17181.199;  171.875;    0.000
823.112;16251.200;  147.875;    0.000
823.299;15141.200;  111.875;    0.000
823.486;14522.200;  161.875;    0.000
823.673;13416.200;  124.875;    0.000
823.860;13013.200;  151.875;    0.000
824.047;13026.200;  145.875;    0.000
824.234;14049.200;  139.875;    0.000
824.421;14068.200;  110.875;    0.000
824.608;12609.200;  145.875;    0.000
824.795;11453.200;  115.875;    0.000
824.982;10766.200;  148.875;    0.000
825.169;10101.200;  135.875;    0.000
825.356; 9773.200;  122.875;    0.000
825.543; 9303.200;  142.875;    0.000
825.730; 8843.200;   89.875;    0.000
825.917; 8534.200;  127.875;    0.000
826.104; 8227.200;  187.875;    0.000
826.290; 7991.200;  138.875;    0.000
826.477; 7750.200;  140.875;    0.000
826.664; 7546.200;  106.875;    0.000
826.851; 7398.200;  155.875;    0.000
827.038; 7092.200;  125.875;    0.000
827.224; 7012.200;  126.875;    0.000
827.411; 6914.200;  163.875;    0.000
827.598; 6718.200;  140.875;    0.000
827.784; 6706.200;  117.875;    0.000
827.971; 6513.200;  114.875;    0.000
828.157; 6389.200;  146.875;    0.000
828.344; 6244.200;  161.875;    0.000
828.531; 6160.200;  155.875;    0.000
828.717; 6110.200;  130.875;    0.000
828.904; 6037.200;  138.875;    0.000
829.090; 6123.200;  176.875;    0.000
829.277; 5873.200;  152.875;    0.000
829.463; 5785.200;  139.875;    0.000
829.650; 5716.200;  168.875;    0.000
829.836; 5683.200;  176.875;    0.000
830.022; 5534.200;  159.875;    0.000
830.209; 5421.200;  135.875;    0.000
830.395; 5385.200;  177.875;    0.000
830.581; 5213.200;  125.875;    0.000
830.768; 5168.200;  155.875;    0.000
830.954; 5176.200;  187.875;    0.000
831.140; 5143.200;  135.875;    0.000
831.327; 5015.200;  158.875;    0.000
831.513; 5085.200;  126.875;    0.000
831.699; 5055.200;  167.875;    0.000
831.885; 4959.200;  165.875;    0.000
832.071; 4962.200;  167.875;    0.000
832.257; 4734.200;  144.875;    0.000
832.444; 4815.200;  158.875;    0.000
832.630; 4840.200;  167.875;    0.000
832.816; 4758.200;  150.875;    0.000
833.002; 4624.200;  157.875;    0.000
833.188; 4610.200;  169.875;    0.000
833.374; 4626.200;  144.875;    0.000
833.560; 4669.200;  179.875;    0.000
833.746; 4566.200;  134.875;    0.000
833.932; 4415.200;  150.875;    0.000
834.118; 4434.200;   98.875;    0.000
834.303; 4424.200;  121.875;    0.000
834.489; 4427.200;  179.875;    0.000
834.675; 4410.200;  136.875;    0.000
834.861; 4348.200;  130.875;    0.000
835.047; 4264.200;  132.875;    0.000
835.233; 4299.200;  104.875;    0.000
835.418; 4326.200;  143.875;    0.000
835.604; 4224.200;  127.875;    0.000
835.790; 4305.200;  138.875;    0.000
835.976; 4245.200;  137.875;    0.000
836.161; 4178.200;  155.875;    0.000
836.347; 4016.200;  101.875;    0.000
836.533; 4169.200;  121.875;    0.000
836.718; 4219.200;  150.875;    0.000
836.904; 4125.200;  168.875;    0.000
837.089; 3986.200;  169.875;    0.000
837.275; 4091.200;  172.875;    0.000
837.460; 4109.200;  140.875;    0.000
837.646; 4148.200;  144.875;    0.000
837.831; 4149.200;  137.875;    0.000
838.017; 4052.200;  176.875;    0.000
838.202; 4002.200;  107.875;    0.000
838.388; 4051.200;  181.875;    0.000
838.573; 4073.200;  151.875;    0.000
838.759; 4037.200;  160.875;    0.000
838.944; 4001.200;  121.875;    0.000
839.129; 4050.200;  145.875;    0.000
839.315; 4000.200;  166.875;    0.000
839.500; 4007.200;  143.875;    0.000
839.685; 3949.200;   93.875;    0.000
839.870; 4035.200;  160.875;    0.000
840.056; 4010.200;  132.875;    0.000
840.241; 3947.200;  154.875;    0.000
840.426; 4020.200;  161.875;    0.000
840.611; 4013.200;  186.875;    0.000
840.796; 4036.200;  135.875;    0.000
840.981; 4072.200;  147.875;    0.000
841.166; 4038.200;  138.875;    0.000
841.352; 4145.200;  156.875;    0.000
841.537; 4033.200;  170.875;    0.000
841.722; 4123.200;  143.875;    0.000
841.907; 4171.200;  143.875;    0.000
842.092; 4304.200;  166.875;    0.000
842.277; 4275.200;  113.875;    0.000
842.461; 4327.200;  126.875;    0.000
842.646; 4432.200;  145.875;    0.000
842.831; 4682.200;  193.875;    0.000
843.016; 4695.200;  162.875;    0.000
843.201; 4826.200;  144.875;    0.000
843.386; 4960.200;  160.875;    0.000
843.571; 5267.200;  136.875;    0.000
843.755; 5542.200;  134.875;    0.000
843.940; 5918.200;  136.875;    0.000
844.125; 6776.200;  169.875;    0.000
844.310; 8011.200;  189.875;    0.000
844.494;11086.200;  167.875;    0.000
844.679;15382.200;  184.875;    0.000
844.864;15346.200;  147.875;    0.000
845.048;12149.200;  140.875;    0.000
845.233; 9658.200;  178.875;    0.000
845.418; 8232.200;  145.875;    0.000
845.602; 7264.200;  147.875;    0.000
845.787; 6672.200;  147.875;    0.000
845.971; 6059.200;  165.875;    0.000
846.156; 5624.200;  106.875;    0.000
846.340; 5313.200;  168.875;    0.000
846.525; 5109.200;  155.875;    0.000
846.709; 4809.200;  157.875;    0.000
846.893; 4516.200;  166.875;    0.000
847.078; 4577.200;  138.875;    0.000
847.262; 4407.200;  171.875;    0.000
847.447; 4175.200;  135.875;    0.000
847.631; 4061.200;  136.875;    0.000
847.815; 4013.200;  136.875;    0.000
848.000; 3935.200;  126.875;    0.000
848.184; 3894.200;  131.875;    0.000
848.368; 3900.200;  153.875;    0.000
848.552; 3781.200;  137.875;    0.000
848.736; 3707.200;  151.875;    0.000
848.921; 3660.200;  156.875;    0.000
849.105; 3710.200;  153.875;    0.000
849.289; 3757.200;  180.875;    0.000
849.473; 3495.200;  156.875;    0.000
849.657; 3560.200;  157.875;    0.000
849.841; 3503.200;  147.875;    0.000
850.025; 3474.200;  194.875;    0.000
850.209; 3449.200;  147.875;    0.000
850.393; 3460.200;  141.875;    0.000
850.577; 3483.200;  156.875;    0.000
850.761; 3408.200;  157.875;    0.000
850.945; 3336.200;  128.875;    0.000
851.129; 3393.200;  151.875;    0.000
851.313; 3403.200;  180.875;    0.000
851.497; 3346.200;  123.875;    0.000
851.680; 3361.200;  188.875;    0.000
851.864; 3455.200;  177.875;    0.000
852.048; 3357.200;  163.875;    0.000
852.232; 3330.200;  149.875;    0.000
852.416; 3348.200;  187.875;    0.000
852.599; 3279.200;  169.875;    0.000
852.783; 3276.200;  154.875;    0.000
852.967; 3433.200;  191.875;    0.000
853.150; 3358.200;  170.875;    0.000
853.334; 3235.200;  173.875;    0.000
853.518; 3222.200;  186.875;    0.000
853.701; 3215.200;  142.875;    0.000
853.885; 3091.200;  153.875;    0.000
854.068; 3332.200;  132.875;    0.000
854.252; 3356.200;  184.875;    0.000
854.435; 3294.200;  152.875;    0.000
854.619; 3188.200;  152.875;    0.000
854.802; 3220.200;  164.875;    0.000
854.986; 3209.200;  151.875;    0.000
855.169; 3275.200;  153.875;    0.000
855.353; 3302.200;  183.875;    0.000
855.536; 3227.200;  113.875;    0.000
855.719; 3221.200;  181.875;    0.000
855.903; 3261.200;  159.875;    0.000
856.086; 3222.200;  142.875;    0.000
856.269; 3298.200;  171.875;    0.000
856.452; 3314.200;  132.875;    0.000
856.636; 3499.200;  140.875;    0.000
856.819; 3819.200;  165.875;    0.000
857.002; 3888.200;  170.875;    0.000
857.185; 3676.200;  173.875;    0.000
857.368; 3734.200;  129.875;    0.000
857.552; 3574.200;  151.875;    0.000
857.735; 3508.200;  146.875;    0.000
857.918; 3505.200;  114.875;    0.000
858.101; 3435.200;  152.875;    0.000
858.284; 3514.200;  164.875;    0.000
858.467; 3576.200;  147.875;    0.000
858.650; 3701.200;  146.875;    0.000
858.833; 3649.200;  118.875;    0.000
859.016; 3774.200;  161.875;    0.000
859.199; 3914.200;  135.875;    0.000
859.382; 4407.200;  157.875;    0.000
859.564; 4615.200;  124.875;    0.000
859.747; 4491.200;  154.875;    0.000
859.930; 4186.200;  138.875;    0.000
860.113; 4056.200;  153.875;    0.000
860.296; 4094.200;  180.875;    0.000
860.478; 3782.200;  145.875;    0.000
860.661; 3756.200;  160.875;    0.000
860.844; 3696.200;   96.875;    0.000
861.027; 3771.200;  128.875;    0.000
861.209; 3670.200;  127.875;    0.000
861.392; 3680.200;  126.875;    0.000
861.575; 3763.200;  155.875;    0.000
861.757; 3813.200;  141.875;    0.000
861.940; 3854.200;  181.875;    0.000
862.122; 3848.200;  145.875;    0.000
862.305; 3963.200;  124.875;    0.000
862.487; 4140.200;  151.875;    0.000
862.670; 4535.200;  132.875;    0.000
862.852; 5610.200;  112.875;    0.000
863.035; 6751.200;  116.875;    0.000
863.217; 6602.200;  131.875;    0.000
863.400; 5807.200;  145.875;    0.000
863.582; 5360.200;  147.875;    0.000
863.764; 5056.200;  163.875;    0.000
863.947; 4748.200;  129.875;    0.000
864.129; 4602.200;  159.875;    0.000
864.311; 4440.200;  144.875;    0.000
864.493; 4353.200;  141.875;    0.000
864.676; 4337.200;  159.875;    0.000
864.858; 4259.200;  146.875;    0.000
865.040; 4196.200;  163.875;    0.000
865.222; 4227.200;  133.875;    0.000
865.404; 4293.200;  148.875;    0.000
865.587; 4533.200;  177.875;    0.000
865.769; 4790.200;  172.875;    0.000
865.951; 4731.200;  145.875;    0.000
866.133; 4786.200;  168.875;    0.000
866.315; 4667.200;  147.875;    0.000
866.497; 4691.200;  164.875;    0.000
866.679; 4882.200;  143.875;    0.000
866.861; 5076.200;  170.875;    0.000
867.043; 5166.200;  185.875;    0.000
867.225; 5484.200;  149.875;    0.000
867.407; 6136.200;  143.875;    0.000
867.589; 6946.200;  169.875;    0.000
867.770; 8679.200;  166.875;    0.000
867.952;12510.200;  158.875;    0.000
868.134;16919.199;  170.875;    0.000
868.316;16773.199;  157.875;    0.000
868.498;15952.200;  186.875;    0.000
868.679;13462.200;  158.875;    0.000
868.861;11114.200;  180.875;    0.000
869.043; 9068.200;  164.875;    0.000
869.224; 7843.200;  156.875;    0.000
869.406; 6971.200;  176.875;    0.000
869.588; 6448.200;  152.875;    0.000
869.769; 6240.200;  131.875;    0.000
869.951; 6027.200;  203.875;    0.000
870.132; 6146.200;  143.875;    0.000
870.314; 7000.200;  129.875;    0.000
870.495; 7273.200;  175.875;    0.000
870.677; 6549.200;  165.875;    0.000
870.858; 6154.200;  151.875;    0.000
871.040; 6544.200;  155.875;    0.000
871.221; 7599.200;  144.875;    0.000
871.403; 7153.200;  131.875;    0.000
871.584; 6469.200;  174.875;    0.000
871.765; 6370.200;  169.875;    0.000
871.947; 7019.200;  187.875;    0.000
872.128; 6304.200;  181.875;    0.000
872.309; 5495.200;  129.875;    0.000
872.491; 4851.200;  142.875;    0.000
872.672; 4560.200;  158.875;    0.000
872.853; 4550.200;  179.875;    0.000
873.034; 4449.200;  164.875;    0.000
873.215; 4244.200;  168.875;    0.000
873.396; 3884.200;  114.875;    0.000
873.578; 3761.200;  126.875;    0.000
873.759; 3686.200;  177.875;    0.000
873.940; 3473.200;  169.875;    0.000
874.121; 3467.200;  133.875;    0.000
874.302; 3313.200;  164.875;    0.000
874.483; 3259.200;  162.875;    0.000
874.664; 3382.200;  140.875;    0.000
874.845; 3371.200;  124.875;    0.000
875.026; 3200.200;  146.875;    0.000
875.207; 3183.200;  147.875;    0.000
875.388; 3186.200;  174.875;    0.000
875.568; 3072.200;  179.875;    0.000
875.749; 2988.200;  155.875;    0.000
875.930; 2923.200;  166.875;    0.000
876.111; 2972.200;  153.875;    0.000
876.292; 2928.200;  146.875;    0.000
876.472; 2849.200;  167.875;    0.000
876.653; 2853.200;  145.875;    0.000
876.834; 2916.200;  172.875;    0.000
877.015; 2851.200;  184.875;    0.000
877.195; 2765.200;  160.875;    0.000
877.376; 2723.200;  163.875;    0.000
877.556; 2861.200;  164.875;    0.000
877.737; 2783.200;  179.875;    0.000
877.918; 2744.200;  137.875;    0.000
878.098; 2727.200;  117.875;    0.000
878.279; 2626.200;  135.875;    0.000
878.459; 2683.200;  149.875;    0.000
878.640; 2696.200;  171.875;    0.000
878.820; 2715.200;  142.875;    0.000
879.000; 2674.200;  166.875;    0.000
879.181; 2724.200;  177.875;    0.000
879.361; 2600.200;  176.875;    0.000
879.542; 2637.200;  159.875;    0.000
879.722; 2646.200;  122.875;    0.000
879.902; 2668.200;  166.875;    0.000
880.083; 2637.200;  164.875;    0.000
880.263; 2589.200;  139.875;    0.000
880.443; 2571.200;  179.875;    0.000
880.623; 2580.200;  154.875;    0.000
880.803; 2657.200;  160.875;    0.000
880.984; 2647.200;  181.875;    0.000
881.164; 2545.200;  167.875;    0.000
881.344; 2570.200;  141.875;    0.000
881.524; 2635.200;  190.875;    0.000
881.704; 2843.200;  165.875;    0.000
881.884; 2910.200;  144.875;    0.000
882.064; 3063.200;  135.875;    0.000
882.244; 3180.200;  186.875;    0.000
882.424; 2882.200;  150.875;    0.000
882.604; 2806.200;  168.875;    0.000
882.784; 2760.200;  155.875;    0.000
882.964; 2640.200;  137.875;    0.000
883.144; 2545.200;  136.875;    0.000
883.324; 2602.200;  200.875;    0.000
883.504; 2526.200;  203.875;    0.000
883.683; 2543.200;  149.875;    0.000
883.863; 2509.200;  160.875;    0.000
884.043; 2465.200;  161.875;    0.000
884.223; 2474.200;  147.875;    0.000
884.402; 2450.200;  175.875;    0.000
884.582; 2432.200;  188.875;    0.000
884.762; 2497.200;  173.875;    0.000
884.941; 2405.200;  164.875;    0.000
885.121; 2380.200;  147.875;    0.000
885.301; 2526.200;  135.875;    0.000
885.480; 2349.200;  145.875;    0.000
885.660; 2399.200;  144.875;    0.000
885.839; 2389.200;  155.875;    0.000
886.019; 2413.200;  207.875;    0.000
886.198; 2358.200;  165.875;    0.000
886.378; 2313.200;  120.875;    0.000
886.557; 2340.200;  133.875;    0.000
886.737; 2313.200;  119.875;    0.000
886.916; 2403.200;  129.875;    0.000
887.095; 2330.200;  158.875;    0.000
887.275; 2319.200;  169.875;    0.000
887.454; 2323.200;  184.875;    0.000
887.633; 2311.200;  143.875;    0.000
887.813; 2294.200;  154.875;    0.000
887.992; 2298.200;  188.875;    0.000
888.171; 2228.200;  176.875;    0.000
888.350; 2330.200;  161.875;    0.000
888.530; 2204.200;  163.875;    0.000
888.709; 2298.200;  136.875;    0.000
888.888; 2298.200;  177.875;    0.000
889.067; 2297.200;  169.875;    0.000
889.246; 2318.200;  188.875;    0.000
889.425; 2309.200;  187.875;    0.000
889.604; 2270.200;  169.875;    0.000
889.783; 2254.200;  182.875;    0.000
889.962; 2193.200;  112.875;    0.000
890.141; 2208.200;  231.875;    0.000
890.320; 2257.200;  161.875;    0.000
890.499; 2200.200;  164.875;    0.000
890.678; 2186.200;  176.875;    0.000
890.857; 2231.200;  163.875;    0.000
891.036; 2159.200;  161.875;    0.000
891.214; 2235.200;  156.875;    0.000
891.393; 2321.200;  167.875;    0.000
891.572; 2328.200;  163.875;    0.000
891.751; 2184.200;  205.875;    0.000
891.930; 2256.200;  162.875;    0.000
892.108; 2198.200;  153.875;    0.000
892.287; 2161.200;  153.875;    0.000
892.466; 2267.200;  201.875;    0.000
892.644; 2259.200;  158.875;    0.000
892.823; 2181.200;  122.875;    0.000
893.001; 2264.200;  148.875;    0.000
893.180; 2245.200;  142.875;    0.000
893.359; 2306.200;  192.875;    0.000
893.537; 2274.200;  166.875;    0.000
893.716; 2197.200;  144.875;    0.000
893.894; 2165.200;  145.875;    0.000
894.073; 2207.200;  180.875;    0.000
894.251; 2242.200;  165.875;    0.000
894.429; 2184.200;  182.875;    0.000
894.608; 2183.200;  181.875;    0.000
894.786; 2255.200;  180.875;    0.000
894.964; 2246.200;  207.875;    0.000
895.143; 2260.200;  190.875;    0.000
895.321; 2187.200;  206.875;    0.000
895.499; 2202.200;  164.875;    0.000
895.677; 2242.200;  199.875;    0.000
895.856; 2236.200;  203.875;    0.000
896.034; 2127.200;  200.875;    0.000
896.212; 2288.200;  198.875;    0.000
896.390; 2202.200;  161.875;    0.000
896.568; 2244.200;  205.875;    0.000
896.746; 2237.200;  185.875;    0.000
896.924; 2266.200;  179.875;    0.000
897.102; 2287.200;  190.875;    0.000
897.280; 2150.200;  160.875;    0.000
897.458; 2307.200;  196.875;    0.000
897.636; 2269.200;  168.875;    0.000
897.814; 2242.200;  159.875;    0.000
897.992; 2284.200;  216.875;    0.000
898.170; 2254.200;  195.875;    0.000
898.348; 2268.200;  185.875;    0.000
898.526; 2361.200;  199.875;    0.000
898.704; 2388.200;  215.875;    0.000
898.882; 2271.200;  195.875;    0.000
899.059; 2366.200;  197.875;    0.000
899.237; 2301.200;  168.875;    0.000
899.415; 2393.200;  221.875;    0.000
899.593; 2263.200;  171.875;    0.000
899.770; 2314.200;  191.875;    0.000
899.948; 2356.200;  206.875;    0.000
900.125; 2283.200;  175.875;    0.000
900.303; 2315.200;  176.875;    0.000
900.481; 2318.200;  199.875;    0.000
900.658; 2392.200;  217.875;    0.000
900.836; 2337.200;  192.875;    0.000
901.013; 2390.200;  221.875;    0.000
901.191; 2478.200;  203.875;    0.000
901.368; 2408.200;  189.875;    0.000
901.546; 2539.200;  212.875;    0.000
901.723; 2509.200;  189.875;    0.000
901.901; 2586.200;  198.875;    0.000
902.078; 2674.200;  193.875;    0.000
902.255; 2631.200;  176.875;    0.000
902.433; 2656.200;  201.875;    0.000
902.610; 2743.200;  170.875;    0.000
902.787; 2658.200;  164.875;    0.000
902.964; 2874.200;  216.875;    0.000
903.142; 2824.200;  153.875;    0.000
903.319; 2943.200;  204.875;    0.000
903.496; 2984.200;  188.875;    0.000
903.673; 3014.200;  209.875;    0.000
903.850; 2948.200;  173.875;    0.000
904.027; 3165.200;  186.875;    0.000
904.204; 3268.200;  241.875;    0.000
904.381; 3563.200;  187.875;    0.000
904.558; 4158.200;  196.875;    0.000
904.735; 4939.200;  206.875;    0.000
904.912; 4929.200;  228.875;    0.000
905.089; 4851.200;  172.875;    0.000
905.266; 4456.200;  175.875;    0.000
905.443; 4024.200;  239.875;    0.000
905.620; 3658.200;  176.875;    0.000
905.797; 3535.200;  205.875;    0.000
905.974; 3300.200;  187.875;    0.000
906.151; 3387.200;  135.875;    0.000
906.327; 3459.200;  209.875;    0.000
906.504; 3392.200;  145.875;    0.000
906.681; 3224.200;  178.875;    0.000
906.858; 3047.200;  179.875;    0.000
907.034; 3134.200;  221.875;    0.000
907.211; 2992.200;  166.875;    0.000
907.388; 2915.200;  206.875;    0.000
907.564; 2859.200;  150.875;    0.000
907.741; 2826.200;  187.875;    0.000
907.917; 2640.200;  180.875;    0.000
908.094; 2731.200;  206.875;    0.000
908.271; 2738.200;  184.875;    0.000
908.447; 2710.200;  212.875;    0.000
908.623; 2634.200;  193.875;    0.000
908.800; 2599.200;  185.875;    0.000
908.976; 2560.200;  202.875;    0.000
909.153; 2666.200;  175.875;    0.000
909.329; 2604.200;  193.875;    0.000
909.505; 2632.200;  154.875;    0.000
909.682; 2534.200;  188.875;    0.000
909.858; 2525.200;  162.875;    0.000
910.034; 2460.200;  181.875;    0.000
910.211; 2437.200;  142.875;    0.000
910.387; 2493.200;  200.875;    0.000
910.563; 2482.200;  163.875;    0.000
910.739; 2377.200;  156.875;    0.000
910.915; 2351.200;  202.875;    0.000
911.091; 2425.200;  186.875;    0.000
911.268; 2361.200;  167.875;    0.000
911.444; 2432.200;  193.875;    0.000
911.620; 2399.200;  175.875;    0.000
911.796; 2270.200;  168.875;    0.000
911.972; 2353.200;  154.875;    0.000
912.148; 2305.200;  201.875;    0.000
912.324; 2367.200;  146.875;    0.000
912.500; 2408.200;  185.875;    0.000
912.676; 2368.200;  183.875;    0.000
912.851; 2367.200;  204.875;    0.000
913.027; 2377.200;  196.875;    0.000
913.203; 2366.200;  174.875;    0.000
913.379; 2257.200;  210.875;    0.000
913.555; 2325.200;  197.875;    0.000
913.730; 2292.200;  209.875;    0.000
913.906; 2341.200;  169.875;    0.000
914.082; 2298.200;  236.875;    0.000
914.258; 2289.200;  216.875;    0.000
914.433; 2315.200;  212.875;    0.000
914.609; 2289.200;  180.875;    0.000
914.784; 2295.200;  176.875;    0.000
914.960; 2334.200;  227.875;    0.000
915.136; 2293.200;  149.875;    0.000
915.311; 2382.200;  165.875;    0.000
915.487; 2327.200;  167.875;    0.000
915.662; 2370.200;  225.875;    0.000
915.838; 2440.200;  165.875;    0.000
916.013; 2439.200;  188.875;    0.000
916.189; 2324.200;  200.875;    0.000
916.364; 2364.200;  201.875;    0.000
916.539; 2276.200;  240.875;    0.000
916.715; 2373.200;  180.875;    0.000
916.890; 2360.200;  191.875;    0.000
917.065; 2275.200;  211.875;    0.000
917.240; 2351.200;  212.875;    0.000
917.416; 2321.200;  207.875;    0.000
917.591; 2303.200;  189.875;    0.000
917.766; 2365.200;  205.875;    0.000
917.941; 2274.200;  191.875;    0.000
918.116; 2328.200;  195.875;    0.000
918.292; 2243.200;  183.875;    0.000
918.467; 2286.200;  206.875;    0.000
918.642; 2275.200;  190.875;    0.000
918.817; 2388.200;  193.875;    0.000
918.992; 2321.200;  171.875;    0.000
919.167; 2356.200;  191.875;    0.000
919.342; 2376.200;  202.875;    0.000
919.517; 2366.200;  182.875;    0.000
919.692; 2363.200;  190.875;    0.000
919.867; 2313.200;  221.875;    0.000
920.041; 2351.200;  195.875;    0.000
920.216; 2365.200;  226.875;    0.000
920.391; 2530.200;  230.875;    0.000
920.566; 2448.200;  210.875;    0.000
920.741; 2465.200;  204.875;    0.000
920.915; 2690.200;  213.875;    0.000
921.090; 2907.200;  194.875;    0.000
921.265; 3624.200;  234.875;    0.000
921.439; 4089.200;  228.875;    0.000
921.614; 3615.200;  199.875;    0.000
921.789; 3146.200;  194.875;    0.000
921.963; 2994.200;  236.875;    0.000
922.138; 2843.200;  192.875;    0.000
922.312; 2825.200;  203.875;    0.000
922.487; 2962.200;  207.875;    0.000
922.661; 2994.200;  216.875;    0.000
922.836; 3534.200;  199.875;    0.000
923.010; 3614.200;  179.875;    0.000
923.185; 3309.200;  241.875;    0.000
923.359; 3082.200;  199.875;    0.000
923.534; 2946.200;  227.875;    0.000
923.708; 3180.200;  213.875;    0.000
923.882; 3472.200;  203.875;    0.000
924.057; 3227.200;  194.875;    0.000
924.231; 3010.200;  185.875;    0.000
924.405; 2950.200;  223.875;    0.000
924.579; 2841.200;  196.875;    0.000
924.753; 2801.200;  209.875;    0.000
924.928; 2742.200;  202.875;    0.000
925.102; 2744.200;  184.875;    0.000
925.276; 2810.200;  191.875;    0.000
925.450; 2857.200;  199.875;    0.000
925.624; 3043.200;  190.875;    0.000
925.798; 3026.200;  214.875;    0.000
925.972; 3249.200;  193.875;    0.000
926.146; 3522.200;  191.875;    0.000
926.320; 3933.200;  177.875;    0.000
926.494; 4240.200;  190.875;    0.000
926.668; 4382.200;  182.875;    0.000
926.842; 4661.200;  182.875;    0.000
927.016; 4654.200;  235.875;    0.000
927.190; 4517.200;  234.875;    0.000
927.363; 4381.200;  214.875;    0.000
927.537; 4304.200;  198.875;    0.000
927.711; 3999.200;  154.875;    0.000
927.885; 3864.200;  167.875;    0.000
928.058; 3763.200;  210.875;    0.000
928.232; 3723.200;  206.875;    0.000
928.406; 3563.200;  176.875;    0.000
928.579; 3538.200;  182.875;    0.000
928.753; 3357.200;  179.875;    0.000
928.927; 3384.200;  186.875;    0.000
929.100; 3354.200;  188.875;    0.000
929.274; 3214.200;  167.875;    0.000
929.447; 2994.200;  152.875;    0.000
929.621; 3077.200;  195.875;    0.000
929.794; 3009.200;  200.875;    0.000
929.968; 2964.200;  203.875;    0.000
930.141; 2938.200;  237.875;    0.000
930.315; 2856.200;  165.875;    0.000
930.488; 2865.200;  175.875;    0.000
930.661; 2761.200;  173.875;    0.000
930.835; 2783.200;  171.875;    0.000
931.008; 2762.200;  210.875;    0.000
931.181; 2657.200;  206.875;    0.000
931.354; 2683.200;  195.875;    0.000
931.528; 2591.200;  178.875;    0.000
931.701; 2580.200;  179.875;    0.000
931.874; 2574.200;  150.875;    0.000
932.047; 2505.200;  154.875;    0.000
932.220; 2502.200;  185.875;    0.000
932.393; 2484.200;  166.875;    0.000
932.566; 2415.200;  171.875;    0.000
932.739; 2466.200;  196.875;    0.000
932.912; 2457.200;  212.875;    0.000
933.085; 2458.200;  234.875;    0.000
933.258; 2439.200;  212.875;    0.000
933.431; 2338.200;  181.875;    0.000
933.604; 2366.200;  201.875;    0.000
933.777; 2431.200;  201.875;    0.000
933.950; 2290.200;  176.875;    0.000
934.123; 2336.200;  175.875;    0.000
934.296; 2308.200;  174.875;    0.000
934.468; 2270.200;  186.875;    0.000
934.641; 2266.200;  192.875;    0.000
934.814; 2234.200;  187.875;    0.000
934.987; 2361.200;  165.875;    0.000
935.159; 2309.200;  162.875;    0.000
935.332; 2308.200;  210.875;    0.000
935.505; 2304.200;  191.875;    0.000
935.677; 2360.200;  159.875;    0.000
935.850; 2247.200;  170.875;    0.000
936.022; 2267.200;  172.875;    0.000
936.195; 2307.200;  202.875;    0.000
936.367; 2247.200;  179.875;    0.000
936.540; 2281.200;  207.875;    0.000
936.712; 2352.200;  200.875;    0.000
936.885; 2368.200;  219.875;    0.000
937.057; 2356.200;  150.875;    0.000
937.229; 2370.200;  187.875;    0.000
937.402; 2481.200;  169.875;    0.000
937.574; 2477.200;  127.875;    0.000
937.746; 2465.200;  171.875;    0.000
937.919; 2623.200;  176.875;    0.000
938.091; 2786.200;  193.875;    0.000
938.263; 2941.200;  200.875;    0.000
938.435; 3163.200;  181.875;    0.000
938.608; 3667.200;  191.875;    0.000
938.780; 4414.200;  173.875;    0.000
938.952; 4574.200;  184.875;    0.000
939.124; 4731.200;  171.875;    0.000
939.296; 5412.200;  156.875;    0.000
939.468; 5828.200;  147.875;    0.000
939.640; 4882.200;  186.875;    0.000
939.812; 4390.200;  217.875;    0.000
939.984; 3858.200;  155.875;    0.000
940.156; 3533.200;  191.875;    0.000
940.328; 3375.200;  201.875;    0.000
940.500; 3162.200;  176.875;    0.000
940.672; 3042.200;  190.875;    0.000
940.843; 2908.200;  143.875;    0.000
941.015; 2939.200;  189.875;    0.000
941.187; 2700.200;  172.875;    0.000
941.359; 2676.200;  175.875;    0.000
941.531; 2690.200;  154.875;    0.000
941.702; 2579.200;  183.875;    0.000
941.874; 2542.200;  140.875;    0.000
942.046; 2469.200;  177.875;    0.000
942.217; 2497.200;  147.875;    0.000
942.389; 2468.200;  196.875;    0.000
942.560; 2490.200;  163.875;    0.000
942.732; 2320.200;  187.875;    0.000
942.904; 2341.200;  226.875;    0.000
943.075; 2223.200;  159.875;    0.000
943.247; 2227.200;  209.875;    0.000
943.418; 2096.200;  167.875;    0.000
943.589; 2183.200;  195.875;    0.000
943.761; 2139.200;  190.875;    0.000
943.932; 2174.200;  187.875;    0.000
944.104; 2148.200;  194.875;    0.000
944.275; 2157.200;  177.875;    0.000
944.446; 2030.200;  155.875;    0.000
944.617; 2066.200;  176.875;    0.000
944.789; 2128.200;  171.875;    0.000
944.960; 2091.200;  172.875;    0.000
945.131; 2057.200;  158.875;    0.000
945.302; 2036.200;  201.875;    0.000
945.473; 2038.200;  141.875;    0.000
945.645; 2143.200;  197.875;    0.000
945.816; 2122.200;  165.875;    0.000
945.987; 2183.200;  190.875;    0.000
946.158; 2191.200;  158.875;    0.000
946.329; 2218.200;  160.875;    0.000
946.500; 2132.200;  190.875;    0.000
946.671; 2032.200;  152.875;    0.000
946.842; 1956.200;  182.875;    0.000
947.013; 1970.200;  160.875;    0.000
947.183; 2000.200;  203.875;    0.000
947.354; 1913.200;  174.875;    0.000
947.525; 1985.200;  173.875;    0.000
947.696; 1967.200;  170.875;    0.000
947.867; 1994.200;  187.875;    0.000
948.037; 1903.200;  165.875;    0.000
948.208; 2017.200;  154.875;    0.000
948.379; 2111.200;  176.875;    0.000
948.550; 1964.200;  176.875;    0.000
948.720; 1956.200;  169.875;    0.000
948.891; 1942.200;  216.875;    0.000
949.061; 1893.200;  200.875;    0.000
949.232; 1844.200;  163.875;    0.000
949.403; 1927.200;  157.875;    0.000
949.573; 1879.200;  158.875;    0.000
949.744; 1880.200;  213.875;    0.000
949.914; 1901.200;  177.875;    0.000
950.085; 1885.200;  195.875;    0.000
950.255; 1974.200;  166.875;    0.000
950.425; 1878.200;  196.875;    0.000
950.596; 1943.200;  176.875;    0.000
950.766; 1895.200;  228.875;    0.000
950.936; 1921.200;  185.875;    0.000
951.107; 1840.200;  178.875;    0.000
951.277; 1854.200;  227.875;    0.000
951.447; 1870.200;  219.875;    0.000
951.617; 1870.200;  219.875;    0.000
951.788; 1819.200;  198.875;    0.000
951.958; 1911.200;  202.875;    0.000
952.128; 1824.200;  197.875;    0.000
952.298; 1882.200;  211.875;    0.000
952.468; 1848.200;  233.875;    0.000
952.638; 1852.200;  222.875;    0.000
952.808; 1792.200;  210.875;    0.000
952.978; 1781.200;  216.875;    0.000
953.148; 1776.200;  203.875;    0.000
953.318; 1775.200;  212.875;    0.000
953.488; 1833.200;  156.875;    0.000
953.658; 1791.200;  226.875;    0.000
953.828; 1775.200;  223.875;    0.000
953.998; 1731.200;  209.875;    0.000
954.167; 1774.200;  203.875;    0.000
954.337; 1683.200;  209.875;    0.000
954.507; 1740.200;  252.875;    0.000
954.677; 1706.200;  207.875;    0.000
954.846; 1726.200;  240.875;    0.000
955.016; 1764.200;  197.875;    0.000
955.186; 1710.200;  208.875;    0.000
955.355; 1723.200;  243.875;    0.000
955.525; 1704.200;  211.875;    0.000
955.695; 1684.200;  187.875;    0.000
955.864; 1747.200;  204.875;    0.000
956.034; 1684.200;  199.875;    0.000
956.203; 1710.200;  257.875;    0.000
956.373; 1621.200;  193.875;    0.000
956.542; 1759.200;  187.875;    0.000
956.711; 1648.200;  259.875;    0.000
956.881; 1685.200;  227.875;    0.000
957.050; 1698.200;  260.875;    0.000
957.220; 1649.200;  246.875;    0.000
957.389; 1618.200;  211.875;    0.000
957.558; 1641.200;  197.875;    0.000
957.727; 1659.200;  227.875;    0.000
957.897; 1672.200;  219.875;    0.000
958.066; 1669.200;  180.875;    0.000
958.235; 1638.200;  179.875;    0.000
958.404; 1585.200;  194.875;    0.000
958.573; 1576.200;  235.875;    0.000
958.743; 1557.200;  191.875;    0.000
958.912; 1609.200;  181.875;    0.000
959.081; 1576.200;  193.875;    0.000
959.250; 1605.200;  180.875;    0.000
959.419; 1599.200;  205.875;    0.000
959.588; 1621.200;  241.875;    0.000
959.757; 1605.200;  202.875;    0.000
959.926; 1551.200;  212.875;    0.000
960.094; 1587.200;  199.875;    0.000
960.263; 1534.200;  226.875;    0.000
960.432; 1559.200;  188.875;    0.000
960.601; 1465.200;  200.875;    0.000
960.770; 1572.200;  197.875;    0.000
960.939; 1572.200;  195.875;    0.000
961.107; 1550.200;  198.875;    0.000
961.276; 1490.200;  151.875;    0.000
961.445; 1551.200;  227.875;    0.000
961.613; 1511.200;  186.875;    0.000
961.782; 1533.200;  187.875;    0.000
961.951; 1556.200;  194.875;    0.000
962.119; 1528.200;  227.875;    0.000
962.288; 1584.200;  181.875;    0.000
962.456; 1466.200;  206.875;    0.000
962.625; 1541.200;  181.875;    0.000
962.793; 1605.200;  216.875;    0.000
962.962; 1513.200;  237.875;    0.000
963.130; 1523.200;  194.875;    0.000
963.298; 1516.200;  190.875;    0.000
963.467; 1541.200;  204.875;    0.000
963.635; 1493.200;  159.875;    0.000
963.803; 1495.200;  208.875;    0.000
963.972; 1506.200;  206.875;    0.000
964.140; 1557.200;  178.875;    0.000
964.308; 1475.200;  185.875;    0.000
964.477; 1475.200;  189.875;    0.000
964.645; 1518.200;  201.875;    0.000
964.813; 1538.200;  200.875;    0.000
964.981; 1571.200;  160.875;    0.000
965.149; 1598.200;  230.875;    0.000
965.317; 1600.200;  214.875;    0.000
965.485; 1522.200;  190.875;    0.000
965.653; 1522.200;  239.875;    0.000
965.821; 1546.200;  211.875;    0.000
965.989; 1516.200;  216.875;    0.000
966.157; 1515.200;  198.875;    0.000
966.325; 1468.200;  200.875;    0.000
966.493; 1492.200;  187.875;    0.000
966.661; 1546.200;  181.875;    0.000
966.829; 1511.200;  181.875;    0.000
966.996; 1520.200;  220.875;    0.000
967.164; 1529.200;  179.875;    0.000
967.332; 1539.200;  203.875;    0.000
967.500; 1494.200;  200.875;    0.000
967.667; 1538.200;  196.875;    0.000
967.835; 1553.200;  199.875;    0.000
968.003; 1605.200;  191.875;    0.000
968.170; 1532.200;  141.875;    0.000
968.338; 1498.200;  185.875;    0.000
968.505; 1596.200;  199.875;    0.000
968.673; 1549.200;  191.875;    0.000
968.841; 1433.200;  165.875;    0.000
969.008; 1547.200;  192.875;    0.000
969.175; 1492.200;  172.875;    0.000
969.343; 1505.200;  191.875;    0.000
969.510; 1571.200;  199.875;    0.000
969.678; 1515.200;  156.875;    0.000
969.845; 1472.200;  191.875;    0.000
970.012; 1515.200;  205.875;    0.000
970.180; 1501.200;  201.875;    0.000
970.347; 1528.200;  229.875;    0.000
970.514; 1506.200;  207.875;    0.000
970.681; 1437.200;  169.875;    0.000
970.849; 1466.200;  196.875;    0.000
971.016; 1477.200;  212.875;    0.000
971.183; 1471.200;  178.875;    0.000
971.350; 1486.200;  193.875;    0.000
971.517; 1531.200;  190.875;    0.000
971.684; 1498.200;  261.875;    0.000
971.851; 1479.200;  203.875;    0.000
972.018; 1506.200;  184.875;    0.000
972.185; 1452.200;  226.875;    0.000
972.352; 1476.200;  180.875;    0.000
972.519; 1514.200;  226.875;    0.000
972.686; 1422.200;  233.875;    0.000
972.853; 1448.200;  173.875;    0.000
973.020; 1457.200;  208.875;    0.000
973.186; 1477.200;  173.875;    0.000
973.353; 1426.200;  218.875;    0.000
973.520; 1432.200;  218.875;    0.000
973.687; 1449.200;  176.875;    0.000
973.853; 1471.200;  203.875;    0.000
974.020; 1445.200;  196.875;    0.000
974.187; 1420.200;  188.875;    0.000
974.353; 1485.200;  230.875;    0.000
974.520; 1363.200;  195.875;    0.000
974.687; 1394.200;  209.875;    0.000
974.853; 1463.200;  189.875;    0.000
975.020; 1429.200;  179.875;    0.000
975.186; 1407.200;  204.875;    0.000
975.353; 1484.200;  201.875;    0.000
975.519; 1448.200;  200.875;    0.000
975.685; 1392.200;  176.875;    0.000
975.852; 1415.200;  197.875;    0.000
976.018; 1434.200;  201.875;    0.000
976.184; 1465.200;  176.875;    0.000
976.351; 1491.200;  221.875;    0.000
976.517; 1445.200;  203.875;    0.000
976.683; 1442.200;  236.875;    0.000
976.849; 1478.200;  190.875;    0.000
977.016; 1367.200;  173.875;    0.000
977.182; 1464.200;  200.875;    0.000
977.348; 1349.200;  179.875;    0.000
977.514; 1452.200;  159.875;    0.000
977.680; 1436.200;  200.875;    0.000
977.846; 1456.200;  206.875;    0.000
978.012; 1363.200;  219.875;    0.000
978.178; 1363.200;  229.875;    0.000
978.344; 1371.200;  195.875;    0.000
978.510; 1399.200;  209.875;    0.000
978.676; 1403.200;  190.875;    0.000
978.842; 1396.200;  195.875;    0.000
979.008; 1370.200;  186.875;    0.000
979.174; 1400.200;  185.875;    0.000
979.340; 1454.200;  198.875;    0.000
979.505; 1434.200;  214.875;    0.000
979.671; 1443.200;  159.875;    0.000
979.837; 1472.200;  202.875;    0.000
980.003; 1473.200;  190.875;    0.000
980.168; 1442.200;  216.875;    0.000
980.334; 1402.200;  194.875;    0.000
980.499; 1412.200;  229.875;    0.000
980.665; 1475.200;  240.875;    0.000
980.831; 1463.200;  202.875;    0.000
980.996; 1398.200;  179.875;    0.000
981.162; 1438.200;  212.875;    0.000
981.327; 1429.200;  202.875;    0.000
981.493; 1468.200;  219.875;    0.000
981.658; 1462.200;  218.875;    0.000
981.823; 1450.200;  207.875;    0.000
981.989; 1522.200;  207.875;    0.000
982.154; 1417.200;  224.875;    0.000
982.319; 1469.200;  217.875;    0.000
982.485; 1442.200;  266.875;    0.000
982.650; 1524.200;  245.875;    0.000
982.815; 1478.200;  229.875;    0.000
982.980; 1459.200;  203.875;    0.000
983.146; 1389.200;  242.875;    0.000
983.311; 1358.200;  144.875;    0.000
983.476; 1415.200;  222.875;    0.000
983.641; 1366.200;  206.875;    0.000
983.806; 1376.200;  217.875;    0.000
983.971; 1443.200;  254.875;    0.000
984.136; 1400.200;  217.875;    0.000
984.301; 1384.200;  202.875;    0.000
984.466; 1432.200;  206.875;    0.000
984.631; 1423.200;  224.875;    0.000
984.796; 1452.200;  218.875;    0.000
984.961; 1387.200;  202.875;    0.000
985.126; 1475.200;  238.875;    0.000
985.291; 1425.200;  220.875;    0.000
985.455; 1374.200;  223.875;    0.000
985.620; 1363.200;  218.875;    0.000
985.785; 1382.200;  228.875;    0.000
985.950; 1330.200;  212.875;    0.000
986.114; 1429.200;  215.875;    0.000
986.279; 1392.200;  243.875;    0.000
986.444; 1430.200;  222.875;    0.000
986.608; 1448.200;  243.875;    0.000
986.773; 1488.200;  213.875;    0.000
986.937; 1513.200;  267.875;    0.000
987.102; 1493.200;  235.875;    0.000
987.266; 1430.200;  210.875;    0.000
987.431; 1459.200;  239.875;    0.000
987.595; 1433.200;  230.875;    0.000
987.760; 1443.200;  229.875;    0.000
987.924; 1513.200;  217.875;    0.000
988.088; 1442.200;  210.875;    0.000
988.253; 1466.200;  215.875;    0.000
988.417; 1373.200;  186.875;    0.000
988.581; 1402.200;  214.875;    0.000
988.746; 1329.200;  212.875;    0.000
988.910; 1436.200;  192.875;    0.000
989.074; 1392.200;  195.875;    0.000
989.238; 1377.200;  226.875;    0.000
989.402; 1398.200;  214.875;    0.000
989.566; 1457.200;  201.875;    0.000
989.731; 1435.200;  199.875;    0.000
989.895; 1451.200;  205.875;    0.000
990.059; 1321.200;  204.875;    0.000
990.223; 1404.200;  182.875;    0.000
990.387; 1433.200;  220.875;    0.000
990.551; 1402.200;  199.875;    0.000
990.714; 1308.200;  202.875;    0.000
990.878; 1347.200;  201.875;    0.000
991.042; 1383.200;  202.875;    0.000
991.206; 1369.200;  215.875;    0.000
991.370; 1360.200;  217.875;    0.000
991.534; 1311.200;  152.875;    0.000
991.697; 1346.200;  194.875;    0.000
991.861; 1412.200;  208.875;    0.000
992.025; 1301.200;  209.875;    0.000
992.188; 1353.200;  182.875;    0.000
992.352; 1318.200;  181.875;    0.000
992.516; 1344.200;  192.875;    0.000
992.679; 1395.200;  183.875;    0.000
992.843; 1325.200;  156.875;    0.000
993.006; 1287.200;  192.875;    0.000
993.170; 1316.200;  172.875;    0.000
993.333; 1263.200;  195.875;    0.000
993.497; 1320.200;  185.875;    0.000
993.660; 1337.200;  155.875;    0.000
993.824; 1366.200;  199.875;    0.000
993.987; 1331.200;  211.875;    0.000
994.150; 1266.200;  173.875;    0.000
994.314; 1413.200;  202.875;    0.000
994.477; 1327.200;  171.875;    0.000
994.640; 1352.200;  191.875;    0.000
994.803; 1348.200;  203.875;    0.000
994.967; 1330.200;  198.875;    0.000
995.130; 1269.200;  192.875;    0.000
995.293; 1294.200;  211.875;    0.000
995.456; 1333.200;  207.875;    0.000
995.619; 1307.200;  207.875;    0.000
995.782; 1322.200;  186.875;    0.000
995.945; 1319.200;  203.875;    0.000
996.108; 1376.200;  195.875;    0.000
996.271; 1343.200;  195.875;    0.000
996.434; 1270.200;  179.875;    0.000
996.597; 1330.200;  170.875;    0.000
996.760; 1278.200;  161.875;    0.000
996.923; 1211.200;  177.875;    0.000
997.086; 1318.200;  199.875;    0.000
997.248; 1316.200;  225.875;    0.000
997.411; 1344.200;  194.875;    0.000
997.574; 1330.200;  204.875;    0.000
997.737; 1298.200;  236.875;    0.000
997.899; 1290.200;  191.875;    0.000
998.062; 1353.200;  178.875;    0.000
998.225; 1263.200;  176.875;    0.000
998.387; 1272.200;  203.875;    0.000
998.550; 1276.200;  155.875;    0.000
998.712; 1292.200;  169.875;    0.000
998.875; 1331.200;  234.875;    0.000
999.037; 1322.200;  211.875;    0.000
999.200; 1267.200;  185.875;    0.000
999.362; 1313.200;  199.875;    0.000
999.525; 1307.200;  234.875;    0.000
999.687; 1402.200;  194.875;    0.000
999.849; 1304.200;  223.875;    0.000
1000.012; 1340.200;  222.875;    0.000
1000.174; 1263.200;  187.875;    0.000
1000.336; 1372.200;  204.875;    0.000
1000.499; 1324.200;  240.875;    0.000
1000.661; 1337.200;  215.875;    0.000
1000.823; 1263.200;  206.875;    0.000
1000.985; 1306.200;  197.875;    0.000
1001.147; 1353.200;  221.875;    0.000
1001.309; 1287.200;  207.875;    0.000
1001.471; 1319.200;  227.875;    0.000
1001.633; 1374.200;  208.875;    0.000
1001.796; 1296.200;  158.875;    0.000
1001.958; 1307.200;  210.875;    0.000
1002.119; 1420.200;  223.875;    0.000
1002.281; 1474.200;  211.875;    0.000
1002.443; 1494.200;  227.875;    0.000
1002.605; 1415.200;  186.875;    0.000
1002.767; 1566.200;  242.875;    0.000
1002.929; 1555.200;  219.875;    0.000
1003.091; 1648.200;  191.875;    0.000
1003.252; 1612.200;  233.875;    0.000
1003.414; 1732.200;  214.875;    0.000
1003.576; 1698.200;  186.875;    0.000
1003.738; 1756.200;  175.875;    0.000
1003.899; 1921.200;  237.875;    0.000
1004.061; 1905.200;  220.875;    0.000
1004.222; 2003.200;  186.875;    0.000
1004.384; 2118.200;  216.875;    0.000
1004.546; 2119.200;  203.875;    0.000
1004.707; 2197.200;  216.875;    0.000
1004.869; 2173.200;  219.875;    0.000
1005.030; 2208.200;  188.875;    0.000
1005.191; 2190.200;  223.875;    0.000
1005.353; 2094.200;  227.875;    0.000
1005.514; 2069.200;  235.875;    0.000
1005.675; 1855.200;  201.875;    0.000
1005.837; 1935.200;  199.875;    0.000
1005.998; 1764.200;  219.875;    0.000
1006.159; 1802.200;  235.875;    0.000
1006.321; 1777.200;  199.875;    0.000
1006.482; 1924.200;  222.875;    0.000
1006.643; 1954.200;  195.875;    0.000
1006.804; 1955.200;  205.875;    0.000
1006.965; 2034.200;  199.875;    0.000
1007.126; 2139.200;  231.875;    0.000
1007.287; 2101.200;  208.875;    0.000
1007.448; 2056.200;  205.875;    0.000
1007.609; 2062.200;  256.875;    0.000
1007.770; 1942.200;  231.875;    0.000
1007.931; 1998.200;  223.875;    0.000
1008.092; 1923.200;  217.875;    0.000
1008.253; 2111.200;  236.875;    0.000
1008.414; 2098.200;  197.875;    0.000
1008.575; 2150.200;  233.875;    0.000
1008.736; 2122.200;  193.875;    0.000
1008.896; 2210.200;  238.875;    0.000
1009.057; 2096.200;  245.875;    0.000
1009.218; 2104.200;  240.875;    0.000
1009.379; 2120.200;  210.875;    0.000
1009.539; 2220.200;  234.875;    0.000
1009.700; 2256.200;  228.875;    0.000
1009.860; 2247.200;  238.875;    0.000
1010.021; 2197.200;  199.875;    0.000
1010.182; 2245.200;  214.875;    0.000
1010.342; 2239.200;  216.875;    0.000
1010.503; 2299.200;  207.875;    0.000
1010.663; 2416.200;  258.875;    0.000
1010.823; 2515.200;  243.875;    0.000
1010.984; 2575.200;  268.875;    0.000
1011.144; 2680.200;  217.875;    0.000
1011.305; 2810.200;  237.875;    0.000
1011.465; 2927.200;  216.875;    0.000
1011.625; 2984.200;  195.875;    0.000
1011.785; 2828.200;  201.875;    0.000
1011.946; 2877.200;  200.875;    0.000
1012.106; 2828.200;  206.875;    0.000
1012.266; 2888.200;  227.875;    0.000
1012.426; 2833.200;  221.875;    0.000
1012.586; 2763.200;  198.875;    0.000
1012.746; 2839.200;  215.875;    0.000
1012.906; 2655.200;  226.875;    0.000
1013.066; 2649.200;  221.875;    0.000
1013.226; 2617.200;  202.875;    0.000
1013.386; 2674.200;  210.875;    0.000
1013.546; 2608.200;  243.875;    0.000
1013.706; 2532.200;  200.875;    0.000
1013.866; 2649.200;  232.875;    0.000
1014.026; 2491.200;  206.875;    0.000
1014.186; 2524.200;  222.875;    0.000
1014.346; 2521.200;  233.875;    0.000
1014.505; 2593.200;  241.875;    0.000
1014.665; 2657.200;  225.875;    0.000
1014.825; 2540.200;  196.875;    0.000
1014.985; 2545.200;  234.875;    0.000
1015.144; 2697.200;  232.875;    0.000
1015.304; 2683.200;  214.875;    0.000
1015.464; 2575.200;  210.875;    0.000
1015.623; 2617.200;  219.875;    0.000
1015.783; 2797.200;  216.875;    0.000
1015.942; 3029.200;  267.875;    0.000
1016.102; 2938.200;  234.875;    0.000
1016.261; 2930.200;  230.875;    0.000
1016.420; 3131.200;  225.875;    0.000
1016.580; 3347.200;  205.875;    0.000
1016.739; 3407.200;  199.875;    0.000
1016.899; 3216.200;  218.875;    0.000
1017.058; 3332.200;  204.875;    0.000
1017.217; 3604.200;  196.875;    0.000
1017.376; 3446.200;  204.875;    0.000
1017.536; 3102.200;  195.875;    0.000
1017.695; 3105.200;  216.875;    0.000
1017.854; 3253.200;  235.875;    0.000
1018.013; 3087.200;  189.875;    0.000
1018.172; 2852.200;  217.875;    0.000
1018.331; 2896.200;  215.875;    0.000
1018.490; 2965.200;  233.875;    0.000
1018.649; 3149.200;  211.875;    0.000
1018.808; 3318.200;  196.875;    0.000
1018.967; 3199.200;  222.875;    0.000
1019.126; 3297.200;  221.875;    0.000
1019.285; 3359.200;  212.875;    0.000
1019.444; 3327.200;  231.875;    0.000
1019.603; 3094.200;  227.875;    0.000
1019.762; 2946.200;  192.875;    0.000
1019.921; 3091.200;  240.875;    0.000
1020.079; 3160.200;  209.875;    0.000
1020.238; 3344.200;  211.875;    0.000
1020.397; 3166.200;  253.875;    0.000
1020.555; 3110.200;  179.875;    0.000
1020.714; 3230.200;  225.875;    0.000
1020.873; 3355.200;  232.875;    0.000
1021.031; 3387.200;  245.875;    0.000
1021.190; 3148.200;  230.875;    0.000
1021.348; 3170.200;  221.875;    0.000
1021.507; 3272.200;  212.875;    0.000
1021.665; 3640.200;  211.875;    0.000
1021.824; 3424.200;  206.875;    0.000
1021.982; 3199.200;  218.875;    0.000
1022.141; 3096.200;  232.875;    0.000
1022.299; 3579.200;  193.875;    0.000
1022.457; 3591.200;  217.875;    0.000
1022.616; 3425.200;  248.875;    0.000
1022.774; 3172.200;  222.875;    0.000
1022.932; 3341.200;  211.875;    0.000
1023.090; 3694.200;  288.875;    0.000
1023.249; 3720.200;  214.875;    0.000
1023.407; 3465.200;  233.875;    0.000
1023.565; 3259.200;  208.875;    0.000
1023.723; 3423.200;  217.875;    0.000
1023.881; 3808.200;  235.875;    0.000
1024.039; 3831.200;  228.875;    0.000
1024.197; 3483.200;  216.875;    0.000
1024.355; 3404.200;  251.875;    0.000
1024.513; 3468.200;  232.875;    0.000
1024.671; 3871.200;  217.875;    0.000
1024.829; 3856.200;  255.875;    0.000
1024.987; 3474.200;  203.875;    0.000
1025.145; 3253.200;  239.875;    0.000
1025.302; 3435.200;  209.875;    0.000
1025.460; 3782.200;  224.875;    0.000
1025.618; 3829.200;  193.875;    0.000
1025.776; 3706.200;  209.875;    0.000
1025.933; 3345.200;  229.875;    0.000
1026.091; 3404.200;  218.875;    0.000
1026.249; 3834.200;  269.875;    0.000
1026.406; 3887.200;  264.875;    0.000
1026.564; 3722.200;  230.875;    0.000
1026.721; 3589.200;  198.875;    0.000
1026.879; 3421.200;  216.875;    0.000
1027.036; 3756.200;  226.875;    0.000
1027.194; 3986.200;  245.875;    0.000
1027.351; 3952.200;  236.875;    0.000
1027.509; 3649.200;  262.875;    0.000
1027.666; 3513.200;  227.875;    0.000
1027.823; 3797.200;  214.875;    0.000
1027.981; 3922.200;  258.875;    0.000
1028.138; 4181.200;  239.875;    0.000
1028.295; 3845.200;  226.875;    0.000
1028.452; 3699.200;  225.875;    0.000
1028.609; 3567.200;  276.875;    0.000
1028.767; 3978.200;  228.875;    0.000
1028.924; 4201.200;  213.875;    0.000
1029.081; 4041.200;  232.875;    0.000
1029.238; 3988.200;  250.875;    0.000
1029.395; 3694.200;  255.875;    0.000
1029.552; 3804.200;  217.875;    0.000
1029.709; 4129.200;  210.875;    0.000
1029.866; 4247.200;  243.875;    0.000
1030.023; 4151.200;  202.875;    0.000
1030.180; 3754.200;  233.875;    0.000
1030.337; 3775.200;  234.875;    0.000
1030.494; 3915.200;  222.875;    0.000
1030.650; 4070.200;  241.875;    0.000
1030.807; 4396.200;  206.875;    0.000
1030.964; 4096.200;  206.875;    0.000
1031.121; 3898.200;  228.875;    0.000
1031.277; 3764.200;  228.875;    0.000
1031.434; 4134.200;  234.875;    0.000
1031.591; 4313.200;  250.875;    0.000
1031.747; 4413.200;  246.875;    0.000
1031.904; 4324.200;  201.875;    0.000
1032.060; 4039.200;  237.875;    0.000
1032.217; 4086.200;  232.875;    0.000
1032.373; 4383.200;  210.875;    0.000
1032.530; 4471.200;  246.875;    0.000
1032.686; 4911.200;  196.875;    0.000
1032.843; 4822.200;  212.875;    0.000
1032.999; 4556.200;  243.875;    0.000
1033.155; 4736.200;  234.875;    0.000
1033.312; 4624.200;  246.875;    0.000
1033.468; 5562.200;  233.875;    0.000
1033.624; 5806.200;  237.875;    0.000
1033.780; 6005.200;  263.875;    0.000
1033.937; 6133.200;  214.875;    0.000
1034.093; 5661.200;  230.875;    0.000
1034.249; 5974.200;  206.875;    0.000
1034.405; 5766.200;  238.875;    0.000
1034.561; 6285.200;  231.875;    0.000
1034.717; 6541.200;  228.875;    0.000
1034.873; 6447.200;  262.875;    0.000
1035.029; 6658.200;  252.875;    0.000
1035.185; 6084.200;  232.875;    0.000
1035.341; 6003.200;  245.875;    0.000
1035.497; 6655.200;  253.875;    0.000
1035.653; 6494.200;  252.875;    0.000
1035.809; 7250.200;  245.875;    0.000
1035.964; 7897.200;  229.875;    0.000
1036.120; 7324.200;  226.875;    0.000
1036.276; 7528.200;  236.875;    0.000
1036.432; 7174.200;  203.875;    0.000
1036.587; 6842.200;  228.875;    0.000
1036.743; 7471.200;  240.875;    0.000
1036.899; 7907.200;  220.875;    0.000
1037.054; 8107.200;  153.875;    0.000
1037.210; 8744.200;  219.875;    0.000
1037.365; 8786.200;  229.875;    0.000
1037.521; 8066.200;  257.875;    0.000
1037.676; 7990.200;  211.875;    0.000
1037.832; 7226.200;  234.875;    0.000
1037.987; 7513.200;  235.875;    0.000
1038.143; 7750.200;  176.875;    0.000
1038.298; 8704.200;  262.875;    0.000
1038.453; 8774.200;  209.875;    0.000
1038.609; 9604.200;  230.875;    0.000
1038.764; 9609.200;  253.875;    0.000
1038.919; 9028.200;  195.875;    0.000
1039.074; 9023.200;  234.875;    0.000
1039.229; 8308.200;  234.875;    0.000
1039.385; 8095.200;  266.875;    0.000
1039.540; 8587.200;  252.875;    0.000
1039.695; 9707.200;  231.875;    0.000
1039.850;10346.200;  208.875;    0.000
1040.005;10807.200;  232.875;    0.000
1040.160;11574.200;  214.875;    0.000
1040.315;11220.200;  221.875;    0.000
1040.470;10796.200;  207.875;    0.000
1040.625;10354.200;  249.875;    0.000
1040.780; 9736.200;  251.875;    0.000
1040.935; 9760.200;  254.875;    0.000
1041.089; 9963.200;  210.875;    0.000
1041.244;11793.200;  225.875;    0.000
1041.399;11782.200;  208.875;    0.000
1041.554;12929.200;  249.875;    0.000
1041.708;14223.200;  254.875;    0.000
1041.863;13158.200;  248.875;    0.000
1042.018;12907.200;  280.875;    0.000
1042.172;12796.200;  233.875;    0.000
1042.327;11875.200;  256.875;    0.000
1042.481;12230.200;  210.875;    0.000
1042.636;12460.200;  229.875;    0.000
1042.791;12838.200;  215.875;    0.000
1042.945;14729.200;  256.875;    0.000
1043.099;15814.200;  251.875;    0.000
1043.254;16132.200;  204.875;    0.000
1043.408;16837.199;  278.875;    0.000
1043.563;17444.199;  211.875;    0.000
1043.717;16691.199;  259.875;    0.000
1043.871;15402.200;  233.875;    0.000
1044.025;14817.200;  221.875;    0.000
1044.180;15053.200;  208.875;    0.000
1044.334;14941.200;  255.875;    0.000
1044.488;15608.200;  269.875;    0.000
1044.642;17080.199;  228.875;    0.000
1044.796;18067.199;  232.875;    0.000
1044.950;19883.199;  249.875;    0.000
1045.104;21895.199;  205.875;    0.000
1045.258;22329.199;  206.875;    0.000
1045.412;21995.199;  251.875;    0.000
1045.566;21610.199;  249.875;    0.000
1045.720;19988.199;  206.875;    0.000
1045.874;18968.199;  232.875;    0.000
1046.028;17841.199;  266.875;    0.000
1046.182;17716.199;  217.875;    0.000
1046.336;18386.199;  216.875;    0.000
1046.489;17963.199;  236.875;    0.000
1046.643;19067.199;  253.875;    0.000
1046.797;21701.199;  244.875;    0.000
1046.951;22063.199;  234.875;    0.000
1047.104;22550.199;  281.875;    0.000
1047.258;23174.199;  253.875;    0.000
1047.411;24372.199;  228.875;    0.000
1047.565;24691.199;  273.875;    0.000
1047.719;23458.199;  232.875;    0.000
1047.872;22636.199;  230.875;    0.000
1048.026;22260.199;  282.875;    0.000
1048.179;21203.199;  225.875;    0.000
1048.332;20830.199;  234.875;    0.000
1048.486;21182.199;  223.875;    0.000
1048.639;21603.199;  248.875;    0.000
1048.792;20489.199;  244.875;    0.000
1048.946;22760.199;  210.875;    0.000
1049.099;25616.199;  242.875;    0.000
1049.252;25858.199;  269.875;    0.000
1049.406;24378.199;  285.875;    0.000
1049.559;25413.199;  277.875;    0.000
1049.712;28871.199;  254.875;    0.000
1049.865;31215.199;  252.875;    0.000
1050.018;29462.199;  270.875;    0.000
1050.171;26354.199;  230.875;    0.000
1050.324;25305.199;  268.875;    0.000
1050.477;26568.199;  262.875;    0.000
1050.630;27974.199;  243.875;    0.000
1050.783;28966.199;  216.875;    0.000
1050.936;26812.199;  250.875;    0.000
1051.089;25593.199;  247.875;    0.000
1051.242;27057.199;  300.875;    0.000
1051.394;30850.199;  233.875;    0.000
1051.547;32868.199;  263.875;    0.000
1051.700;29087.199;  238.875;    0.000
1051.853;28347.199;  299.875;    0.000
1052.005;29721.199;  275.875;    0.000
1052.158;34118.199;  304.875;    0.000
1052.311;37007.199;  251.875;    0.000
1052.463;34246.199;  276.875;    0.000
1052.616;31498.199;  271.875;    0.000
1052.768;28251.199;  285.875;    0.000
1052.921;27496.199;  261.875;    0.000
1053.073;30396.199;  333.875;    0.000
1053.226;34536.199;  271.875;    0.000
1053.378;39438.199;  309.875;    0.000
1053.531;41516.199;  266.875;    0.000
1053.683;37699.199;  278.875;    0.000
1053.835;33291.199;  274.875;    0.000
1053.988;25369.199;  287.875;    0.000
1054.140; 4578.200;  350.875;    0.000
1054.292; 1213.200;  338.875;    0.000
1054.444;  998.200;  270.875;    0.000
1054.596;  906.200;  294.875;    0.000
1054.749;  811.200;  285.875;    0.000
1054.901;  716.200;  254.875;    0.000
1055.053;  743.200;  320.875;    0.000
1055.205;  700.200;  284.875;    0.000
1055.357;  688.200;  298.875;    0.000
1055.509;  632.200;  304.875;    0.000
1055.661;  685.200;  350.875;    0.000
1055.813;  638.200;  289.875;    0.000
1055.965;  673.200;  277.875;    0.000
1056.116;  633.200;  288.875;    0.000
1056.268;  611.200;  311.875;    0.000
1056.420;  667.200;  308.875;    0.000

