
Integration time [ms]:   0.300
Averaging Nr. [scans]: 1
Smoothing Nr. [pixels]: 0
Data measured with spectrometer [name]: NIR
Wave   ;Sample   ;Dark     ;Reference
[nm]   ;[counts] ;[counts] ;[counts] 

691.496;  -49.400;  155.525;    0.000
691.696;   -1.400;  186.525;    0.000
691.896;  -54.400;  113.525;    0.000
692.096;  -24.400;  169.525;    0.000
692.296; -112.400;  119.525;    0.000
692.496;  -15.400;  182.525;    0.000
692.695;  -33.400;  119.525;    0.000
692.895;  -13.400;  183.525;    0.000
693.095;  -50.400;  119.525;    0.000
693.295;  -32.400;  156.525;    0.000
693.495;  -28.400;  145.525;    0.000
693.695;  -41.400;  144.525;    0.000
693.894;  -35.400;  174.525;    0.000
694.094;  -31.400;  148.525;    0.000
694.294;  -24.400;  114.525;    0.000
694.494;  269.600;  137.525;    0.000
694.693; 2620.600;  112.525;    0.000
694.893; 3043.600;   85.525;    0.000
695.093; 3013.600;  152.525;    0.000
695.293; 3143.600;  159.525;    0.000
695.492; 3056.600;  131.525;    0.000
695.692; 3079.600;  134.525;    0.000
695.891; 3159.600;  161.525;    0.000
696.091; 3152.600;  180.525;    0.000
696.291; 3003.600;  120.525;    0.000
696.490; 3175.600;  146.525;    0.000
696.690; 3215.600;  145.525;    0.000
696.889; 3087.600;  171.525;    0.000
697.089; 3163.600;   98.525;    0.000
697.288; 3175.600;  172.525;    0.000
697.488; 3199.600;  137.525;    0.000
697.687; 3239.600;  171.525;    0.000
697.887; 3135.600;  142.525;    0.000
698.086; 3201.600;  159.525;    0.000
698.286; 3157.600;  122.525;    0.000
698.485; 3201.600;  121.525;    0.000
698.684; 3251.600;   94.525;    0.000
698.884; 3195.600;  131.525;    0.000
699.083; 3186.600;  112.525;    0.000
699.282; 3206.600;  119.525;    0.000
699.482; 3178.600;  117.525;    0.000
699.681; 3161.600;  115.525;    0.000
699.880; 3277.600;  166.525;    0.000
700.080; 3204.600;  194.525;    0.000
700.279; 3218.600;   98.525;    0.000
700.478; 3306.600;  159.525;    0.000
700.677; 3282.600;  134.525;    0.000
700.877; 3318.600;  171.525;    0.000
701.076; 3329.600;  141.525;    0.000
701.275; 3218.600;  119.525;    0.000
701.474; 3226.600;  132.525;    0.000
701.673; 3234.600;  141.525;    0.000
701.872; 3330.600;  158.525;    0.000
702.071; 3238.600;  129.525;    0.000
702.271; 3286.600;  122.525;    0.000
702.470; 3412.600;  158.525;    0.000
702.669; 3292.600;  145.525;    0.000
702.868; 3396.600;  135.525;    0.000
703.067; 3252.600;  169.525;    0.000
703.266; 3300.600;  125.525;    0.000
703.465; 3345.600;  153.525;    0.000
703.664; 3399.600;  113.525;    0.000
703.863; 3455.600;  170.525;    0.000
704.062; 3333.600;  115.525;    0.000
704.260; 3369.600;  133.525;    0.000
704.459; 3364.600;  123.525;    0.000
704.658; 3433.600;  105.525;    0.000
704.857; 3365.600;  125.525;    0.000
705.056; 3248.600;  108.525;    0.000
705.255; 3430.600;  117.525;    0.000
705.454; 3293.600;  126.525;    0.000
705.652; 3310.600;  137.525;    0.000
705.851; 3306.600;   95.525;    0.000
706.050; 3453.600;  120.525;    0.000
706.249; 3294.600;   81.525;    0.000
706.447; 3326.600;  105.525;    0.000
706.646; 3306.600;  107.525;    0.000
706.845; 3384.600;  104.525;    0.000
707.043; 3364.600;  136.525;    0.000
707.242; 3432.600;   89.525;    0.000
707.441; 3478.600;  147.525;    0.000
707.639; 3378.600;  156.525;    0.000
707.838; 3459.600;  114.525;    0.000
708.037; 3465.600;  100.525;    0.000
708.235; 3381.600;  103.525;    0.000
708.434; 3458.600;  102.525;    0.000
708.632; 3480.600;  100.525;    0.000
708.831; 3325.600;  121.525;    0.000
709.029; 3510.600;  102.525;    0.000
709.228; 3542.600;   88.525;    0.000
709.426; 3510.600;  135.525;    0.000
709.625; 3533.600;  128.525;    0.000
709.823; 3546.600;  123.525;    0.000
710.022; 3620.600;  137.525;    0.000
710.220; 3530.600;  134.525;    0.000
710.418; 3546.600;  122.525;    0.000
710.617; 3602.600;   64.525;    0.000
710.815; 3466.600;   94.525;    0.000
711.013; 3589.600;  127.525;    0.000
711.212; 3564.600;  105.525;    0.000
711.410; 3604.600;  117.525;    0.000
711.608; 3628.600;  114.525;    0.000
711.807; 3668.600;  119.525;    0.000
712.005; 3564.600;   92.525;    0.000
712.203; 3657.600;   95.525;    0.000
712.401; 3721.600;  107.525;    0.000
712.599; 3637.600;  127.525;    0.000
712.798; 3691.600;  120.525;    0.000
712.996; 3567.600;   76.525;    0.000
713.194; 3650.600;  118.525;    0.000
713.392; 3674.600;   60.525;    0.000
713.590; 3796.600;   92.525;    0.000
713.788; 3669.600;  110.525;    0.000
713.986; 3797.600;  130.525;    0.000
714.184; 3778.600;   71.525;    0.000
714.382; 3792.600;   86.525;    0.000
714.580; 3813.600;   74.525;    0.000
714.778; 3758.600;  133.525;    0.000
714.976; 3912.600;   81.525;    0.000
715.174; 3922.600;  100.525;    0.000
715.372; 4149.600;  141.525;    0.000
715.570; 4228.600;   73.525;    0.000
715.768; 4476.600;  119.525;    0.000
715.966; 4591.600;   81.525;    0.000
716.164; 4570.600;  130.525;    0.000
716.362; 4322.600;  125.525;    0.000
716.560; 4267.600;  109.525;    0.000
716.758; 4211.600;   96.525;    0.000
716.955; 4167.600;   83.525;    0.000
717.153; 4116.600;   87.525;    0.000
717.351; 4140.600;  123.525;    0.000
717.549; 4021.600;  121.525;    0.000
717.746; 4091.600;  128.525;    0.000
717.944; 4065.600;  132.525;    0.000
718.142; 4157.600;  120.525;    0.000
718.340; 4025.600;   94.525;    0.000
718.537; 4052.600;   95.525;    0.000
718.735; 4059.600;  152.525;    0.000
718.933; 4142.600;  124.525;    0.000
719.130; 4026.600;  114.525;    0.000
719.328; 4030.600;   63.525;    0.000
719.525; 4101.600;  146.525;    0.000
719.723; 4129.600;   96.525;    0.000
719.920; 4098.600;  120.525;    0.000
720.118; 4080.600;   59.525;    0.000
720.316; 4116.600;  116.525;    0.000
720.513; 4016.600;  127.525;    0.000
720.711; 4052.600;  110.525;    0.000
720.908; 4042.600;   92.525;    0.000
721.105; 4023.600;  138.525;    0.000
721.303; 4059.600;   90.525;    0.000
721.500; 3973.600;  126.525;    0.000
721.698; 4073.600;  103.525;    0.000
721.895; 4052.600;  206.525;    0.000
722.092; 3913.600;   63.525;    0.000
722.290; 4027.600;  123.525;    0.000
722.487; 4006.600;  137.525;    0.000
722.684; 4080.600;  126.525;    0.000
722.882; 4095.600;  119.525;    0.000
723.079; 4068.600;  132.525;    0.000
723.276; 4049.600;   98.525;    0.000
723.473; 4040.600;   97.525;    0.000
723.671; 3967.600;   43.525;    0.000
723.868; 4065.600;  142.525;    0.000
724.065; 4025.600;  102.525;    0.000
724.262; 4098.600;  119.525;    0.000
724.459; 4103.600;   73.525;    0.000
724.656; 4051.600;  128.525;    0.000
724.854; 4152.600;  135.525;    0.000
725.051; 4114.600;   81.525;    0.000
725.248; 4040.600;   88.525;    0.000
725.445; 4185.600;  129.525;    0.000
725.642; 4093.600;   76.525;    0.000
725.839; 4225.600;  134.525;    0.000
726.036; 4144.600;  101.525;    0.000
726.233; 4089.600;   68.525;    0.000
726.430; 4134.600;  121.525;    0.000
726.627; 4200.600;  136.525;    0.000
726.824; 4128.600;   87.525;    0.000
727.021; 4119.600;  141.525;    0.000
727.218; 4210.600;   92.525;    0.000
727.414; 4156.600;  121.525;    0.000
727.611; 4075.600;  100.525;    0.000
727.808; 4137.600;  130.525;    0.000
728.005; 4189.600;   83.525;    0.000
728.202; 4206.600;  120.525;    0.000
728.399; 4195.600;   75.525;    0.000
728.595; 4095.600;  148.525;    0.000
728.792; 4320.600;   79.525;    0.000
728.989; 4192.600;   86.525;    0.000
729.186; 4200.600;   80.525;    0.000
729.382; 4231.600;   72.525;    0.000
729.579; 4257.600;  112.525;    0.000
729.776; 4187.600;  106.525;    0.000
729.972; 4281.600;   77.525;    0.000
730.169; 4287.600;  118.525;    0.000
730.366; 4223.600;   92.525;    0.000
730.562; 4330.600;  104.525;    0.000
730.759; 4293.600;   95.525;    0.000
730.955; 4270.600;   85.525;    0.000
731.152; 4259.600;   79.525;    0.000
731.348; 4343.600;   72.525;    0.000
731.545; 4356.600;   56.525;    0.000
731.741; 4258.600;  106.525;    0.000
731.938; 4354.600;  113.525;    0.000
732.134; 4337.600;  106.525;    0.000
732.331; 4323.600;   82.525;    0.000
732.527; 4303.600;   80.525;    0.000
732.724; 4280.600;   97.525;    0.000
732.920; 4308.600;  127.525;    0.000
733.116; 4288.600;  115.525;    0.000
733.313; 4349.600;  153.525;    0.000
733.509; 4297.600;   76.525;    0.000
733.705; 4225.600;  159.525;    0.000
733.902; 4287.600;   82.525;    0.000
734.098; 4265.600;   70.525;    0.000
734.294; 4204.600;  105.525;    0.000
734.490; 4380.600;  110.525;    0.000
734.687; 4386.600;  102.525;    0.000
734.883; 4361.600;   77.525;    0.000
735.079; 4500.600;   93.525;    0.000
735.275; 4411.600;  109.525;    0.000
735.471; 4307.600;   99.525;    0.000
735.667; 4400.600;  107.525;    0.000
735.863; 4352.600;   89.525;    0.000
736.060; 4467.600;  105.525;    0.000
736.256; 4443.600;  113.525;    0.000
736.452; 4423.600;   90.525;    0.000
736.648; 4463.600;   88.525;    0.000
736.844; 4503.600;  129.525;    0.000
737.040; 4507.600;  139.525;    0.000
737.236; 4565.600;  129.525;    0.000
737.432; 4449.600;   67.525;    0.000
737.628; 4571.600;  104.525;    0.000
737.824; 4599.600;  111.525;    0.000
738.019; 4611.600;  116.525;    0.000
738.215; 4560.600;  135.525;    0.000
738.411; 4514.600;  118.525;    0.000
738.607; 4455.600;   58.525;    0.000
738.803; 4473.600;   32.525;    0.000
738.999; 4601.600;  120.525;    0.000
739.195; 4599.600;   76.525;    0.000
739.390; 4662.600;  119.525;    0.000
739.586; 4663.600;   83.525;    0.000
739.782; 4744.600;  134.525;    0.000
739.978; 4742.600;  122.525;    0.000
740.173; 4641.600;   96.525;    0.000
740.369; 4806.600;   86.525;    0.000
740.565; 4861.600;  122.525;    0.000
740.760; 4809.600;   99.525;    0.000
740.956; 4854.600;  137.525;    0.000
741.152; 4794.600;  108.525;    0.000
741.347; 4738.600;   65.525;    0.000
741.543; 4888.600;   73.525;    0.000
741.738; 4976.600;  142.525;    0.000
741.934; 5058.600;  131.525;    0.000
742.129; 5384.600;   66.525;    0.000
742.325; 5932.600;  143.525;    0.000
742.520; 6421.600;  119.525;    0.000
742.716; 6235.600;  109.525;    0.000
742.911; 5942.600;   62.525;    0.000
743.107; 5843.600;  119.525;    0.000
743.302; 5701.600;   78.525;    0.000
743.498; 5814.600;  130.525;    0.000
743.693; 5789.600;   75.525;    0.000
743.888; 6192.600;  135.525;    0.000
744.084; 6905.600;  106.525;    0.000
744.279; 8242.600;  101.525;    0.000
744.474; 8296.600;   91.525;    0.000
744.670; 7380.600;  144.525;    0.000
744.865; 7093.600;  128.525;    0.000
745.060; 6674.600;   63.525;    0.000
745.255; 6334.600;  155.525;    0.000
745.451; 6185.600;  110.525;    0.000
745.646; 6185.600;  150.525;    0.000
745.841; 6096.600;  128.525;    0.000
746.036; 6128.600;  110.525;    0.000
746.231; 6330.600;  126.525;    0.000
746.426; 6550.600;   83.525;    0.000
746.622; 7618.600;  157.525;    0.000
746.817; 9709.600;  112.525;    0.000
747.012;10821.600;  115.525;    0.000
747.207; 9648.600;  161.525;    0.000
747.402; 8596.600;   88.525;    0.000
747.597; 8084.600;  103.525;    0.000
747.792; 7698.600;  152.525;    0.000
747.987; 7200.600;   80.525;    0.000
748.182; 7095.600;   89.525;    0.000
748.377; 6745.600;  104.525;    0.000
748.572; 6673.600;  138.525;    0.000
748.767; 6434.600;  100.525;    0.000
748.961; 6031.600;  106.525;    0.000
749.156; 6025.600;  113.525;    0.000
749.351; 5948.600;  116.525;    0.000
749.546; 5848.600;  107.525;    0.000
749.741; 5654.600;  102.525;    0.000
749.936; 5749.600;  105.525;    0.000
750.130; 5612.600;  111.525;    0.000
750.325; 5475.600;   72.525;    0.000
750.520; 5489.600;   96.525;    0.000
750.715; 5552.600;  135.525;    0.000
750.909; 5356.600;  107.525;    0.000
751.104; 5489.600;  106.525;    0.000
751.299; 5453.600;  144.525;    0.000
751.493; 5256.600;  116.525;    0.000
751.688; 5347.600;   96.525;    0.000
751.882; 5183.600;   92.525;    0.000
752.077; 5328.600;  109.525;    0.000
752.272; 5170.600;   96.525;    0.000
752.466; 5205.600;  110.525;    0.000
752.661; 5189.600;  120.525;    0.000
752.855; 5099.600;   70.525;    0.000
753.050; 5051.600;  129.525;    0.000
753.244; 5152.600;  126.525;    0.000
753.439; 5022.600;  115.525;    0.000
753.633; 5112.600;  120.525;    0.000
753.828; 5049.600;  129.525;    0.000
754.022; 5057.600;  139.525;    0.000
754.216; 4907.600;  121.525;    0.000
754.411; 5054.600;  108.525;    0.000
754.605; 4935.600;   94.525;    0.000
754.799; 5022.600;  125.525;    0.000
754.994; 4954.600;  160.525;    0.000
755.188; 4965.600;  151.525;    0.000
755.382; 4918.600;  102.525;    0.000
755.576; 5063.600;  103.525;    0.000
755.771; 4958.600;   99.525;    0.000
755.965; 4916.600;  158.525;    0.000
756.159; 4956.600;   96.525;    0.000
756.353; 4950.600;  157.525;    0.000
756.547; 4863.600;  132.525;    0.000
756.742; 4908.600;  106.525;    0.000
756.936; 4859.600;  113.525;    0.000
757.130; 4935.600;  114.525;    0.000
757.324; 5000.600;  111.525;    0.000
757.518; 4891.600;  142.525;    0.000
757.712; 4935.600;  137.525;    0.000
757.906; 5037.600;   93.525;    0.000
758.100; 4903.600;  119.525;    0.000
758.294; 4921.600;  132.525;    0.000
758.488; 5025.600;  153.525;    0.000
758.682; 4933.600;  101.525;    0.000
758.876; 4868.600;  129.525;    0.000
759.070; 5043.600;  168.525;    0.000
759.264; 4990.600;   96.525;    0.000
759.458; 4792.600;  117.525;    0.000
759.651; 4930.600;  135.525;    0.000
759.845; 4807.600;  127.525;    0.000
760.039; 4889.600;  120.525;    0.000
760.233; 4944.600;  124.525;    0.000
760.427; 4881.600;  115.525;    0.000
760.620; 4826.600;  130.525;    0.000
760.814; 4813.600;  102.525;    0.000
761.008; 4838.600;  174.525;    0.000
761.202; 4819.600;  132.525;    0.000
761.395; 4830.600;  126.525;    0.000
761.589; 4922.600;  133.525;    0.000
761.783; 4878.600;  147.525;    0.000
761.976; 4878.600;  147.525;    0.000
762.170; 4967.600;  174.525;    0.000
762.363; 4930.600;   97.525;    0.000
762.557; 4864.600;  141.525;    0.000
762.750; 4946.600;  112.525;    0.000
762.944; 4968.600;  110.525;    0.000
763.138; 4967.600;  125.525;    0.000
763.331; 4916.600;  101.525;    0.000
763.524; 5081.600;  101.525;    0.000
763.718; 4954.600;  156.525;    0.000
763.911; 5063.600;  143.525;    0.000
764.105; 4927.600;  139.525;    0.000
764.298; 4967.600;   89.525;    0.000
764.492; 4996.600;  111.525;    0.000
764.685; 4928.600;  136.525;    0.000
764.878; 5017.600;  146.525;    0.000
765.072; 4923.600;  110.525;    0.000
765.265; 5041.600;  141.525;    0.000
765.458; 4867.600;   82.525;    0.000
765.651; 5109.600;  144.525;    0.000
765.845; 4958.600;   79.525;    0.000
766.038; 5131.600;  123.525;    0.000
766.231; 5430.600;  125.525;    0.000
766.424; 7371.600;  131.525;    0.000
766.617; 7454.600;   62.525;    0.000
766.811; 5260.600;  142.525;    0.000
767.004; 5135.600;  134.525;    0.000
767.197; 5288.600;  147.525;    0.000
767.390; 5057.600;  100.525;    0.000
767.583; 5164.600;  121.525;    0.000
767.776; 5039.600;   91.525;    0.000
767.969; 5155.600;  113.525;    0.000
768.162; 5069.600;  170.525;    0.000
768.355; 5128.600;  134.525;    0.000
768.548; 5175.600;  177.525;    0.000
768.741; 5217.600;   96.525;    0.000
768.934; 5249.600;  143.525;    0.000
769.127; 5420.600;  147.525;    0.000
769.320; 5217.600;   93.525;    0.000
769.513; 5271.600;  137.525;    0.000
769.706; 5812.600;   96.525;    0.000
769.898; 7244.600;  118.525;    0.000
770.091; 6177.600;  138.525;    0.000
770.284; 5442.600;  133.525;    0.000
770.477; 5437.600;  137.525;    0.000
770.670; 5455.600;  124.525;    0.000
770.862; 5403.600;  125.525;    0.000
771.055; 5528.600;  135.525;    0.000
771.248; 5422.600;  109.525;    0.000
771.441; 5528.600;  141.525;    0.000
771.633; 5651.600;  142.525;    0.000
771.826; 5569.600;  123.525;    0.000
772.018; 5677.600;  136.525;    0.000
772.211; 5676.600;  145.525;    0.000
772.404; 5647.600;  127.525;    0.000
772.596; 5681.600;  193.525;    0.000
772.789; 5854.600;   64.525;    0.000
772.981; 5942.600;  142.525;    0.000
773.174; 5999.600;  105.525;    0.000
773.366; 6113.600;  166.525;    0.000
773.559; 6058.600;  125.525;    0.000
773.751; 6220.600;  126.525;    0.000
773.944; 6442.600;  147.525;    0.000
774.136; 6463.600;  155.525;    0.000
774.329; 6480.600;  127.525;    0.000
774.521; 6756.600;  133.525;    0.000
774.713; 7043.600;  139.525;    0.000
774.906; 7016.600;  170.525;    0.000
775.098; 7347.600;  144.525;    0.000
775.290; 7683.600;  162.525;    0.000
775.483; 7859.600;  137.525;    0.000
775.675; 8517.600;  148.525;    0.000
775.867; 9073.600;   81.525;    0.000
776.059; 9797.600;  134.525;    0.000
776.251;10707.600;  137.525;    0.000
776.444;12249.600;  155.525;    0.000
776.636;14168.600;  148.525;    0.000
776.828;17594.600;  129.525;    0.000
777.020;24344.600;  133.525;    0.000
777.212;36255.602;  137.525;    0.000
777.404;40420.602;  124.525;    0.000
777.596;37297.602;  142.525;    0.000
777.788;28018.600;  155.525;    0.000
777.980;21545.600;  119.525;    0.000
778.172;17653.600;  129.525;    0.000
778.364;15027.600;  122.525;    0.000
778.556;13290.600;  129.525;    0.000
778.748;12056.600;  178.525;    0.000
778.940;10786.600;  128.525;    0.000
779.132;10346.600;  145.525;    0.000
779.324; 9477.600;   89.525;    0.000
779.516; 8830.600;  161.525;    0.000
779.708; 8477.600;  183.525;    0.000
779.900; 8052.600;  124.525;    0.000
780.091; 7700.600;  143.525;    0.000
780.283; 7396.600;  135.525;    0.000
780.475; 7076.600;  129.525;    0.000
780.667; 6906.600;  178.525;    0.000
780.859; 6699.600;  146.525;    0.000
781.050; 6635.600;  156.525;    0.000
781.242; 6363.600;  138.525;    0.000
781.434; 6305.600;  117.525;    0.000
781.625; 6040.600;  161.525;    0.000
781.817; 5987.600;  127.525;    0.000
782.008; 6003.600;  138.525;    0.000
782.200; 5947.600;  139.525;    0.000
782.392; 5790.600;  179.525;    0.000
782.583; 5811.600;  137.525;    0.000
782.775; 5709.600;  162.525;    0.000
782.966; 5627.600;  159.525;    0.000
783.158; 5603.600;  118.525;    0.000
783.349; 5602.600;  160.525;    0.000
783.541; 5519.600;  139.525;    0.000
783.732; 5410.600;  145.525;    0.000
783.924; 5357.600;  146.525;    0.000
784.115; 5347.600;  125.525;    0.000
784.306; 5164.600;  118.525;    0.000
784.498; 5263.600;  144.525;    0.000
784.689; 5398.600;  145.525;    0.000
784.880; 5172.600;  137.525;    0.000
785.072; 5065.600;  157.525;    0.000
785.263; 5201.600;  149.525;    0.000
785.454; 5171.600;  128.525;    0.000
785.645; 5080.600;  131.525;    0.000
785.837; 5181.600;  137.525;    0.000
786.028; 5022.600;  161.525;    0.000
786.219; 5132.600;  155.525;    0.000
786.410; 5165.600;  146.525;    0.000
786.601; 5087.600;  120.525;    0.000
786.792; 5062.600;  179.525;    0.000
786.984; 5124.600;  113.525;    0.000
787.175; 4955.600;  156.525;    0.000
787.366; 5090.600;  131.525;    0.000
787.557; 5057.600;  138.525;    0.000
787.748; 5006.600;  112.525;    0.000
787.939; 5079.600;  115.525;    0.000
788.130; 5161.600;  150.525;    0.000
788.321; 5054.600;  122.525;    0.000
788.512; 5036.600;  147.525;    0.000
788.703; 5100.600;  126.525;    0.000
788.894; 5047.600;   80.525;    0.000
789.084; 5122.600;  127.525;    0.000
789.275; 5140.600;  141.525;    0.000
789.466; 5233.600;  108.525;    0.000
789.657; 5161.600;  137.525;    0.000
789.848; 5067.600;  126.525;    0.000
790.039; 5222.600;  144.525;    0.000
790.229; 5095.600;  105.525;    0.000
790.420; 5314.600;   96.525;    0.000
790.611; 5230.600;  171.525;    0.000
790.801; 5231.600;   89.525;    0.000
790.992; 5232.600;  140.525;    0.000
791.183; 5207.600;  143.525;    0.000
791.373; 5194.600;  128.525;    0.000
791.564; 5054.600;   96.525;    0.000
791.755; 5203.600;  111.525;    0.000
791.945; 5139.600;  112.525;    0.000
792.136; 5179.600;  124.525;    0.000
792.326; 5050.600;   88.525;    0.000
792.517; 5262.600;  130.525;    0.000
792.707; 5309.600;  144.525;    0.000
792.898; 5239.600;  120.525;    0.000
793.088; 5227.600;  106.525;    0.000
793.279; 5288.600;  104.525;    0.000
793.469; 5342.600;  103.525;    0.000
793.660; 5616.600;  120.525;    0.000
793.850; 5553.600;  106.525;    0.000
794.040; 5573.600;  135.525;    0.000
794.231; 5937.600;   80.525;    0.000
794.421; 6456.600;  120.525;    0.000
794.611; 7031.600;  154.525;    0.000
794.802; 8094.600;  103.525;    0.000
794.992; 8598.600;  120.525;    0.000
795.182; 8608.600;  156.525;    0.000
795.372; 8151.600;  104.525;    0.000
795.563; 7495.600;  153.525;    0.000
795.753; 6868.600;  112.525;    0.000
795.943; 6394.600;  128.525;    0.000
796.133; 6227.600;  128.525;    0.000
796.323; 6019.600;  152.525;    0.000
796.513; 5727.600;  123.525;    0.000
796.703; 5515.600;  134.525;    0.000
796.893; 5448.600;  120.525;    0.000
797.083; 5455.600;  136.525;    0.000
797.273; 5319.600;  128.525;    0.000
797.463; 5271.600;  140.525;    0.000
797.653; 5027.600;   75.525;    0.000
797.843; 4901.600;  114.525;    0.000
798.033; 4911.600;   90.525;    0.000
798.223; 4893.600;  136.525;    0.000
798.413; 4847.600;  164.525;    0.000
798.603; 4731.600;  150.525;    0.000
798.793; 4652.600;  137.525;    0.000
798.983; 4753.600;  119.525;    0.000
799.172; 4688.600;  136.525;    0.000
799.362; 4721.600;  138.525;    0.000
799.552; 4635.600;  123.525;    0.000
799.742; 4731.600;  117.525;    0.000
799.932; 4562.600;  108.525;    0.000
800.121; 4563.600;  152.525;    0.000
800.311; 4602.600;  117.525;    0.000
800.501; 4337.600;  100.525;    0.000
800.690; 4439.600;  139.525;    0.000
800.880; 4426.600;  138.525;    0.000
801.070; 4405.600;  120.525;    0.000
801.259; 4426.600;  143.525;    0.000
801.449; 4430.600;  110.525;    0.000
801.638; 4429.600;  140.525;    0.000
801.828; 4298.600;  103.525;    0.000
802.017; 4424.600;   78.525;    0.000
802.207; 4390.600;  126.525;    0.000
802.396; 4408.600;  151.525;    0.000
802.586; 4516.600;  106.525;    0.000
802.775; 4414.600;  152.525;    0.000
802.965; 4339.600;  117.525;    0.000
803.154; 4448.600;  171.525;    0.000
803.343; 4325.600;  126.525;    0.000
803.533; 4183.600;  135.525;    0.000
803.722; 4200.600;  144.525;    0.000
803.911; 4361.600;  109.525;    0.000
804.101; 4269.600;  146.525;    0.000
804.290; 4234.600;  115.525;    0.000
804.479; 4207.600;  128.525;    0.000
804.668; 4241.600;  156.525;    0.000
804.857; 4334.600;  151.525;    0.000
805.047; 4182.600;  131.525;    0.000
805.236; 4126.600;  144.525;    0.000
805.425; 4267.600;  160.525;    0.000
805.614; 4174.600;  112.525;    0.000
805.803; 4226.600;  120.525;    0.000
805.992; 4250.600;  148.525;    0.000
806.181; 4188.600;  108.525;    0.000
806.370; 4081.600;  142.525;    0.000
806.559; 4232.600;  116.525;    0.000
806.748; 4270.600;  108.525;    0.000
806.937; 4242.600;  110.525;    0.000
807.126; 4145.600;  126.525;    0.000
807.315; 4242.600;  121.525;    0.000
807.504; 4205.600;  102.525;    0.000
807.693; 4174.600;  134.525;    0.000
807.882; 4174.600;  135.525;    0.000
808.071; 4338.600;  135.525;    0.000
808.260; 4296.600;   93.525;    0.000
808.448; 4372.600;  151.525;    0.000
808.637; 4284.600;  105.525;    0.000
808.826; 4330.600;  178.525;    0.000
809.015; 4250.600;  152.525;    0.000
809.203; 4215.600;  147.525;    0.000
809.392; 4201.600;  144.525;    0.000
809.581; 4347.600;  167.525;    0.000
809.770; 4314.600;  151.525;    0.000
809.958; 4338.600;  128.525;    0.000
810.147; 4419.600;  152.525;    0.000
810.335; 4256.600;  160.525;    0.000
810.524; 4345.600;  130.525;    0.000
810.713; 4492.600;  128.525;    0.000
810.901; 4448.600;  140.525;    0.000
811.090; 4485.600;  152.525;    0.000
811.278; 4439.600;  126.525;    0.000
811.467; 4614.600;  161.525;    0.000
811.655; 4749.600;  184.525;    0.000
811.844; 4661.600;  148.525;    0.000
812.032; 4626.600;  138.525;    0.000
812.220; 4609.600;  157.525;    0.000
812.409; 4652.600;  143.525;    0.000
812.597; 4632.600;  124.525;    0.000
812.785; 4668.600;  170.525;    0.000
812.974; 4748.600;  135.525;    0.000
813.162; 4648.600;  135.525;    0.000
813.350; 4729.600;  182.525;    0.000
813.539; 4749.600;  126.525;    0.000
813.727; 4871.600;  127.525;    0.000
813.915; 4803.600;  140.525;    0.000
814.103; 4753.600;  176.525;    0.000
814.291; 4938.600;  115.525;    0.000
814.479; 4952.600;  119.525;    0.000
814.668; 4917.600;  134.525;    0.000
814.856; 5081.600;  120.525;    0.000
815.044; 5106.600;  164.525;    0.000
815.232; 5194.600;  146.525;    0.000
815.420; 5397.600;  154.525;    0.000
815.608; 5248.600;  137.525;    0.000
815.796; 5346.600;  108.525;    0.000
815.984; 5436.600;  134.525;    0.000
816.172; 5666.600;  123.525;    0.000
816.360; 5782.600;  181.525;    0.000
816.548; 5771.600;  139.525;    0.000
816.736; 6048.600;  138.525;    0.000
816.924; 6363.600;  151.525;    0.000
817.111; 6698.600;  156.525;    0.000
817.299; 7010.600;  147.525;    0.000
817.487; 7391.600;  188.525;    0.000
817.675; 8075.600;  129.525;    0.000
817.863; 9145.600;  128.525;    0.000
818.050;12320.600;  110.525;    0.000
818.238;22046.600;  166.525;    0.000
818.426;31139.600;  136.525;    0.000
818.613;21837.600;  143.525;    0.000
818.801;18202.600;  150.525;    0.000
818.989;17357.600;  179.525;    0.000
819.176;18328.600;  123.525;    0.000
819.364;27061.600;  148.525;    0.000
819.552;40030.602;   86.525;    0.000
819.739;27876.600;  169.525;    0.000
819.927;19666.600;  130.525;    0.000
820.114;16555.600;  144.525;    0.000
820.302;14856.600;  166.525;    0.000
820.489;13522.600;  145.525;    0.000
820.677;12941.600;  101.525;    0.000
820.864;12120.600;  149.525;    0.000
821.052;12219.600;  130.525;    0.000
821.239;12847.600;  147.525;    0.000
821.426;13148.600;  121.525;    0.000
821.614;15582.600;  187.525;    0.000
821.801;16595.600;  105.525;    0.000
821.988;14581.600;  167.525;    0.000
822.176;13969.600;  130.525;    0.000
822.363;14127.600;  143.525;    0.000
822.550;12956.600;  108.525;    0.000
822.737;11711.600;  109.525;    0.000
822.924;10922.600;  156.525;    0.000
823.112;10408.600;  123.525;    0.000
823.299; 9727.600;  128.525;    0.000
823.486; 9429.600;  138.525;    0.000
823.673; 8773.600;  125.525;    0.000
823.860; 8518.600;  138.525;    0.000
824.047; 8637.600;  122.525;    0.000
824.234; 9507.600;  134.525;    0.000
824.421; 9574.600;   95.525;    0.000
824.608; 8522.600;  151.525;    0.000
824.795; 7852.600;  117.525;    0.000
824.982; 7322.600;  143.525;    0.000
825.169; 7047.600;   83.525;    0.000
825.356; 6652.600;  126.525;    0.000
825.543; 6242.600;   92.525;    0.000
825.730; 6055.600;  113.525;    0.000
825.917; 5898.600;  142.525;    0.000
826.104; 5699.600;  182.525;    0.000
826.290; 5693.600;  137.525;    0.000
826.477; 5434.600;  126.525;    0.000
826.664; 5363.600;  135.525;    0.000
826.851; 5320.600;  139.525;    0.000
827.038; 5215.600;  135.525;    0.000
827.224; 5162.600;  143.525;    0.000
827.411; 4962.600;  153.525;    0.000
827.598; 4901.600;  122.525;    0.000
827.784; 4847.600;  138.525;    0.000
827.971; 4719.600;  134.525;    0.000
828.157; 4590.600;  152.525;    0.000
828.344; 4612.600;  135.525;    0.000
828.531; 4554.600;  137.525;    0.000
828.717; 4409.600;  117.525;    0.000
828.904; 4437.600;  127.525;    0.000
829.090; 4458.600;  172.525;    0.000
829.277; 4359.600;  144.525;    0.000
829.463; 4194.600;  159.525;    0.000
829.650; 4210.600;  187.525;    0.000
829.836; 4150.600;  138.525;    0.000
830.022; 4076.600;  196.525;    0.000
830.209; 4099.600;  118.525;    0.000
830.395; 4120.600;  148.525;    0.000
830.581; 4018.600;  108.525;    0.000
830.768; 3938.600;  137.525;    0.000
830.954; 3979.600;  162.525;    0.000
831.140; 3995.600;  117.525;    0.000
831.327; 3843.600;  176.525;    0.000
831.513; 3824.600;  162.525;    0.000
831.699; 3820.600;  157.525;    0.000
831.885; 3775.600;  153.525;    0.000
832.071; 3799.600;  123.525;    0.000
832.257; 3761.600;  142.525;    0.000
832.444; 3785.600;  165.525;    0.000
832.630; 3751.600;  159.525;    0.000
832.816; 3641.600;  145.525;    0.000
833.002; 3639.600;  120.525;    0.000
833.188; 3674.600;  145.525;    0.000
833.374; 3508.600;  137.525;    0.000
833.560; 3669.600;  152.525;    0.000
833.746; 3518.600;  139.525;    0.000
833.932; 3563.600;  170.525;    0.000
834.118; 3452.600;  111.525;    0.000
834.303; 3475.600;  141.525;    0.000
834.489; 3564.600;  146.525;    0.000
834.675; 3516.600;  156.525;    0.000
834.861; 3411.600;   87.525;    0.000
835.047; 3497.600;  134.525;    0.000
835.233; 3399.600;   89.525;    0.000
835.418; 3471.600;  145.525;    0.000
835.604; 3353.600;  136.525;    0.000
835.790; 3365.600;  132.525;    0.000
835.976; 3394.600;  161.525;    0.000
836.161; 3493.600;  157.525;    0.000
836.347; 3363.600;  147.525;    0.000
836.533; 3400.600;  116.525;    0.000
836.718; 3358.600;  168.525;    0.000
836.904; 3386.600;  199.525;    0.000
837.089; 3392.600;  165.525;    0.000
837.275; 3279.600;  166.525;    0.000
837.460; 3395.600;  144.525;    0.000
837.646; 3316.600;  164.525;    0.000
837.831; 3402.600;  122.525;    0.000
838.017; 3361.600;  163.525;    0.000
838.202; 3355.600;  139.525;    0.000
838.388; 3363.600;  174.525;    0.000
838.573; 3285.600;  140.525;    0.000
838.759; 3378.600;  167.525;    0.000
838.944; 3326.600;  142.525;    0.000
839.129; 3235.600;  164.525;    0.000
839.315; 3261.600;  129.525;    0.000
839.500; 3374.600;  150.525;    0.000
839.685; 3298.600;  118.525;    0.000
839.870; 3244.600;  177.525;    0.000
840.056; 3355.600;  144.525;    0.000
840.241; 3298.600;  121.525;    0.000
840.426; 3332.600;  131.525;    0.000
840.611; 3400.600;  177.525;    0.000
840.796; 3381.600;  173.525;    0.000
840.981; 3395.600;  156.525;    0.000
841.166; 3478.600;  145.525;    0.000
841.352; 3519.600;  150.525;    0.000
841.537; 3487.600;  143.525;    0.000
841.722; 3562.600;  165.525;    0.000
841.907; 3567.600;  184.525;    0.000
842.092; 3500.600;  171.525;    0.000
842.277; 3581.600;  155.525;    0.000
842.461; 3751.600;  152.525;    0.000
842.646; 3882.600;  107.525;    0.000
842.831; 3799.600;  160.525;    0.000
843.016; 3907.600;  160.525;    0.000
843.201; 4024.600;  164.525;    0.000
843.386; 4045.600;  134.525;    0.000
843.571; 4366.600;  132.525;    0.000
843.755; 4519.600;  158.525;    0.000
843.940; 4803.600;  152.525;    0.000
844.125; 5547.600;  154.525;    0.000
844.310; 6406.600;  147.525;    0.000
844.494; 8206.600;  158.525;    0.000
844.679;11405.600;  173.525;    0.000
844.864;11057.600;  152.525;    0.000
845.048; 8941.600;  139.525;    0.000
845.233; 7628.600;  200.525;    0.000
845.418; 6732.600;  139.525;    0.000
845.602; 5906.600;  147.525;    0.000
845.787; 5386.600;  148.525;    0.000
845.971; 5014.600;  170.525;    0.000
846.156; 4689.600;  136.525;    0.000
846.340; 4537.600;  146.525;    0.000
846.525; 4302.600;  188.525;    0.000
846.709; 4060.600;  128.525;    0.000
846.893; 3996.600;  151.525;    0.000
847.078; 3942.600;  164.525;    0.000
847.262; 3732.600;  155.525;    0.000
847.447; 3672.600;  114.525;    0.000
847.631; 3611.600;  148.525;    0.000
847.815; 3457.600;  114.525;    0.000
848.000; 3404.600;  134.525;    0.000
848.184; 3339.600;  154.525;    0.000
848.368; 3311.600;  145.525;    0.000
848.552; 3331.600;  122.525;    0.000
848.736; 3288.600;  139.525;    0.000
848.921; 3197.600;  143.525;    0.000
849.105; 3193.600;  145.525;    0.000
849.289; 3203.600;  173.525;    0.000
849.473; 3103.600;  147.525;    0.000
849.657; 3125.600;  144.525;    0.000
849.841; 3092.600;  168.525;    0.000
850.025; 3096.600;  205.525;    0.000
850.209; 3065.600;  171.525;    0.000
850.393; 2957.600;  130.525;    0.000
850.577; 2978.600;  146.525;    0.000
850.761; 3031.600;  188.525;    0.000
850.945; 2927.600;  137.525;    0.000
851.129; 2986.600;  192.525;    0.000
851.313; 2954.600;  199.525;    0.000
851.497; 2922.600;  165.525;    0.000
851.680; 2899.600;  196.525;    0.000
851.864; 2963.600;  169.525;    0.000
852.048; 2854.600;  156.525;    0.000
852.232; 2886.600;  150.525;    0.000
852.416; 2912.600;  219.525;    0.000
852.599; 2901.600;  168.525;    0.000
852.783; 2841.600;  165.525;    0.000
852.967; 2884.600;  166.525;    0.000
853.150; 2860.600;  191.525;    0.000
853.334; 2893.600;  158.525;    0.000
853.518; 2876.600;  168.525;    0.000
853.701; 2842.600;  125.525;    0.000
853.885; 2861.600;  165.525;    0.000
854.068; 2693.600;  142.525;    0.000
854.252; 2814.600;  167.525;    0.000
854.435; 2795.600;  146.525;    0.000
854.619; 2848.600;  163.525;    0.000
854.802; 2756.600;  167.525;    0.000
854.986; 2732.600;  163.525;    0.000
855.169; 2738.600;  146.525;    0.000
855.353; 2819.600;  183.525;    0.000
855.536; 2719.600;  140.525;    0.000
855.719; 2791.600;  168.525;    0.000
855.903; 2847.600;  170.525;    0.000
856.086; 2822.600;  145.525;    0.000
856.269; 2819.600;  126.525;    0.000
856.452; 2953.600;  142.525;    0.000
856.636; 2981.600;  140.525;    0.000
856.819; 3257.600;  127.525;    0.000
857.002; 3274.600;  165.525;    0.000
857.185; 3203.600;  111.525;    0.000
857.368; 3070.600;  143.525;    0.000
857.552; 3054.600;  174.525;    0.000
857.735; 3048.600;  194.525;    0.000
857.918; 2958.600;  171.525;    0.000
858.101; 2963.600;  142.525;    0.000
858.284; 3010.600;  118.525;    0.000
858.467; 3076.600;  163.525;    0.000
858.650; 3067.600;  149.525;    0.000
858.833; 3100.600;  120.525;    0.000
859.016; 3133.600;  169.525;    0.000
859.199; 3260.600;  121.525;    0.000
859.382; 3621.600;  184.525;    0.000
859.564; 3853.600;  139.525;    0.000
859.747; 3739.600;  126.525;    0.000
859.930; 3546.600;  109.525;    0.000
860.113; 3495.600;  137.525;    0.000
860.296; 3478.600;  182.525;    0.000
860.478; 3356.600;  136.525;    0.000
860.661; 3213.600;  157.525;    0.000
860.844; 3308.600;  129.525;    0.000
861.027; 3265.600;  163.525;    0.000
861.209; 3224.600;  151.525;    0.000
861.392; 3257.600;  124.525;    0.000
861.575; 3234.600;  163.525;    0.000
861.757; 3273.600;  205.525;    0.000
861.940; 3342.600;  180.525;    0.000
862.122; 3343.600;  148.525;    0.000
862.305; 3436.600;  128.525;    0.000
862.487; 3568.600;  172.525;    0.000
862.670; 3826.600;  123.525;    0.000
862.852; 4504.600;  126.525;    0.000
863.035; 5379.600;  174.525;    0.000
863.217; 5325.600;  160.525;    0.000
863.400; 4775.600;  164.525;    0.000
863.582; 4454.600;  118.525;    0.000
863.764; 4285.600;  143.525;    0.000
863.947; 4017.600;  137.525;    0.000
864.129; 4004.600;  166.525;    0.000
864.311; 3851.600;  128.525;    0.000
864.493; 3784.600;  153.525;    0.000
864.676; 3728.600;  156.525;    0.000
864.858; 3728.600;  159.525;    0.000
865.040; 3647.600;  163.525;    0.000
865.222; 3619.600;  138.525;    0.000
865.404; 3787.600;  157.525;    0.000
865.587; 3917.600;  184.525;    0.000
865.769; 4131.600;  178.525;    0.000
865.951; 4069.600;  104.525;    0.000
866.133; 4039.600;  147.525;    0.000
866.315; 4039.600;  141.525;    0.000
866.497; 4056.600;  132.525;    0.000
866.679; 4115.600;  139.525;    0.000
866.861; 4354.600;  118.525;    0.000
867.043; 4493.600;  154.525;    0.000
867.225; 4589.600;  147.525;    0.000
867.407; 5013.600;  158.525;    0.000
867.589; 5807.600;  172.525;    0.000
867.770; 7046.600;  159.525;    0.000
867.952; 9736.600;  149.525;    0.000
868.134;12820.600;  156.525;    0.000
868.316;12680.600;  171.525;    0.000
868.498;12171.600;  200.525;    0.000
868.679;10706.600;  174.525;    0.000
868.861; 8925.600;  175.525;    0.000
869.043; 7449.600;  174.525;    0.000
869.224; 6565.600;  122.525;    0.000
869.406; 5981.600;  166.525;    0.000
869.588; 5544.600;  143.525;    0.000
869.769; 5434.600;  152.525;    0.000
869.951; 5136.600;  165.525;    0.000
870.132; 5200.600;  115.525;    0.000
870.314; 5838.600;  139.525;    0.000
870.495; 5947.600;  168.525;    0.000
870.677; 5446.600;  188.525;    0.000
870.858; 5171.600;  123.525;    0.000
871.040; 5571.600;  170.525;    0.000
871.221; 6076.600;  148.525;    0.000
871.403; 5785.600;  140.525;    0.000
871.584; 5348.600;  174.525;    0.000
871.765; 5441.600;  168.525;    0.000
871.947; 5883.600;  191.525;    0.000
872.128; 5265.600;  132.525;    0.000
872.309; 4588.600;  140.525;    0.000
872.491; 4333.600;  157.525;    0.000
872.672; 4048.600;  130.525;    0.000
872.853; 3911.600;  148.525;    0.000
873.034; 3872.600;  138.525;    0.000
873.215; 3693.600;  152.525;    0.000
873.396; 3474.600;  149.525;    0.000
873.578; 3359.600;  173.525;    0.000
873.759; 3221.600;  158.525;    0.000
873.940; 3191.600;  147.525;    0.000
874.121; 3050.600;  136.525;    0.000
874.302; 3022.600;  151.525;    0.000
874.483; 3029.600;  137.525;    0.000
874.664; 2988.600;  163.525;    0.000
874.845; 2975.600;  124.525;    0.000
875.026; 2982.600;  134.525;    0.000
875.207; 2852.600;  164.525;    0.000
875.388; 2868.600;  163.525;    0.000
875.568; 2817.600;  176.525;    0.000
875.749; 2723.600;  108.525;    0.000
875.930; 2720.600;  191.525;    0.000
876.111; 2719.600;  170.525;    0.000
876.292; 2651.600;  180.525;    0.000
876.472; 2652.600;  150.525;    0.000
876.653; 2647.600;  162.525;    0.000
876.834; 2605.600;  176.525;    0.000
877.015; 2571.600;  203.525;    0.000
877.195; 2623.600;  178.525;    0.000
877.376; 2543.600;  141.525;    0.000
877.556; 2489.600;  135.525;    0.000
877.737; 2518.600;  174.525;    0.000
877.918; 2539.600;  150.525;    0.000
878.098; 2479.600;  133.525;    0.000
878.279; 2569.600;  129.525;    0.000
878.459; 2432.600;  162.525;    0.000
878.640; 2548.600;  187.525;    0.000
878.820; 2471.600;  151.525;    0.000
879.000; 2393.600;  159.525;    0.000
879.181; 2438.600;  171.525;    0.000
879.361; 2453.600;  167.525;    0.000
879.542; 2417.600;  126.525;    0.000
879.722; 2361.600;  152.525;    0.000
879.902; 2538.600;  144.525;    0.000
880.083; 2492.600;  154.525;    0.000
880.263; 2446.600;  148.525;    0.000
880.443; 2658.600;  185.525;    0.000
880.623; 3002.600;  172.525;    0.000
880.803; 3264.600;  152.525;    0.000
880.984; 2897.600;  165.525;    0.000
881.164; 2682.600;  164.525;    0.000
881.344; 2588.600;  141.525;    0.000
881.524; 2652.600;  160.525;    0.000
881.704; 2627.600;  164.525;    0.000
881.884; 2622.600;  159.525;    0.000
882.064; 2820.600;  158.525;    0.000
882.244; 2861.600;  147.525;    0.000
882.424; 2781.600;  160.525;    0.000
882.604; 2653.600;  150.525;    0.000
882.784; 2540.600;  138.525;    0.000
882.964; 2599.600;  157.525;    0.000
883.144; 2432.600;  128.525;    0.000
883.324; 2596.600;  220.525;    0.000
883.504; 2334.600;  177.525;    0.000
883.683; 2381.600;  159.525;    0.000
883.863; 2317.600;  143.525;    0.000
884.043; 2387.600;  156.525;    0.000
884.223; 2453.600;  152.525;    0.000
884.402; 2326.600;  169.525;    0.000
884.582; 2288.600;  162.525;    0.000
884.762; 2316.600;  172.525;    0.000
884.941; 2309.600;  220.525;    0.000
885.121; 2214.600;  128.525;    0.000
885.301; 2282.600;  141.525;    0.000
885.480; 2243.600;  141.525;    0.000
885.660; 2183.600;  132.525;    0.000
885.839; 2316.600;  146.525;    0.000
886.019; 2274.600;  170.525;    0.000
886.198; 2176.600;  143.525;    0.000
886.378; 2109.600;  159.525;    0.000
886.557; 2131.600;  148.525;    0.000
886.737; 2179.600;  125.525;    0.000
886.916; 2180.600;  177.525;    0.000
887.095; 2175.600;  186.525;    0.000
887.275; 2126.600;  134.525;    0.000
887.454; 2155.600;  148.525;    0.000
887.633; 2095.600;  171.525;    0.000
887.813; 2183.600;  187.525;    0.000
887.992; 2231.600;  157.525;    0.000
888.171; 2102.600;  143.525;    0.000
888.350; 2125.600;  182.525;    0.000
888.530; 2157.600;  142.525;    0.000
888.709; 2135.600;  160.525;    0.000
888.888; 2201.600;  197.525;    0.000
889.067; 2116.600;  126.525;    0.000
889.246; 2096.600;  197.525;    0.000
889.425; 2188.600;  161.525;    0.000
889.604; 2191.600;  180.525;    0.000
889.783; 2132.600;  135.525;    0.000
889.962; 2023.600;  107.525;    0.000
890.141; 2133.600;  167.525;    0.000
890.320; 2155.600;  149.525;    0.000
890.499; 2123.600;  194.525;    0.000
890.678; 2149.600;  138.525;    0.000
890.857; 2127.600;  146.525;    0.000
891.036; 2154.600;  178.525;    0.000
891.214; 2051.600;  151.525;    0.000
891.393; 2149.600;  137.525;    0.000
891.572; 2162.600;  177.525;    0.000
891.751; 2191.600;  149.525;    0.000
891.930; 2118.600;  189.525;    0.000
892.108; 2131.600;  136.525;    0.000
892.287; 2160.600;  129.525;    0.000
892.466; 2176.600;  163.525;    0.000
892.644; 2075.600;  147.525;    0.000
892.823; 2030.600;  127.525;    0.000
893.001; 2131.600;  192.525;    0.000
893.180; 2181.600;  157.525;    0.000
893.359; 2247.600;  176.525;    0.000
893.537; 2089.600;  146.525;    0.000
893.716; 2110.600;  154.525;    0.000
893.894; 2085.600;  166.525;    0.000
894.073; 2180.600;  163.525;    0.000
894.251; 2081.600;  166.525;    0.000
894.429; 2110.600;  149.525;    0.000
894.608; 2166.600;  141.525;    0.000
894.786; 2042.600;  139.525;    0.000
894.964; 2163.600;  180.525;    0.000
895.143; 2056.600;  193.525;    0.000
895.321; 2184.600;  163.525;    0.000
895.499; 2150.600;  163.525;    0.000
895.677; 2158.600;  194.525;    0.000
895.856; 2201.600;  176.525;    0.000
896.034; 2139.600;  173.525;    0.000
896.212; 2289.600;  180.525;    0.000
896.390; 2108.600;  146.525;    0.000
896.568; 2190.600;  167.525;    0.000
896.746; 2216.600;  158.525;    0.000
896.924; 2141.600;  163.525;    0.000
897.102; 2160.600;  170.525;    0.000
897.280; 2191.600;  159.525;    0.000
897.458; 2188.600;  182.525;    0.000
897.636; 2157.600;  151.525;    0.000
897.814; 2256.600;  130.525;    0.000
897.992; 2199.600;  213.525;    0.000
898.170; 2157.600;  164.525;    0.000
898.348; 2241.600;  159.525;    0.000
898.526; 2180.600;  182.525;    0.000
898.704; 2173.600;  209.525;    0.000
898.882; 2167.600;  145.525;    0.000
899.059; 2228.600;  172.525;    0.000
899.237; 2180.600;  172.525;    0.000
899.415; 2227.600;  211.525;    0.000
899.593; 2152.600;  151.525;    0.000
899.770; 2251.600;  147.525;    0.000
899.948; 2223.600;  218.525;    0.000
900.125; 2265.600;  166.525;    0.000
900.303; 2207.600;  146.525;    0.000
900.481; 2203.600;  174.525;    0.000
900.658; 2215.600;  198.525;    0.000
900.836; 2259.600;  125.525;    0.000
901.013; 2304.600;  197.525;    0.000
901.191; 2305.600;  181.525;    0.000
901.368; 2347.600;  185.525;    0.000
901.546; 2387.600;  197.525;    0.000
901.723; 2373.600;  205.525;    0.000
901.901; 2393.600;  187.525;    0.000
902.078; 2454.600;  163.525;    0.000
902.255; 2475.600;  141.525;    0.000
902.433; 2485.600;  183.525;    0.000
902.610; 2502.600;  181.525;    0.000
902.787; 2536.600;  174.525;    0.000
902.964; 2646.600;  174.525;    0.000
903.142; 2583.600;  141.525;    0.000
903.319; 2710.600;  214.525;    0.000
903.496; 2738.600;  187.525;    0.000
903.673; 2741.600;  183.525;    0.000
903.850; 2702.600;  125.525;    0.000
904.027; 2871.600;  197.525;    0.000
904.204; 2962.600;  197.525;    0.000
904.381; 3110.600;  196.525;    0.000
904.558; 3544.600;  176.525;    0.000
904.735; 4054.600;  179.525;    0.000
904.912; 3993.600;  203.525;    0.000
905.089; 4056.600;  159.525;    0.000
905.266; 3766.600;  176.525;    0.000
905.443; 3557.600;  184.525;    0.000
905.620; 3318.600;  168.525;    0.000
905.797; 3224.600;  214.525;    0.000
905.974; 3091.600;  154.525;    0.000
906.151; 3060.600;  132.525;    0.000
906.327; 3030.600;  192.525;    0.000
906.504; 2902.600;  186.525;    0.000
906.681; 2925.600;  171.525;    0.000
906.858; 2765.600;  181.525;    0.000
907.034; 2755.600;  164.525;    0.000
907.211; 2616.600;  184.525;    0.000
907.388; 2758.600;  177.525;    0.000
907.564; 2624.600;  150.525;    0.000
907.741; 2642.600;  195.525;    0.000
907.917; 2583.600;  190.525;    0.000
908.094; 2537.600;  214.525;    0.000
908.271; 2442.600;  173.525;    0.000
908.447; 2577.600;  229.525;    0.000
908.623; 2442.600;  162.525;    0.000
908.800; 2489.600;  195.525;    0.000
908.976; 2422.600;  171.525;    0.000
909.153; 2418.600;  167.525;    0.000
909.329; 2482.600;  227.525;    0.000
909.505; 2344.600;  167.525;    0.000
909.682; 2352.600;  174.525;    0.000
909.858; 2272.600;  158.525;    0.000
910.034; 2324.600;  188.525;    0.000
910.211; 2276.600;  158.525;    0.000
910.387; 2387.600;  208.525;    0.000
910.563; 2387.600;  203.525;    0.000
910.739; 2333.600;  201.525;    0.000
910.915; 2323.600;  170.525;    0.000
911.091; 2323.600;  171.525;    0.000
911.268; 2285.600;  220.525;    0.000
911.444; 2273.600;  202.525;    0.000
911.620; 2228.600;  175.525;    0.000
911.796; 2259.600;  175.525;    0.000
911.972; 2287.600;  164.525;    0.000
912.148; 2326.600;  174.525;    0.000
912.324; 2260.600;  155.525;    0.000
912.500; 2285.600;  156.525;    0.000
912.676; 2213.600;  138.525;    0.000
912.851; 2325.600;  158.525;    0.000
913.027; 2302.600;  161.525;    0.000
913.203; 2309.600;  168.525;    0.000
913.379; 2172.600;  172.525;    0.000
913.555; 2200.600;  193.525;    0.000
913.730; 2236.600;  149.525;    0.000
913.906; 2274.600;  159.525;    0.000
914.082; 2294.600;  184.525;    0.000
914.258; 2209.600;  194.525;    0.000
914.433; 2221.600;  175.525;    0.000
914.609; 2247.600;  175.525;    0.000
914.784; 2206.600;  170.525;    0.000
914.960; 2278.600;  212.525;    0.000
915.136; 2182.600;  157.525;    0.000
915.311; 2308.600;  204.525;    0.000
915.487; 2185.600;  180.525;    0.000
915.662; 2328.600;  203.525;    0.000
915.838; 2260.600;  194.525;    0.000
916.013; 2348.600;  217.525;    0.000
916.189; 2409.600;  196.525;    0.000
916.364; 2396.600;  236.525;    0.000
916.539; 2313.600;  192.525;    0.000
916.715; 2243.600;  181.525;    0.000
916.890; 2305.600;  185.525;    0.000
917.065; 2226.600;  166.525;    0.000
917.240; 2307.600;  182.525;    0.000
917.416; 2240.600;  188.525;    0.000
917.591; 2263.600;  185.525;    0.000
917.766; 2268.600;  187.525;    0.000
917.941; 2272.600;  181.525;    0.000
918.116; 2295.600;  207.525;    0.000
918.292; 2313.600;  140.525;    0.000
918.467; 2343.600;  187.525;    0.000
918.642; 2325.600;  208.525;    0.000
918.817; 2345.600;  203.525;    0.000
918.992; 2243.600;  162.525;    0.000
919.167; 2348.600;  206.525;    0.000
919.342; 2265.600;  188.525;    0.000
919.517; 2344.600;  190.525;    0.000
919.692; 2334.600;  174.525;    0.000
919.867; 2331.600;  181.525;    0.000
920.041; 2319.600;  179.525;    0.000
920.216; 2426.600;  186.525;    0.000
920.391; 2515.600;  209.525;    0.000
920.566; 2516.600;  205.525;    0.000
920.741; 2547.600;  205.525;    0.000
920.915; 2649.600;  206.525;    0.000
921.090; 2782.600;  219.525;    0.000
921.265; 3207.600;  185.525;    0.000
921.439; 3591.600;  171.525;    0.000
921.614; 3221.600;  197.525;    0.000
921.789; 2982.600;  189.525;    0.000
921.963; 2898.600;  210.525;    0.000
922.138; 2747.600;  171.525;    0.000
922.312; 2801.600;  194.525;    0.000
922.487; 2836.600;  231.525;    0.000
922.661; 2926.600;  179.525;    0.000
922.836; 3154.600;  213.525;    0.000
923.010; 3127.600;  182.525;    0.000
923.185; 2974.600;  239.525;    0.000
923.359; 2849.600;  200.525;    0.000
923.534; 2796.600;  232.525;    0.000
923.708; 2912.600;  221.525;    0.000
923.882; 3049.600;  193.525;    0.000
924.057; 2934.600;  204.525;    0.000
924.231; 2758.600;  172.525;    0.000
924.405; 2929.600;  202.525;    0.000
924.579; 2831.600;  207.525;    0.000
924.753; 2768.600;  167.525;    0.000
924.928; 2744.600;  202.525;    0.000
925.102; 2662.600;  200.525;    0.000
925.276; 2768.600;  185.525;    0.000
925.450; 2749.600;  170.525;    0.000
925.624; 2783.600;  176.525;    0.000
925.798; 2831.600;  221.525;    0.000
925.972; 3040.600;  162.525;    0.000
926.146; 3157.600;  207.525;    0.000
926.320; 3284.600;  185.525;    0.000
926.494; 3711.600;  192.525;    0.000
926.668; 3761.600;  179.525;    0.000
926.842; 3853.600;  181.525;    0.000
927.016; 3890.600;  224.525;    0.000
927.190; 3693.600;  193.525;    0.000
927.363; 3649.600;  194.525;    0.000
927.537; 3564.600;  210.525;    0.000
927.711; 3446.600;  153.525;    0.000
927.885; 3332.600;  184.525;    0.000
928.058; 3372.600;  197.525;    0.000
928.232; 3222.600;  219.525;    0.000
928.406; 3111.600;  175.525;    0.000
928.579; 3096.600;  179.525;    0.000
928.753; 3115.600;  208.525;    0.000
928.927; 2951.600;  163.525;    0.000
929.100; 3010.600;  138.525;    0.000
929.274; 2975.600;  160.525;    0.000
929.447; 2859.600;  152.525;    0.000
929.621; 2865.600;  168.525;    0.000
929.794; 2751.600;  152.525;    0.000
929.968; 2748.600;  163.525;    0.000
930.141; 2777.600;  164.525;    0.000
930.315; 2653.600;  170.525;    0.000
930.488; 2630.600;  216.525;    0.000
930.661; 2623.600;  184.525;    0.000
930.835; 2627.600;  156.525;    0.000
931.008; 2598.600;  206.525;    0.000
931.181; 2554.600;  163.525;    0.000
931.354; 2592.600;  198.525;    0.000
931.528; 2517.600;  156.525;    0.000
931.701; 2447.600;  170.525;    0.000
931.874; 2526.600;  167.525;    0.000
932.047; 2474.600;  146.525;    0.000
932.220; 2393.600;  159.525;    0.000
932.393; 2466.600;  186.525;    0.000
932.566; 2359.600;  147.525;    0.000
932.739; 2374.600;  192.525;    0.000
932.912; 2364.600;  197.525;    0.000
933.085; 2338.600;  176.525;    0.000
933.258; 2354.600;  171.525;    0.000
933.431; 2401.600;  150.525;    0.000
933.604; 2346.600;  176.525;    0.000
933.777; 2325.600;  215.525;    0.000
933.950; 2326.600;  164.525;    0.000
934.123; 2256.600;  174.525;    0.000
934.296; 2340.600;  203.525;    0.000
934.468; 2320.600;  208.525;    0.000
934.641; 2264.600;  182.525;    0.000
934.814; 2198.600;  170.525;    0.000
934.987; 2251.600;  183.525;    0.000
935.159; 2349.600;  154.525;    0.000
935.332; 2265.600;  178.525;    0.000
935.505; 2303.600;  213.525;    0.000
935.677; 2216.600;  173.525;    0.000
935.850; 2281.600;  190.525;    0.000
936.022; 2276.600;  205.525;    0.000
936.195; 2290.600;  201.525;    0.000
936.367; 2299.600;  189.525;    0.000
936.540; 2325.600;  179.525;    0.000
936.712; 2396.600;  195.525;    0.000
936.885; 2327.600;  207.525;    0.000
937.057; 2270.600;  163.525;    0.000
937.229; 2387.600;  175.525;    0.000
937.402; 2302.600;  168.525;    0.000
937.574; 2433.600;  136.525;    0.000
937.746; 2457.600;  166.525;    0.000
937.919; 2536.600;  178.525;    0.000
938.091; 2699.600;  192.525;    0.000
938.263; 2804.600;  164.525;    0.000
938.435; 3026.600;  204.525;    0.000
938.608; 3360.600;  153.525;    0.000
938.780; 3757.600;  159.525;    0.000
938.952; 3987.600;  160.525;    0.000
939.124; 3997.600;  156.525;    0.000
939.296; 4434.600;  110.525;    0.000
939.468; 4679.600;  135.525;    0.000
939.640; 4114.600;  144.525;    0.000
939.812; 3749.600;  232.525;    0.000
939.984; 3376.600;  128.525;    0.000
940.156; 3176.600;  195.525;    0.000
940.328; 3135.600;  226.525;    0.000
940.500; 2896.600;  146.525;    0.000
940.672; 2822.600;  190.525;    0.000
940.843; 2653.600;  156.525;    0.000
941.015; 2741.600;  200.525;    0.000
941.187; 2527.600;  159.525;    0.000
941.359; 2569.600;  183.525;    0.000
941.531; 2512.600;  137.525;    0.000
941.702; 2476.600;  186.525;    0.000
941.874; 2424.600;  164.525;    0.000
942.046; 2451.600;  202.525;    0.000
942.217; 2420.600;  146.525;    0.000
942.389; 2421.600;  165.525;    0.000
942.560; 2347.600;  191.525;    0.000
942.732; 2283.600;  240.525;    0.000
942.904; 2255.600;  173.525;    0.000
943.075; 2193.600;  157.525;    0.000
943.247; 2222.600;  155.525;    0.000
943.418; 2173.600;  164.525;    0.000
943.589; 2237.600;  150.525;    0.000
943.761; 2241.600;  143.525;    0.000
943.932; 2208.600;  151.525;    0.000
944.104; 2224.600;  194.525;    0.000
944.275; 2150.600;  154.525;    0.000
944.446; 2072.600;  169.525;    0.000
944.617; 2052.600;  138.525;    0.000
944.789; 2151.600;  158.525;    0.000
944.960; 2059.600;  197.525;    0.000
945.131; 2078.600;  139.525;    0.000
945.302; 2091.600;  169.525;    0.000
945.473; 2125.600;  149.525;    0.000
945.645; 2119.600;  171.525;    0.000
945.816; 2105.600;  167.525;    0.000
945.987; 2134.600;  156.525;    0.000
946.158; 2263.600;  185.525;    0.000
946.329; 2266.600;  201.525;    0.000
946.500; 2133.600;  182.525;    0.000
946.671; 2052.600;  156.525;    0.000
946.842; 2060.600;  190.525;    0.000
947.013; 2067.600;  159.525;    0.000
947.183; 2004.600;  209.525;    0.000
947.354; 2026.600;  171.525;    0.000
947.525; 2041.600;  180.525;    0.000
947.696; 2035.600;  163.525;    0.000
947.867; 2091.600;  168.525;    0.000
948.037; 1941.600;  153.525;    0.000
948.208; 1974.600;  178.525;    0.000
948.379; 1998.600;  192.525;    0.000
948.550; 1935.600;  180.525;    0.000
948.720; 1937.600;  196.525;    0.000
948.891; 2052.600;  173.525;    0.000
949.061; 1962.600;  207.525;    0.000
949.232; 1940.600;  176.525;    0.000
949.403; 1895.600;  152.525;    0.000
949.573; 1976.600;  186.525;    0.000
949.744; 1957.600;  181.525;    0.000
949.914; 1970.600;  174.525;    0.000
950.085; 1989.600;  146.525;    0.000
950.255; 1893.600;  162.525;    0.000
950.425; 1957.600;  189.525;    0.000
950.596; 1872.600;  175.525;    0.000
950.766; 2088.600;  209.525;    0.000
950.936; 2018.600;  201.525;    0.000
951.107; 1892.600;  141.525;    0.000
951.277; 1968.600;  211.525;    0.000
951.447; 1993.600;  218.525;    0.000
951.617; 1891.600;  191.525;    0.000
951.788; 1922.600;  193.525;    0.000
951.958; 2003.600;  217.525;    0.000
952.128; 1871.600;  192.525;    0.000
952.298; 1904.600;  237.525;    0.000
952.468; 1981.600;  194.525;    0.000
952.638; 1880.600;  201.525;    0.000
952.808; 1803.600;  203.525;    0.000
952.978; 1907.600;  216.525;    0.000
953.148; 1881.600;  209.525;    0.000
953.318; 1948.600;  213.525;    0.000
953.488; 1863.600;  161.525;    0.000
953.658; 1895.600;  222.525;    0.000
953.828; 1947.600;  196.525;    0.000
953.998; 1974.600;  227.525;    0.000
954.167; 1909.600;  163.525;    0.000
954.337; 1863.600;  201.525;    0.000
954.507; 1871.600;  227.525;    0.000
954.677; 1845.600;  204.525;    0.000
954.846; 1806.600;  210.525;    0.000
955.016; 1882.600;  198.525;    0.000
955.186; 1793.600;  203.525;    0.000
955.355; 1897.600;  198.525;    0.000
955.525; 1792.600;  198.525;    0.000
955.695; 1776.600;  187.525;    0.000
955.864; 1822.600;  243.525;    0.000
956.034; 1800.600;  192.525;    0.000
956.203; 1844.600;  259.525;    0.000
956.373; 1705.600;  185.525;    0.000
956.542; 1853.600;  230.525;    0.000
956.711; 1772.600;  218.525;    0.000
956.881; 1811.600;  232.525;    0.000
957.050; 1849.600;  246.525;    0.000
957.220; 1758.600;  229.525;    0.000
957.389; 1772.600;  211.525;    0.000
957.558; 1753.600;  173.525;    0.000
957.727; 1787.600;  226.525;    0.000
957.897; 1704.600;  209.525;    0.000
958.066; 1814.600;  217.525;    0.000
958.235; 1731.600;  160.525;    0.000
958.404; 1774.600;  199.525;    0.000
958.573; 1799.600;  223.525;    0.000
958.743; 1767.600;  189.525;    0.000
958.912; 1726.600;  199.525;    0.000
959.081; 1809.600;  216.525;    0.000
959.250; 1688.600;  192.525;    0.000
959.419; 1711.600;  216.525;    0.000
959.588; 1805.600;  209.525;    0.000
959.757; 1710.600;  194.525;    0.000
959.926; 1762.600;  200.525;    0.000
960.094; 1745.600;  174.525;    0.000
960.263; 1687.600;  218.525;    0.000
960.432; 1726.600;  173.525;    0.000
960.601; 1652.600;  177.525;    0.000
960.770; 1738.600;  188.525;    0.000
960.939; 1716.600;  167.525;    0.000
961.107; 1689.600;  195.525;    0.000
961.276; 1758.600;  183.525;    0.000
961.445; 1703.600;  195.525;    0.000
961.613; 1650.600;  198.525;    0.000
961.782; 1709.600;  224.525;    0.000
961.951; 1714.600;  178.525;    0.000
962.119; 1680.600;  214.525;    0.000
962.288; 1663.600;  174.525;    0.000
962.456; 1694.600;  197.525;    0.000
962.625; 1774.600;  212.525;    0.000
962.793; 1712.600;  183.525;    0.000
962.962; 1685.600;  189.525;    0.000
963.130; 1619.600;  151.525;    0.000
963.298; 1658.600;  197.525;    0.000
963.467; 1660.600;  202.525;    0.000
963.635; 1723.600;  172.525;    0.000
963.803; 1702.600;  203.525;    0.000
963.972; 1707.600;  204.525;    0.000
964.140; 1650.600;  193.525;    0.000
964.308; 1703.600;  159.525;    0.000
964.477; 1675.600;  142.525;    0.000
964.645; 1704.600;  202.525;    0.000
964.813; 1635.600;  158.525;    0.000
964.981; 1738.600;  179.525;    0.000
965.149; 1741.600;  176.525;    0.000
965.317; 1665.600;  229.525;    0.000
965.485; 1633.600;  179.525;    0.000
965.653; 1735.600;  205.525;    0.000
965.821; 1692.600;  196.525;    0.000
965.989; 1668.600;  202.525;    0.000
966.157; 1710.600;  199.525;    0.000
966.325; 1648.600;  178.525;    0.000
966.493; 1665.600;  177.525;    0.000
966.661; 1673.600;  172.525;    0.000
966.829; 1667.600;  167.525;    0.000
966.996; 1664.600;  202.525;    0.000
967.164; 1671.600;  175.525;    0.000
967.332; 1738.600;  207.525;    0.000
967.500; 1670.600;  170.525;    0.000
967.667; 1757.600;  222.525;    0.000
967.835; 1711.600;  245.525;    0.000
968.003; 1727.600;  180.525;    0.000
968.170; 1694.600;  222.525;    0.000
968.338; 1656.600;  183.525;    0.000
968.505; 1702.600;  197.525;    0.000
968.673; 1703.600;  209.525;    0.000
968.841; 1659.600;  162.525;    0.000
969.008; 1680.600;  187.525;    0.000
969.175; 1709.600;  204.525;    0.000
969.343; 1736.600;  157.525;    0.000
969.510; 1679.600;  189.525;    0.000
969.678; 1715.600;  153.525;    0.000
969.845; 1719.600;  190.525;    0.000
970.012; 1630.600;  162.525;    0.000
970.180; 1743.600;  223.525;    0.000
970.347; 1729.600;  195.525;    0.000
970.514; 1697.600;  185.525;    0.000
970.681; 1791.600;  187.525;    0.000
970.849; 1616.600;  183.525;    0.000
971.016; 1739.600;  168.525;    0.000
971.183; 1656.600;  160.525;    0.000
971.350; 1640.600;  193.525;    0.000
971.517; 1691.600;  202.525;    0.000
971.684; 1763.600;  242.525;    0.000
971.851; 1697.600;  192.525;    0.000
972.018; 1769.600;  194.525;    0.000
972.185; 1695.600;  193.525;    0.000
972.352; 1735.600;  187.525;    0.000
972.519; 1729.600;  233.525;    0.000
972.686; 1748.600;  186.525;    0.000
972.853; 1604.600;  165.525;    0.000
973.020; 1673.600;  183.525;    0.000
973.186; 1689.600;  186.525;    0.000
973.353; 1700.600;  177.525;    0.000
973.520; 1689.600;  203.525;    0.000
973.687; 1687.600;  211.525;    0.000
973.853; 1698.600;  194.525;    0.000
974.020; 1648.600;  201.525;    0.000
974.187; 1629.600;  187.525;    0.000
974.353; 1746.600;  188.525;    0.000
974.520; 1635.600;  136.525;    0.000
974.687; 1728.600;  169.525;    0.000
974.853; 1733.600;  207.525;    0.000
975.020; 1654.600;  190.525;    0.000
975.186; 1634.600;  182.525;    0.000
975.353; 1653.600;  202.525;    0.000
975.519; 1643.600;  189.525;    0.000
975.685; 1684.600;  176.525;    0.000
975.852; 1754.600;  175.525;    0.000
976.018; 1664.600;  155.525;    0.000
976.184; 1670.600;  179.525;    0.000
976.351; 1693.600;  191.525;    0.000
976.517; 1697.600;  246.525;    0.000
976.683; 1682.600;  222.525;    0.000
976.849; 1707.600;  216.525;    0.000
977.016; 1630.600;  212.525;    0.000
977.182; 1614.600;  192.525;    0.000
977.348; 1572.600;  145.525;    0.000
977.514; 1564.600;  195.525;    0.000
977.680; 1587.600;  210.525;    0.000
977.846; 1620.600;  172.525;    0.000
978.012; 1586.600;  190.525;    0.000
978.178; 1585.600;  201.525;    0.000
978.344; 1643.600;  190.525;    0.000
978.510; 1541.600;  199.525;    0.000
978.676; 1591.600;  174.525;    0.000
978.842; 1692.600;  195.525;    0.000
979.008; 1674.600;  205.525;    0.000
979.174; 1615.600;  187.525;    0.000
979.340; 1616.600;  194.525;    0.000
979.505; 1665.600;  221.525;    0.000
979.671; 1625.600;  178.525;    0.000
979.837; 1748.600;  215.525;    0.000
980.003; 1609.600;  176.525;    0.000
980.168; 1615.600;  185.525;    0.000
980.334; 1658.600;  165.525;    0.000
980.499; 1688.600;  231.525;    0.000
980.665; 1693.600;  238.525;    0.000
980.831; 1670.600;  194.525;    0.000
980.996; 1661.600;  169.525;    0.000
981.162; 1748.600;  199.525;    0.000
981.327; 1619.600;  158.525;    0.000
981.493; 1618.600;  193.525;    0.000
981.658; 1640.600;  181.525;    0.000
981.823; 1648.600;  199.525;    0.000
981.989; 1713.600;  186.525;    0.000
982.154; 1709.600;  225.525;    0.000
982.319; 1660.600;  191.525;    0.000
982.485; 1661.600;  205.525;    0.000
982.650; 1749.600;  234.525;    0.000
982.815; 1594.600;  193.525;    0.000
982.980; 1686.600;  177.525;    0.000
983.146; 1669.600;  212.525;    0.000
983.311; 1708.600;  177.525;    0.000
983.476; 1662.600;  185.525;    0.000
983.641; 1662.600;  149.525;    0.000
983.806; 1640.600;  175.525;    0.000
983.971; 1712.600;  234.525;    0.000
984.136; 1643.600;  191.525;    0.000
984.301; 1600.600;  215.525;    0.000
984.466; 1686.600;  207.525;    0.000
984.631; 1695.600;  206.525;    0.000
984.796; 1635.600;  229.525;    0.000
984.961; 1671.600;  220.525;    0.000
985.126; 1693.600;  204.525;    0.000
985.291; 1726.600;  210.525;    0.000
985.455; 1665.600;  193.525;    0.000
985.620; 1605.600;  207.525;    0.000
985.785; 1591.600;  188.525;    0.000
985.950; 1590.600;  168.525;    0.000
986.114; 1638.600;  239.525;    0.000
986.279; 1650.600;  223.525;    0.000
986.444; 1644.600;  154.525;    0.000
986.608; 1709.600;  232.525;    0.000
986.773; 1630.600;  214.525;    0.000
986.937; 1796.600;  220.525;    0.000
987.102; 1710.600;  224.525;    0.000
987.266; 1593.600;  157.525;    0.000
987.431; 1746.600;  246.525;    0.000
987.595; 1704.600;  203.525;    0.000
987.760; 1655.600;  202.525;    0.000
987.924; 1638.600;  208.525;    0.000
988.088; 1692.600;  169.525;    0.000
988.253; 1718.600;  237.525;    0.000
988.417; 1573.600;  202.525;    0.000
988.581; 1627.600;  215.525;    0.000
988.746; 1700.600;  210.525;    0.000
988.910; 1679.600;  191.525;    0.000
989.074; 1616.600;  197.525;    0.000
989.238; 1642.600;  191.525;    0.000
989.402; 1631.600;  222.525;    0.000
989.566; 1669.600;  221.525;    0.000
989.731; 1637.600;  216.525;    0.000
989.895; 1607.600;  183.525;    0.000
990.059; 1580.600;  150.525;    0.000
990.223; 1549.600;  183.525;    0.000
990.387; 1638.600;  241.525;    0.000
990.551; 1614.600;  198.525;    0.000
990.714; 1613.600;  176.525;    0.000
990.878; 1605.600;  203.525;    0.000
991.042; 1600.600;  146.525;    0.000
991.206; 1632.600;  199.525;    0.000
991.370; 1660.600;  223.525;    0.000
991.534; 1574.600;  158.525;    0.000
991.697; 1618.600;  182.525;    0.000
991.861; 1623.600;  195.525;    0.000
992.025; 1621.600;  206.525;    0.000
992.188; 1637.600;  174.525;    0.000
992.352; 1552.600;  183.525;    0.000
992.516; 1668.600;  181.525;    0.000
992.679; 1645.600;  162.525;    0.000
992.843; 1668.600;  173.525;    0.000
993.006; 1626.600;  189.525;    0.000
993.170; 1659.600;  200.525;    0.000
993.333; 1589.600;  167.525;    0.000
993.497; 1650.600;  217.525;    0.000
993.660; 1663.600;  179.525;    0.000
993.824; 1626.600;  195.525;    0.000
993.987; 1643.600;  186.525;    0.000
994.150; 1568.600;  164.525;    0.000
994.314; 1670.600;  215.525;    0.000
994.477; 1629.600;  186.525;    0.000
994.640; 1604.600;  192.525;    0.000
994.803; 1599.600;  215.525;    0.000
994.967; 1635.600;  208.525;    0.000
995.130; 1584.600;  196.525;    0.000
995.293; 1588.600;  221.525;    0.000
995.456; 1645.600;  164.525;    0.000
995.619; 1585.600;  224.525;    0.000
995.782; 1605.600;  184.525;    0.000
995.945; 1561.600;  220.525;    0.000
996.108; 1619.600;  187.525;    0.000
996.271; 1602.600;  192.525;    0.000
996.434; 1606.600;  162.525;    0.000
996.597; 1568.600;  148.525;    0.000
996.760; 1620.600;  186.525;    0.000
996.923; 1603.600;  154.525;    0.000
997.086; 1574.600;  156.525;    0.000
997.248; 1666.600;  215.525;    0.000
997.411; 1661.600;  160.525;    0.000
997.574; 1611.600;  159.525;    0.000
997.737; 1529.600;  179.525;    0.000
997.899; 1630.600;  184.525;    0.000
998.062; 1568.600;  180.525;    0.000
998.225; 1546.600;  168.525;    0.000
998.387; 1623.600;  192.525;    0.000
998.550; 1604.600;  178.525;    0.000
998.712; 1542.600;  192.525;    0.000
998.875; 1613.600;  230.525;    0.000
999.037; 1652.600;  200.525;    0.000
999.200; 1655.600;  196.525;    0.000
999.362; 1579.600;  173.525;    0.000
999.525; 1542.600;  196.525;    0.000
999.687; 1504.600;  159.525;    0.000
999.849; 1561.600;  180.525;    0.000
1000.012; 1561.600;  210.525;    0.000
1000.174; 1537.600;  175.525;    0.000
1000.336; 1580.600;  174.525;    0.000
1000.499; 1711.600;  180.525;    0.000
1000.661; 1568.600;  204.525;    0.000
1000.823; 1620.600;  181.525;    0.000
1000.985; 1608.600;  178.525;    0.000
1001.147; 1707.600;  215.525;    0.000
1001.309; 1677.600;  212.525;    0.000
1001.471; 1621.600;  192.525;    0.000
1001.633; 1653.600;  207.525;    0.000
1001.796; 1649.600;  211.525;    0.000
1001.958; 1763.600;  200.525;    0.000
1002.119; 1698.600;  210.525;    0.000
1002.281; 1798.600;  204.525;    0.000
1002.443; 1844.600;  230.525;    0.000
1002.605; 1882.600;  178.525;    0.000
1002.767; 2051.600;  228.525;    0.000
1002.929; 2084.600;  199.525;    0.000
1003.091; 2216.600;  220.525;    0.000
1003.252; 2285.600;  219.525;    0.000
1003.414; 2340.600;  213.525;    0.000
1003.576; 2489.600;  202.525;    0.000
1003.738; 2555.600;  184.525;    0.000
1003.899; 2779.600;  218.525;    0.000
1004.061; 2844.600;  210.525;    0.000
1004.222; 2883.600;  179.525;    0.000
1004.384; 2982.600;  183.525;    0.000
1004.546; 3049.600;  206.525;    0.000
1004.707; 3073.600;  191.525;    0.000
1004.869; 3091.600;  197.525;    0.000
1005.030; 2979.600;  186.525;    0.000
1005.191; 2920.600;  188.525;    0.000
1005.353; 2958.600;  215.525;    0.000
1005.514; 2808.600;  184.525;    0.000
1005.675; 2645.600;  209.525;    0.000
1005.837; 2569.600;  239.525;    0.000
1005.998; 2569.600;  218.525;    0.000
1006.159; 2494.600;  212.525;    0.000
1006.321; 2535.600;  220.525;    0.000
1006.482; 2666.600;  201.525;    0.000
1006.643; 2744.600;  222.525;    0.000
1006.804; 2828.600;  191.525;    0.000
1006.965; 2946.600;  214.525;    0.000
1007.126; 2875.600;  214.525;    0.000
1007.287; 2868.600;  243.525;    0.000
1007.448; 2917.600;  251.525;    0.000
1007.609; 2879.600;  244.525;    0.000
1007.770; 2670.600;  211.525;    0.000
1007.931; 2715.600;  225.525;    0.000
1008.092; 2767.600;  188.525;    0.000
1008.253; 2916.600;  224.525;    0.000
1008.414; 2927.600;  198.525;    0.000
1008.575; 2900.600;  244.525;    0.000
1008.736; 2947.600;  219.525;    0.000
1008.896; 2915.600;  206.525;    0.000
1009.057; 2801.600;  258.525;    0.000
1009.218; 2891.600;  209.525;    0.000
1009.379; 2805.600;  204.525;    0.000
1009.539; 2911.600;  242.525;    0.000
1009.700; 2981.600;  205.525;    0.000
1009.860; 2992.600;  211.525;    0.000
1010.021; 2965.600;  219.525;    0.000
1010.182; 3008.600;  206.525;    0.000
1010.342; 2877.600;  219.525;    0.000
1010.503; 3070.600;  231.525;    0.000
1010.663; 3065.600;  260.525;    0.000
1010.823; 3126.600;  200.525;    0.000
1010.984; 3221.600;  189.525;    0.000
1011.144; 3250.600;  234.525;    0.000
1011.305; 3260.600;  212.525;    0.000
1011.465; 3484.600;  202.525;    0.000
1011.625; 3602.600;  236.525;    0.000
1011.785; 3672.600;  203.525;    0.000
1011.946; 3594.600;  195.525;    0.000
1012.106; 3449.600;  176.525;    0.000
1012.266; 3485.600;  211.525;    0.000
1012.426; 3530.600;  244.525;    0.000
1012.586; 3479.600;  202.525;    0.000
1012.746; 3526.600;  234.525;    0.000
1012.906; 3316.600;  246.525;    0.000
1013.066; 3440.600;  232.525;    0.000
1013.226; 3576.600;  248.525;    0.000
1013.386; 3543.600;  231.525;    0.000
1013.546; 3512.600;  233.525;    0.000
1013.706; 3415.600;  211.525;    0.000
1013.866; 3319.600;  240.525;    0.000
1014.026; 3573.600;  188.525;    0.000
1014.186; 3447.600;  186.525;    0.000
1014.346; 3429.600;  203.525;    0.000
1014.505; 3585.600;  238.525;    0.000
1014.665; 3617.600;  206.525;    0.000
1014.825; 3604.600;  200.525;    0.000
1014.985; 3407.600;  215.525;    0.000
1015.144; 3626.600;  250.525;    0.000
1015.304; 4010.600;  195.525;    0.000
1015.464; 3908.600;  237.525;    0.000
1015.623; 3697.600;  232.525;    0.000
1015.783; 4143.600;  220.525;    0.000
1015.942; 4470.600;  219.525;    0.000
1016.102; 4480.600;  202.525;    0.000
1016.261; 4361.600;  225.525;    0.000
1016.420; 4592.600;  246.525;    0.000
1016.580; 5145.600;  226.525;    0.000
1016.739; 4940.600;  214.525;    0.000
1016.899; 4793.600;  205.525;    0.000
1017.058; 5018.600;  217.525;    0.000
1017.217; 5345.600;  199.525;    0.000
1017.376; 5142.600;  219.525;    0.000
1017.536; 4563.600;  209.525;    0.000
1017.695; 4662.600;  213.525;    0.000
1017.854; 4688.600;  187.525;    0.000
1018.013; 4550.600;  222.525;    0.000
1018.172; 4336.600;  204.525;    0.000
1018.331; 4467.600;  195.525;    0.000
1018.490; 4576.600;  213.525;    0.000
1018.649; 4793.600;  216.525;    0.000
1018.808; 4952.600;  227.525;    0.000
1018.967; 5081.600;  206.525;    0.000
1019.126; 5109.600;  206.525;    0.000
1019.285; 5163.600;  219.525;    0.000
1019.444; 5136.600;  218.525;    0.000
1019.603; 4971.600;  206.525;    0.000
1019.762; 4692.600;  189.525;    0.000
1019.921; 4676.600;  217.525;    0.000
1020.079; 4975.600;  200.525;    0.000
1020.238; 5351.600;  219.525;    0.000
1020.397; 5331.600;  227.525;    0.000
1020.555; 4941.600;  207.525;    0.000
1020.714; 4943.600;  253.525;    0.000
1020.873; 5309.600;  230.525;    0.000
1021.031; 5431.600;  232.525;    0.000
1021.190; 5197.600;  226.525;    0.000
1021.348; 5016.600;  224.525;    0.000
1021.507; 5399.600;  215.525;    0.000
1021.665; 5684.600;  233.525;    0.000
1021.824; 5469.600;  196.525;    0.000
1021.982; 5052.600;  215.525;    0.000
1022.141; 5143.600;  200.525;    0.000
1022.299; 5893.600;  200.525;    0.000
1022.457; 6039.600;  179.525;    0.000
1022.616; 5626.600;  226.525;    0.000
1022.774; 5057.600;  216.525;    0.000
1022.932; 5359.600;  212.525;    0.000
1023.090; 5896.600;  220.525;    0.000
1023.249; 6157.600;  194.525;    0.000
1023.407; 5774.600;  227.525;    0.000
1023.565; 5142.600;  190.525;    0.000
1023.723; 5445.600;  190.525;    0.000
1023.881; 6177.600;  214.525;    0.000
1024.039; 6236.600;  179.525;    0.000
1024.197; 5806.600;  274.525;    0.000
1024.355; 5200.600;  269.525;    0.000
1024.513; 5464.600;  259.525;    0.000
1024.671; 6256.600;  211.525;    0.000
1024.829; 6247.600;  230.525;    0.000
1024.987; 5850.600;  239.525;    0.000
1025.145; 5235.600;  231.525;    0.000
1025.302; 5559.600;  212.525;    0.000
1025.460; 6137.600;  224.525;    0.000
1025.618; 6381.600;  217.525;    0.000
1025.776; 6078.600;  232.525;    0.000
1025.933; 5361.600;  212.525;    0.000
1026.091; 5603.600;  214.525;    0.000
1026.249; 6074.600;  224.525;    0.000
1026.406; 6654.600;  219.525;    0.000
1026.564; 6324.600;  262.525;    0.000
1026.721; 5882.600;  206.525;    0.000
1026.879; 5603.600;  227.525;    0.000
1027.036; 6140.600;  234.525;    0.000
1027.194; 6702.600;  256.525;    0.000
1027.351; 6677.600;  229.525;    0.000
1027.509; 6240.600;  253.525;    0.000
1027.666; 5765.600;  248.525;    0.000
1027.823; 6091.600;  215.525;    0.000
1027.981; 6454.600;  248.525;    0.000
1028.138; 6828.600;  257.525;    0.000
1028.295; 6485.600;  215.525;    0.000
1028.452; 5988.600;  236.525;    0.000
1028.609; 6121.600;  240.525;    0.000
1028.767; 6414.600;  258.525;    0.000
1028.924; 6741.600;  211.525;    0.000
1029.081; 6544.600;  226.525;    0.000
1029.238; 6579.600;  228.525;    0.000
1029.395; 6122.600;  264.525;    0.000
1029.552; 6280.600;  227.525;    0.000
1029.709; 6658.600;  232.525;    0.000
1029.866; 6953.600;  223.525;    0.000
1030.023; 6793.600;  220.525;    0.000
1030.180; 6186.600;  222.525;    0.000
1030.337; 6335.600;  224.525;    0.000
1030.494; 6426.600;  228.525;    0.000
1030.650; 6866.600;  242.525;    0.000
1030.807; 7312.600;  214.525;    0.000
1030.964; 6558.600;  207.525;    0.000
1031.121; 6633.600;  236.525;    0.000
1031.277; 6376.600;  206.525;    0.000
1031.434; 6716.600;  249.525;    0.000
1031.591; 7151.600;  253.525;    0.000
1031.747; 7260.600;  240.525;    0.000
1031.904; 7048.600;  212.525;    0.000
1032.060; 6927.600;  185.525;    0.000
1032.217; 6621.600;  201.525;    0.000
1032.373; 7279.600;  207.525;    0.000
1032.530; 7567.600;  226.525;    0.000
1032.686; 8079.600;  226.525;    0.000
1032.843; 8241.600;  203.525;    0.000
1032.999; 7954.600;  233.525;    0.000
1033.155; 7999.600;  232.525;    0.000
1033.312; 8145.600;  239.525;    0.000
1033.468; 9371.600;  207.525;    0.000
1033.624; 9870.600;  238.525;    0.000
1033.780;10384.600;  255.525;    0.000
1033.937;10313.600;  188.525;    0.000
1034.093; 9278.600;  244.525;    0.000
1034.249; 9829.600;  182.525;    0.000
1034.405; 9598.600;  251.525;    0.000
1034.561;10489.600;  250.525;    0.000
1034.717;11062.600;  208.525;    0.000
1034.873;10628.600;  210.525;    0.000
1035.029;11192.600;  245.525;    0.000
1035.185;10226.600;  230.525;    0.000
1035.341; 9910.600;  209.525;    0.000
1035.497;10810.600;  244.525;    0.000
1035.653;11079.600;  229.525;    0.000
1035.809;12061.600;  275.525;    0.000
1035.964;13134.600;  203.525;    0.000
1036.120;12792.600;  215.525;    0.000
1036.276;12384.600;  228.525;    0.000
1036.432;12203.600;  183.525;    0.000
1036.587;11166.600;  214.525;    0.000
1036.743;12086.600;  240.525;    0.000
1036.899;12751.600;  202.525;    0.000
1037.054;13279.600;  182.525;    0.000
1037.210;14687.600;  228.525;    0.000
1037.365;15092.600;  239.525;    0.000
1037.521;13486.600;  230.525;    0.000
1037.676;13371.600;  217.525;    0.000
1037.832;12493.600;  235.525;    0.000
1037.987;12697.600;  210.525;    0.000
1038.143;12881.600;  206.525;    0.000
1038.298;14900.600;  177.525;    0.000
1038.453;14815.600;  215.525;    0.000
1038.609;16314.600;  210.525;    0.000
1038.764;17048.600;  227.525;    0.000
1038.919;15236.600;  197.525;    0.000
1039.074;15151.600;  183.525;    0.000
1039.229;13881.600;  218.525;    0.000
1039.385;13962.600;  251.525;    0.000
1039.540;14317.600;  222.525;    0.000
1039.695;15931.600;  215.525;    0.000
1039.850;16835.600;  204.525;    0.000
1040.005;18548.600;  241.525;    0.000
1040.160;19928.600;  180.525;    0.000
1040.315;19074.600;  197.525;    0.000
1040.470;17119.600;  180.525;    0.000
1040.625;16595.600;  196.525;    0.000
1040.780;16081.600;  245.525;    0.000
1040.935;15795.600;  204.525;    0.000
1041.089;16758.600;  213.525;    0.000
1041.244;19943.600;  200.525;    0.000
1041.399;20229.600;  212.525;    0.000
1041.554;21600.600;  239.525;    0.000
1041.708;23787.600;  238.525;    0.000
1041.863;23668.600;  213.525;    0.000
1042.018;22333.600;  236.525;    0.000
1042.172;22166.600;  238.525;    0.000
1042.327;19909.600;  254.525;    0.000
1042.481;20719.600;  197.525;    0.000
1042.636;20847.600;  205.525;    0.000
1042.791;21032.600;  218.525;    0.000
1042.945;24972.600;  261.525;    0.000
1043.099;27908.600;  201.525;    0.000
1043.254;27043.600;  191.525;    0.000
1043.408;28359.600;  279.525;    0.000
1043.563;29157.600;  203.525;    0.000
1043.717;27967.600;  229.525;    0.000
1043.871;26693.600;  213.525;    0.000
1044.025;25133.600;  240.525;    0.000
1044.180;24833.600;  220.525;    0.000
1044.334;24146.600;  268.525;    0.000
1044.488;25347.600;  261.525;    0.000
1044.642;27376.600;  205.525;    0.000
1044.796;29900.600;  240.525;    0.000
1044.950;34020.602;  258.525;    0.000
1045.104;36210.602;  218.525;    0.000
1045.258;36339.602;  213.525;    0.000
1045.412;35871.602;  223.525;    0.000
1045.566;36711.602;  240.525;    0.000
1045.720;34239.602;  235.525;    0.000
1045.874;31676.600;  221.525;    0.000
1046.028;29787.600;  247.525;    0.000
1046.182;29887.600;  200.525;    0.000
1046.336;29937.600;  220.525;    0.000
1046.489;30437.600;  228.525;    0.000
1046.643;32089.600;  249.525;    0.000
1046.797;35917.602;  230.525;    0.000
1046.951;37443.602;  234.525;    0.000
1047.104;37734.602;  262.525;    0.000
1047.258;39976.602;  210.525;    0.000
1047.411;41126.602;  235.525;    0.000
1047.565;40376.602;  237.525;    0.000
1047.719;40061.602;  237.525;    0.000
1047.872;38948.602;  225.525;    0.000
1048.026;37383.602;  237.525;    0.000
1048.179;36036.602;  220.525;    0.000
1048.332;36425.602;  219.525;    0.000
1048.486;35328.602;  195.525;    0.000
1048.639;35861.602;  213.525;    0.000
1048.792;36521.602;  245.525;    0.000
1048.946;39319.602;  234.525;    0.000
1049.099;43894.602;  226.525;    0.000
1049.252;44653.602;  282.525;    0.000
1049.406;41646.602;  255.525;    0.000
1049.559;43226.602;  223.525;    0.000
1049.712;48263.602;  253.525;    0.000
1049.865;51432.602;  271.525;    0.000
1050.018;49380.602;  241.525;    0.000
1050.171;43830.602;  202.525;    0.000
1050.324;41340.602;  250.525;    0.000
1050.477;44973.602;  251.525;    0.000
1050.630;46067.602;  216.525;    0.000
1050.783;48807.602;  205.525;    0.000
1050.936;45392.602;  219.525;    0.000
1051.089;43643.602;  247.525;    0.000
1051.242;45672.602;  238.525;    0.000
1051.394;50493.602;  252.525;    0.000
1051.547;53327.602;  245.525;    0.000
1051.700;50707.602;  206.525;    0.000
1051.853;48877.602;  270.525;    0.000
1052.005;50575.602;  245.525;    0.000
1052.158;56298.602;  290.525;    0.000
1052.311;61425.602;  237.525;    0.000
1052.463;59737.602;  271.525;    0.000
1052.616;53058.602;  255.525;    0.000
1052.768;47735.602;  257.525;    0.000
1052.921;47558.602;  289.525;    0.000
1053.073;51156.602;  287.525;    0.000
1053.226;56952.602;  268.525;    0.000
1053.378;63508.602;  294.525;    0.000
1053.531;64463.602;  255.525;    0.000
1053.683;62346.602;  293.525;    0.000
1053.835;52995.602;  274.525;    0.000
1053.988;42363.602;  282.525;    0.000
1054.140; 7521.600;  291.525;    0.000
1054.292; 1759.600;  292.525;    0.000
1054.444; 1382.600;  299.525;    0.000
1054.596; 1293.600;  319.525;    0.000
1054.749; 1095.600;  295.525;    0.000
1054.901; 1082.600;  266.525;    0.000
1055.053; 1005.600;  300.525;    0.000
1055.205;  998.600;  290.525;    0.000
1055.357;  890.600;  304.525;    0.000
1055.509;  923.600;  292.525;    0.000
1055.661;  870.600;  339.525;    0.000
1055.813;  800.600;  306.525;    0.000
1055.965;  786.600;  293.525;    0.000
1056.116;  792.600;  300.525;    0.000
1056.268;  825.600;  306.525;    0.000
1056.420;  820.600;  288.525;    0.000

