
Integration time [ms]:   0.300
Averaging Nr. [scans]: 1
Smoothing Nr. [pixels]: 0
Data measured with spectrometer [name]: VIS
Wave   ;Sample   ;Dark     ;Reference
[nm]   ;[counts] ;[counts] ;[counts] 

450.961;  195.450;  204.125;    0.000
451.100;  232.450;  219.125;    0.000
451.239;  215.450;  196.125;    0.000
451.377;  236.450;  252.125;    0.000
451.516;  238.450;  215.125;    0.000
451.655;  216.450;  214.125;    0.000
451.794;  222.450;  241.125;    0.000
451.932;  248.450;  242.125;    0.000
452.071;  202.450;  204.125;    0.000
452.210;  205.450;  243.125;    0.000
452.348;  272.450;  241.125;    0.000
452.487;  207.450;  246.125;    0.000
452.626;  214.450;  235.125;    0.000
452.764;  221.450;  230.125;    0.000
452.903;  223.450;  199.125;    0.000
453.042;  270.450;  178.125;    0.000
453.180; 2944.450;  291.125;    0.000
453.319; 3007.450;  335.125;    0.000
453.458; 2983.450;  245.125;    0.000
453.596; 3068.450;  325.125;    0.000
453.735; 3133.450;  291.125;    0.000
453.873; 3184.450;  295.125;    0.000
454.012; 3154.450;  291.125;    0.000
454.150; 3152.450;  292.125;    0.000
454.289; 3128.450;  328.125;    0.000
454.427; 3219.450;  295.125;    0.000
454.566; 3246.450;  295.125;    0.000
454.704; 3183.450;  301.125;    0.000
454.843; 3202.450;  278.125;    0.000
454.981; 3318.450;  306.125;    0.000
455.120; 3326.450;  237.125;    0.000
455.258; 3435.450;  325.125;    0.000
455.397; 3316.450;  276.125;    0.000
455.535; 3429.450;  269.125;    0.000
455.674; 3375.450;  259.125;    0.000
455.812; 3481.450;  264.125;    0.000
455.951; 3492.450;  286.125;    0.000
456.089; 3564.450;  302.125;    0.000
456.227; 3453.450;  230.125;    0.000
456.366; 3668.450;  303.125;    0.000
456.504; 3645.450;  316.125;    0.000
456.642; 3684.450;  309.125;    0.000
456.781; 3742.450;  299.125;    0.000
456.919; 3675.450;  281.125;    0.000
457.057; 3738.450;  253.125;    0.000
457.196; 3809.450;  268.125;    0.000
457.334; 3928.450;  292.125;    0.000
457.472; 3945.450;  287.125;    0.000
457.610; 3990.450;  300.125;    0.000
457.749; 4023.450;  342.125;    0.000
457.887; 4057.450;  310.125;    0.000
458.025; 4156.450;  310.125;    0.000
458.163; 4201.450;  323.125;    0.000
458.301; 4265.450;  336.125;    0.000
458.440; 4294.450;  297.125;    0.000
458.578; 4363.450;  295.125;    0.000
458.716; 4308.450;  309.125;    0.000
458.854; 4597.450;  335.125;    0.000
458.992; 4453.450;  244.125;    0.000
459.130; 4579.450;  370.125;    0.000
459.269; 4692.450;  313.125;    0.000
459.407; 4620.450;  370.125;    0.000
459.545; 4749.450;  341.125;    0.000
459.683; 4769.450;  336.125;    0.000
459.821; 4782.450;  311.125;    0.000
459.959; 4782.450;  330.125;    0.000
460.097; 4978.450;  355.125;    0.000
460.235; 4991.450;  348.125;    0.000
460.373; 4943.450;  338.125;    0.000
460.511; 5099.450;  361.125;    0.000
460.649; 5155.450;  295.125;    0.000
460.787; 5151.450;  325.125;    0.000
460.925; 5076.450;  266.125;    0.000
461.063; 5194.450;  365.125;    0.000
461.201; 5090.450;  334.125;    0.000
461.339; 5204.450;  341.125;    0.000
461.477; 5206.450;  304.125;    0.000
461.615; 5366.450;  311.125;    0.000
461.753; 5361.450;  342.125;    0.000
461.891; 5323.450;  333.125;    0.000
462.029; 5482.450;  336.125;    0.000
462.166; 5539.450;  272.125;    0.000
462.304; 5561.450;  313.125;    0.000
462.442; 5665.450;  313.125;    0.000
462.580; 5770.450;  328.125;    0.000
462.718; 5809.450;  358.125;    0.000
462.856; 5774.450;  302.125;    0.000
462.993; 5743.450;  360.125;    0.000
463.131; 5771.450;  280.125;    0.000
463.269; 5829.450;  312.125;    0.000
463.407; 5513.450;  263.125;    0.000
463.545; 5521.450;  253.125;    0.000
463.682; 5584.450;  296.125;    0.000
463.820; 5716.450;  308.125;    0.000
463.958; 6051.450;  300.125;    0.000
464.095; 6045.450;  289.125;    0.000
464.233; 6061.450;  340.125;    0.000
464.371; 6044.450;  300.125;    0.000
464.509; 6072.450;  266.125;    0.000
464.646; 5932.450;  294.125;    0.000
464.784; 6041.450;  284.125;    0.000
464.921; 5977.450;  350.125;    0.000
465.059; 5940.450;  256.125;    0.000
465.197; 5754.450;  289.125;    0.000
465.334; 5634.450;  287.125;    0.000
465.472; 5687.450;  322.125;    0.000
465.609; 5473.450;  311.125;    0.000
465.747; 5488.450;  336.125;    0.000
465.885; 5519.450;  308.125;    0.000
466.022; 5425.450;  299.125;    0.000
466.160; 5354.450;  293.125;    0.000
466.297; 5423.450;  317.125;    0.000
466.435; 5422.450;  336.125;    0.000
466.572; 5406.450;  282.125;    0.000
466.710; 5333.450;  299.125;    0.000
466.847; 5333.450;  288.125;    0.000
466.985; 5346.450;  274.125;    0.000
467.122; 5369.450;  302.125;    0.000
467.260; 5329.450;  271.125;    0.000
467.397; 5375.450;  263.125;    0.000
467.534; 5445.450;  320.125;    0.000
467.672; 5329.450;  309.125;    0.000
467.809; 5245.450;  275.125;    0.000
467.947; 5237.450;  319.125;    0.000
468.084; 5184.450;  309.125;    0.000
468.221; 5311.450;  302.125;    0.000
468.359; 5299.450;  286.125;    0.000
468.496; 5383.450;  293.125;    0.000
468.633; 5275.450;  273.125;    0.000
468.771; 5426.450;  296.125;    0.000
468.908; 5260.450;  277.125;    0.000
469.045; 5340.450;  303.125;    0.000
469.183; 5430.450;  314.125;    0.000
469.320; 5476.450;  278.125;    0.000
469.457; 5567.450;  308.125;    0.000
469.594; 5484.450;  272.125;    0.000
469.732; 5570.450;  321.125;    0.000
469.869; 5511.450;  299.125;    0.000
470.006; 5568.450;  267.125;    0.000
470.143; 5636.450;  298.125;    0.000
470.280; 5648.450;  272.125;    0.000
470.417; 5841.450;  314.125;    0.000
470.555; 5700.450;  305.125;    0.000
470.692; 5700.450;  309.125;    0.000
470.829; 5694.450;  311.125;    0.000
470.966; 5544.450;  260.125;    0.000
471.103; 5669.450;  267.125;    0.000
471.240; 5786.450;  290.125;    0.000
471.377; 5714.450;  290.125;    0.000
471.514; 5579.450;  295.125;    0.000
471.651; 5604.450;  300.125;    0.000
471.789; 5701.450;  281.125;    0.000
471.926; 5639.450;  291.125;    0.000
472.063; 5539.450;  305.125;    0.000
472.200; 5444.450;  285.125;    0.000
472.337; 5388.450;  288.125;    0.000
472.474; 5519.450;  276.125;    0.000
472.611; 5434.450;  309.125;    0.000
472.748; 5510.450;  280.125;    0.000
472.884; 5480.450;  300.125;    0.000
473.021; 5456.450;  280.125;    0.000
473.158; 5450.450;  304.125;    0.000
473.295; 5303.450;  308.125;    0.000
473.432; 5465.450;  294.125;    0.000
473.569; 5460.450;  288.125;    0.000
473.706; 5428.450;  254.125;    0.000
473.843; 5311.450;  282.125;    0.000
473.980; 5412.450;  286.125;    0.000
474.117; 5365.450;  257.125;    0.000
474.253; 5548.450;  298.125;    0.000
474.390; 5410.450;  253.125;    0.000
474.527; 5470.450;  271.125;    0.000
474.664; 5458.450;  257.125;    0.000
474.801; 5271.450;  296.125;    0.000
474.937; 5520.450;  263.125;    0.000
475.074; 5451.450;  262.125;    0.000
475.211; 5497.450;  299.125;    0.000
475.348; 5631.450;  308.125;    0.000
475.484; 5540.450;  278.125;    0.000
475.621; 5526.450;  287.125;    0.000
475.758; 5410.450;  231.125;    0.000
475.894; 5659.450;  295.125;    0.000
476.031; 5706.450;  290.125;    0.000
476.168; 5580.450;  287.125;    0.000
476.304; 5627.450;  331.125;    0.000
476.441; 5541.450;  301.125;    0.000
476.578; 5650.450;  263.125;    0.000
476.714; 5751.450;  261.125;    0.000
476.851; 5602.450;  247.125;    0.000
476.987; 5668.450;  297.125;    0.000
477.124; 5689.450;  296.125;    0.000
477.261; 5623.450;  299.125;    0.000
477.397; 5762.450;  292.125;    0.000
477.534; 5735.450;  289.125;    0.000
477.670; 5742.450;  268.125;    0.000
477.807; 5877.450;  234.125;    0.000
477.943; 5930.450;  279.125;    0.000
478.080; 5893.450;  276.125;    0.000
478.216; 5938.450;  248.125;    0.000
478.353; 6083.450;  296.125;    0.000
478.489; 6059.450;  267.125;    0.000
478.626; 6095.450;  243.125;    0.000
478.762; 6185.450;  252.125;    0.000
478.898; 6179.450;  266.125;    0.000
479.035; 6156.450;  290.125;    0.000
479.171; 6070.450;  247.125;    0.000
479.308; 6084.450;  283.125;    0.000
479.444; 6067.450;  244.125;    0.000
479.580; 6110.450;  259.125;    0.000
479.717; 6116.450;  301.125;    0.000
479.853; 6287.450;  257.125;    0.000
479.989; 6178.450;  249.125;    0.000
480.126; 6170.450;  218.125;    0.000
480.262; 6305.450;  275.125;    0.000
480.398; 6178.450;  246.125;    0.000
480.535; 6238.450;  246.125;    0.000
480.671; 6261.450;  272.125;    0.000
480.807; 6351.450;  281.125;    0.000
480.943; 6201.450;  233.125;    0.000
481.080; 6223.450;  303.125;    0.000
481.216; 6175.450;  229.125;    0.000
481.352; 6153.450;  240.125;    0.000
481.488; 6138.450;  284.125;    0.000
481.624; 6193.450;  236.125;    0.000
481.760; 6098.450;  255.125;    0.000
481.897; 6164.450;  206.125;    0.000
482.033; 5987.450;  254.125;    0.000
482.169; 6171.450;  268.125;    0.000
482.305; 6035.450;  214.125;    0.000
482.441; 5999.450;  225.125;    0.000
482.577; 6060.450;  251.125;    0.000
482.713; 6164.450;  221.125;    0.000
482.849; 6012.450;  218.125;    0.000
482.985; 6032.450;  245.125;    0.000
483.121; 6102.450;  224.125;    0.000
483.258; 6142.450;  249.125;    0.000
483.394; 6076.450;  224.125;    0.000
483.530; 6124.450;  247.125;    0.000
483.665; 6040.450;  256.125;    0.000
483.801; 6093.450;  220.125;    0.000
483.937; 6107.450;  200.125;    0.000
484.073; 6174.450;  272.125;    0.000
484.209; 6116.450;  243.125;    0.000
484.345; 6100.450;  274.125;    0.000
484.481; 6225.450;  264.125;    0.000
484.617; 6190.450;  270.125;    0.000
484.753; 6151.450;  244.125;    0.000
484.889; 6330.450;  293.125;    0.000
485.025; 6242.450;  257.125;    0.000
485.161; 6409.450;  264.125;    0.000
485.296; 6355.450;  247.125;    0.000
485.432; 6212.450;  240.125;    0.000
485.568; 6267.450;  240.125;    0.000
485.704; 6307.450;  232.125;    0.000
485.840; 6327.450;  280.125;    0.000
485.975; 6276.450;  253.125;    0.000
486.111; 6282.450;  250.125;    0.000
486.247; 6306.450;  272.125;    0.000
486.383; 6416.450;  258.125;    0.000
486.518; 6286.450;  256.125;    0.000
486.654; 6398.450;  250.125;    0.000
486.790; 6305.450;  259.125;    0.000
486.926; 6167.450;  256.125;    0.000
487.061; 6142.450;  267.125;    0.000
487.197; 6345.450;  224.125;    0.000
487.333; 6395.450;  265.125;    0.000
487.468; 6183.450;  223.125;    0.000
487.604; 6230.450;  298.125;    0.000
487.740; 6303.450;  261.125;    0.000
487.875; 6251.450;  278.125;    0.000
488.011; 6280.450;  292.125;    0.000
488.146; 6234.450;  239.125;    0.000
488.282; 6233.450;  265.125;    0.000
488.417; 6226.450;  286.125;    0.000
488.553; 6294.450;  271.125;    0.000
488.688; 6352.450;  252.125;    0.000
488.824; 6187.450;  239.125;    0.000
488.960; 6303.450;  266.125;    0.000
489.095; 6253.450;  229.125;    0.000
489.230; 6377.450;  247.125;    0.000
489.366; 6428.450;  260.125;    0.000
489.501; 6372.450;  257.125;    0.000
489.637; 6332.450;  233.125;    0.000
489.772; 6273.450;  254.125;    0.000
489.908; 6401.450;  235.125;    0.000
490.043; 6444.450;  266.125;    0.000
490.178; 6432.450;  228.125;    0.000
490.314; 6364.450;  310.125;    0.000
490.449; 6469.450;  251.125;    0.000
490.585; 6351.450;  221.125;    0.000
490.720; 6360.450;  203.125;    0.000
490.855; 6356.450;  266.125;    0.000
490.991; 6318.450;  249.125;    0.000
491.126; 6473.450;  313.125;    0.000
491.261; 6282.450;  284.125;    0.000
491.396; 6386.450;  225.125;    0.000
491.532; 6304.450;  227.125;    0.000
491.667; 6345.450;  210.125;    0.000
491.802; 6453.450;  214.125;    0.000
491.937; 6461.450;  246.125;    0.000
492.073; 6477.450;  250.125;    0.000
492.208; 6422.450;  267.125;    0.000
492.343; 6511.450;  245.125;    0.000
492.478; 6577.450;  271.125;    0.000
492.613; 6517.450;  253.125;    0.000
492.749; 6561.450;  249.125;    0.000
492.884; 6509.450;  217.125;    0.000
493.019; 6608.450;  244.125;    0.000
493.154; 6521.450;  265.125;    0.000
493.289; 6485.450;  266.125;    0.000
493.424; 6377.450;  226.125;    0.000
493.559; 6431.450;  222.125;    0.000
493.694; 6416.450;  218.125;    0.000
493.829; 6509.450;  246.125;    0.000
493.964; 6545.450;  243.125;    0.000
494.099; 6533.450;  269.125;    0.000
494.234; 6430.450;  249.125;    0.000
494.369; 6472.450;  279.125;    0.000
494.504; 6401.450;  261.125;    0.000
494.639; 6543.450;  289.125;    0.000
494.774; 6463.450;  252.125;    0.000
494.909; 6365.450;  250.125;    0.000
495.044; 6412.450;  207.125;    0.000
495.179; 6375.450;  266.125;    0.000
495.314; 6342.450;  228.125;    0.000
495.449; 6336.450;  262.125;    0.000
495.584; 6471.450;  281.125;    0.000
495.719; 6474.450;  251.125;    0.000
495.854; 6480.450;  237.125;    0.000
495.988; 6413.450;  238.125;    0.000
496.123; 6500.450;  255.125;    0.000
496.258; 6456.450;  264.125;    0.000
496.393; 6481.450;  253.125;    0.000
496.528; 6518.450;  244.125;    0.000
496.663; 6537.450;  267.125;    0.000
496.797; 6640.450;  271.125;    0.000
496.932; 6682.450;  262.125;    0.000
497.067; 6777.450;  260.125;    0.000
497.202; 6843.450;  264.125;    0.000
497.336; 6873.450;  243.125;    0.000
497.471; 6948.450;  251.125;    0.000
497.606; 7025.450;  219.125;    0.000
497.740; 7219.450;  264.125;    0.000
497.875; 7304.450;  252.125;    0.000
498.010; 7519.450;  241.125;    0.000
498.144; 7616.450;  261.125;    0.000
498.279; 7783.450;  221.125;    0.000
498.414; 7856.450;  246.125;    0.000
498.548; 7876.450;  212.125;    0.000
498.683; 8176.450;  260.125;    0.000
498.817; 8092.450;  244.125;    0.000
498.952; 8338.450;  252.125;    0.000
499.087; 8534.450;  251.125;    0.000
499.221; 8772.450;  282.125;    0.000
499.356; 9148.450;  264.125;    0.000
499.490; 9166.450;  280.125;    0.000
499.625; 9401.450;  256.125;    0.000
499.759; 9701.450;  253.125;    0.000
499.894;10060.450;  261.125;    0.000
500.028;10352.450;  304.125;    0.000
500.162;10619.450;  272.125;    0.000
500.297;10691.450;  274.125;    0.000
500.431;10901.450;  320.125;    0.000
500.566;10926.450;  268.125;    0.000
500.700;10914.450;  280.125;    0.000
500.835;10580.450;  288.125;    0.000
500.969;10282.450;  253.125;    0.000
501.103; 9931.450;  234.125;    0.000
501.238; 9627.450;  302.125;    0.000
501.372; 9487.450;  292.125;    0.000
501.506; 9048.450;  222.125;    0.000
501.641; 8643.450;  274.125;    0.000
501.775; 8420.450;  245.125;    0.000
501.909; 8106.450;  283.125;    0.000
502.043; 8094.450;  252.125;    0.000
502.178; 8000.450;  293.125;    0.000
502.312; 7762.450;  223.125;    0.000
502.446; 7792.450;  292.125;    0.000
502.580; 7461.450;  253.125;    0.000
502.715; 7405.450;  282.125;    0.000
502.849; 7342.450;  258.125;    0.000
502.983; 7233.450;  267.125;    0.000
503.117; 7134.450;  226.125;    0.000
503.251; 7031.450;  260.125;    0.000
503.385; 6865.450;  291.125;    0.000
503.520; 6825.450;  279.125;    0.000
503.654; 6509.450;  229.125;    0.000
503.788; 6777.450;  259.125;    0.000
503.922; 6492.450;  246.125;    0.000
504.056; 6625.450;  269.125;    0.000
504.190; 6455.450;  265.125;    0.000
504.324; 6517.450;  298.125;    0.000
504.458; 6475.450;  235.125;    0.000
504.592; 6416.450;  275.125;    0.000
504.726; 6263.450;  226.125;    0.000
504.860; 6238.450;  298.125;    0.000
504.994; 6105.450;  253.125;    0.000
505.128; 6132.450;  283.125;    0.000
505.262; 5876.450;  255.125;    0.000
505.396; 5822.450;  219.125;    0.000
505.530; 5777.450;  279.125;    0.000
505.664; 5683.450;  306.125;    0.000
505.798; 5670.450;  297.125;    0.000
505.932; 5616.450;  273.125;    0.000
506.066; 5599.450;  271.125;    0.000
506.199; 5549.450;  273.125;    0.000
506.333; 5584.450;  227.125;    0.000
506.467; 5587.450;  302.125;    0.000
506.601; 5322.450;  254.125;    0.000
506.735; 5352.450;  299.125;    0.000
506.869; 5309.450;  278.125;    0.000
507.002; 5340.450;  259.125;    0.000
507.136; 5290.450;  285.125;    0.000
507.270; 5145.450;  255.125;    0.000
507.404; 5150.450;  273.125;    0.000
507.537; 5127.450;  245.125;    0.000
507.671; 5214.450;  251.125;    0.000
507.805; 5165.450;  286.125;    0.000
507.939; 5101.450;  261.125;    0.000
508.072; 5119.450;  298.125;    0.000
508.206; 5114.450;  238.125;    0.000
508.340; 5195.450;  289.125;    0.000
508.473; 5193.450;  255.125;    0.000
508.607; 5035.450;  266.125;    0.000
508.740; 5044.450;  253.125;    0.000
508.874; 4973.450;  233.125;    0.000
509.008; 5024.450;  274.125;    0.000
509.141; 5019.450;  235.125;    0.000
509.275; 5004.450;  225.125;    0.000
509.408; 5064.450;  254.125;    0.000
509.542; 4995.450;  244.125;    0.000
509.675; 5044.450;  263.125;    0.000
509.809; 5018.450;  271.125;    0.000
509.942; 4918.450;  246.125;    0.000
510.076; 4838.450;  221.125;    0.000
510.209; 4860.450;  270.125;    0.000
510.343; 4906.450;  265.125;    0.000
510.476; 4865.450;  291.125;    0.000
510.610; 4783.450;  251.125;    0.000
510.743; 4791.450;  304.125;    0.000
510.877; 4786.450;  259.125;    0.000
511.010; 4853.450;  274.125;    0.000
511.143; 4775.450;  255.125;    0.000
511.277; 4774.450;  267.125;    0.000
511.410; 4734.450;  270.125;    0.000
511.543; 4777.450;  231.125;    0.000
511.677; 4755.450;  275.125;    0.000
511.810; 4800.450;  265.125;    0.000
511.943; 4699.450;  231.125;    0.000
512.077; 4795.450;  225.125;    0.000
512.210; 4797.450;  235.125;    0.000
512.343; 4656.450;  251.125;    0.000
512.476; 4676.450;  260.125;    0.000
512.610; 4736.450;  289.125;    0.000
512.743; 4714.450;  270.125;    0.000
512.876; 4761.450;  289.125;    0.000
513.009; 4762.450;  293.125;    0.000
513.142; 4706.450;  282.125;    0.000
513.276; 4676.450;  244.125;    0.000
513.409; 4783.450;  277.125;    0.000
513.542; 4695.450;  254.125;    0.000
513.675; 4705.450;  258.125;    0.000
513.808; 4671.450;  243.125;    0.000
513.941; 4794.450;  274.125;    0.000
514.074; 4668.450;  296.125;    0.000
514.207; 4624.450;  267.125;    0.000
514.340; 4739.450;  283.125;    0.000
514.474; 4902.450;  255.125;    0.000
514.607; 4777.450;  291.125;    0.000
514.740; 4770.450;  296.125;    0.000
514.873; 4718.450;  275.125;    0.000
515.006; 4832.450;  313.125;    0.000
515.139; 4821.450;  253.125;    0.000
515.272; 4999.450;  263.125;    0.000
515.404; 4983.450;  258.125;    0.000
515.537; 5065.450;  285.125;    0.000
515.670; 4918.450;  286.125;    0.000
515.803; 4949.450;  266.125;    0.000
515.936; 5106.450;  251.125;    0.000
516.069; 5072.450;  231.125;    0.000
516.202; 5149.450;  278.125;    0.000
516.335; 5233.450;  295.125;    0.000
516.468; 5381.450;  239.125;    0.000
516.600; 6273.450;  229.125;    0.000
516.733; 7452.450;  301.125;    0.000
516.866; 7625.450;  287.125;    0.000
516.999; 7061.450;  265.125;    0.000
517.132; 8399.450;  291.125;    0.000
517.264;11637.450;  262.125;    0.000
517.397;11214.450;  292.125;    0.000
517.530; 8649.450;  299.125;    0.000
517.663; 7421.450;  268.125;    0.000
517.795; 6996.450;  323.125;    0.000
517.928; 6657.450;  281.125;    0.000
518.061; 6815.450;  242.125;    0.000
518.193; 8629.450;  279.125;    0.000
518.326;13147.450;  288.125;    0.000
518.459;14348.450;  251.125;    0.000
518.591;10709.450;  314.125;    0.000
518.724; 8082.450;  279.125;    0.000
518.857; 7083.450;  245.125;    0.000
518.989; 6714.450;  290.125;    0.000
519.122; 6244.450;  319.125;    0.000
519.254; 5827.450;  295.125;    0.000
519.387; 5593.450;  271.125;    0.000
519.519; 5556.450;  312.125;    0.000
519.652; 5277.450;  289.125;    0.000
519.784; 5280.450;  311.125;    0.000
519.917; 5220.450;  283.125;    0.000
520.049; 5095.450;  281.125;    0.000
520.182; 4992.450;  242.125;    0.000
520.314; 4951.450;  310.125;    0.000
520.447; 4834.450;  215.125;    0.000
520.579; 4928.450;  277.125;    0.000
520.712; 4826.450;  224.125;    0.000
520.844; 4748.450;  293.125;    0.000
520.976; 4730.450;  281.125;    0.000
521.109; 4657.450;  279.125;    0.000
521.241; 4574.450;  318.125;    0.000
521.373; 4691.450;  242.125;    0.000
521.506; 4488.450;  246.125;    0.000
521.638; 4605.450;  312.125;    0.000
521.770; 4471.450;  257.125;    0.000
521.903; 4427.450;  295.125;    0.000
522.035; 4374.450;  283.125;    0.000
522.167; 4356.450;  281.125;    0.000
522.300; 4255.450;  262.125;    0.000
522.432; 4272.450;  272.125;    0.000
522.564; 4350.450;  277.125;    0.000
522.696; 4325.450;  295.125;    0.000
522.828; 4292.450;  284.125;    0.000
522.961; 4206.450;  295.125;    0.000
523.093; 4172.450;  282.125;    0.000
523.225; 4295.450;  270.125;    0.000
523.357; 4201.450;  285.125;    0.000
523.489; 4224.450;  292.125;    0.000
523.621; 4125.450;  285.125;    0.000
523.753; 4158.450;  273.125;    0.000
523.885; 4242.450;  271.125;    0.000
524.018; 4123.450;  276.125;    0.000
524.150; 4114.450;  320.125;    0.000
524.282; 4189.450;  304.125;    0.000
524.414; 4201.450;  302.125;    0.000
524.546; 4075.450;  305.125;    0.000
524.678; 4048.450;  264.125;    0.000
524.810; 4059.450;  258.125;    0.000
524.942; 3959.450;  252.125;    0.000
525.074; 3911.450;  275.125;    0.000
525.206; 4016.450;  286.125;    0.000
525.338; 3966.450;  280.125;    0.000
525.469; 3962.450;  267.125;    0.000
525.601; 4010.450;  266.125;    0.000
525.733; 3988.450;  283.125;    0.000
525.865; 3900.450;  273.125;    0.000
525.997; 3873.450;  286.125;    0.000
526.129; 3943.450;  249.125;    0.000
526.261; 3851.450;  233.125;    0.000
526.393; 3796.450;  257.125;    0.000
526.524; 3818.450;  184.125;    0.000
526.656; 3803.450;  259.125;    0.000
526.788; 3906.450;  268.125;    0.000
526.920; 3834.450;  262.125;    0.000
527.052; 3692.450;  250.125;    0.000
527.183; 3767.450;  264.125;    0.000
527.315; 3766.450;  301.125;    0.000
527.447; 3837.450;  262.125;    0.000
527.578; 3813.450;  267.125;    0.000
527.710; 3794.450;  299.125;    0.000
527.842; 3808.450;  266.125;    0.000
527.973; 3831.450;  240.125;    0.000
528.105; 3887.450;  275.125;    0.000
528.237; 3813.450;  239.125;    0.000
528.368; 3813.450;  275.125;    0.000
528.500; 3826.450;  271.125;    0.000
528.632; 3850.450;  252.125;    0.000
528.763; 3818.450;  253.125;    0.000
528.895; 3803.450;  259.125;    0.000
529.026; 3763.450;  209.125;    0.000
529.158; 3743.450;  291.125;    0.000
529.289; 3837.450;  280.125;    0.000
529.421; 3797.450;  274.125;    0.000
529.552; 3736.450;  253.125;    0.000
529.684; 3750.450;  310.125;    0.000
529.815; 3844.450;  305.125;    0.000
529.947; 3787.450;  234.125;    0.000
530.078; 3729.450;  259.125;    0.000
530.210; 3820.450;  264.125;    0.000
530.341; 3693.450;  267.125;    0.000
530.472; 3814.450;  232.125;    0.000
530.604; 3808.450;  293.125;    0.000
530.735; 3769.450;  275.125;    0.000
530.867; 3758.450;  280.125;    0.000
530.998; 3777.450;  295.125;    0.000
531.129; 3845.450;  274.125;    0.000
531.260; 3890.450;  272.125;    0.000
531.392; 3841.450;  275.125;    0.000
531.523; 3943.450;  244.125;    0.000
531.654; 3931.450;  289.125;    0.000
531.786; 3869.450;  259.125;    0.000
531.917; 3925.450;  286.125;    0.000
532.048; 3769.450;  293.125;    0.000
532.179; 4002.450;  288.125;    0.000
532.311; 3970.450;  296.125;    0.000
532.442; 3875.450;  277.125;    0.000
532.573; 3895.450;  273.125;    0.000
532.704; 3793.450;  308.125;    0.000
532.835; 3855.450;  308.125;    0.000
532.966; 3775.450;  274.125;    0.000
533.097; 3760.450;  310.125;    0.000
533.229; 3758.450;  294.125;    0.000
533.360; 3735.450;  324.125;    0.000
533.491; 3776.450;  278.125;    0.000
533.622; 3820.450;  319.125;    0.000
533.753; 3788.450;  303.125;    0.000
533.884; 3857.450;  269.125;    0.000
534.015; 3760.450;  266.125;    0.000
534.146; 3840.450;  283.125;    0.000
534.277; 3924.450;  299.125;    0.000
534.408; 3838.450;  265.125;    0.000
534.539; 3789.450;  310.125;    0.000
534.670; 3892.450;  319.125;    0.000
534.801; 3822.450;  281.125;    0.000
534.932; 3670.450;  239.125;    0.000
535.063; 3775.450;  276.125;    0.000
535.194; 3703.450;  361.125;    0.000
535.324; 3630.450;  283.125;    0.000
535.455; 3665.450;  282.125;    0.000
535.586; 3795.450;  331.125;    0.000
535.717; 3724.450;  262.125;    0.000
535.848; 3688.450;  308.125;    0.000
535.979; 3661.450;  273.125;    0.000
536.109; 3621.450;  277.125;    0.000
536.240; 3708.450;  293.125;    0.000
536.371; 3736.450;  295.125;    0.000
536.502; 3754.450;  330.125;    0.000
536.632; 3635.450;  280.125;    0.000
536.763; 3701.450;  332.125;    0.000
536.894; 3660.450;  334.125;    0.000
537.025; 3604.450;  295.125;    0.000
537.155; 3685.450;  321.125;    0.000
537.286; 3650.450;  292.125;    0.000
537.417; 3669.450;  314.125;    0.000
537.547; 3584.450;  287.125;    0.000
537.678; 3648.450;  287.125;    0.000
537.808; 3559.450;  278.125;    0.000
537.939; 3595.450;  304.125;    0.000
538.070; 3613.450;  303.125;    0.000
538.200; 3620.450;  279.125;    0.000
538.331; 3518.450;  321.125;    0.000
538.461; 3476.450;  313.125;    0.000
538.592; 3650.450;  290.125;    0.000
538.722; 3609.450;  285.125;    0.000
538.853; 3586.450;  261.125;    0.000
538.983; 3553.450;  280.125;    0.000
539.114; 3636.450;  310.125;    0.000
539.244; 3517.450;  281.125;    0.000
539.375; 3655.450;  292.125;    0.000
539.505; 3615.450;  286.125;    0.000
539.636; 3529.450;  276.125;    0.000
539.766; 3626.450;  287.125;    0.000
539.896; 3659.450;  292.125;    0.000
540.027; 3556.450;  262.125;    0.000
540.157; 3602.450;  269.125;    0.000
540.287; 3577.450;  282.125;    0.000
540.418; 3641.450;  269.125;    0.000
540.548; 3606.450;  328.125;    0.000
540.678; 3562.450;  271.125;    0.000
540.809; 3695.450;  272.125;    0.000
540.939; 3677.450;  299.125;    0.000
541.069; 3691.450;  266.125;    0.000
541.200; 3661.450;  242.125;    0.000
541.330; 3661.450;  257.125;    0.000
541.460; 3710.450;  270.125;    0.000
541.590; 3627.450;  287.125;    0.000
541.720; 3626.450;  255.125;    0.000
541.851; 3595.450;  273.125;    0.000
541.981; 3793.450;  244.125;    0.000
542.111; 3667.450;  263.125;    0.000
542.241; 3786.450;  271.125;    0.000
542.371; 3771.450;  263.125;    0.000
542.501; 3788.450;  274.125;    0.000
542.631; 3893.450;  288.125;    0.000
542.761; 3872.450;  261.125;    0.000
542.891; 3909.450;  253.125;    0.000
543.021; 3832.450;  249.125;    0.000
543.151; 3874.450;  261.125;    0.000
543.281; 3961.450;  256.125;    0.000
543.411; 3888.450;  290.125;    0.000
543.542; 3807.450;  278.125;    0.000
543.671; 3826.450;  238.125;    0.000
543.801; 3799.450;  256.125;    0.000
543.931; 3749.450;  254.125;    0.000
544.061; 3826.450;  237.125;    0.000
544.191; 3816.450;  245.125;    0.000
544.321; 3937.450;  267.125;    0.000
544.451; 3738.450;  262.125;    0.000
544.581; 3827.450;  221.125;    0.000
544.711; 3873.450;  252.125;    0.000
544.841; 3922.450;  264.125;    0.000
544.970; 4009.450;  315.125;    0.000
545.100; 3989.450;  245.125;    0.000
545.230; 4042.450;  276.125;    0.000
545.360; 4015.450;  278.125;    0.000
545.490; 3971.450;  268.125;    0.000
545.619; 3871.450;  237.125;    0.000
545.749; 3833.450;  228.125;    0.000
545.879; 3861.450;  234.125;    0.000
546.009; 3866.450;  287.125;    0.000
546.138; 3712.450;  222.125;    0.000
546.268; 3788.450;  228.125;    0.000
546.398; 3673.450;  244.125;    0.000
546.527; 3879.450;  233.125;    0.000
546.657; 3787.450;  189.125;    0.000
546.786; 3814.450;  247.125;    0.000
546.916; 3744.450;  244.125;    0.000
547.046; 3815.450;  214.125;    0.000
547.175; 3716.450;  242.125;    0.000
547.305; 3756.450;  252.125;    0.000
547.434; 3735.450;  191.125;    0.000
547.564; 3864.450;  208.125;    0.000
547.693; 3820.450;  213.125;    0.000
547.823; 3778.450;  209.125;    0.000
547.953; 3784.450;  250.125;    0.000
548.082; 3828.450;  231.125;    0.000
548.211; 3794.450;  226.125;    0.000
548.341; 3854.450;  254.125;    0.000
548.470; 3733.450;  266.125;    0.000
548.600; 3778.450;  229.125;    0.000
548.729; 3734.450;  225.125;    0.000
548.859; 3705.450;  185.125;    0.000
548.988; 3821.450;  225.125;    0.000
549.117; 3745.450;  241.125;    0.000
549.247; 3807.450;  236.125;    0.000
549.376; 3779.450;  220.125;    0.000
549.505; 3819.450;  254.125;    0.000
549.635; 3831.450;  268.125;    0.000
549.764; 3819.450;  194.125;    0.000
549.893; 3796.450;  232.125;    0.000
550.023; 3878.450;  222.125;    0.000
550.152; 3864.450;  223.125;    0.000
550.281; 3880.450;  210.125;    0.000
550.410; 3884.450;  197.125;    0.000
550.539; 3920.450;  222.125;    0.000
550.669; 3853.450;  245.125;    0.000
550.798; 3948.450;  265.125;    0.000
550.927; 3820.450;  249.125;    0.000
551.056; 3836.450;  184.125;    0.000
551.185; 3810.450;  247.125;    0.000
551.314; 3821.450;  258.125;    0.000
551.443; 3800.450;  224.125;    0.000
551.573; 3824.450;  204.125;    0.000
551.702; 3800.450;  220.125;    0.000
551.831; 3831.450;  287.125;    0.000
551.960; 3883.450;  259.125;    0.000
552.089; 3946.450;  222.125;    0.000
552.218; 3978.450;  254.125;    0.000
552.347; 3998.450;  260.125;    0.000
552.476; 4040.450;  251.125;    0.000
552.605; 3996.450;  229.125;    0.000
552.734; 4139.450;  261.125;    0.000
552.863; 4233.450;  225.125;    0.000
552.992; 4331.450;  202.125;    0.000
553.121; 4204.450;  193.125;    0.000
553.249; 4246.450;  224.125;    0.000
553.378; 4124.450;  274.125;    0.000
553.507; 4113.450;  248.125;    0.000
553.636; 3980.450;  203.125;    0.000
553.765; 4052.450;  224.125;    0.000
553.894; 4005.450;  246.125;    0.000
554.023; 3986.450;  229.125;    0.000
554.151; 3945.450;  216.125;    0.000
554.280; 4116.450;  223.125;    0.000
554.409; 3902.450;  240.125;    0.000
554.538; 4013.450;  277.125;    0.000
554.666; 3995.450;  244.125;    0.000
554.795; 3923.450;  240.125;    0.000
554.924; 3790.450;  257.125;    0.000
555.052; 3857.450;  266.125;    0.000
555.181; 3905.450;  244.125;    0.000
555.310; 3906.450;  262.125;    0.000
555.439; 3918.450;  260.125;    0.000
555.567; 3889.450;  234.125;    0.000
555.696; 3861.450;  237.125;    0.000
555.824; 3811.450;  232.125;    0.000
555.953; 3795.450;  279.125;    0.000
556.082; 3799.450;  234.125;    0.000
556.210; 3803.450;  235.125;    0.000
556.339; 3797.450;  198.125;    0.000
556.467; 3806.450;  216.125;    0.000
556.596; 3808.450;  273.125;    0.000
556.724; 3724.450;  245.125;    0.000
556.853; 3710.450;  241.125;    0.000
556.981; 3805.450;  219.125;    0.000
557.110; 3721.450;  242.125;    0.000
557.238; 3660.450;  202.125;    0.000
557.367; 3756.450;  254.125;    0.000
557.495; 3747.450;  260.125;    0.000
557.623; 3717.450;  207.125;    0.000
557.752; 3715.450;  219.125;    0.000
557.880; 3782.450;  209.125;    0.000
558.008; 3766.450;  243.125;    0.000
558.137; 3812.450;  244.125;    0.000
558.265; 3711.450;  221.125;    0.000
558.393; 3716.450;  297.125;    0.000
558.522; 3727.450;  232.125;    0.000
558.650; 3829.450;  299.125;    0.000
558.778; 3794.450;  210.125;    0.000
558.906; 3734.450;  240.125;    0.000
559.035; 3724.450;  252.125;    0.000
559.163; 3826.450;  246.125;    0.000
559.291; 3701.450;  213.125;    0.000
559.419; 3759.450;  221.125;    0.000
559.548; 3757.450;  208.125;    0.000
559.676; 3824.450;  254.125;    0.000
559.804; 3769.450;  213.125;    0.000
559.932; 3905.450;  208.125;    0.000
560.060; 3742.450;  276.125;    0.000
560.188; 3885.450;  278.125;    0.000
560.316; 3818.450;  217.125;    0.000
560.444; 3857.450;  254.125;    0.000
560.572; 3951.450;  226.125;    0.000
560.700; 3973.450;  282.125;    0.000
560.828; 3987.450;  211.125;    0.000
560.956; 3911.450;  264.125;    0.000
561.085; 4037.450;  295.125;    0.000
561.212; 3990.450;  229.125;    0.000
561.340; 3935.450;  259.125;    0.000
561.468; 3950.450;  253.125;    0.000
561.596; 3930.450;  240.125;    0.000
561.724; 3893.450;  259.125;    0.000
561.852; 3933.450;  224.125;    0.000
561.980; 4000.450;  251.125;    0.000
562.108; 3923.450;  214.125;    0.000
562.236; 3959.450;  258.125;    0.000
562.364; 4051.450;  237.125;    0.000
562.492; 4049.450;  228.125;    0.000
562.619; 4078.450;  223.125;    0.000
562.747; 4092.450;  263.125;    0.000
562.875; 4086.450;  257.125;    0.000
563.003; 4120.450;  216.125;    0.000
563.130; 4135.450;  190.125;    0.000
563.258; 4167.450;  225.125;    0.000
563.386; 4142.450;  259.125;    0.000
563.514; 4231.450;  264.125;    0.000
563.641; 4366.450;  230.125;    0.000
563.769; 4400.450;  257.125;    0.000
563.897; 4404.450;  210.125;    0.000
564.024; 4501.450;  221.125;    0.000
564.152; 4528.450;  256.125;    0.000
564.280; 4479.450;  225.125;    0.000
564.407; 4472.450;  262.125;    0.000
564.535; 4606.450;  235.125;    0.000
564.662; 4579.450;  238.125;    0.000
564.790; 4542.450;  248.125;    0.000
564.917; 4610.450;  214.125;    0.000
565.045; 4634.450;  253.125;    0.000
565.173; 4547.450;  225.125;    0.000
565.300; 4666.450;  261.125;    0.000
565.428; 4649.450;  218.125;    0.000
565.555; 4779.450;  245.125;    0.000
565.682; 4859.450;  242.125;    0.000
565.810; 4874.450;  228.125;    0.000
565.937; 4951.450;  230.125;    0.000
566.065; 5109.450;  251.125;    0.000
566.192; 5110.450;  196.125;    0.000
566.320; 5256.450;  217.125;    0.000
566.447; 5365.450;  224.125;    0.000
566.574; 5422.450;  221.125;    0.000
566.702; 5491.450;  221.125;    0.000
566.829; 5575.450;  252.125;    0.000
566.956; 5636.450;  214.125;    0.000
567.083; 5671.450;  204.125;    0.000
567.211; 5657.450;  216.125;    0.000
567.338; 5626.450;  228.125;    0.000
567.465; 5720.450;  208.125;    0.000
567.593; 5790.450;  205.125;    0.000
567.720; 5720.450;  194.125;    0.000
567.847; 5897.450;  268.125;    0.000
567.974; 5909.450;  198.125;    0.000
568.101; 5844.450;  224.125;    0.000
568.228; 6487.450;  236.125;    0.000
568.356; 6580.450;  207.125;    0.000
568.483; 6137.450;  220.125;    0.000
568.610; 6039.450;  181.125;    0.000
568.737; 6676.450;  216.125;    0.000
568.864; 7554.450;  258.125;    0.000
568.991; 6988.450;  203.125;    0.000
569.118; 6323.450;  232.125;    0.000
569.245; 5708.450;  192.125;    0.000
569.372; 5404.450;  226.125;    0.000
569.499; 5167.450;  211.125;    0.000
569.626; 5050.450;  247.125;    0.000
569.753; 4918.450;  248.125;    0.000
569.880; 4992.450;  226.125;    0.000
570.007; 4742.450;  215.125;    0.000
570.134; 4726.450;  205.125;    0.000
570.261; 4795.450;  187.125;    0.000
570.388; 4663.450;  258.125;    0.000
570.515; 4710.450;  241.125;    0.000
570.642; 4729.450;  211.125;    0.000
570.768; 4631.450;  228.125;    0.000
570.895; 4592.450;  229.125;    0.000
571.022; 4550.450;  203.125;    0.000
571.149; 4545.450;  206.125;    0.000
571.276; 4417.450;  191.125;    0.000
571.402; 4348.450;  218.125;    0.000
571.529; 4388.450;  192.125;    0.000
571.656; 4223.450;  209.125;    0.000
571.783; 4307.450;  181.125;    0.000
571.909; 4399.450;  251.125;    0.000
572.036; 4242.450;  225.125;    0.000
572.163; 4152.450;  214.125;    0.000
572.289; 4216.450;  252.125;    0.000
572.416; 4094.450;  220.125;    0.000
572.543; 4166.450;  225.125;    0.000
572.669; 4079.450;  226.125;    0.000
572.796; 4092.450;  231.125;    0.000
572.922; 4076.450;  258.125;    0.000
573.049; 3991.450;  202.125;    0.000
573.176; 4089.450;  254.125;    0.000
573.302; 4056.450;  215.125;    0.000
573.429; 4086.450;  251.125;    0.000
573.555; 4036.450;  221.125;    0.000
573.682; 4034.450;  227.125;    0.000
573.808; 4047.450;  259.125;    0.000
573.935; 4038.450;  233.125;    0.000
574.061; 3989.450;  241.125;    0.000
574.188; 4022.450;  238.125;    0.000
574.314; 4017.450;  221.125;    0.000
574.440; 3978.450;  221.125;    0.000
574.567; 4071.450;  216.125;    0.000
574.693; 3935.450;  224.125;    0.000
574.820; 3913.450;  199.125;    0.000
574.946; 3871.450;  248.125;    0.000
575.072; 3959.450;  220.125;    0.000
575.198; 3988.450;  262.125;    0.000
575.325; 3862.450;  232.125;    0.000
575.451; 3819.450;  225.125;    0.000
575.577; 3930.450;  216.125;    0.000
575.704; 4006.450;  248.125;    0.000
575.830; 3936.450;  227.125;    0.000
575.956; 3849.450;  206.125;    0.000
576.082; 3920.450;  222.125;    0.000
576.208; 3897.450;  206.125;    0.000
576.335; 3873.450;  256.125;    0.000
576.461; 3858.450;  247.125;    0.000
576.587; 3857.450;  219.125;    0.000
576.713; 3982.450;  215.125;    0.000
576.839; 3911.450;  225.125;    0.000
576.965; 3901.450;  230.125;    0.000
577.091; 3823.450;  235.125;    0.000
577.217; 3935.450;  235.125;    0.000
577.343; 3893.450;  233.125;    0.000
577.469; 3870.450;  242.125;    0.000
577.596; 3887.450;  241.125;    0.000
577.722; 3880.450;  255.125;    0.000
577.848; 3904.450;  235.125;    0.000
577.974; 3885.450;  210.125;    0.000
578.099; 3909.450;  239.125;    0.000
578.225; 3868.450;  258.125;    0.000
578.351; 3986.450;  209.125;    0.000
578.477; 3884.450;  255.125;    0.000
578.603; 3871.450;  213.125;    0.000
578.729; 3855.450;  221.125;    0.000
578.855; 3794.450;  209.125;    0.000
578.981; 3893.450;  206.125;    0.000
579.107; 3992.450;  221.125;    0.000
579.232; 4054.450;  206.125;    0.000
579.358; 3916.450;  226.125;    0.000
579.484; 3871.450;  244.125;    0.000
579.610; 4029.450;  261.125;    0.000
579.735; 3936.450;  270.125;    0.000
579.861; 3933.450;  255.125;    0.000
579.987; 3892.450;  249.125;    0.000
580.113; 3964.450;  260.125;    0.000
580.238; 3973.450;  206.125;    0.000
580.364; 4020.450;  249.125;    0.000
580.490; 4049.450;  225.125;    0.000
580.615; 4010.450;  266.125;    0.000
580.741; 3946.450;  224.125;    0.000
580.867; 3981.450;  251.125;    0.000
580.992; 4012.450;  270.125;    0.000
581.118; 4023.450;  248.125;    0.000
581.243; 4021.450;  251.125;    0.000
581.369; 4059.450;  192.125;    0.000
581.494; 4149.450;  259.125;    0.000
581.620; 4098.450;  245.125;    0.000
581.745; 4126.450;  232.125;    0.000
581.871; 4131.450;  243.125;    0.000
581.996; 4100.450;  216.125;    0.000
582.122; 4133.450;  263.125;    0.000
582.247; 4063.450;  254.125;    0.000
582.373; 4151.450;  232.125;    0.000
582.498; 4200.450;  275.125;    0.000
582.624; 4190.450;  260.125;    0.000
582.749; 4245.450;  251.125;    0.000
582.874; 4284.450;  245.125;    0.000
583.000; 4212.450;  278.125;    0.000
583.125; 4344.450;  211.125;    0.000
583.250; 4377.450;  246.125;    0.000
583.376; 4307.450;  259.125;    0.000
583.501; 4414.450;  254.125;    0.000
583.626; 4360.450;  209.125;    0.000
583.751; 4406.450;  239.125;    0.000
583.877; 4377.450;  255.125;    0.000
584.002; 4512.450;  263.125;    0.000
584.127; 4507.450;  205.125;    0.000
584.252; 4514.450;  196.125;    0.000
584.377; 4615.450;  249.125;    0.000
584.503; 4709.450;  219.125;    0.000
584.628; 4634.450;  243.125;    0.000
584.753; 4702.450;  250.125;    0.000
584.878; 4727.450;  208.125;    0.000
585.003; 4804.450;  234.125;    0.000
585.128; 4907.450;  207.125;    0.000
585.253; 5089.450;  219.125;    0.000
585.378; 5029.450;  205.125;    0.000
585.503; 5114.450;  256.125;    0.000
585.628; 5144.450;  217.125;    0.000
585.753; 5226.450;  213.125;    0.000
585.878; 5201.450;  147.125;    0.000
586.003; 5353.450;  256.125;    0.000
586.128; 5583.450;  214.125;    0.000
586.253; 5738.450;  254.125;    0.000
586.378; 5705.450;  252.125;    0.000
586.503; 5925.450;  219.125;    0.000
586.628; 6203.450;  226.125;    0.000
586.753; 6196.450;  237.125;    0.000
586.878; 6489.450;  185.125;    0.000
587.003; 6767.450;  248.125;    0.000
587.127; 6987.450;  237.125;    0.000
587.252; 7298.450;  221.125;    0.000
587.377; 7624.450;  244.125;    0.000
587.502; 8061.450;  260.125;    0.000
587.627; 8350.450;  232.125;    0.000
587.751; 9110.450;  250.125;    0.000
587.876; 9765.450;  234.125;    0.000
588.001;10606.450;  248.125;    0.000
588.125;11729.450;  236.125;    0.000
588.250;13101.450;  192.125;    0.000
588.375;14969.450;  265.125;    0.000
588.499;17891.449;  235.125;    0.000
588.624;21639.449;  212.125;    0.000
588.749;28453.449;  214.125;    0.000
588.873;38545.449;  236.125;    0.000
588.998;46783.449;  230.125;    0.000
589.122;46568.449;  231.125;    0.000
589.247;39490.449;  250.125;    0.000
589.372;35365.449;  247.125;    0.000
589.496;39145.449;  230.125;    0.000
589.621;43416.449;  237.125;    0.000
589.745;39104.449;  277.125;    0.000
589.870;29831.449;  283.125;    0.000
589.994;23279.449;  263.125;    0.000
590.118;19143.449;  239.125;    0.000
590.243;16418.449;  218.125;    0.000
590.367;14340.450;  226.125;    0.000
590.492;12838.450;  269.125;    0.000
590.616;11712.450;  205.125;    0.000
590.740;10872.450;  243.125;    0.000
590.865;10027.450;  281.125;    0.000
590.989; 9468.450;  233.125;    0.000
591.114; 9039.450;  222.125;    0.000
591.238; 8690.450;  204.125;    0.000
591.362; 8206.450;  283.125;    0.000
591.486; 7792.450;  236.125;    0.000
591.611; 7562.450;  228.125;    0.000
591.735; 7376.450;  249.125;    0.000
591.859; 7133.450;  202.125;    0.000
591.983; 6959.450;  257.125;    0.000
592.107; 6678.450;  230.125;    0.000
592.232; 6597.450;  266.125;    0.000
592.356; 6418.450;  232.125;    0.000
592.480; 6329.450;  245.125;    0.000
592.604; 6162.450;  254.125;    0.000
592.728; 6123.450;  233.125;    0.000
592.852; 6135.450;  213.125;    0.000
592.976; 5945.450;  234.125;    0.000
593.100; 5831.450;  246.125;    0.000
593.224; 5869.450;  305.125;    0.000
593.349; 5814.450;  240.125;    0.000
593.473; 5676.450;  206.125;    0.000
593.597; 5613.450;  243.125;    0.000
593.721; 5472.450;  247.125;    0.000
593.844; 5483.450;  230.125;    0.000
593.968; 5433.450;  226.125;    0.000
594.092; 5362.450;  193.125;    0.000
594.216; 5367.450;  237.125;    0.000
594.340; 5208.450;  235.125;    0.000
594.464; 5198.450;  225.125;    0.000
594.588; 5229.450;  269.125;    0.000
594.712; 5037.450;  242.125;    0.000
594.836; 4922.450;  240.125;    0.000
594.959; 5000.450;  255.125;    0.000
595.083; 4749.450;  258.125;    0.000
595.207; 4819.450;  264.125;    0.000
595.331; 4791.450;  215.125;    0.000
595.455; 4745.450;  234.125;    0.000
595.578; 4662.450;  215.125;    0.000
595.702; 4675.450;  259.125;    0.000
595.826; 4556.450;  232.125;    0.000
595.949; 4494.450;  251.125;    0.000
596.073; 4451.450;  197.125;    0.000
596.197; 4415.450;  239.125;    0.000
596.320; 4428.450;  229.125;    0.000
596.444; 4362.450;  264.125;    0.000
596.568; 4343.450;  207.125;    0.000
596.691; 4276.450;  234.125;    0.000
596.815; 4246.450;  241.125;    0.000
596.938; 4304.450;  244.125;    0.000
597.062; 4189.450;  210.125;    0.000
597.186; 4096.450;  247.125;    0.000
597.309; 4150.450;  215.125;    0.000
597.433; 4097.450;  266.125;    0.000
597.556; 4068.450;  234.125;    0.000
597.680; 4169.450;  261.125;    0.000
597.803; 4052.450;  239.125;    0.000
597.926; 4037.450;  251.125;    0.000
598.050; 3955.450;  227.125;    0.000
598.173; 3956.450;  247.125;    0.000
598.297; 3901.450;  244.125;    0.000
598.420; 3948.450;  243.125;    0.000
598.543; 3969.450;  237.125;    0.000
598.667; 3828.450;  239.125;    0.000
598.790; 3836.450;  217.125;    0.000
598.913; 3803.450;  244.125;    0.000
599.037; 3854.450;  249.125;    0.000
599.160; 3845.450;  222.125;    0.000
599.283; 3852.450;  235.125;    0.000
599.406; 3820.450;  228.125;    0.000
599.530; 3872.450;  234.125;    0.000
599.653; 3763.450;  228.125;    0.000
599.776; 3677.450;  263.125;    0.000
599.899; 3850.450;  197.125;    0.000
600.022; 3710.450;  224.125;    0.000
600.145; 3732.450;  211.125;    0.000
600.269; 3900.450;  246.125;    0.000
600.392; 3707.450;  233.125;    0.000
600.515; 3729.450;  266.125;    0.000
600.638; 3657.450;  246.125;    0.000
600.761; 3754.450;  213.125;    0.000
600.884; 3692.450;  279.125;    0.000
601.007; 3584.450;  268.125;    0.000
601.130; 3567.450;  203.125;    0.000
601.253; 3569.450;  241.125;    0.000
601.376; 3633.450;  248.125;    0.000
601.499; 3636.450;  241.125;    0.000
601.622; 3662.450;  266.125;    0.000
601.745; 3482.450;  237.125;    0.000
601.868; 3569.450;  256.125;    0.000
601.991; 3647.450;  260.125;    0.000
602.113; 3650.450;  246.125;    0.000
602.236; 3545.450;  243.125;    0.000
602.359; 3623.450;  220.125;    0.000
602.482; 3557.450;  236.125;    0.000
602.605; 3438.450;  216.125;    0.000
602.728; 3633.450;  247.125;    0.000
602.850; 3525.450;  255.125;    0.000
602.973; 3550.450;  224.125;    0.000
603.096; 3569.450;  258.125;    0.000
603.219; 3553.450;  222.125;    0.000
603.341; 3501.450;  235.125;    0.000
603.464; 3521.450;  223.125;    0.000
603.587; 3529.450;  250.125;    0.000
603.709; 3465.450;  229.125;    0.000
603.832; 3505.450;  285.125;    0.000
603.955; 3577.450;  225.125;    0.000
604.077; 3385.450;  235.125;    0.000
604.200; 3495.450;  209.125;    0.000
604.323; 3399.450;  240.125;    0.000
604.445; 3487.450;  198.125;    0.000
604.568; 3445.450;  230.125;    0.000
604.690; 3425.450;  225.125;    0.000
604.813; 3436.450;  248.125;    0.000
604.935; 3408.450;  204.125;    0.000
605.058; 3328.450;  191.125;    0.000
605.180; 3359.450;  237.125;    0.000
605.303; 3431.450;  224.125;    0.000
605.425; 3446.450;  244.125;    0.000
605.547; 3396.450;  268.125;    0.000
605.670; 3396.450;  211.125;    0.000
605.792; 3336.450;  266.125;    0.000
605.915; 3364.450;  202.125;    0.000
606.037; 3427.450;  236.125;    0.000
606.159; 3468.450;  234.125;    0.000
606.282; 3348.450;  223.125;    0.000
606.404; 3388.450;  217.125;    0.000
606.526; 3380.450;  221.125;    0.000
606.648; 3400.450;  204.125;    0.000
606.771; 3440.450;  265.125;    0.000
606.893; 3394.450;  211.125;    0.000
607.015; 3322.450;  206.125;    0.000
607.137; 3146.450;  222.125;    0.000
607.260; 3374.450;  228.125;    0.000
607.382; 3318.450;  202.125;    0.000
607.504; 3439.450;  257.125;    0.000
607.626; 3333.450;  249.125;    0.000
607.748; 3409.450;  233.125;    0.000
607.870; 3359.450;  222.125;    0.000
607.992; 3223.450;  227.125;    0.000
608.114; 3318.450;  228.125;    0.000
608.237; 3351.450;  254.125;    0.000
608.359; 3219.450;  216.125;    0.000
608.481; 3274.450;  197.125;    0.000
608.603; 3396.450;  209.125;    0.000
608.725; 3379.450;  220.125;    0.000
608.847; 3384.450;  259.125;    0.000
608.969; 3340.450;  242.125;    0.000
609.090; 3275.450;  218.125;    0.000
609.212; 3256.450;  200.125;    0.000
609.334; 3212.450;  212.125;    0.000
609.456; 3268.450;  231.125;    0.000
609.578; 3258.450;  249.125;    0.000
609.700; 3158.450;  185.125;    0.000
609.822; 3286.450;  200.125;    0.000
609.944; 3252.450;  236.125;    0.000
610.065; 3256.450;  255.125;    0.000
610.187; 3217.450;  208.125;    0.000
610.309; 3275.450;  202.125;    0.000
610.431; 3175.450;  232.125;    0.000
610.552; 3220.450;  232.125;    0.000
610.674; 3166.450;  217.125;    0.000
610.796; 3255.450;  186.125;    0.000
610.918; 3200.450;  211.125;    0.000
611.039; 3256.450;  244.125;    0.000
611.161; 3244.450;  202.125;    0.000
611.282; 3231.450;  212.125;    0.000
611.404; 3180.450;  235.125;    0.000
611.526; 3290.450;  213.125;    0.000
611.647; 3232.450;  248.125;    0.000
611.769; 3148.450;  205.125;    0.000
611.890; 3208.450;  224.125;    0.000
612.012; 3200.450;  189.125;    0.000
612.133; 3199.450;  186.125;    0.000
612.255; 3198.450;  246.125;    0.000
612.377; 3206.450;  230.125;    0.000
612.498; 3178.450;  196.125;    0.000
612.619; 3194.450;  234.125;    0.000
612.741; 3202.450;  221.125;    0.000
612.862; 3135.450;  227.125;    0.000
612.984; 3331.450;  189.125;    0.000
613.105; 3195.450;  232.125;    0.000
613.226; 3113.450;  199.125;    0.000
613.348; 3237.450;  260.125;    0.000
613.469; 3236.450;  217.125;    0.000
613.590; 3120.450;  236.125;    0.000
613.712; 3206.450;  226.125;    0.000
613.833; 3223.450;  231.125;    0.000
613.954; 3175.450;  236.125;    0.000
614.076; 3236.450;  236.125;    0.000
614.197; 3178.450;  228.125;    0.000
614.318; 3131.450;  207.125;    0.000
614.439; 3028.450;  237.125;    0.000
614.560; 3202.450;  202.125;    0.000
614.682; 3212.450;  230.125;    0.000
614.803; 3183.450;  236.125;    0.000
614.924; 3146.450;  257.125;    0.000
615.045; 3230.450;  228.125;    0.000
615.166; 3225.450;  221.125;    0.000
615.287; 3392.450;  199.125;    0.000
615.408; 3532.450;  228.125;    0.000
615.529; 3593.450;  200.125;    0.000
615.650; 3425.450;  224.125;    0.000
615.771; 3345.450;  202.125;    0.000
615.892; 3442.450;  215.125;    0.000
616.013; 3854.450;  246.125;    0.000
616.134; 4043.450;  210.125;    0.000
616.255; 3817.450;  232.125;    0.000
616.376; 3547.450;  241.125;    0.000
616.497; 3439.450;  213.125;    0.000
616.618; 3311.450;  171.125;    0.000
616.739; 3382.450;  221.125;    0.000
616.860; 3345.450;  244.125;    0.000
616.981; 3216.450;  240.125;    0.000
617.102; 3184.450;  234.125;    0.000
617.222; 3328.450;  265.125;    0.000
617.343; 3243.450;  206.125;    0.000
617.464; 3251.450;  246.125;    0.000
617.585; 3256.450;  256.125;    0.000
617.705; 3230.450;  249.125;    0.000
617.826; 3222.450;  218.125;    0.000
617.947; 3198.450;  225.125;    0.000
618.068; 3054.450;  199.125;    0.000
618.188; 3168.450;  202.125;    0.000
618.309; 3213.450;  220.125;    0.000
618.430; 3181.450;  229.125;    0.000
618.550; 3183.450;  252.125;    0.000
618.671; 3139.450;  233.125;    0.000
618.791; 3114.450;  227.125;    0.000
618.912; 3203.450;  236.125;    0.000
619.033; 3185.450;  220.125;    0.000
619.153; 3196.450;  228.125;    0.000
619.274; 3042.450;  208.125;    0.000
619.394; 3101.450;  255.125;    0.000
619.515; 3014.450;  206.125;    0.000
619.635; 3075.450;  204.125;    0.000
619.756; 3114.450;  252.125;    0.000
619.876; 3085.450;  238.125;    0.000
619.996; 3187.450;  249.125;    0.000
620.117; 3003.450;  223.125;    0.000
620.237; 3160.450;  210.125;    0.000
620.358; 3125.450;  264.125;    0.000
620.478; 3049.450;  263.125;    0.000
620.598; 3094.450;  238.125;    0.000
620.719; 3136.450;  225.125;    0.000
620.839; 3126.450;  259.125;    0.000
620.959; 3079.450;  218.125;    0.000
621.079; 3027.450;  253.125;    0.000
621.200; 3051.450;  245.125;    0.000
621.320; 3078.450;  254.125;    0.000
621.440; 2959.450;  233.125;    0.000
621.560; 3080.450;  235.125;    0.000
621.681; 3070.450;  234.125;    0.000
621.801; 3026.450;  240.125;    0.000
621.921; 2989.450;  239.125;    0.000
622.041; 3028.450;  288.125;    0.000
622.161; 2954.450;  229.125;    0.000
622.281; 2953.450;  223.125;    0.000
622.401; 3011.450;  240.125;    0.000
622.521; 3043.450;  267.125;    0.000
622.641; 2988.450;  226.125;    0.000
622.761; 3005.450;  252.125;    0.000
622.882; 3033.450;  207.125;    0.000
623.002; 2998.450;  226.125;    0.000
623.121; 2994.450;  207.125;    0.000
623.241; 3018.450;  215.125;    0.000
623.361; 2989.450;  222.125;    0.000
623.481; 2911.450;  187.125;    0.000
623.601; 3013.450;  283.125;    0.000
623.721; 2999.450;  283.125;    0.000
623.841; 3053.450;  233.125;    0.000
623.961; 2993.450;  215.125;    0.000
624.081; 2944.450;  219.125;    0.000
624.201; 2947.450;  221.125;    0.000
624.320; 2964.450;  215.125;    0.000
624.440; 2993.450;  222.125;    0.000
624.560; 2873.450;  231.125;    0.000
624.680; 2902.450;  225.125;    0.000
624.799; 2880.450;  230.125;    0.000
624.919; 3000.450;  243.125;    0.000
625.039; 2979.450;  203.125;    0.000
625.159; 2925.450;  257.125;    0.000
625.278; 2945.450;  230.125;    0.000
625.398; 2982.450;  195.125;    0.000
625.518; 2890.450;  211.125;    0.000
625.637; 2934.450;  267.125;    0.000
625.757; 2919.450;  228.125;    0.000
625.876; 2951.450;  231.125;    0.000
625.996; 2899.450;  219.125;    0.000
626.115; 2869.450;  235.125;    0.000
626.235; 2931.450;  199.125;    0.000
626.354; 2814.450;  226.125;    0.000
626.474; 2902.450;  225.125;    0.000
626.594; 2888.450;  223.125;    0.000
626.713; 2907.450;  231.125;    0.000
626.832; 2942.450;  287.125;    0.000
626.952; 2917.450;  251.125;    0.000
627.071; 2909.450;  254.125;    0.000
627.191; 2894.450;  193.125;    0.000
627.310; 2922.450;  213.125;    0.000
627.429; 2877.450;  259.125;    0.000
627.549; 2869.450;  243.125;    0.000
627.668; 2905.450;  181.125;    0.000
627.787; 2905.450;  232.125;    0.000
627.907; 2925.450;  222.125;    0.000
628.026; 2805.450;  219.125;    0.000
628.145; 2767.450;  201.125;    0.000
628.264; 2895.450;  198.125;    0.000
628.384; 2837.450;  208.125;    0.000
628.503; 2901.450;  251.125;    0.000
628.622; 2841.450;  195.125;    0.000
628.741; 2874.450;  180.125;    0.000
628.860; 2864.450;  235.125;    0.000
628.980; 2873.450;  222.125;    0.000
629.099; 2879.450;  237.125;    0.000
629.218; 2795.450;  175.125;    0.000
629.337; 2833.450;  194.125;    0.000
629.456; 2828.450;  225.125;    0.000
629.575; 2789.450;  239.125;    0.000
629.694; 2886.450;  230.125;    0.000
629.813; 2888.450;  197.125;    0.000
629.932; 2783.450;  225.125;    0.000
630.051; 2828.450;  238.125;    0.000
630.170; 2871.450;  233.125;    0.000
630.289; 2843.450;  231.125;    0.000
630.408; 2804.450;  204.125;    0.000
630.527; 2872.450;  262.125;    0.000
630.646; 2728.450;  181.125;    0.000
630.764; 2766.450;  218.125;    0.000
630.883; 2782.450;  215.125;    0.000
631.002; 2792.450;  224.125;    0.000
631.121; 2698.450;  209.125;    0.000
631.240; 2854.450;  230.125;    0.000
631.359; 2807.450;  235.125;    0.000
631.477; 2865.450;  223.125;    0.000
631.596; 2908.450;  218.125;    0.000
631.715; 2849.450;  234.125;    0.000
631.834; 2791.450;  215.125;    0.000
631.952; 2744.450;  243.125;    0.000
632.071; 2775.450;  219.125;    0.000
632.190; 2750.450;  235.125;    0.000
632.308; 2783.450;  239.125;    0.000
632.427; 2828.450;  211.125;    0.000
632.546; 2770.450;  233.125;    0.000
632.664; 2750.450;  219.125;    0.000
632.783; 2879.450;  203.125;    0.000
632.901; 2756.450;  221.125;    0.000
633.020; 2720.450;  197.125;    0.000
633.138; 2803.450;  244.125;    0.000
633.257; 2779.450;  205.125;    0.000
633.375; 2802.450;  245.125;    0.000
633.494; 2766.450;  218.125;    0.000
633.612; 2816.450;  222.125;    0.000
633.731; 2712.450;  212.125;    0.000
633.849; 2716.450;  218.125;    0.000
633.968; 2775.450;  236.125;    0.000
634.086; 2743.450;  233.125;    0.000
634.204; 2714.450;  215.125;    0.000
634.323; 2774.450;  230.125;    0.000
634.441; 2734.450;  235.125;    0.000
634.559; 2836.450;  202.125;    0.000
634.678; 2742.450;  218.125;    0.000
634.796; 2745.450;  203.125;    0.000
634.914; 2739.450;  227.125;    0.000
635.032; 2811.450;  279.125;    0.000
635.151; 2724.450;  221.125;    0.000
635.269; 2665.450;  207.125;    0.000
635.387; 2771.450;  195.125;    0.000
635.505; 2786.450;  243.125;    0.000
635.623; 2722.450;  269.125;    0.000
635.742; 2808.450;  232.125;    0.000
635.860; 2771.450;  243.125;    0.000
635.978; 2770.450;  215.125;    0.000
636.096; 2697.450;  225.125;    0.000
636.214; 2779.450;  244.125;    0.000
636.332; 2726.450;  226.125;    0.000
636.450; 2650.450;  227.125;    0.000
636.568; 2695.450;  225.125;    0.000
636.686; 2647.450;  194.125;    0.000
636.804; 2802.450;  234.125;    0.000
636.922; 2665.450;  177.125;    0.000
637.040; 2697.450;  225.125;    0.000
637.158; 2710.450;  194.125;    0.000
637.276; 2716.450;  219.125;    0.000
637.394; 2747.450;  219.125;    0.000
637.512; 2715.450;  210.125;    0.000
637.629; 2741.450;  242.125;    0.000
637.747; 2765.450;  193.125;    0.000
637.865; 2642.450;  219.125;    0.000
637.983; 2684.450;  251.125;    0.000
638.101; 2618.450;  221.125;    0.000
638.218; 2579.450;  193.125;    0.000
638.336; 2771.450;  224.125;    0.000
638.454; 2673.450;  227.125;    0.000
638.572; 2708.450;  245.125;    0.000
638.689; 2733.450;  222.125;    0.000
638.807; 2716.450;  244.125;    0.000
638.925; 2696.450;  238.125;    0.000
639.042; 2707.450;  213.125;    0.000
639.160; 2716.450;  186.125;    0.000
639.278; 2529.450;  203.125;    0.000
639.395; 2592.450;  270.125;    0.000
639.513; 2682.450;  227.125;    0.000
639.630; 2714.450;  200.125;    0.000
639.748; 2612.450;  199.125;    0.000
639.865; 2669.450;  233.125;    0.000
639.983; 2714.450;  181.125;    0.000
640.100; 2661.450;  219.125;    0.000
640.218; 2705.450;  234.125;    0.000
640.335; 2598.450;  233.125;    0.000
640.453; 2625.450;  202.125;    0.000
640.570; 2645.450;  214.125;    0.000
640.688; 2707.450;  215.125;    0.000
640.805; 2709.450;  229.125;    0.000
640.922; 2743.450;  244.125;    0.000
641.040; 2651.450;  233.125;    0.000
641.157; 2675.450;  199.125;    0.000
641.274; 2718.450;  205.125;    0.000
641.391; 2709.450;  244.125;    0.000
641.509; 2608.450;  184.125;    0.000
641.626; 2690.450;  244.125;    0.000
641.743; 2600.450;  221.125;    0.000
641.860; 2729.450;  206.125;    0.000
641.978; 2699.450;  272.125;    0.000
642.095; 2602.450;  218.125;    0.000
642.212; 2575.450;  208.125;    0.000
642.329; 2668.450;  218.125;    0.000
642.446; 2639.450;  197.125;    0.000
642.563; 2684.450;  214.125;    0.000
642.681; 2585.450;  203.125;    0.000
642.798; 2600.450;  236.125;    0.000
642.915; 2648.450;  191.125;    0.000
643.032; 2624.450;  226.125;    0.000
643.149; 2596.450;  231.125;    0.000
643.266; 2641.450;  213.125;    0.000
643.383; 2644.450;  240.125;    0.000
643.500; 2566.450;  185.125;    0.000
643.617; 2608.450;  229.125;    0.000
643.734; 2718.450;  205.125;    0.000
643.850; 2629.450;  222.125;    0.000
643.967; 2702.450;  202.125;    0.000
644.084; 2639.450;  264.125;    0.000
644.201; 2688.450;  214.125;    0.000
644.318; 2593.450;  206.125;    0.000
644.435; 2637.450;  225.125;    0.000
644.552; 2721.450;  203.125;    0.000
644.668; 2762.450;  252.125;    0.000
644.785; 2718.450;  213.125;    0.000
644.902; 2739.450;  233.125;    0.000
645.019; 2757.450;  220.125;    0.000
645.135; 2723.450;  225.125;    0.000
645.252; 2685.450;  218.125;    0.000
645.369; 2747.450;  214.125;    0.000
645.485; 2696.450;  210.125;    0.000
645.602; 2657.450;  198.125;    0.000
645.719; 2692.450;  228.125;    0.000
645.835; 2805.450;  209.125;    0.000
645.952; 2748.450;  213.125;    0.000
646.068; 2690.450;  241.125;    0.000
646.185; 2749.450;  219.125;    0.000
646.302; 2850.450;  246.125;    0.000
646.418; 2771.450;  228.125;    0.000
646.535; 2770.450;  256.125;    0.000
646.651; 2725.450;  222.125;    0.000
646.768; 2809.450;  203.125;    0.000
646.884; 2703.450;  199.125;    0.000
647.000; 2754.450;  194.125;    0.000
647.117; 2773.450;  214.125;    0.000
647.233; 2843.450;  209.125;    0.000
647.350; 2811.450;  235.125;    0.000
647.466; 2810.450;  237.125;    0.000
647.582; 2935.450;  231.125;    0.000
647.699; 2861.450;  219.125;    0.000
647.815; 2802.450;  200.125;    0.000
647.931; 2870.450;  173.125;    0.000
648.047; 2871.450;  184.125;    0.000
648.164; 2916.450;  199.125;    0.000
648.280; 2783.450;  209.125;    0.000
648.396; 2853.450;  220.125;    0.000
648.512; 2817.450;  212.125;    0.000
648.629; 2854.450;  214.125;    0.000
648.745; 2896.450;  197.125;    0.000
648.861; 2938.450;  228.125;    0.000
648.977; 2957.450;  238.125;    0.000
649.093; 2871.450;  208.125;    0.000
649.209; 2887.450;  179.125;    0.000
649.325; 2950.450;  256.125;    0.000
649.441; 3009.450;  224.125;    0.000
649.557; 2955.450;  247.125;    0.000
649.673; 3004.450;  214.125;    0.000
649.789; 2940.450;  213.125;    0.000
649.905; 2889.450;  170.125;    0.000
650.021; 2907.450;  236.125;    0.000
650.137; 2892.450;  229.125;    0.000
650.253; 2970.450;  207.125;    0.000
650.369; 2952.450;  198.125;    0.000
650.485; 2997.450;  225.125;    0.000
650.601; 2918.450;  260.125;    0.000
650.717; 2934.450;  196.125;    0.000
650.833; 3025.450;  219.125;    0.000
650.948; 2998.450;  203.125;    0.000
651.064; 2941.450;  232.125;    0.000
651.180; 3057.450;  252.125;    0.000
651.296; 2985.450;  190.125;    0.000
651.411; 2983.450;  235.125;    0.000
651.527; 3083.450;  227.125;    0.000
651.643; 3115.450;  238.125;    0.000
651.759; 3097.450;  260.125;    0.000
651.874; 3111.450;  217.125;    0.000
651.990; 3074.450;  239.125;    0.000
652.105; 3128.450;  215.125;    0.000
652.221; 3134.450;  237.125;    0.000
652.337; 3161.450;  238.125;    0.000
652.452; 3186.450;  230.125;    0.000
652.568; 3179.450;  201.125;    0.000
652.683; 3292.450;  243.125;    0.000
652.799; 3199.450;  218.125;    0.000
652.914; 3251.450;  189.125;    0.000
653.030; 3305.450;  191.125;    0.000
653.145; 3288.450;  240.125;    0.000
653.261; 3414.450;  225.125;    0.000
653.376; 3336.450;  241.125;    0.000
653.492; 3424.450;  188.125;    0.000
653.607; 3507.450;  219.125;    0.000
653.722; 3568.450;  268.125;    0.000
653.838; 3595.450;  262.125;    0.000
653.953; 3538.450;  188.125;    0.000
654.068; 3634.450;  244.125;    0.000
654.184; 3638.450;  247.125;    0.000
654.299; 3778.450;  228.125;    0.000
654.414; 3836.450;  181.125;    0.000
654.530; 3857.450;  210.125;    0.000
654.645; 4013.450;  240.125;    0.000
654.760; 3893.450;  219.125;    0.000
654.875; 4111.450;  178.125;    0.000
654.990; 4146.450;  222.125;    0.000
655.106; 4221.450;  227.125;    0.000
655.221; 4253.450;  270.125;    0.000
655.336; 4513.450;  199.125;    0.000
655.451; 4460.450;  235.125;    0.000
655.566; 4649.450;  251.125;    0.000
655.681; 4811.450;  253.125;    0.000
655.796; 5033.450;  207.125;    0.000
655.911; 5229.450;  213.125;    0.000
656.026; 5504.450;  247.125;    0.000
656.141; 5685.450;  209.125;    0.000
656.256; 5860.450;  226.125;    0.000
656.371; 5955.450;  201.125;    0.000
656.486; 5893.450;  196.125;    0.000
656.601; 5738.450;  239.125;    0.000
656.716; 5717.450;  234.125;    0.000
656.831; 5612.450;  223.125;    0.000
656.946; 5350.450;  246.125;    0.000
657.060; 5235.450;  230.125;    0.000
657.175; 5055.450;  207.125;    0.000
657.290; 5017.450;  213.125;    0.000
657.405; 4926.450;  319.125;    0.000
657.520; 4659.450;  241.125;    0.000
657.634; 4640.450;  235.125;    0.000
657.749; 4566.450;  275.125;    0.000
657.864; 4343.450;  210.125;    0.000
657.979; 4385.450;  227.125;    0.000
658.093; 4244.450;  206.125;    0.000
658.208; 4190.450;  217.125;    0.000
658.323; 4125.450;  227.125;    0.000
658.437; 4064.450;  217.125;    0.000
658.552; 4059.450;  237.125;    0.000
658.666; 3856.450;  233.125;    0.000
658.781; 3985.450;  248.125;    0.000
658.895; 3863.450;  233.125;    0.000
659.010; 3828.450;  238.125;    0.000
659.125; 3638.450;  206.125;    0.000
659.239; 3598.450;  220.125;    0.000
659.353; 3693.450;  236.125;    0.000
659.468; 3564.450;  238.125;    0.000
659.582; 3610.450;  275.125;    0.000
659.697; 3599.450;  239.125;    0.000
659.811; 3443.450;  232.125;    0.000
659.926; 3353.450;  230.125;    0.000
660.040; 3352.450;  257.125;    0.000
660.154; 3493.450;  221.125;    0.000
660.269; 3392.450;  219.125;    0.000
660.383; 3332.450;  228.125;    0.000
660.497; 3289.450;  243.125;    0.000
660.612; 3286.450;  238.125;    0.000
660.726; 3357.450;  260.125;    0.000
660.840; 3268.450;  239.125;    0.000
660.954; 3284.450;  236.125;    0.000
661.068; 3237.450;  239.125;    0.000
661.183; 3101.450;  245.125;    0.000
661.297; 3081.450;  198.125;    0.000
661.411; 3072.450;  203.125;    0.000
661.525; 3156.450;  244.125;    0.000
661.639; 3019.450;  229.125;    0.000
661.753; 2997.450;  238.125;    0.000
661.867; 3065.450;  237.125;    0.000
661.981; 2922.450;  219.125;    0.000
662.095; 2984.450;  232.125;    0.000
662.209; 2878.450;  236.125;    0.000
662.323; 2931.450;  209.125;    0.000
662.437; 2827.450;  206.125;    0.000
662.551; 2923.450;  217.125;    0.000
662.665; 2846.450;  262.125;    0.000
662.779; 2781.450;  234.125;    0.000
662.893; 2792.450;  222.125;    0.000
663.007; 2824.450;  189.125;    0.000
663.121; 2742.450;  258.125;    0.000
663.235; 2721.450;  191.125;    0.000
663.349; 2757.450;  259.125;    0.000
663.462; 2722.450;  209.125;    0.000
663.576; 2696.450;  244.125;    0.000
663.690; 2697.450;  237.125;    0.000
663.804; 2677.450;  205.125;    0.000
663.917; 2577.450;  207.125;    0.000
664.031; 2573.450;  234.125;    0.000
664.145; 2678.450;  216.125;    0.000
664.258; 2585.450;  202.125;    0.000
664.372; 2633.450;  198.125;    0.000
664.486; 2525.450;  181.125;    0.000
664.599; 2593.450;  229.125;    0.000
664.713; 2607.450;  266.125;    0.000
664.827; 2577.450;  185.125;    0.000
664.940; 2539.450;  225.125;    0.000
665.054; 2485.450;  198.125;    0.000
665.167; 2481.450;  208.125;    0.000
665.281; 2518.450;  231.125;    0.000
665.394; 2483.450;  228.125;    0.000
665.508; 2494.450;  204.125;    0.000
665.621; 2475.450;  263.125;    0.000
665.735; 2481.450;  222.125;    0.000
665.848; 2541.450;  237.125;    0.000
665.961; 2476.450;  180.125;    0.000
666.075; 2513.450;  212.125;    0.000
666.188; 2484.450;  229.125;    0.000
666.301; 2431.450;  247.125;    0.000
666.415; 2421.450;  212.125;    0.000
666.528; 2416.450;  268.125;    0.000
666.641; 2347.450;  210.125;    0.000
666.755; 2444.450;  178.125;    0.000
666.868; 2408.450;  227.125;    0.000
666.981; 2439.450;  250.125;    0.000
667.094; 2320.450;  228.125;    0.000
667.207; 2410.450;  235.125;    0.000
667.321; 2300.450;  171.125;    0.000
667.434; 2262.450;  191.125;    0.000
667.547; 2442.450;  279.125;    0.000
667.660; 2392.450;  210.125;    0.000
667.773; 2445.450;  217.125;    0.000
667.886; 2298.450;  209.125;    0.000
667.999; 2407.450;  239.125;    0.000
668.112; 2329.450;  227.125;    0.000
668.225; 2310.450;  185.125;    0.000
668.338; 2279.450;  222.125;    0.000
668.451; 2267.450;  200.125;    0.000
668.564; 2280.450;  237.125;    0.000
668.677; 2281.450;  207.125;    0.000
668.790; 2215.450;  208.125;    0.000
668.903; 2272.450;  243.125;    0.000
669.016; 2244.450;  190.125;    0.000
669.129; 2224.450;  234.125;    0.000
669.242; 2201.450;  185.125;    0.000
669.354; 2148.450;  224.125;    0.000
669.467; 2212.450;  219.125;    0.000
669.580; 2240.450;  249.125;    0.000
669.693; 2206.450;  187.125;    0.000
669.806; 2275.450;  206.125;    0.000
669.918; 2214.450;  192.125;    0.000
670.031; 2196.450;  235.125;    0.000
670.144; 2212.450;  238.125;    0.000
670.256; 2227.450;  237.125;    0.000
670.369; 2160.450;  237.125;    0.000
670.482; 2159.450;  250.125;    0.000
670.594; 2296.450;  273.125;    0.000
670.707; 2116.450;  223.125;    0.000
670.820; 2200.450;  238.125;    0.000
670.932; 2162.450;  224.125;    0.000
671.045; 2250.450;  219.125;    0.000
671.157; 2162.450;  242.125;    0.000
671.270; 2100.450;  235.125;    0.000
671.382; 2196.450;  213.125;    0.000
671.495; 2145.450;  254.125;    0.000
671.607; 2127.450;  253.125;    0.000
671.720; 2065.450;  169.125;    0.000
671.832; 2112.450;  201.125;    0.000
671.944; 2196.450;  250.125;    0.000
672.057; 2117.450;  187.125;    0.000
672.169; 2194.450;  224.125;    0.000
672.281; 2135.450;  238.125;    0.000
672.394; 2138.450;  250.125;    0.000
672.506; 2042.450;  227.125;    0.000
672.618; 2171.450;  223.125;    0.000
672.731; 2233.450;  210.125;    0.000
672.843; 2108.450;  245.125;    0.000
672.955; 2115.450;  263.125;    0.000
673.067; 2131.450;  239.125;    0.000
673.180; 2160.450;  253.125;    0.000
673.292; 2075.450;  243.125;    0.000
673.404; 2166.450;  226.125;    0.000
673.516; 2070.450;  223.125;    0.000
673.628; 2094.450;  223.125;    0.000
673.740; 2070.450;  216.125;    0.000
673.852; 2138.450;  277.125;    0.000
673.964; 2127.450;  211.125;    0.000
674.076; 2099.450;  241.125;    0.000
674.188; 2049.450;  251.125;    0.000
674.300; 2105.450;  268.125;    0.000
674.412; 2039.450;  260.125;    0.000
674.524; 2056.450;  257.125;    0.000
674.636; 2058.450;  222.125;    0.000
674.748; 2003.450;  227.125;    0.000
674.860; 2055.450;  250.125;    0.000
674.972; 2008.450;  240.125;    0.000
675.084; 2092.450;  262.125;    0.000
675.196; 2095.450;  287.125;    0.000
675.307; 2034.450;  257.125;    0.000
675.419; 1956.450;  231.125;    0.000
675.531; 1998.450;  274.125;    0.000
675.643; 1972.450;  235.125;    0.000
675.755; 2040.450;  275.125;    0.000
675.866; 2037.450;  238.125;    0.000
675.978; 2018.450;  209.125;    0.000
676.090; 2013.450;  239.125;    0.000
676.201; 2032.450;  249.125;    0.000
676.313; 1936.450;  237.125;    0.000
676.425; 2061.450;  263.125;    0.000
676.536; 1969.450;  178.125;    0.000
676.648; 1967.450;  245.125;    0.000
676.759; 2034.450;  244.125;    0.000
676.871; 1964.450;  242.125;    0.000
676.983; 2097.450;  245.125;    0.000
677.094; 2031.450;  209.125;    0.000
677.206; 2072.450;  248.125;    0.000
677.317; 2019.450;  260.125;    0.000
677.429; 2022.450;  237.125;    0.000
677.540; 1927.450;  226.125;    0.000
677.651; 1912.450;  226.125;    0.000
677.763; 1974.450;  194.125;    0.000
677.874; 1896.450;  230.125;    0.000
677.986; 1921.450;  202.125;    0.000
678.097; 1946.450;  229.125;    0.000
678.208; 1964.450;  263.125;    0.000
678.320; 1987.450;  243.125;    0.000
678.431; 1966.450;  229.125;    0.000
678.542; 1917.450;  231.125;    0.000
678.653; 1881.450;  224.125;    0.000
678.765; 1894.450;  255.125;    0.000
678.876; 1904.450;  175.125;    0.000
678.987; 1885.450;  204.125;    0.000
679.098; 1951.450;  227.125;    0.000
679.209; 1859.450;  228.125;    0.000
679.320; 1989.450;  223.125;    0.000
679.432; 1886.450;  219.125;    0.000
679.543; 1865.450;  210.125;    0.000
679.654; 1940.450;  249.125;    0.000
679.765; 1870.450;  222.125;    0.000
679.876; 1929.450;  219.125;    0.000
679.987; 1887.450;  213.125;    0.000
680.098; 1899.450;  237.125;    0.000
680.209; 1880.450;  188.125;    0.000
680.320; 1899.450;  243.125;    0.000
680.431; 1977.450;  227.125;    0.000
680.542; 1840.450;  212.125;    0.000
680.653; 1896.450;  266.125;    0.000
680.763; 1866.450;  198.125;    0.000
680.874; 1844.450;  211.125;    0.000
680.985; 1817.450;  207.125;    0.000
681.096; 1846.450;  244.125;    0.000
681.207; 1876.450;  209.125;    0.000
681.318; 1873.450;  215.125;    0.000
681.428; 1880.450;  199.125;    0.000
681.539; 1809.450;  175.125;    0.000
681.650; 1807.450;  224.125;    0.000
681.760; 1896.450;  216.125;    0.000
681.871; 1857.450;  187.125;    0.000
681.982; 1822.450;  237.125;    0.000
682.093; 1865.450;  213.125;    0.000
682.203; 1888.450;  190.125;    0.000
682.314; 1820.450;  230.125;    0.000
682.424; 1907.450;  223.125;    0.000
682.535; 1917.450;  172.125;    0.000
682.646; 1969.450;  268.125;    0.000
682.756; 1896.450;  249.125;    0.000
682.867; 1786.450;  225.125;    0.000
682.977; 1852.450;  211.125;    0.000
683.088; 1871.450;  238.125;    0.000
683.198; 1815.450;  202.125;    0.000
683.308; 1812.450;  196.125;    0.000
683.419; 1885.450;  230.125;    0.000
683.529; 1844.450;  213.125;    0.000
683.640; 1832.450;  225.125;    0.000
683.750; 1856.450;  203.125;    0.000
683.860; 1878.450;  200.125;    0.000
683.971; 1825.450;  269.125;    0.000
684.081; 1850.450;  204.125;    0.000
684.191; 1860.450;  228.125;    0.000
684.301; 1848.450;  219.125;    0.000
684.412; 1965.450;  222.125;    0.000
684.522; 1769.450;  242.125;    0.000
684.632; 1837.450;  234.125;    0.000
684.742; 1894.450;  240.125;    0.000
684.852; 1754.450;  229.125;    0.000
684.963; 1797.450;  237.125;    0.000
685.073; 1877.450;  205.125;    0.000
685.183; 1915.450;  241.125;    0.000
685.293; 1767.450;  202.125;    0.000
685.403; 1881.450;  232.125;    0.000
685.513; 1847.450;  244.125;    0.000
685.623; 1833.450;  224.125;    0.000
685.733; 1856.450;  236.125;    0.000
685.843; 1874.450;  235.125;    0.000
685.953; 1807.450;  216.125;    0.000
686.063; 1820.450;  214.125;    0.000
686.173; 1777.450;  198.125;    0.000
686.283; 1818.450;  250.125;    0.000
686.393; 1829.450;  227.125;    0.000
686.503; 1842.450;  244.125;    0.000
686.612; 1866.450;  247.125;    0.000
686.722; 1845.450;  265.125;    0.000
686.832; 1819.450;  213.125;    0.000
686.942; 1873.450;  241.125;    0.000
687.052; 1801.450;  238.125;    0.000
687.161; 1847.450;  233.125;    0.000
687.271; 1823.450;  232.125;    0.000
687.381; 1856.450;  220.125;    0.000
687.491; 1819.450;  206.125;    0.000
687.600; 1785.450;  283.125;    0.000
687.710; 1878.450;  212.125;    0.000
687.820; 1840.450;  226.125;    0.000
687.929; 1884.450;  202.125;    0.000
688.039; 1834.450;  225.125;    0.000
688.148; 1817.450;  235.125;    0.000
688.258; 1757.450;  224.125;    0.000
688.367; 1814.450;  239.125;    0.000
688.477; 1816.450;  193.125;    0.000
688.586; 1807.450;  226.125;    0.000
688.696; 1853.450;  185.125;    0.000
688.805; 1785.450;  190.125;    0.000
688.915; 1803.450;  209.125;    0.000
689.024; 1800.450;  214.125;    0.000
689.134; 1836.450;  205.125;    0.000
689.243; 1697.450;  190.125;    0.000
689.352; 1827.450;  233.125;    0.000
689.462; 1804.450;  196.125;    0.000
689.571; 1820.450;  227.125;    0.000
689.680; 1766.450;  206.125;    0.000
689.790; 1789.450;  193.125;    0.000
689.899; 1800.450;  204.125;    0.000
690.008; 1806.450;  228.125;    0.000
690.117; 1818.450;  207.125;    0.000
690.227; 1719.450;  231.125;    0.000
690.336; 1741.450;  222.125;    0.000
690.445; 1816.450;  198.125;    0.000
690.554; 1809.450;  202.125;    0.000
690.663; 1817.450;  217.125;    0.000
690.772; 1740.450;  213.125;    0.000
690.881; 1769.450;  225.125;    0.000
690.990; 1790.450;  217.125;    0.000
691.099; 1803.450;  205.125;    0.000
691.209; 1717.450;  220.125;    0.000
691.318; 1756.450;  216.125;    0.000
691.427; 1805.450;  188.125;    0.000
691.536; 1761.450;  224.125;    0.000
691.644; 1718.450;  212.125;    0.000
691.753; 1707.450;  216.125;    0.000
691.862; 1712.450;  250.125;    0.000
691.971; 1817.450;  210.125;    0.000
692.080; 1829.450;  232.125;    0.000
692.189; 1813.450;  218.125;    0.000
692.298; 1744.450;  220.125;    0.000
692.406; 1812.450;  261.125;    0.000
692.515; 1783.450;  253.125;    0.000
692.624; 1799.450;  224.125;    0.000
692.733; 1735.450;  209.125;    0.000
692.842; 1762.450;  214.125;    0.000
692.950; 1826.450;  206.125;    0.000
693.059; 1752.450;  180.125;    0.000
693.168; 1816.450;  220.125;    0.000
693.276; 1792.450;  196.125;    0.000
693.385; 1811.450;  203.125;    0.000
693.494; 1807.450;  263.125;    0.000
693.602; 1780.450;  222.125;    0.000
693.711; 1722.450;  178.125;    0.000
693.819; 1734.450;  230.125;    0.000
693.928; 1768.450;  187.125;    0.000
694.036; 1762.450;  219.125;    0.000
694.145; 1790.450;  223.125;    0.000
694.253; 1801.450;  241.125;    0.000
694.362; 1719.450;  229.125;    0.000
694.470; 1778.450;  223.125;    0.000
694.579; 1813.450;  195.125;    0.000
694.687; 1757.450;  257.125;    0.000
694.795; 1757.450;  230.125;    0.000
694.904; 1726.450;  196.125;    0.000
695.012; 1839.450;  247.125;    0.000
695.120; 1715.450;  215.125;    0.000
695.229; 1761.450;  244.125;    0.000
695.337; 1809.450;  197.125;    0.000
695.445; 1827.450;  270.125;    0.000
695.553; 1790.450;  241.125;    0.000
695.662; 1702.450;  249.125;    0.000
695.770; 1731.450;  244.125;    0.000
695.878; 1763.450;  236.125;    0.000
695.986; 1744.450;  253.125;    0.000
696.094; 1709.450;  242.125;    0.000
696.202; 1693.450;  174.125;    0.000
696.310; 1736.450;  230.125;    0.000
696.419; 1684.450;  218.125;    0.000
696.527; 1808.450;  226.125;    0.000
696.635; 1741.450;  217.125;    0.000
696.743; 1729.450;  221.125;    0.000
696.851; 1784.450;  259.125;    0.000
696.959; 1676.450;  245.125;    0.000
697.067; 1746.450;  235.125;    0.000
697.174; 1767.450;  238.125;    0.000
697.282; 1727.450;  208.125;    0.000
697.390; 1810.450;  265.125;    0.000
697.498; 1802.450;  202.125;    0.000
697.606; 1707.450;  219.125;    0.000
697.714; 1714.450;  245.125;    0.000
697.822; 1768.450;  222.125;    0.000
697.929; 1731.450;  194.125;    0.000
698.037; 1711.450;  223.125;    0.000
698.145; 1728.450;  213.125;    0.000
698.253; 1725.450;  234.125;    0.000
698.360; 1798.450;  211.125;    0.000
698.468; 1770.450;  241.125;    0.000
698.576; 1754.450;  249.125;    0.000
698.683; 1748.450;  268.125;    0.000
698.791; 1757.450;  223.125;    0.000
698.899; 1701.450;  251.125;    0.000
699.006; 1709.450;  216.125;    0.000
699.114; 1789.450;  256.125;    0.000
699.221; 1712.450;  226.125;    0.000
699.329; 1757.450;  255.125;    0.000
699.436; 1763.450;  213.125;    0.000
699.544; 1675.450;  258.125;    0.000
699.651; 1715.450;  214.125;    0.000
699.759; 1732.450;  229.125;    0.000
699.866; 1805.450;  239.125;    0.000
699.974; 1684.450;  224.125;    0.000
700.081; 1764.450;  227.125;    0.000
700.188; 1714.450;  267.125;    0.000
700.296; 1756.450;  222.125;    0.000
700.403; 1645.450;  225.125;    0.000
700.510; 1700.450;  248.125;    0.000
700.618; 1734.450;  223.125;    0.000
700.725; 1697.450;  243.125;    0.000
700.832; 1730.450;  239.125;    0.000
700.940; 1703.450;  284.125;    0.000
701.047; 1674.450;  216.125;    0.000
701.154; 1639.450;  249.125;    0.000
701.261; 1663.450;  229.125;    0.000
701.368; 1741.450;  247.125;    0.000
701.475; 1660.450;  208.125;    0.000
701.582; 1765.450;  262.125;    0.000
701.690; 1696.450;  224.125;    0.000
701.797; 1766.450;  294.125;    0.000
701.904; 1719.450;  303.125;    0.000
702.011; 1814.450;  278.125;    0.000
702.118; 1711.450;  279.125;    0.000
702.225; 1774.450;  342.125;    0.000
702.332; 1739.450;  281.125;    0.000
702.439; 1728.450;  313.125;    0.000
702.546; 1783.450;  295.125;    0.000
702.652; 1756.450;  293.125;    0.000
702.759; 1785.450;  333.125;    0.000
702.866; 1782.450;  272.125;    0.000
702.973; 1818.450;  310.125;    0.000
703.080; 1816.450;  313.125;    0.000
703.187; 1766.450;  316.125;    0.000
703.294; 1749.450;  328.125;    0.000
703.400; 1643.450;  312.125;    0.000
703.507;  493.450;  349.125;    0.000
703.614;  300.450;  298.125;    0.000
703.720;  327.450;  300.125;    0.000
703.827;  299.450;  346.125;    0.000
703.934;  322.450;  308.125;    0.000
704.040;  289.450;  300.125;    0.000
704.147;  326.450;  317.125;    0.000
704.254;  358.450;  350.125;    0.000
704.360;  298.450;  285.125;    0.000
704.467;  349.450;  334.125;    0.000
704.573;  329.450;  330.125;    0.000
704.680;  305.450;  312.125;    0.000
704.786;  331.450;  305.125;    0.000
704.893;  333.450;  330.125;    0.000
704.999;  307.450;  315.125;    0.000
705.106;  337.450;  327.125;    0.000

