
Integration time [ms]:   0.300
Averaging Nr. [scans]: 1
Smoothing Nr. [pixels]: 0
Data measured with spectrometer [name]: UV2
Wave   ;Sample   ;Dark     ;Reference
[nm]   ;[counts] ;[counts] ;[counts] 

353.533;  237.250;  178.050;    0.000
353.597;  249.250;  251.050;    0.000
353.660;  187.250;  213.050;    0.000
353.723;  177.250;  185.050;    0.000
353.786;  190.250;  191.050;    0.000
353.850;  248.250;  238.050;    0.000
353.913;  198.250;  181.050;    0.000
353.976;  207.250;  190.050;    0.000
354.039;  178.250;  184.050;    0.000
354.102;  249.250;  231.050;    0.000
354.166;  196.250;  188.050;    0.000
354.229;  231.250;  224.050;    0.000
354.292;  217.250;  186.050;    0.000
354.355;  209.250;  175.050;    0.000
354.418;  174.250;  191.050;    0.000
354.481;  240.250;  181.050;    0.000
354.545;  673.250;  193.050;    0.000
354.608;  644.250;  210.050;    0.000
354.671;  662.250;  183.050;    0.000
354.734;  687.250;  189.050;    0.000
354.797;  678.250;  168.050;    0.000
354.860;  712.250;  178.050;    0.000
354.923;  728.250;  236.050;    0.000
354.986;  725.250;  181.050;    0.000
355.050;  753.250;  168.050;    0.000
355.113;  755.250;  201.050;    0.000
355.176;  736.250;  206.050;    0.000
355.239;  804.250;  213.050;    0.000
355.302;  732.250;  198.050;    0.000
355.365;  758.250;  199.050;    0.000
355.428;  801.250;  200.050;    0.000
355.491;  896.250;  232.050;    0.000
355.554;  780.250;  184.050;    0.000
355.617;  846.250;  214.050;    0.000
355.680;  835.250;  191.050;    0.000
355.743;  770.250;  161.050;    0.000
355.806;  870.250;  153.050;    0.000
355.869;  870.250;  221.050;    0.000
355.932;  807.250;  152.050;    0.000
355.995;  881.250;  195.050;    0.000
356.058;  865.250;  172.050;    0.000
356.121;  945.250;  186.050;    0.000
356.184;  941.250;  196.050;    0.000
356.247;  881.250;  183.050;    0.000
356.310;  880.250;  159.050;    0.000
356.373;  904.250;  183.050;    0.000
356.436;  850.250;  176.050;    0.000
356.498;  928.250;  191.050;    0.000
356.561;  930.250;  145.050;    0.000
356.624;  882.250;  187.050;    0.000
356.687;  912.250;  181.050;    0.000
356.750;  889.250;  227.050;    0.000
356.813;  914.250;  147.050;    0.000
356.876;  863.250;  184.050;    0.000
356.939;  917.250;  141.050;    0.000
357.001;  924.250;  188.050;    0.000
357.064;  940.250;  173.050;    0.000
357.127;  921.250;  159.050;    0.000
357.190;  907.250;  185.050;    0.000
357.253;  954.250;  180.050;    0.000
357.316;  962.250;  199.050;    0.000
357.378;  916.250;  196.050;    0.000
357.441;  920.250;  175.050;    0.000
357.504;  953.250;  164.050;    0.000
357.567;  875.250;  145.050;    0.000
357.629;  919.250;  205.050;    0.000
357.692;  930.250;  175.050;    0.000
357.755;  962.250;  205.050;    0.000
357.818;  932.250;  141.050;    0.000
357.880;  915.250;  170.050;    0.000
357.943;  929.250;  152.050;    0.000
358.006;  927.250;  145.050;    0.000
358.069;  979.250;  164.050;    0.000
358.131;  960.250;  148.050;    0.000
358.194;  951.250;  122.050;    0.000
358.257;  964.250;  147.050;    0.000
358.319;  983.250;  156.050;    0.000
358.382; 1017.250;  193.050;    0.000
358.445; 1004.250;  155.050;    0.000
358.507; 1015.250;  160.050;    0.000
358.570; 1000.250;  159.050;    0.000
358.633;  989.250;  163.050;    0.000
358.695;  952.250;  174.050;    0.000
358.758;  952.250;  127.050;    0.000
358.821;  981.250;  165.050;    0.000
358.883;  980.250;  145.050;    0.000
358.946;  980.250;  127.050;    0.000
359.008; 1000.250;  180.050;    0.000
359.071; 1004.250;  173.050;    0.000
359.134;  962.250;  150.050;    0.000
359.196;  960.250;  158.050;    0.000
359.259;  966.250;  159.050;    0.000
359.321;  960.250;  159.050;    0.000
359.384; 1040.250;  182.050;    0.000
359.446;  995.250;  140.050;    0.000
359.509;  994.250;  146.050;    0.000
359.571; 1003.250;  133.050;    0.000
359.634;  996.250;   93.050;    0.000
359.696; 1020.250;  142.050;    0.000
359.759; 1065.250;  161.050;    0.000
359.821;  983.250;  110.050;    0.000
359.884; 1019.250;  114.050;    0.000
359.946; 1070.250;  180.050;    0.000
360.009;  986.250;  158.050;    0.000
360.071; 1032.250;  116.050;    0.000
360.134; 1059.250;  170.050;    0.000
360.196; 1035.250;  128.050;    0.000
360.259; 1059.250;  157.050;    0.000
360.321; 1039.250;  122.050;    0.000
360.384; 1038.250;  119.050;    0.000
360.446; 1027.250;  122.050;    0.000
360.508; 1033.250;  195.050;    0.000
360.571; 1079.250;  128.050;    0.000
360.633; 1089.250;  172.050;    0.000
360.696; 1033.250;  115.050;    0.000
360.758; 1067.250;  162.050;    0.000
360.820; 1010.250;  149.050;    0.000
360.883; 1029.250;  151.050;    0.000
360.945; 1088.250;  149.050;    0.000
361.007; 1028.250;  135.050;    0.000
361.070; 1041.250;  162.050;    0.000
361.132; 1089.250;  198.050;    0.000
361.194; 1084.250;  141.050;    0.000
361.257; 1128.250;  154.050;    0.000
361.319; 1076.250;  147.050;    0.000
361.381; 1078.250;  154.050;    0.000
361.443; 1052.250;  144.050;    0.000
361.506; 1078.250;  164.050;    0.000
361.568; 1094.250;  148.050;    0.000
361.630; 1084.250;  127.050;    0.000
361.693; 1043.250;  158.050;    0.000
361.755; 1078.250;  161.050;    0.000
361.817; 1119.250;  173.050;    0.000
361.879; 1121.250;  159.050;    0.000
361.941; 1058.250;  153.050;    0.000
362.004; 1145.250;  148.050;    0.000
362.066; 1095.250;  150.050;    0.000
362.128; 1119.250;  132.050;    0.000
362.190; 1180.250;  207.050;    0.000
362.252; 1115.250;  142.050;    0.000
362.315; 1052.250;  153.050;    0.000
362.377; 1093.250;  164.050;    0.000
362.439; 1099.250;  155.050;    0.000
362.501; 1090.250;  157.050;    0.000
362.563; 1107.250;  188.050;    0.000
362.625; 1142.250;  194.050;    0.000
362.688; 1182.250;  159.050;    0.000
362.750; 1245.250;  205.050;    0.000
362.812; 1139.250;  148.050;    0.000
362.874; 1105.250;  173.050;    0.000
362.936; 1155.250;  152.050;    0.000
362.998; 1147.250;  145.050;    0.000
363.060; 1230.250;  184.050;    0.000
363.122; 1135.250;  147.050;    0.000
363.184; 1144.250;  136.050;    0.000
363.246; 1129.250;  171.050;    0.000
363.308; 1147.250;  154.050;    0.000
363.370; 1209.250;  175.050;    0.000
363.432; 1165.250;  139.050;    0.000
363.494; 1146.250;  163.050;    0.000
363.556; 1118.250;  117.050;    0.000
363.618; 1179.250;  126.050;    0.000
363.680; 1176.250;  147.050;    0.000
363.742; 1206.250;  161.050;    0.000
363.804; 1183.250;  159.050;    0.000
363.866; 1261.250;  170.050;    0.000
363.928; 1121.250;  122.050;    0.000
363.990; 1202.250;  167.050;    0.000
364.052; 1207.250;  180.050;    0.000
364.114; 1181.250;  119.050;    0.000
364.176; 1146.250;  184.050;    0.000
364.238; 1180.250;  180.050;    0.000
364.300; 1197.250;  159.050;    0.000
364.362; 1155.250;  163.050;    0.000
364.424; 1160.250;  139.050;    0.000
364.486; 1215.250;  189.050;    0.000
364.548; 1156.250;  167.050;    0.000
364.609; 1216.250;  165.050;    0.000
364.671; 1203.250;  171.050;    0.000
364.733; 1178.250;  165.050;    0.000
364.795; 1179.250;  122.050;    0.000
364.857; 1150.250;  147.050;    0.000
364.919; 1156.250;  104.050;    0.000
364.981; 1105.250;  143.050;    0.000
365.042; 1189.250;  166.050;    0.000
365.104; 1227.250;  162.050;    0.000
365.166; 1187.250;  155.050;    0.000
365.228; 1150.250;  179.050;    0.000
365.290; 1168.250;  133.050;    0.000
365.351; 1178.250;  142.050;    0.000
365.413; 1185.250;  144.050;    0.000
365.475; 1155.250;  139.050;    0.000
365.537; 1235.250;  181.050;    0.000
365.598; 1184.250;  166.050;    0.000
365.660; 1111.250;  130.050;    0.000
365.722; 1190.250;  177.050;    0.000
365.784; 1175.250;  149.050;    0.000
365.845; 1177.250;  156.050;    0.000
365.907; 1168.250;  122.050;    0.000
365.969; 1239.250;  140.050;    0.000
366.030; 1255.250;  156.050;    0.000
366.092; 1189.250;  140.050;    0.000
366.154; 1244.250;  169.050;    0.000
366.215; 1250.250;  170.050;    0.000
366.277; 1161.250;  143.050;    0.000
366.339; 1169.250;  139.050;    0.000
366.400; 1268.250;  139.050;    0.000
366.462; 1212.250;  140.050;    0.000
366.524; 1217.250;  150.050;    0.000
366.585; 1216.250;  163.050;    0.000
366.647; 1312.250;  193.050;    0.000
366.708; 1186.250;  135.050;    0.000
366.770; 1260.250;  165.050;    0.000
366.832; 1248.250;  168.050;    0.000
366.893; 1254.250;  157.050;    0.000
366.955; 1202.250;  132.050;    0.000
367.016; 1291.250;  127.050;    0.000
367.078; 1270.250;  146.050;    0.000
367.139; 1208.250;  129.050;    0.000
367.201; 1169.250;  148.050;    0.000
367.262; 1281.250;  165.050;    0.000
367.324; 1223.250;  171.050;    0.000
367.385; 1173.250;  118.050;    0.000
367.447; 1290.250;  144.050;    0.000
367.508; 1140.250;  135.050;    0.000
367.570; 1254.250;  160.050;    0.000
367.631; 1223.250;  157.050;    0.000
367.693; 1250.250;  168.050;    0.000
367.754; 1213.250;  139.050;    0.000
367.816; 1218.250;  141.050;    0.000
367.877; 1235.250;  195.050;    0.000
367.939; 1287.250;  166.050;    0.000
368.000; 1255.250;  127.050;    0.000
368.062; 1200.250;  143.050;    0.000
368.123; 1207.250;  156.050;    0.000
368.184; 1271.250;  179.050;    0.000
368.246; 1199.250;  168.050;    0.000
368.307; 1293.250;  203.050;    0.000
368.369; 1284.250;  149.050;    0.000
368.430; 1251.250;  121.050;    0.000
368.491; 1269.250;  131.050;    0.000
368.553; 1317.250;  161.050;    0.000
368.614; 1260.250;  157.050;    0.000
368.675; 1260.250;  152.050;    0.000
368.737; 1275.250;  168.050;    0.000
368.798; 1328.250;  147.050;    0.000
368.859; 1292.250;  174.050;    0.000
368.921; 1340.250;  168.050;    0.000
368.982; 1294.250;  151.050;    0.000
369.043; 1297.250;  169.050;    0.000
369.104; 1256.250;  149.050;    0.000
369.166; 1310.250;  178.050;    0.000
369.227; 1278.250;  149.050;    0.000
369.288; 1313.250;  131.050;    0.000
369.349; 1270.250;  128.050;    0.000
369.411; 1268.250;  198.050;    0.000
369.472; 1347.250;  156.050;    0.000
369.533; 1327.250;  142.050;    0.000
369.594; 1272.250;  125.050;    0.000
369.656; 1369.250;  153.050;    0.000
369.717; 1244.250;  124.050;    0.000
369.778; 1375.250;  163.050;    0.000
369.839; 1235.250;  130.050;    0.000
369.900; 1282.250;  170.050;    0.000
369.961; 1232.250;  142.050;    0.000
370.023; 1326.250;  197.050;    0.000
370.084; 1325.250;  151.050;    0.000
370.145; 1291.250;  128.050;    0.000
370.206; 1335.250;  152.050;    0.000
370.267; 1344.250;  154.050;    0.000
370.328; 1413.250;  154.050;    0.000
370.389; 1282.250;  173.050;    0.000
370.451; 1307.250;  191.050;    0.000
370.512; 1299.250;  155.050;    0.000
370.573; 1356.250;  134.050;    0.000
370.634; 1338.250;  160.050;    0.000
370.695; 1323.250;  124.050;    0.000
370.756; 1405.250;  169.050;    0.000
370.817; 1329.250;  169.050;    0.000
370.878; 1386.250;  200.050;    0.000
370.939; 1327.250;  157.050;    0.000
371.000; 1401.250;  131.050;    0.000
371.061; 1348.250;  136.050;    0.000
371.122; 1320.250;  176.050;    0.000
371.183; 1305.250;   81.050;    0.000
371.244; 1377.250;  156.050;    0.000
371.305; 1280.250;  131.050;    0.000
371.366; 1374.250;  161.050;    0.000
371.427; 1288.250;  127.050;    0.000
371.488; 1364.250;  184.050;    0.000
371.549; 1290.250;  159.050;    0.000
371.610; 1334.250;  147.050;    0.000
371.671; 1293.250;  132.050;    0.000
371.732; 1310.250;  163.050;    0.000
371.793; 1324.250;  179.050;    0.000
371.853; 1357.250;  179.050;    0.000
371.914; 1393.250;  149.050;    0.000
371.975; 1298.250;  117.050;    0.000
372.036; 1379.250;  141.050;    0.000
372.097; 1278.250;  101.050;    0.000
372.158; 1388.250;  115.050;    0.000
372.219; 1378.250;  174.050;    0.000
372.280; 1353.250;  134.050;    0.000
372.340; 1375.250;  180.050;    0.000
372.401; 1373.250;  166.050;    0.000
372.462; 1368.250;  171.050;    0.000
372.523; 1419.250;  132.050;    0.000
372.584; 1398.250;  182.050;    0.000
372.645; 1299.250;  149.050;    0.000
372.705; 1364.250;  182.050;    0.000
372.766; 1470.250;  145.050;    0.000
372.827; 1423.250;  161.050;    0.000
372.888; 1343.250;  156.050;    0.000
372.948; 1401.250;  158.050;    0.000
373.009; 1386.250;  178.050;    0.000
373.070; 1391.250;  166.050;    0.000
373.131; 1393.250;  154.050;    0.000
373.191; 1455.250;  193.050;    0.000
373.252; 1372.250;  148.050;    0.000
373.313; 1405.250;  152.050;    0.000
373.373; 1397.250;  156.050;    0.000
373.434; 1480.250;  166.050;    0.000
373.495; 1373.250;  152.050;    0.000
373.555; 1406.250;  145.050;    0.000
373.616; 1332.250;  141.050;    0.000
373.677; 1316.250;  169.050;    0.000
373.737; 1368.250;  166.050;    0.000
373.798; 1438.250;  151.050;    0.000
373.859; 1455.250;  170.050;    0.000
373.919; 1368.250;  206.050;    0.000
373.980; 1408.250;  140.050;    0.000
374.041; 1440.250;  148.050;    0.000
374.101; 1415.250;  165.050;    0.000
374.162; 1395.250;  166.050;    0.000
374.222; 1412.250;  156.050;    0.000
374.283; 1448.250;  161.050;    0.000
374.343; 1446.250;  185.050;    0.000
374.404; 1431.250;  148.050;    0.000
374.465; 1439.250;  162.050;    0.000
374.525; 1422.250;  177.050;    0.000
374.586; 1420.250;  164.050;    0.000
374.646; 1495.250;  180.050;    0.000
374.707; 1489.250;  203.050;    0.000
374.767; 1431.250;  148.050;    0.000
374.828; 1475.250;  142.050;    0.000
374.888; 1504.250;  187.050;    0.000
374.949; 1499.250;  137.050;    0.000
375.009; 1422.250;  155.050;    0.000
375.070; 1497.250;  165.050;    0.000
375.130; 1481.250;  168.050;    0.000
375.190; 1476.250;  157.050;    0.000
375.251; 1483.250;  206.050;    0.000
375.311; 1497.250;  141.050;    0.000
375.372; 1452.250;  144.050;    0.000
375.432; 1512.250;  153.050;    0.000
375.493; 1428.250;  168.050;    0.000
375.553; 1483.250;  146.050;    0.000
375.613; 1428.250;  142.050;    0.000
375.674; 1494.250;  153.050;    0.000
375.734; 1428.250;  166.050;    0.000
375.794; 1384.250;  145.050;    0.000
375.855; 1371.250;  162.050;    0.000
375.915; 1484.250;  162.050;    0.000
375.975; 1475.250;  144.050;    0.000
376.036; 1496.250;  128.050;    0.000
376.096; 1416.250;  122.050;    0.000
376.156; 1467.250;  140.050;    0.000
376.217; 1494.250;  158.050;    0.000
376.277; 1527.250;  163.050;    0.000
376.337; 1398.250;  139.050;    0.000
376.398; 1494.250;  176.050;    0.000
376.458; 1449.250;  143.050;    0.000
376.518; 1469.250;  136.050;    0.000
376.578; 1473.250;  177.050;    0.000
376.639; 1431.250;  163.050;    0.000
376.699; 1459.250;  183.050;    0.000
376.759; 1476.250;  169.050;    0.000
376.819; 1434.250;  147.050;    0.000
376.880; 1496.250;  188.050;    0.000
376.940; 1523.250;  185.050;    0.000
377.000; 1429.250;  131.050;    0.000
377.060; 1488.250;  182.050;    0.000
377.120; 1455.250;  165.050;    0.000
377.180; 1478.250;  169.050;    0.000
377.241; 1467.250;  146.050;    0.000
377.301; 1492.250;  183.050;    0.000
377.361; 1508.250;  124.050;    0.000
377.421; 1567.250;  186.050;    0.000
377.481; 1483.250;  178.050;    0.000
377.541; 1497.250;  140.050;    0.000
377.601; 1536.250;  175.050;    0.000
377.661; 1570.250;  169.050;    0.000
377.722; 1567.250;  144.050;    0.000
377.782; 1533.250;  182.050;    0.000
377.842; 1512.250;  161.050;    0.000
377.902; 1556.250;  151.050;    0.000
377.962; 1557.250;  134.050;    0.000
378.022; 1513.250;  153.050;    0.000
378.082; 1542.250;  178.050;    0.000
378.142; 1566.250;  118.050;    0.000
378.202; 1536.250;  153.050;    0.000
378.262; 1656.250;  166.050;    0.000
378.322; 1560.250;  174.050;    0.000
378.382; 1531.250;  148.050;    0.000
378.442; 1583.250;  190.050;    0.000
378.502; 1536.250;  136.050;    0.000
378.562; 1516.250;  130.050;    0.000
378.622; 1624.250;  188.050;    0.000
378.682; 1661.250;  163.050;    0.000
378.742; 1623.250;  150.050;    0.000
378.802; 1524.250;  127.050;    0.000
378.862; 1642.250;  186.050;    0.000
378.921; 1636.250;  203.050;    0.000
378.981; 1674.250;  177.050;    0.000
379.041; 1605.250;  134.050;    0.000
379.101; 1646.250;  167.050;    0.000
379.161; 1617.250;  130.050;    0.000
379.221; 1696.250;  169.050;    0.000
379.281; 1687.250;  162.050;    0.000
379.341; 1598.250;  134.050;    0.000
379.401; 1549.250;  151.050;    0.000
379.460; 1680.250;  190.050;    0.000
379.520; 1662.250;  158.050;    0.000
379.580; 1629.250;  162.050;    0.000
379.640; 1637.250;  146.050;    0.000
379.700; 1740.250;  167.050;    0.000
379.759; 1768.250;  194.050;    0.000
379.819; 1655.250;  176.050;    0.000
379.879; 1712.250;  140.050;    0.000
379.939; 1688.250;  184.050;    0.000
379.999; 1714.250;  165.050;    0.000
380.058; 1736.250;  194.050;    0.000
380.118; 1675.250;  137.050;    0.000
380.178; 1760.250;  139.050;    0.000
380.237; 1688.250;  139.050;    0.000
380.297; 1725.250;  160.050;    0.000
380.357; 1776.250;  194.050;    0.000
380.417; 1809.250;  174.050;    0.000
380.476; 1740.250;  153.050;    0.000
380.536; 1746.250;  169.050;    0.000
380.596; 1746.250;  159.050;    0.000
380.655; 1796.250;  178.050;    0.000
380.715; 1842.250;  196.050;    0.000
380.775; 1820.250;  202.050;    0.000
380.834; 1827.250;  186.050;    0.000
380.894; 1743.250;  167.050;    0.000
380.954; 1846.250;  150.050;    0.000
381.013; 1869.250;  187.050;    0.000
381.073; 1798.250;  114.050;    0.000
381.132; 1777.250;  176.050;    0.000
381.192; 1819.250;  197.050;    0.000
381.252; 1819.250;  172.050;    0.000
381.311; 1786.250;  155.050;    0.000
381.371; 1835.250;  172.050;    0.000
381.430; 1840.250;  143.050;    0.000
381.490; 1889.250;  136.050;    0.000
381.549; 1839.250;  131.050;    0.000
381.609; 1941.250;  203.050;    0.000
381.668; 1955.250;  135.050;    0.000
381.728; 1990.250;  163.050;    0.000
381.787; 1910.250;  195.050;    0.000
381.847; 2017.250;  185.050;    0.000
381.906; 1992.250;  187.050;    0.000
381.966; 1935.250;  153.050;    0.000
382.025; 1983.250;  175.050;    0.000
382.085; 1985.250;  195.050;    0.000
382.144; 2048.250;  210.050;    0.000
382.204; 2142.250;  201.050;    0.000
382.263; 2121.250;  178.050;    0.000
382.323; 2109.250;  151.050;    0.000
382.382; 2194.250;  147.050;    0.000
382.441; 2200.250;  144.050;    0.000
382.501; 2241.250;  156.050;    0.000
382.560; 2318.250;  160.050;    0.000
382.619; 2424.250;  173.050;    0.000
382.679; 2483.250;  167.050;    0.000
382.738; 2616.250;  189.050;    0.000
382.798; 2772.250;  181.050;    0.000
382.857; 2875.250;  161.050;    0.000
382.916; 3302.250;  162.050;    0.000
382.976; 3341.250;  169.050;    0.000
383.035; 3126.250;  174.050;    0.000
383.094; 3260.250;  178.050;    0.000
383.154; 3645.250;  188.050;    0.000
383.213; 4193.250;  162.050;    0.000
383.272; 3994.250;  144.050;    0.000
383.331; 3309.250;  144.050;    0.000
383.391; 3070.250;  198.050;    0.000
383.450; 2996.250;  185.050;    0.000
383.509; 2994.250;  132.050;    0.000
383.568; 3047.250;  171.050;    0.000
383.628; 3266.250;  171.050;    0.000
383.687; 3455.250;  172.050;    0.000
383.746; 4078.250;  144.050;    0.000
383.805; 4751.250;  177.050;    0.000
383.864; 4679.250;  145.050;    0.000
383.924; 3643.250;  203.050;    0.000
383.983; 3081.250;  153.050;    0.000
384.042; 2849.250;  171.050;    0.000
384.101; 2603.250;  186.050;    0.000
384.160; 2447.250;  132.050;    0.000
384.219; 2489.250;  157.050;    0.000
384.279; 2446.250;  166.050;    0.000
384.338; 2286.250;  141.050;    0.000
384.397; 2273.250;  142.050;    0.000
384.456; 2255.250;  155.050;    0.000
384.515; 2148.250;  158.050;    0.000
384.574; 2177.250;  208.050;    0.000
384.633; 2187.250;  158.050;    0.000
384.692; 2064.250;  162.050;    0.000
384.751; 2161.250;  179.050;    0.000
384.810; 2120.250;  150.050;    0.000
384.869; 2050.250;  147.050;    0.000
384.929; 2113.250;  132.050;    0.000
384.988; 2090.250;  166.050;    0.000
385.047; 1990.250;  161.050;    0.000
385.106; 2050.250;  180.050;    0.000
385.165; 2051.250;  123.050;    0.000
385.224; 2046.250;  153.050;    0.000
385.283; 2093.250;  158.050;    0.000
385.342; 1993.250;  184.050;    0.000
385.401; 2079.250;  191.050;    0.000
385.459; 2073.250;  143.050;    0.000
385.518; 2083.250;  152.050;    0.000
385.577; 2026.250;  134.050;    0.000
385.636; 2094.250;  187.050;    0.000
385.695; 2031.250;  141.050;    0.000
385.754; 2078.250;  143.050;    0.000
385.813; 2089.250;  145.050;    0.000
385.872; 1959.250;  116.050;    0.000
385.931; 2039.250;  147.050;    0.000
385.990; 1967.250;  170.050;    0.000
386.049; 2095.250;  189.050;    0.000
386.107; 2004.250;  122.050;    0.000
386.166; 2073.250;  155.050;    0.000
386.225; 2079.250;  173.050;    0.000
386.284; 2025.250;  138.050;    0.000
386.343; 1995.250;  216.050;    0.000
386.402; 2008.250;  162.050;    0.000
386.460; 2046.250;  131.050;    0.000
386.519; 2023.250;  122.050;    0.000
386.578; 2052.250;  140.050;    0.000
386.637; 1985.250;  169.050;    0.000
386.696; 2034.250;  176.050;    0.000
386.754; 1887.250;  127.050;    0.000
386.813; 2025.250;  138.050;    0.000
386.872; 1918.250;  135.050;    0.000
386.931; 1996.250;  170.050;    0.000
386.989; 1955.250;  167.050;    0.000
387.048; 1947.250;  131.050;    0.000
387.107; 2060.250;  176.050;    0.000
387.165; 1975.250;  139.050;    0.000
387.224; 1994.250;  150.050;    0.000
387.283; 1901.250;  169.050;    0.000
387.342; 2031.250;  191.050;    0.000
387.400; 1912.250;  131.050;    0.000
387.459; 2021.250;  139.050;    0.000
387.517; 2023.250;  214.050;    0.000
387.576; 1938.250;  146.050;    0.000
387.635; 2045.250;  161.050;    0.000
387.693; 1956.250;  197.050;    0.000
387.752; 1944.250;  159.050;    0.000
387.811; 1911.250;  144.050;    0.000
387.869; 1991.250;  172.050;    0.000
387.928; 2004.250;  160.050;    0.000
387.986; 1938.250;  192.050;    0.000
388.045; 1956.250;  121.050;    0.000
388.103; 1963.250;  129.050;    0.000
388.162; 1987.250;  169.050;    0.000
388.221; 1896.250;  171.050;    0.000
388.279; 1965.250;  135.050;    0.000
388.338; 1926.250;  222.050;    0.000
388.396; 1903.250;  168.050;    0.000
388.455; 1943.250;  178.050;    0.000
388.513; 1922.250;  151.050;    0.000
388.572; 1974.250;  147.050;    0.000
388.630; 1935.250;  158.050;    0.000
388.689; 1893.250;  163.050;    0.000
388.747; 1983.250;  180.050;    0.000
388.806; 1887.250;  119.050;    0.000
388.864; 1893.250;  159.050;    0.000
388.922; 1995.250;  152.050;    0.000
388.981; 1912.250;  125.050;    0.000
389.039; 1905.250;  151.050;    0.000
389.098; 1993.250;  151.050;    0.000
389.156; 1952.250;  175.050;    0.000
389.214; 1959.250;  133.050;    0.000
389.273; 1986.250;  142.050;    0.000
389.331; 2032.250;  179.050;    0.000
389.390; 1904.250;  179.050;    0.000
389.448; 1926.250;  159.050;    0.000
389.506; 1959.250;  140.050;    0.000
389.565; 1945.250;  160.050;    0.000
389.623; 1890.250;  181.050;    0.000
389.681; 2004.250;  181.050;    0.000
389.740; 2005.250;  187.050;    0.000
389.798; 1899.250;  163.050;    0.000
389.856; 1870.250;  185.050;    0.000
389.914; 2023.250;  170.050;    0.000
389.973; 1980.250;  150.050;    0.000
390.031; 1966.250;  149.050;    0.000
390.089; 1987.250;  191.050;    0.000
390.147; 1967.250;  126.050;    0.000
390.206; 1875.250;  174.050;    0.000
390.264; 1952.250;  164.050;    0.000
390.322; 1923.250;  150.050;    0.000
390.380; 1945.250;  137.050;    0.000
390.439; 1903.250;  176.050;    0.000
390.497; 1949.250;  188.050;    0.000
390.555; 1892.250;  143.050;    0.000
390.613; 1979.250;  174.050;    0.000
390.671; 2028.250;  208.050;    0.000
390.729; 1903.250;  135.050;    0.000
390.788; 1948.250;  169.050;    0.000
390.846; 1954.250;  173.050;    0.000
390.904; 1947.250;  176.050;    0.000
390.962; 2000.250;  179.050;    0.000
391.020; 2011.250;  201.050;    0.000
391.078; 1894.250;  192.050;    0.000
391.136; 1977.250;  170.050;    0.000
391.194; 2085.250;  163.050;    0.000
391.253; 1984.250;  203.050;    0.000
391.311; 1923.250;  170.050;    0.000
391.369; 1991.250;  191.050;    0.000
391.427; 2076.250;  226.050;    0.000
391.485; 1938.250;  181.050;    0.000
391.543; 2036.250;  177.050;    0.000
391.601; 1963.250;  150.050;    0.000
391.659; 2001.250;  201.050;    0.000
391.717; 2020.250;  166.050;    0.000
391.775; 1977.250;  200.050;    0.000
391.833; 2014.250;  180.050;    0.000
391.891; 2055.250;  172.050;    0.000
391.949; 1994.250;  174.050;    0.000
392.007; 2092.250;  194.050;    0.000
392.065; 2012.250;  161.050;    0.000
392.123; 2025.250;  159.050;    0.000
392.180; 1963.250;  193.050;    0.000
392.238; 2027.250;  188.050;    0.000
392.296; 2050.250;  206.050;    0.000
392.354; 2074.250;  170.050;    0.000
392.412; 2018.250;  207.050;    0.000
392.470; 2017.250;  168.050;    0.000
392.528; 2029.250;  185.050;    0.000
392.586; 2025.250;  154.050;    0.000
392.644; 2029.250;  190.050;    0.000
392.701; 2031.250;  195.050;    0.000
392.759; 2054.250;  229.050;    0.000
392.817; 2076.250;  176.050;    0.000
392.875; 2000.250;  198.050;    0.000
392.933; 2072.250;  174.050;    0.000
392.991; 2083.250;  237.050;    0.000
393.048; 2041.250;  212.050;    0.000
393.106; 2092.250;  191.050;    0.000
393.164; 2052.250;  136.050;    0.000
393.222; 2068.250;  164.050;    0.000
393.279; 2129.250;  208.050;    0.000
393.337; 2140.250;  203.050;    0.000
393.395; 2116.250;  191.050;    0.000
393.453; 2076.250;  153.050;    0.000
393.510; 2112.250;  171.050;    0.000
393.568; 2088.250;  203.050;    0.000
393.626; 2058.250;  169.050;    0.000
393.684; 2058.250;  201.050;    0.000
393.741; 2172.250;  172.050;    0.000
393.799; 2052.250;  149.050;    0.000
393.857; 2076.250;  151.050;    0.000
393.914; 2043.250;  192.050;    0.000
393.972; 2089.250;  176.050;    0.000
394.030; 2092.250;  165.050;    0.000
394.087; 2090.250;  192.050;    0.000
394.145; 2072.250;  183.050;    0.000
394.202; 2117.250;  161.050;    0.000
394.260; 2132.250;  135.050;    0.000
394.318; 2122.250;  188.050;    0.000
394.375; 2023.250;  163.050;    0.000
394.433; 2080.250;  151.050;    0.000
394.490; 2114.250;  190.050;    0.000
394.548; 2110.250;  157.050;    0.000
394.605; 2131.250;  205.050;    0.000
394.663; 2119.250;  173.050;    0.000
394.720; 2166.250;  171.050;    0.000
394.778; 2159.250;  190.050;    0.000
394.836; 2163.250;  134.050;    0.000
394.893; 2157.250;  142.050;    0.000
394.951; 2085.250;  192.050;    0.000
395.008; 2155.250;  149.050;    0.000
395.065; 2093.250;  194.050;    0.000
395.123; 2153.250;  160.050;    0.000
395.180; 2080.250;  178.050;    0.000
395.238; 2226.250;  191.050;    0.000
395.295; 2103.250;  160.050;    0.000
395.353; 2190.250;  162.050;    0.000
395.410; 2210.250;  165.050;    0.000
395.468; 2162.250;  190.050;    0.000
395.525; 2209.250;  173.050;    0.000
395.582; 2237.250;  161.050;    0.000
395.640; 2261.250;  200.050;    0.000
395.697; 2151.250;  198.050;    0.000
395.754; 2191.250;  136.050;    0.000
395.812; 2174.250;  172.050;    0.000
395.869; 2212.250;  172.050;    0.000
395.927; 2194.250;  145.050;    0.000
395.984; 2335.250;  220.050;    0.000
396.041; 2163.250;  137.050;    0.000
396.098; 2219.250;  161.050;    0.000
396.156; 2240.250;  159.050;    0.000
396.213; 2217.250;  200.050;    0.000
396.270; 2143.250;  209.050;    0.000
396.328; 2263.250;  162.050;    0.000
396.385; 2223.250;  186.050;    0.000
396.442; 2196.250;  177.050;    0.000
396.499; 2192.250;  183.050;    0.000
396.557; 2157.250;  182.050;    0.000
396.614; 2205.250;  186.050;    0.000
396.671; 2175.250;  144.050;    0.000
396.728; 2246.250;  176.050;    0.000
396.785; 2220.250;  169.050;    0.000
396.843; 2352.250;  134.050;    0.000
396.900; 2264.250;  184.050;    0.000
396.957; 2289.250;  197.050;    0.000
397.014; 2225.250;  187.050;    0.000
397.071; 2352.250;  186.050;    0.000
397.128; 2260.250;  200.050;    0.000
397.186; 2322.250;  175.050;    0.000
397.243; 2274.250;  154.050;    0.000
397.300; 2300.250;  191.050;    0.000
397.357; 2286.250;  238.050;    0.000
397.414; 2212.250;  161.050;    0.000
397.471; 2273.250;  135.050;    0.000
397.528; 2323.250;  158.050;    0.000
397.585; 2324.250;  159.050;    0.000
397.642; 2261.250;  180.050;    0.000
397.699; 2360.250;  170.050;    0.000
397.756; 2256.250;  175.050;    0.000
397.814; 2273.250;  182.050;    0.000
397.871; 2346.250;  173.050;    0.000
397.928; 2292.250;  173.050;    0.000
397.985; 2240.250;  176.050;    0.000
398.042; 2362.250;  189.050;    0.000
398.099; 2316.250;  160.050;    0.000
398.156; 2333.250;  218.050;    0.000
398.212; 2362.250;  194.050;    0.000
398.269; 2378.250;  199.050;    0.000
398.326; 2331.250;  188.050;    0.000
398.383; 2398.250;  187.050;    0.000
398.440; 2408.250;  174.050;    0.000
398.497; 2413.250;  214.050;    0.000
398.554; 2427.250;  181.050;    0.000
398.611; 2375.250;  195.050;    0.000
398.668; 2377.250;  145.050;    0.000
398.725; 2466.250;  178.050;    0.000
398.782; 2454.250;  210.050;    0.000
398.839; 2411.250;  216.050;    0.000
398.895; 2443.250;  189.050;    0.000
398.952; 2468.250;  206.050;    0.000
399.009; 2539.250;  142.050;    0.000
399.066; 2607.250;  192.050;    0.000
399.123; 2565.250;  181.050;    0.000
399.180; 2603.250;  200.050;    0.000
399.236; 2510.250;  156.050;    0.000
399.293; 2607.250;  194.050;    0.000
399.350; 2607.250;  167.050;    0.000
399.407; 2618.250;  192.050;    0.000
399.463; 2671.250;  161.050;    0.000
399.520; 2733.250;  149.050;    0.000
399.577; 2797.250;  156.050;    0.000
399.634; 2771.250;  195.050;    0.000
399.690; 2777.250;  163.050;    0.000
399.747; 2745.250;  192.050;    0.000
399.804; 2770.250;  212.050;    0.000
399.861; 2804.250;  203.050;    0.000
399.917; 2743.250;  221.050;    0.000
399.974; 2698.250;  221.050;    0.000
400.031; 2678.250;  195.050;    0.000
400.087; 2721.250;  159.050;    0.000
400.144; 2738.250;  201.050;    0.000
400.201; 2661.250;  206.050;    0.000
400.257; 2655.250;  168.050;    0.000
400.314; 2599.250;  183.050;    0.000
400.370; 2738.250;  209.050;    0.000
400.427; 2679.250;  192.050;    0.000
400.484; 2566.250;  150.050;    0.000
400.540; 2649.250;  213.050;    0.000
400.597; 2595.250;  161.050;    0.000
400.653; 2635.250;  170.050;    0.000
400.710; 2659.250;  173.050;    0.000
400.766; 2645.250;  204.050;    0.000
400.823; 2568.250;  194.050;    0.000
400.879; 2627.250;  188.050;    0.000
400.936; 2567.250;  172.050;    0.000
400.993; 2511.250;  154.050;    0.000
401.049; 2550.250;  157.050;    0.000
401.105; 2578.250;  214.050;    0.000
401.162; 2633.250;  195.050;    0.000
401.218; 2615.250;  195.050;    0.000
401.275; 2577.250;  182.050;    0.000
401.331; 2533.250;  188.050;    0.000
401.388; 2587.250;  194.050;    0.000
401.444; 2564.250;  175.050;    0.000
401.501; 2557.250;  169.050;    0.000
401.557; 2526.250;  176.050;    0.000
401.614; 2524.250;  153.050;    0.000
401.670; 2687.250;  178.050;    0.000
401.726; 2614.250;  179.050;    0.000
401.783; 2576.250;  198.050;    0.000
401.839; 2559.250;  179.050;    0.000
401.895; 2546.250;  154.050;    0.000
401.952; 2565.250;  138.050;    0.000
402.008; 2621.250;  135.050;    0.000
402.064; 2576.250;  154.050;    0.000
402.121; 2579.250;  199.050;    0.000
402.177; 2537.250;  126.050;    0.000
402.233; 2588.250;  190.050;    0.000
402.290; 2570.250;  175.050;    0.000
402.346; 2618.250;  200.050;    0.000
402.402; 2565.250;  191.050;    0.000
402.458; 2638.250;  172.050;    0.000
402.515; 2632.250;  186.050;    0.000
402.571; 2619.250;  189.050;    0.000
402.627; 2651.250;  151.050;    0.000
402.683; 2626.250;  187.050;    0.000
402.740; 2567.250;  147.050;    0.000
402.796; 2622.250;  176.050;    0.000
402.852; 2603.250;  200.050;    0.000
402.908; 2625.250;  201.050;    0.000
402.964; 2631.250;  153.050;    0.000
403.021; 2611.250;  165.050;    0.000
403.077; 2691.250;  195.050;    0.000
403.133; 2635.250;  139.050;    0.000
403.189; 2670.250;  166.050;    0.000
403.245; 2645.250;  194.050;    0.000
403.301; 2701.250;  210.050;    0.000
403.357; 2745.250;  187.050;    0.000
403.414; 2747.250;  195.050;    0.000
403.470; 2691.250;  150.050;    0.000
403.526; 2642.250;  158.050;    0.000
403.582; 2652.250;  184.050;    0.000
403.638; 2730.250;  171.050;    0.000
403.694; 2779.250;  197.050;    0.000
403.750; 2717.250;  196.050;    0.000
403.806; 2669.250;  192.050;    0.000
403.862; 2630.250;  169.050;    0.000
403.918; 2737.250;  199.050;    0.000
403.974; 2631.250;  156.050;    0.000
404.030; 2666.250;  193.050;    0.000
404.086; 2754.250;  161.050;    0.000
404.142; 2797.250;  172.050;    0.000
404.198; 2730.250;  195.050;    0.000
404.254; 2763.250;  167.050;    0.000
404.310; 2769.250;  156.050;    0.000
404.366; 2751.250;  144.050;    0.000
404.422; 2730.250;  161.050;    0.000
404.478; 2717.250;  179.050;    0.000
404.534; 2797.250;  163.050;    0.000
404.590; 2764.250;  183.050;    0.000
404.646; 2721.250;  155.050;    0.000
404.701; 2753.250;  142.050;    0.000
404.757; 2816.250;  175.050;    0.000
404.813; 2692.250;  153.050;    0.000
404.869; 2826.250;  199.050;    0.000
404.925; 2754.250;  153.050;    0.000
404.981; 2846.250;  174.050;    0.000
405.037; 2792.250;  185.050;    0.000
405.092; 2702.250;  166.050;    0.000
405.148; 2727.250;  161.050;    0.000
405.204; 2737.250;  170.050;    0.000
405.260; 2735.250;  154.050;    0.000
405.316; 2724.250;  128.050;    0.000
405.371; 2757.250;  142.050;    0.000
405.427; 2787.250;  196.050;    0.000
405.483; 2802.250;  172.050;    0.000
405.539; 2819.250;  182.050;    0.000
405.594; 2758.250;  153.050;    0.000
405.650; 2782.250;  124.050;    0.000
405.706; 2863.250;  189.050;    0.000
405.761; 2809.250;  165.050;    0.000
405.817; 2737.250;  152.050;    0.000
405.873; 2835.250;  174.050;    0.000
405.928; 2767.250;  167.050;    0.000
405.984; 2935.250;  210.050;    0.000
406.040; 2766.250;  160.050;    0.000
406.095; 2748.250;  163.050;    0.000
406.151; 2849.250;  208.050;    0.000
406.207; 2829.250;  177.050;    0.000
406.262; 2833.250;  176.050;    0.000
406.318; 2875.250;  157.050;    0.000
406.374; 2966.250;  141.050;    0.000
406.429; 2758.250;  189.050;    0.000
406.485; 3046.250;  190.050;    0.000
406.540; 2880.250;  155.050;    0.000
406.596; 2951.250;  182.050;    0.000
406.651; 2963.250;  200.050;    0.000
406.707; 2961.250;  130.050;    0.000
406.763; 2957.250;  174.050;    0.000
406.818; 3006.250;  151.050;    0.000
406.874; 2999.250;  122.050;    0.000
406.929; 3015.250;  153.050;    0.000
406.985; 3076.250;  198.050;    0.000
407.040; 2996.250;  174.050;    0.000
407.095; 3179.250;  161.050;    0.000
407.151; 3105.250;  184.050;    0.000
407.206; 3133.250;  188.050;    0.000
407.262; 3218.250;  180.050;    0.000
407.317; 3160.250;  186.050;    0.000
407.373; 3177.250;  200.050;    0.000
407.428; 3184.250;  211.050;    0.000
407.484; 3286.250;  193.050;    0.000
407.539; 3193.250;  167.050;    0.000
407.594; 3184.250;  178.050;    0.000
407.650; 3232.250;  171.050;    0.000
407.705; 3258.250;  153.050;    0.000
407.760; 3229.250;  196.050;    0.000
407.816; 3210.250;  205.050;    0.000
407.871; 3162.250;  232.050;    0.000
407.926; 3154.250;  215.050;    0.000
407.982; 3185.250;  154.050;    0.000
408.037; 3250.250;  217.050;    0.000
408.092; 3205.250;  190.050;    0.000
408.148; 3085.250;  181.050;    0.000
408.203; 2989.250;  203.050;    0.000
408.258; 3080.250;  154.050;    0.000
408.314; 3179.250;  198.050;    0.000
408.369; 3058.250;  156.050;    0.000
408.424; 3078.250;  216.050;    0.000
408.479; 3078.250;  191.050;    0.000
408.534; 3146.250;  200.050;    0.000
408.590; 3015.250;  182.050;    0.000
408.645; 3145.250;  141.050;    0.000
408.700; 3109.250;  209.050;    0.000
408.755; 3115.250;  205.050;    0.000
408.810; 2987.250;  171.050;    0.000
408.866; 2981.250;  200.050;    0.000
408.921; 3080.250;  188.050;    0.000
408.976; 2954.250;  156.050;    0.000
409.031; 3033.250;  164.050;    0.000
409.086; 3027.250;  155.050;    0.000
409.141; 3040.250;  205.050;    0.000
409.196; 3132.250;  173.050;    0.000
409.252; 2987.250;  179.050;    0.000
409.307; 3028.250;  131.050;    0.000
409.362; 3047.250;  173.050;    0.000
409.417; 2972.250;  120.050;    0.000
409.472; 3086.250;  198.050;    0.000
409.527; 3041.250;  153.050;    0.000
409.582; 3016.250;  177.050;    0.000
409.637; 3093.250;  184.050;    0.000
409.692; 3094.250;  203.050;    0.000
409.747; 2999.250;  158.050;    0.000
409.802; 3122.250;  212.050;    0.000
409.857; 2964.250;  192.050;    0.000
409.912; 2980.250;  179.050;    0.000
409.967; 3055.250;  177.050;    0.000
410.022; 3133.250;  204.050;    0.000
410.077; 2975.250;  175.050;    0.000
410.132; 2992.250;  207.050;    0.000
410.187; 2986.250;  169.050;    0.000
410.242; 3015.250;  186.050;    0.000
410.297; 3048.250;  185.050;    0.000
410.351; 3041.250;  191.050;    0.000
410.406; 3014.250;  215.050;    0.000
410.461; 3087.250;  190.050;    0.000
410.516; 3107.250;  172.050;    0.000
410.571; 2976.250;  190.050;    0.000
410.626; 3068.250;  189.050;    0.000
410.681; 3049.250;  191.050;    0.000
410.736; 3061.250;  166.050;    0.000
410.790; 3055.250;  179.050;    0.000
410.845; 3012.250;  196.050;    0.000
410.900; 3128.250;  168.050;    0.000
410.955; 2972.250;  173.050;    0.000
411.010; 3072.250;  162.050;    0.000
411.064; 3025.250;  205.050;    0.000
411.119; 3044.250;  203.050;    0.000
411.174; 3002.250;  207.050;    0.000
411.229; 3018.250;  218.050;    0.000
411.283; 2992.250;  218.050;    0.000
411.338; 3104.250;  180.050;    0.000
411.393; 3104.250;  191.050;    0.000
411.447; 3067.250;  207.050;    0.000
411.502; 3059.250;  204.050;    0.000
411.557; 3036.250;  208.050;    0.000
411.612; 3126.250;  191.050;    0.000
411.666; 3040.250;  233.050;    0.000
411.721; 3045.250;  193.050;    0.000
411.776; 3133.250;  195.050;    0.000
411.830; 3156.250;  229.050;    0.000
411.885; 3045.250;  181.050;    0.000
411.939; 3098.250;  214.050;    0.000
411.994; 3100.250;  140.050;    0.000
412.049; 3082.250;  205.050;    0.000
412.103; 3174.250;  232.050;    0.000
412.158; 3084.250;  228.050;    0.000
412.212; 3071.250;  204.050;    0.000
412.267; 3146.250;  203.050;    0.000
412.322; 3111.250;  212.050;    0.000
412.376; 3177.250;  195.050;    0.000
412.431; 3064.250;  197.050;    0.000
412.485; 3163.250;  235.050;    0.000
412.540; 3137.250;  197.050;    0.000
412.594; 3025.250;  199.050;    0.000
412.649; 3048.250;  195.050;    0.000
412.703; 3116.250;  214.050;    0.000
412.758; 3047.250;  213.050;    0.000
412.812; 3066.250;  154.050;    0.000
412.866; 3032.250;  159.050;    0.000
412.921; 3046.250;  207.050;    0.000
412.975; 3004.250;  194.050;    0.000
413.030; 3087.250;  214.050;    0.000
413.084; 3015.250;  174.050;    0.000
413.139; 3020.250;  211.050;    0.000
413.193; 3003.250;  223.050;    0.000
413.247; 3044.250;  198.050;    0.000
413.302; 3007.250;  184.050;    0.000
413.356; 3051.250;  194.050;    0.000
413.410; 3002.250;  219.050;    0.000
413.465; 3027.250;  209.050;    0.000
413.519; 3068.250;  178.050;    0.000
413.573; 3021.250;  189.050;    0.000
413.628; 2961.250;  184.050;    0.000
413.682; 3019.250;  189.050;    0.000
413.736; 3083.250;  196.050;    0.000
413.791; 3042.250;  208.050;    0.000
413.845; 3116.250;  206.050;    0.000
413.899; 3022.250;  193.050;    0.000
413.953; 2973.250;  176.050;    0.000
414.008; 2993.250;  163.050;    0.000
414.062; 3019.250;  195.050;    0.000
414.116; 3030.250;  176.050;    0.000
414.170; 3017.250;  218.050;    0.000
414.225; 2888.250;  183.050;    0.000
414.279; 3122.250;  191.050;    0.000
414.333; 3147.250;  215.050;    0.000
414.387; 3071.250;  187.050;    0.000
414.441; 2984.250;  182.050;    0.000
414.496; 3108.250;  205.050;    0.000
414.550; 3059.250;  203.050;    0.000
414.604; 3101.250;  223.050;    0.000
414.658; 3075.250;  159.050;    0.000
414.712; 2984.250;  194.050;    0.000
414.766; 3116.250;  232.050;    0.000
414.820; 3077.250;  235.050;    0.000
414.874; 2984.250;  169.050;    0.000
414.928; 3001.250;  207.050;    0.000
414.982; 3016.250;  174.050;    0.000
415.037; 3020.250;  173.050;    0.000
415.091; 3062.250;  219.050;    0.000
415.145; 3164.250;  174.050;    0.000
415.199; 3014.250;  207.050;    0.000
415.253; 3062.250;  228.050;    0.000
415.307; 3024.250;  182.050;    0.000
415.361; 3075.250;  219.050;    0.000
415.415; 3052.250;  218.050;    0.000
415.469; 3075.250;  233.050;    0.000
415.523; 3097.250;  203.050;    0.000
415.577; 3116.250;  186.050;    0.000
415.631; 2997.250;  215.050;    0.000
415.684; 2980.250;  212.050;    0.000
415.738; 3035.250;  206.050;    0.000
415.792; 3134.250;  219.050;    0.000
415.846; 3020.250;  208.050;    0.000
415.900; 3060.250;  203.050;    0.000
415.954; 3010.250;  237.050;    0.000
416.008; 3009.250;  242.050;    0.000
416.062; 2995.250;  197.050;    0.000
416.116; 2990.250;  189.050;    0.000
416.169; 3050.250;  199.050;    0.000
416.223; 2967.250;  230.050;    0.000
416.277; 2968.250;  226.050;    0.000
416.331; 2947.250;  254.050;    0.000
416.385; 3105.250;  204.050;    0.000
416.439; 2983.250;  201.050;    0.000
416.492; 3059.250;  238.050;    0.000
416.546; 3014.250;  234.050;    0.000
416.600; 3077.250;  244.050;    0.000
416.654; 3116.250;  233.050;    0.000
416.707; 2941.250;  214.050;    0.000
416.761; 2975.250;  214.050;    0.000
416.815; 3017.250;  192.050;    0.000
416.869; 2994.250;  225.050;    0.000
416.922; 3088.250;  214.050;    0.000
416.976; 3028.250;  206.050;    0.000
417.030; 3087.250;  226.050;    0.000
417.083; 3096.250;  207.050;    0.000
417.137; 3019.250;  236.050;    0.000
417.191; 3010.250;  208.050;    0.000
417.244; 2996.250;  260.050;    0.000
417.298; 3059.250;  222.050;    0.000
417.352; 3024.250;  191.050;    0.000
417.405; 3087.250;  229.050;    0.000
417.459; 3073.250;  249.050;    0.000
417.512; 2990.250;  259.050;    0.000
417.566; 3065.250;  220.050;    0.000
417.620; 3060.250;  229.050;    0.000
417.673; 2987.250;  190.050;    0.000
417.727; 3028.250;  204.050;    0.000
417.780; 3053.250;  223.050;    0.000
417.834; 3012.250;  213.050;    0.000
417.887; 3024.250;  238.050;    0.000
417.941; 2989.250;  244.050;    0.000
417.994; 3010.250;  247.050;    0.000
418.048; 3020.250;  225.050;    0.000
418.101; 3084.250;  210.050;    0.000
418.155; 3038.250;  224.050;    0.000
418.208; 3158.250;  229.050;    0.000
418.262; 3087.250;  255.050;    0.000
418.315; 3036.250;  248.050;    0.000
418.369; 3014.250;  212.050;    0.000
418.422; 3059.250;  241.050;    0.000
418.476; 3143.250;  220.050;    0.000
418.529; 3045.250;  257.050;    0.000
418.582; 3136.250;  203.050;    0.000
418.636; 3149.250;  221.050;    0.000
418.689; 3001.250;  202.050;    0.000
418.743; 3117.250;  227.050;    0.000
418.796; 3010.250;  226.050;    0.000
418.849; 3054.250;  199.050;    0.000
418.903; 3030.250;  234.050;    0.000
418.956; 3006.250;  236.050;    0.000
419.009; 3032.250;  305.050;    0.000
419.063; 3115.250;  216.050;    0.000
419.116; 3131.250;  245.050;    0.000
419.169; 3045.250;  208.050;    0.000
419.222; 3067.250;  233.050;    0.000
419.276; 3050.250;  244.050;    0.000
419.329; 3075.250;  197.050;    0.000
419.382; 3113.250;  222.050;    0.000
419.435; 3032.250;  199.050;    0.000
419.489; 3069.250;  226.050;    0.000
419.542; 2975.250;  223.050;    0.000
419.595; 3063.250;  204.050;    0.000
419.648; 3044.250;  234.050;    0.000
419.701; 2984.250;  211.050;    0.000
419.755; 3008.250;  184.050;    0.000
419.808; 3009.250;  223.050;    0.000
419.861; 2955.250;  197.050;    0.000
419.914; 2974.250;  258.050;    0.000
419.967; 2924.250;  205.050;    0.000
420.020; 2924.250;  195.050;    0.000
420.073; 2824.250;  191.050;    0.000
420.127; 2971.250;  256.050;    0.000
420.180; 2961.250;  232.050;    0.000
420.233; 2906.250;  200.050;    0.000
420.286; 2962.250;  207.050;    0.000
420.339; 2922.250;  223.050;    0.000
420.392; 2927.250;  243.050;    0.000
420.445; 2898.250;  195.050;    0.000
420.498; 2897.250;  239.050;    0.000
420.551; 2813.250;  201.050;    0.000
420.604; 2873.250;  245.050;    0.000
420.657; 2865.250;  221.050;    0.000
420.710; 2949.250;  223.050;    0.000
420.763; 2836.250;  241.050;    0.000
420.816; 2954.250;  198.050;    0.000
420.869; 2896.250;  210.050;    0.000
420.922; 2876.250;  206.050;    0.000
420.975; 2914.250;  239.050;    0.000
421.028; 2920.250;  248.050;    0.000
421.081; 2929.250;  236.050;    0.000
421.134; 2858.250;  208.050;    0.000
421.187; 2852.250;  216.050;    0.000
421.239; 2849.250;  199.050;    0.000
421.292; 2876.250;  255.050;    0.000
421.345; 2886.250;  241.050;    0.000
421.398; 2889.250;  221.050;    0.000
421.451; 2802.250;  237.050;    0.000
421.504; 2852.250;  225.050;    0.000
421.557; 2830.250;  213.050;    0.000
421.609; 2839.250;  178.050;    0.000
421.662; 2836.250;  206.050;    0.000
421.715; 2881.250;  212.050;    0.000
421.768; 2868.250;  236.050;    0.000
421.821; 2867.250;  228.050;    0.000
421.873; 2823.250;  200.050;    0.000
421.926; 2750.250;  226.050;    0.000
421.979; 2792.250;  221.050;    0.000
422.032; 2838.250;  219.050;    0.000
422.084; 2823.250;  253.050;    0.000
422.137; 2755.250;  195.050;    0.000
422.190; 2803.250;  192.050;    0.000
422.243; 2778.250;  236.050;    0.000
422.295; 2823.250;  205.050;    0.000
422.348; 2847.250;  198.050;    0.000
422.401; 2815.250;  245.050;    0.000
422.453; 2797.250;  241.050;    0.000
422.506; 2765.250;  255.050;    0.000
422.559; 2803.250;  188.050;    0.000
422.611; 2745.250;  236.050;    0.000
422.664; 2805.250;  218.050;    0.000
422.716; 2880.250;  210.050;    0.000
422.769; 2854.250;  209.050;    0.000
422.822; 2819.250;  213.050;    0.000
422.874; 2820.250;  227.050;    0.000
422.927; 2820.250;  272.050;    0.000
422.979; 2708.250;  204.050;    0.000
423.032; 2673.250;  210.050;    0.000
423.084; 2781.250;  236.050;    0.000
423.137; 2840.250;  223.050;    0.000
423.189; 2766.250;  253.050;    0.000
423.242; 2758.250;  185.050;    0.000
423.294; 2852.250;  232.050;    0.000
423.347; 2762.250;  213.050;    0.000
423.399; 2850.250;  227.050;    0.000
423.452; 2767.250;  236.050;    0.000
423.504; 2763.250;  232.050;    0.000
423.557; 2750.250;  195.050;    0.000
423.609; 2773.250;  238.050;    0.000
423.662; 2697.250;  207.050;    0.000
423.714; 2803.250;  231.050;    0.000
423.766; 2787.250;  211.050;    0.000
423.819; 2879.250;  207.050;    0.000
423.871; 2728.250;  228.050;    0.000
423.923; 2744.250;  223.050;    0.000
423.976; 2781.250;  217.050;    0.000
424.028; 2767.250;  231.050;    0.000
424.081; 2777.250;  219.050;    0.000
424.133; 2640.250;  255.050;    0.000
424.185; 2662.250;  199.050;    0.000
424.238; 2838.250;  238.050;    0.000
424.290; 2667.250;  209.050;    0.000
424.342; 2760.250;  213.050;    0.000
424.394; 2712.250;  215.050;    0.000
424.447; 2819.250;  265.050;    0.000
424.499; 2687.250;  238.050;    0.000
424.551; 2819.250;  256.050;    0.000
424.603; 2736.250;  222.050;    0.000
424.656; 2754.250;  227.050;    0.000
424.708; 2667.250;  250.050;    0.000
424.760; 2697.250;  228.050;    0.000
424.812; 2821.250;  249.050;    0.000
424.864; 2646.250;  222.050;    0.000
424.917; 2673.250;  235.050;    0.000
424.969; 2757.250;  266.050;    0.000
425.021; 2676.250;  233.050;    0.000
425.073; 2764.250;  194.050;    0.000
425.125; 2685.250;  256.050;    0.000
425.177; 2724.250;  225.050;    0.000
425.229; 2658.250;  242.050;    0.000
425.282; 2626.250;  236.050;    0.000
425.334; 2658.250;  250.050;    0.000
425.386; 2708.250;  231.050;    0.000
425.438; 2740.250;  216.050;    0.000
425.490; 2713.250;  240.050;    0.000
425.542; 2769.250;  231.050;    0.000
425.594; 2655.250;  206.050;    0.000
425.646; 2680.250;  201.050;    0.000
425.698; 2576.250;  193.050;    0.000
425.750; 2680.250;  241.050;    0.000
425.802; 2662.250;  199.050;    0.000
425.854; 2595.250;  216.050;    0.000
425.906; 2574.250;  220.050;    0.000
425.958; 2560.250;  200.050;    0.000
426.010; 2650.250;  214.050;    0.000
426.062; 2683.250;  245.050;    0.000
426.114; 2571.250;  241.050;    0.000
426.166; 2633.250;  241.050;    0.000
426.218; 2606.250;  255.050;    0.000
426.270; 2631.250;  228.050;    0.000
426.321; 2635.250;  222.050;    0.000
426.373; 2549.250;  218.050;    0.000
426.425; 2628.250;  258.050;    0.000
426.477; 2613.250;  225.050;    0.000
426.529; 2641.250;  223.050;    0.000
426.581; 2517.250;  198.050;    0.000
426.633; 2600.250;  228.050;    0.000
426.684; 2610.250;  210.050;    0.000
426.736; 2584.250;  208.050;    0.000
426.788; 2594.250;  231.050;    0.000
426.840; 2582.250;  212.050;    0.000
426.892; 2544.250;  221.050;    0.000
426.943; 2505.250;  240.050;    0.000
426.995; 2580.250;  243.050;    0.000
427.047; 2513.250;  231.050;    0.000
427.099; 2553.250;  189.050;    0.000
427.150; 2550.250;  212.050;    0.000
427.202; 2662.250;  219.050;    0.000
427.254; 2520.250;  203.050;    0.000
427.306; 2668.250;  217.050;    0.000
427.357; 2558.250;  232.050;    0.000
427.409; 2515.250;  251.050;    0.000
427.461; 2485.250;  185.050;    0.000
427.512; 2576.250;  239.050;    0.000
427.564; 2576.250;  208.050;    0.000
427.616; 2541.250;  233.050;    0.000
427.667; 2463.250;  223.050;    0.000
427.719; 2582.250;  206.050;    0.000
427.770; 2506.250;  195.050;    0.000
427.822; 2560.250;  223.050;    0.000
427.874; 2518.250;  232.050;    0.000
427.925; 2553.250;  209.050;    0.000
427.977; 2523.250;  208.050;    0.000
428.028; 2583.250;  187.050;    0.000
428.080; 2500.250;  209.050;    0.000
428.131; 2457.250;  237.050;    0.000
428.183; 2414.250;  200.050;    0.000
428.234; 2583.250;  215.050;    0.000
428.286; 2449.250;  229.050;    0.000
428.337; 2536.250;  206.050;    0.000
428.389; 2518.250;  216.050;    0.000
428.440; 2517.250;  287.050;    0.000
428.492; 2495.250;  269.050;    0.000
428.543; 2500.250;  234.050;    0.000
428.595; 2526.250;  214.050;    0.000
428.646; 2581.250;  229.050;    0.000
428.697; 2516.250;  249.050;    0.000
428.749; 2435.250;  250.050;    0.000
428.800; 2544.250;  242.050;    0.000
428.852; 2561.250;  232.050;    0.000
428.903; 2496.250;  196.050;    0.000
428.954; 2524.250;  226.050;    0.000
429.006; 2467.250;  232.050;    0.000
429.057; 2488.250;  188.050;    0.000
429.108; 2416.250;  237.050;    0.000
429.160; 2442.250;  221.050;    0.000
429.211; 2534.250;  222.050;    0.000
429.262; 2473.250;  215.050;    0.000
429.314; 2446.250;  225.050;    0.000
429.365; 2460.250;  220.050;    0.000
429.416; 2443.250;  242.050;    0.000
429.467; 2373.250;  220.050;    0.000
429.519; 2366.250;  217.050;    0.000
429.570; 2435.250;  248.050;    0.000
429.621; 2384.250;  233.050;    0.000
429.672; 2509.250;  220.050;    0.000
429.724; 2444.250;  179.050;    0.000
429.775; 2397.250;  218.050;    0.000
429.826; 2407.250;  197.050;    0.000
429.877; 2478.250;  206.050;    0.000
429.928; 2442.250;  229.050;    0.000
429.980; 2454.250;  207.050;    0.000
430.031; 2496.250;  264.050;    0.000
430.082; 2451.250;  210.050;    0.000
430.133; 2421.250;  218.050;    0.000
430.184; 2447.250;  246.050;    0.000
430.235; 2379.250;  201.050;    0.000
430.286; 2474.250;  207.050;    0.000
430.337; 2289.250;  224.050;    0.000
430.388; 2370.250;  216.050;    0.000
430.439; 2495.250;  210.050;    0.000
430.490; 2369.250;  208.050;    0.000
430.542; 2473.250;  211.050;    0.000
430.593; 2388.250;  203.050;    0.000
430.644; 2341.250;  235.050;    0.000
430.695; 2395.250;  200.050;    0.000
430.746; 2366.250;  215.050;    0.000
430.797; 2448.250;  235.050;    0.000
430.848; 2500.250;  197.050;    0.000
430.898; 2386.250;  209.050;    0.000
430.949; 2385.250;  231.050;    0.000
431.000; 2385.250;  227.050;    0.000
431.051; 2480.250;  225.050;    0.000
431.102; 2398.250;  180.050;    0.000
431.153; 2465.250;  248.050;    0.000
431.204; 2354.250;  185.050;    0.000
431.255; 2444.250;  199.050;    0.000
431.306; 2428.250;  228.050;    0.000
431.357; 2359.250;  237.050;    0.000
431.408; 2416.250;  223.050;    0.000
431.458; 2401.250;  240.050;    0.000
431.509; 2390.250;  207.050;    0.000
431.560; 2462.250;  219.050;    0.000
431.611; 2407.250;  206.050;    0.000
431.662; 2408.250;  253.050;    0.000
431.713; 2352.250;  199.050;    0.000
431.763; 2387.250;  197.050;    0.000
431.814; 2449.250;  205.050;    0.000
431.865; 2493.250;  218.050;    0.000
431.916; 2402.250;  202.050;    0.000
431.966; 2436.250;  203.050;    0.000
432.017; 2467.250;  244.050;    0.000
432.068; 2430.250;  246.050;    0.000
432.118; 2446.250;  212.050;    0.000
432.169; 2437.250;  214.050;    0.000
432.220; 2408.250;  241.050;    0.000
432.271; 2399.250;  237.050;    0.000
432.321; 2413.250;  246.050;    0.000
432.372; 2417.250;  257.050;    0.000
432.423; 2302.250;  198.050;    0.000
432.473; 2414.250;  202.050;    0.000
432.524; 2371.250;  242.050;    0.000
432.574; 2386.250;  202.050;    0.000
432.625; 2314.250;  212.050;    0.000
432.676; 2365.250;  242.050;    0.000
432.726; 2457.250;  268.050;    0.000
432.777; 2353.250;  228.050;    0.000
432.827; 2345.250;  230.050;    0.000
432.878; 2359.250;  221.050;    0.000
432.928; 2226.250;  218.050;    0.000
432.979; 2370.250;  243.050;    0.000
433.029; 2322.250;  217.050;    0.000
433.080; 2322.250;  208.050;    0.000
433.130; 2421.250;  236.050;    0.000
433.181; 2379.250;  282.050;    0.000
433.231; 2433.250;  257.050;    0.000
433.282; 2501.250;  268.050;    0.000
433.332; 2401.250;  241.050;    0.000
433.383; 2462.250;  271.050;    0.000
433.433; 2423.250;  262.050;    0.000
433.484; 2334.250;  266.050;    0.000
433.534; 2310.250;  217.050;    0.000
433.585; 2332.250;  230.050;    0.000
433.635; 2497.250;  245.050;    0.000
433.685; 2367.250;  250.050;    0.000
433.736; 2419.250;  308.050;    0.000
433.786; 2337.250;  242.050;    0.000
433.836; 2420.250;  256.050;    0.000
433.887; 2420.250;  250.050;    0.000
433.937; 2423.250;  250.050;    0.000
433.987; 2373.250;  219.050;    0.000
434.038; 2468.250;  248.050;    0.000
434.088; 2376.250;  231.050;    0.000
434.138; 2414.250;  266.050;    0.000
434.189; 2387.250;  240.050;    0.000
434.239; 2380.250;  245.050;    0.000
434.289; 2398.250;  285.050;    0.000
434.339; 2432.250;  255.050;    0.000
434.389; 2439.250;  242.050;    0.000
434.440; 2481.250;  273.050;    0.000
434.490; 2448.250;  272.050;    0.000
434.540; 2497.250;  264.050;    0.000
434.590; 2428.250;  233.050;    0.000
434.640; 2423.250;  244.050;    0.000
434.691; 2456.250;  226.050;    0.000
434.741; 2520.250;  253.050;    0.000
434.791; 2542.250;  269.050;    0.000
434.841; 2464.250;  252.050;    0.000
434.891; 2471.250;  281.050;    0.000
434.941; 2476.250;  296.050;    0.000
434.991; 2516.250;  264.050;    0.000
435.042; 2493.250;  262.050;    0.000
435.092; 2486.250;  237.050;    0.000
435.142; 2427.250;  232.050;    0.000
435.192; 2372.250;  251.050;    0.000
435.242; 2384.250;  251.050;    0.000
435.292; 2516.250;  246.050;    0.000
435.342; 2375.250;  236.050;    0.000
435.392; 2403.250;  273.050;    0.000
435.442; 2312.250;  273.050;    0.000
435.492; 2364.250;  273.050;    0.000
435.542; 2340.250;  242.050;    0.000
435.592; 2327.250;  213.050;    0.000
435.642; 2381.250;  248.050;    0.000
435.692; 2350.250;  242.050;    0.000
435.742; 2328.250;  222.050;    0.000
435.792; 2334.250;  260.050;    0.000
435.842; 2355.250;  266.050;    0.000
435.891; 2282.250;  227.050;    0.000
435.941; 2347.250;  228.050;    0.000
435.991; 2352.250;  282.050;    0.000
436.041; 2253.250;  231.050;    0.000
436.091; 2347.250;  250.050;    0.000
436.141; 2313.250;  221.050;    0.000
436.191; 2261.250;  223.050;    0.000
436.241; 2336.250;  250.050;    0.000
436.290; 2354.250;  243.050;    0.000
436.340; 2305.250;  236.050;    0.000
436.390; 2268.250;  260.050;    0.000
436.440; 2264.250;  253.050;    0.000
436.490; 2312.250;  236.050;    0.000
436.539; 2315.250;  249.050;    0.000
436.589; 2252.250;  231.050;    0.000
436.639; 2208.250;  237.050;    0.000
436.689; 2336.250;  222.050;    0.000
436.738; 2278.250;  263.050;    0.000
436.788; 2197.250;  230.050;    0.000
436.838; 2276.250;  281.050;    0.000
436.887; 2300.250;  230.050;    0.000
436.937; 2282.250;  250.050;    0.000
436.987; 2261.250;  251.050;    0.000
437.036; 2206.250;  238.050;    0.000
437.086; 2168.250;  234.050;    0.000
437.136; 2240.250;  250.050;    0.000
437.185; 2179.250;  228.050;    0.000
437.235; 2290.250;  309.050;    0.000
437.285; 2187.250;  246.050;    0.000
437.334; 2232.250;  262.050;    0.000
437.384; 2188.250;  228.050;    0.000
437.433; 2191.250;  241.050;    0.000
437.483; 2235.250;  220.050;    0.000
437.532; 2161.250;  252.050;    0.000
437.582; 2266.250;  270.050;    0.000
437.631; 2204.250;  251.050;    0.000
437.681; 2191.250;  284.050;    0.000
437.730; 2179.250;  239.050;    0.000
437.780; 2156.250;  221.050;    0.000
437.829; 2225.250;  254.050;    0.000
437.879; 2198.250;  221.050;    0.000
437.928; 2179.250;  205.050;    0.000
437.978; 2209.250;  223.050;    0.000
438.027; 2100.250;  262.050;    0.000
438.077; 2102.250;  280.050;    0.000
438.126; 2129.250;  254.050;    0.000
438.176; 2237.250;  230.050;    0.000
438.225; 2226.250;  227.050;    0.000
438.274; 2166.250;  264.050;    0.000
438.324; 2217.250;  233.050;    0.000
438.373; 2236.250;  238.050;    0.000
438.422; 2080.250;  260.050;    0.000
438.472; 2261.250;  223.050;    0.000
438.521; 2139.250;  213.050;    0.000
438.570; 2180.250;  236.050;    0.000
438.620; 2250.250;  282.050;    0.000
438.669; 2170.250;  209.050;    0.000
438.718; 2236.250;  245.050;    0.000
438.768; 2113.250;  238.050;    0.000
438.817; 2206.250;  259.050;    0.000
438.866; 2159.250;  232.050;    0.000
438.915; 2105.250;  288.050;    0.000
438.965; 2198.250;  228.050;    0.000
439.014; 2196.250;  246.050;    0.000
439.063; 2171.250;  287.050;    0.000
439.112; 2201.250;  217.050;    0.000
439.162; 2214.250;  275.050;    0.000
439.211; 2247.250;  287.050;    0.000
439.260; 2166.250;  238.050;    0.000
439.309; 2135.250;  225.050;    0.000
439.358; 2252.250;  248.050;    0.000
439.407; 2195.250;  237.050;    0.000
439.456; 2157.250;  223.050;    0.000
439.506; 2253.250;  266.050;    0.000
439.555; 2231.250;  260.050;    0.000
439.604; 2152.250;  233.050;    0.000
439.653; 2215.250;  242.050;    0.000
439.702; 2164.250;  255.050;    0.000
439.751; 2134.250;  202.050;    0.000
439.800; 2251.250;  247.050;    0.000
439.849; 2232.250;  250.050;    0.000
439.898; 2131.250;  216.050;    0.000
439.947; 2148.250;  231.050;    0.000
439.996; 2223.250;  272.050;    0.000
440.045; 2211.250;  217.050;    0.000
440.094; 2272.250;  220.050;    0.000
440.143; 2113.250;  245.050;    0.000
440.192; 2148.250;  267.050;    0.000
440.241; 2197.250;  263.050;    0.000
440.290; 2323.250;  246.050;    0.000
440.339; 2172.250;  225.050;    0.000
440.388; 2162.250;  256.050;    0.000
440.437; 2204.250;  253.050;    0.000
440.486; 2158.250;  249.050;    0.000
440.535; 2257.250;  232.050;    0.000
440.583; 2194.250;  220.050;    0.000
440.632; 2143.250;  239.050;    0.000
440.681; 2210.250;  236.050;    0.000
440.730; 2213.250;  282.050;    0.000
440.779; 2236.250;  245.050;    0.000
440.828; 2197.250;  213.050;    0.000
440.876; 2231.250;  231.050;    0.000
440.925; 2223.250;  271.050;    0.000
440.974; 2178.250;  240.050;    0.000
441.023; 2288.250;  214.050;    0.000
441.072; 2228.250;  236.050;    0.000
441.120; 2235.250;  271.050;    0.000
441.169; 2287.250;  281.050;    0.000
441.218; 2265.250;  255.050;    0.000
441.267; 2396.250;  272.050;    0.000
441.315; 2298.250;  229.050;    0.000
441.364; 2341.250;  241.050;    0.000
441.413; 2347.250;  224.050;    0.000
441.461; 2312.250;  241.050;    0.000
441.510; 2328.250;  289.050;    0.000
441.559; 2321.250;  222.050;    0.000
441.607; 2304.250;  242.050;    0.000
441.656; 2301.250;  255.050;    0.000
441.705; 2402.250;  260.050;    0.000
441.753; 2356.250;  290.050;    0.000
441.802; 2292.250;  264.050;    0.000
441.850; 2368.250;  224.050;    0.000
441.899; 2304.250;  275.050;    0.000
441.948; 2317.250;  227.050;    0.000
441.996; 2288.250;  216.050;    0.000
442.045; 2276.250;  271.050;    0.000
442.093; 2352.250;  227.050;    0.000
442.142; 2272.250;  273.050;    0.000
442.190; 2310.250;  257.050;    0.000
442.239; 2240.250;  269.050;    0.000
442.287; 2306.250;  257.050;    0.000
442.336; 2308.250;  237.050;    0.000
442.384; 2274.250;  214.050;    0.000
442.433; 2307.250;  272.050;    0.000
442.481; 2272.250;  258.050;    0.000
442.529; 2389.250;  242.050;    0.000
442.578; 2262.250;  278.050;    0.000
442.626; 2285.250;  264.050;    0.000
442.675; 2295.250;  293.050;    0.000
442.723; 2314.250;  244.050;    0.000
442.771; 2336.250;  232.050;    0.000
442.820; 2335.250;  266.050;    0.000
442.868; 2278.250;  253.050;    0.000
442.917; 2345.250;  250.050;    0.000
442.965; 2287.250;  279.050;    0.000
443.013; 2282.250;  253.050;    0.000
443.062; 2307.250;  282.050;    0.000
443.110; 2203.250;  258.050;    0.000
443.158; 2302.250;  246.050;    0.000
443.206; 2295.250;  255.050;    0.000
443.255; 2321.250;  296.050;    0.000
443.303; 2263.250;  272.050;    0.000
443.351; 2341.250;  270.050;    0.000
443.399; 2285.250;  258.050;    0.000
443.448; 2365.250;  265.050;    0.000
443.496; 2338.250;  219.050;    0.000
443.544; 2259.250;  205.050;    0.000
443.592; 2352.250;  266.050;    0.000
443.640; 2302.250;  260.050;    0.000
443.689; 2246.250;  232.050;    0.000
443.737; 2373.250;  281.050;    0.000
443.785; 2343.250;  248.050;    0.000
443.833; 2446.250;  286.050;    0.000
443.881; 2311.250;  225.050;    0.000
443.929; 2367.250;  255.050;    0.000
443.977; 2398.250;  248.050;    0.000
444.025; 2395.250;  255.050;    0.000
444.074; 2343.250;  266.050;    0.000
444.122; 2421.250;  266.050;    0.000
444.170; 2483.250;  207.050;    0.000
444.218; 2391.250;  253.050;    0.000
444.266; 2527.250;  263.050;    0.000
444.314; 2429.250;  272.050;    0.000
444.362; 2382.250;  272.050;    0.000
444.410; 2389.250;  255.050;    0.000
444.458; 2391.250;  288.050;    0.000
444.506; 2441.250;  263.050;    0.000
444.554; 2452.250;  243.050;    0.000
444.602; 2473.250;  285.050;    0.000
444.650; 2470.250;  273.050;    0.000
444.698; 2467.250;  221.050;    0.000
444.746; 2482.250;  243.050;    0.000
444.793; 2482.250;  217.050;    0.000
444.841; 2574.250;  262.050;    0.000
444.889; 2467.250;  264.050;    0.000
444.937; 2433.250;  226.050;    0.000
444.985; 2495.250;  257.050;    0.000
445.033; 2499.250;  264.050;    0.000
445.081; 2487.250;  264.050;    0.000
445.129; 2471.250;  187.050;    0.000
445.176; 2404.250;  212.050;    0.000
445.224; 2535.250;  198.050;    0.000
445.272; 2415.250;  265.050;    0.000
445.320; 2533.250;  239.050;    0.000
445.368; 2565.250;  245.050;    0.000
445.415; 2506.250;  215.050;    0.000
445.463; 2505.250;  202.050;    0.000
445.511; 2425.250;  234.050;    0.000
445.559; 2420.250;  269.050;    0.000
445.606; 2382.250;  214.050;    0.000
445.654; 2445.250;  227.050;    0.000
445.702; 2488.250;  276.050;    0.000
445.749; 2460.250;  256.050;    0.000
445.797; 2424.250;  236.050;    0.000
445.845; 2363.250;  230.050;    0.000
445.892; 2490.250;  233.050;    0.000
445.940; 2510.250;  257.050;    0.000
445.988; 2484.250;  253.050;    0.000
446.035; 2498.250;  265.050;    0.000
446.083; 2439.250;  254.050;    0.000
446.130; 2505.250;  228.050;    0.000
446.178; 2479.250;  256.050;    0.000
446.226; 2552.250;  238.050;    0.000
446.273; 2471.250;  228.050;    0.000
446.321; 2487.250;  220.050;    0.000
446.368; 2466.250;  249.050;    0.000
446.416; 2453.250;  221.050;    0.000
446.463; 2466.250;  232.050;    0.000
446.511; 2439.250;  243.050;    0.000
446.558; 2563.250;  217.050;    0.000
446.606; 2537.250;  256.050;    0.000
446.653; 2548.250;  238.050;    0.000
446.701; 2543.250;  259.050;    0.000
446.748; 2611.250;  227.050;    0.000
446.796; 2593.250;  236.050;    0.000
446.843; 2646.250;  241.050;    0.000
446.891; 2560.250;  292.050;    0.000
446.938; 2581.250;  219.050;    0.000
446.985; 2613.250;  255.050;    0.000
447.033; 2636.250;  237.050;    0.000
447.080; 2715.250;  278.050;    0.000
447.128; 2694.250;  237.050;    0.000
447.175; 2706.250;  247.050;    0.000
447.222; 2666.250;  235.050;    0.000
447.270; 2768.250;  274.050;    0.000
447.317; 2733.250;  222.050;    0.000
447.364; 2675.250;  230.050;    0.000
447.411; 2745.250;  297.050;    0.000
447.459; 2833.250;  243.050;    0.000
447.506; 2778.250;  202.050;    0.000
447.553; 2810.250;  232.050;    0.000
447.601; 2941.250;  262.050;    0.000
447.648; 2836.250;  254.050;    0.000
447.695; 2880.250;  287.050;    0.000
447.742; 2943.250;  232.050;    0.000
447.789; 3057.250;  257.050;    0.000
447.837; 3090.250;  260.050;    0.000
447.884; 3050.250;  272.050;    0.000
447.931; 3152.250;  241.050;    0.000
447.978; 3239.250;  241.050;    0.000
448.025; 3168.250;  264.050;    0.000
448.072; 3235.250;  279.050;    0.000
448.120; 3345.250;  263.050;    0.000
448.167; 3260.250;  284.050;    0.000
448.214; 3229.250;  252.050;    0.000
448.261; 3218.250;  247.050;    0.000
448.308; 3025.250;  249.050;    0.000
448.355; 3156.250;  263.050;    0.000
448.402; 2998.250;  251.050;    0.000
448.449; 2946.250;  257.050;    0.000
448.496; 2883.250;  243.050;    0.000
448.543; 2822.250;  274.050;    0.000
448.590; 2856.250;  299.050;    0.000
448.637; 2831.250;  259.050;    0.000
448.684; 2757.250;  266.050;    0.000
448.731; 2713.250;  261.050;    0.000
448.778; 2701.250;  292.050;    0.000
448.825; 2742.250;  253.050;    0.000
448.872; 2509.250;  253.050;    0.000
448.919; 2650.250;  218.050;    0.000
448.966; 2650.250;  254.050;    0.000
449.013; 2602.250;  263.050;    0.000
449.060; 2589.250;  282.050;    0.000
449.107; 2576.250;  244.050;    0.000
449.154; 2617.250;  236.050;    0.000
449.200; 2591.250;  226.050;    0.000
449.247; 2553.250;  273.050;    0.000
449.294; 2568.250;  270.050;    0.000
449.341; 2510.250;  283.050;    0.000
449.388; 2450.250;  261.050;    0.000
449.435; 2463.250;  254.050;    0.000
449.481; 2532.250;  318.050;    0.000
449.528; 2464.250;  274.050;    0.000
449.575; 2407.250;  251.050;    0.000
449.622; 2481.250;  276.050;    0.000
449.668; 2419.250;  242.050;    0.000
449.715; 2400.250;  286.050;    0.000
449.762; 2394.250;  268.050;    0.000
449.809; 2425.250;  285.050;    0.000
449.855; 2400.250;  277.050;    0.000
449.902; 2323.250;  246.050;    0.000
449.949; 2384.250;  268.050;    0.000
449.995; 2367.250;  289.050;    0.000
450.042; 2360.250;  256.050;    0.000
450.089; 2320.250;  290.050;    0.000
450.135; 2405.250;  300.050;    0.000
450.182; 2360.250;  317.050;    0.000
450.229; 2321.250;  282.050;    0.000
450.275; 2358.250;  307.050;    0.000
450.322; 2322.250;  260.050;    0.000
450.368; 2330.250;  315.050;    0.000
450.415; 2360.250;  306.050;    0.000
450.462; 2312.250;  314.050;    0.000
450.508; 2285.250;  303.050;    0.000
450.555; 2229.250;  281.050;    0.000
450.601; 2363.250;  291.050;    0.000
450.648; 2250.250;  288.050;    0.000
450.694; 2328.250;  290.050;    0.000
450.741; 2272.250;  303.050;    0.000
450.787; 2276.250;  298.050;    0.000
450.834; 2193.250;  265.050;    0.000
450.880; 2259.250;  273.050;    0.000
450.927; 2186.250;  312.050;    0.000
450.973; 2286.250;  303.050;    0.000
451.019; 2216.250;  222.050;    0.000
451.066; 2240.250;  284.050;    0.000
451.112; 2287.250;  296.050;    0.000
451.159; 2225.250;  299.050;    0.000
451.205; 2263.250;  311.050;    0.000
451.251; 2230.250;  306.050;    0.000
451.298; 2200.250;  281.050;    0.000
451.344; 2197.250;  311.050;    0.000
451.390; 2156.250;  331.050;    0.000
451.437; 2229.250;  303.050;    0.000
451.483; 2181.250;  284.050;    0.000
451.529; 2112.250;  310.050;    0.000
451.576; 2210.250;  301.050;    0.000
451.622; 2236.250;  275.050;    0.000
451.668; 2156.250;  269.050;    0.000
451.714; 2214.250;  277.050;    0.000
451.761; 2208.250;  298.050;    0.000
451.807; 2133.250;  316.050;    0.000
451.853; 2210.250;  301.050;    0.000
451.899; 2104.250;  292.050;    0.000
451.945; 2229.250;  324.050;    0.000
451.992; 2276.250;  292.050;    0.000
452.038; 2144.250;  261.050;    0.000
452.084; 2209.250;  286.050;    0.000
452.130; 2234.250;  301.050;    0.000
452.176; 2118.250;  287.050;    0.000
452.222; 2060.250;  265.050;    0.000
452.268; 2114.250;  268.050;    0.000
452.315; 2214.250;  272.050;    0.000
452.361; 2125.250;  258.050;    0.000
452.407; 2113.250;  279.050;    0.000
452.453; 2118.250;  252.050;    0.000
452.499; 2171.250;  305.050;    0.000
452.545; 2119.250;  263.050;    0.000
452.591; 2172.250;  284.050;    0.000
452.637; 2222.250;  289.050;    0.000
452.683; 2103.250;  249.050;    0.000
452.729; 2147.250;  290.050;    0.000
452.775; 2191.250;  315.050;    0.000
452.821; 2126.250;  271.050;    0.000
452.867; 1995.250;  258.050;    0.000
452.913; 2083.250;  256.050;    0.000
452.959; 2067.250;  266.050;    0.000
453.005; 2133.250;  299.050;    0.000
453.051; 2127.250;  299.050;    0.000
453.097; 2023.250;  268.050;    0.000
453.142; 2053.250;  251.050;    0.000
453.188; 2161.250;  284.050;    0.000
453.234; 2078.250;  285.050;    0.000
453.280; 2067.250;  263.050;    0.000
453.326; 2075.250;  273.050;    0.000
453.372; 2086.250;  253.050;    0.000
453.418; 2096.250;  269.050;    0.000
453.463; 2039.250;  250.050;    0.000
453.509; 2037.250;  289.050;    0.000
453.555; 2045.250;  262.050;    0.000
453.601; 2033.250;  274.050;    0.000
453.647; 2082.250;  306.050;    0.000
453.692; 2067.250;  264.050;    0.000
453.738; 2064.250;  312.050;    0.000
453.784; 2114.250;  300.050;    0.000
453.829; 2030.250;  284.050;    0.000
453.875; 2071.250;  270.050;    0.000
453.921; 2083.250;  237.050;    0.000
453.967; 2046.250;  263.050;    0.000
454.012; 2037.250;  295.050;    0.000
454.058; 2091.250;  293.050;    0.000
454.104; 2027.250;  264.050;    0.000
454.149; 2031.250;  282.050;    0.000
454.195; 2005.250;  277.050;    0.000
454.240; 2050.250;  307.050;    0.000
454.286; 2085.250;  282.050;    0.000
454.332; 2069.250;  291.050;    0.000
454.377; 2043.250;  302.050;    0.000
454.423; 2068.250;  276.050;    0.000
454.468; 2039.250;  281.050;    0.000
454.514; 2036.250;  290.050;    0.000
454.559; 2046.250;  289.050;    0.000
454.605; 2085.250;  258.050;    0.000
454.650; 2048.250;  281.050;    0.000
454.696; 2073.250;  308.050;    0.000
454.741; 2118.250;  288.050;    0.000
454.787; 2011.250;  284.050;    0.000
454.832; 2050.250;  306.050;    0.000
454.878; 2036.250;  288.050;    0.000
454.923; 2058.250;  287.050;    0.000
454.969; 2071.250;  325.050;    0.000
455.014; 2033.250;  323.050;    0.000
455.060; 2035.250;  290.050;    0.000
455.105; 2118.250;  285.050;    0.000
455.150; 2117.250;  303.050;    0.000
455.196; 2033.250;  282.050;    0.000
455.241; 2050.250;  281.050;    0.000
455.286; 2009.250;  290.050;    0.000
455.332; 2055.250;  280.050;    0.000
455.377; 2098.250;  243.050;    0.000
455.422; 1938.250;  308.050;    0.000
455.468; 2105.250;  308.050;    0.000
455.513; 2092.250;  290.050;    0.000
455.558; 2029.250;  211.050;    0.000
455.604; 2001.250;  289.050;    0.000
455.649; 2011.250;  297.050;    0.000
455.694; 1968.250;  287.050;    0.000
455.739; 2116.250;  296.050;    0.000
455.785; 2012.250;  315.050;    0.000
455.830; 2048.250;  328.050;    0.000
455.875; 2045.250;  310.050;    0.000
455.920; 1998.250;  261.050;    0.000
455.965; 1950.250;  277.050;    0.000
456.010; 2014.250;  317.050;    0.000
456.056; 1990.250;  299.050;    0.000
456.101; 2026.250;  262.050;    0.000
456.146; 2039.250;  318.050;    0.000
456.191; 2049.250;  274.050;    0.000
456.236; 2039.250;  274.050;    0.000
456.281; 1991.250;  275.050;    0.000
456.326; 2001.250;  256.050;    0.000
456.371; 2019.250;  260.050;    0.000
456.416; 2088.250;  304.050;    0.000
456.461; 2029.250;  278.050;    0.000
456.507; 2045.250;  299.050;    0.000
456.552; 1972.250;  305.050;    0.000
456.597; 2039.250;  271.050;    0.000
456.642; 2036.250;  273.050;    0.000
456.687; 2026.250;  290.050;    0.000
456.732; 2018.250;  327.050;    0.000
456.776; 2016.250;  284.050;    0.000
456.821; 2015.250;  321.050;    0.000
456.866; 1986.250;  272.050;    0.000
456.911; 1949.250;  232.050;    0.000
456.956; 2029.250;  263.050;    0.000
457.001; 1996.250;  277.050;    0.000
457.046; 2063.250;  284.050;    0.000
457.091; 1979.250;  269.050;    0.000
457.136; 1986.250;  269.050;    0.000
457.181; 2104.250;  275.050;    0.000
457.225; 2046.250;  310.050;    0.000
457.270; 2067.250;  295.050;    0.000
457.315; 2055.250;  284.050;    0.000
457.360; 2027.250;  264.050;    0.000
457.405; 1980.250;  273.050;    0.000
457.450; 2071.250;  284.050;    0.000
457.494; 1965.250;  273.050;    0.000
457.539; 1999.250;  287.050;    0.000
457.584; 2065.250;  279.050;    0.000
457.629; 1982.250;  288.050;    0.000
457.673; 2061.250;  297.050;    0.000
457.718; 2126.250;  270.050;    0.000
457.763; 2135.250;  295.050;    0.000
457.807; 2122.250;  321.050;    0.000
457.852; 2111.250;  293.050;    0.000
457.897; 2054.250;  282.050;    0.000
457.941; 2097.250;  320.050;    0.000
457.986; 2021.250;  295.050;    0.000
458.031; 2065.250;  314.050;    0.000
458.075; 2077.250;  280.050;    0.000
458.120; 2073.250;  314.050;    0.000
458.165; 2088.250;  289.050;    0.000
458.209; 2054.250;  289.050;    0.000
458.254; 2126.250;  272.050;    0.000
458.298; 2068.250;  305.050;    0.000
458.343; 2138.250;  284.050;    0.000
458.387; 2184.250;  340.050;    0.000
458.432; 2195.250;  306.050;    0.000
458.476; 2109.250;  311.050;    0.000
458.521; 2104.250;  304.050;    0.000
458.565; 2121.250;  329.050;    0.000
458.610; 2196.250;  287.050;    0.000
458.654; 2137.250;  300.050;    0.000
458.699; 2176.250;  295.050;    0.000
458.743; 2142.250;  269.050;    0.000
458.788; 2176.250;  294.050;    0.000
458.832; 2202.250;  301.050;    0.000
458.877; 2258.250;  303.050;    0.000
458.921; 2180.250;  259.050;    0.000
458.965; 2169.250;  308.050;    0.000
459.010; 2176.250;  330.050;    0.000
459.054; 2299.250;  298.050;    0.000
459.099; 2235.250;  303.050;    0.000
459.143; 2210.250;  333.050;    0.000
459.187; 2188.250;  291.050;    0.000
459.231; 2228.250;  316.050;    0.000
459.276; 2259.250;  294.050;    0.000
459.320; 2295.250;  291.050;    0.000
459.364; 2341.250;  318.050;    0.000
459.409; 2256.250;  325.050;    0.000
459.453; 2308.250;  293.050;    0.000
459.497; 2347.250;  354.050;    0.000
459.541; 2277.250;  313.050;    0.000
459.586; 2218.250;  282.050;    0.000
459.630; 2242.250;  286.050;    0.000
459.674; 2210.250;  292.050;    0.000
459.718; 2321.250;  280.050;    0.000
459.762; 2298.250;  304.050;    0.000
459.807; 2257.250;  352.050;    0.000
459.851; 2271.250;  300.050;    0.000
459.895; 2259.250;  311.050;    0.000
459.939; 2276.250;  303.050;    0.000
459.983; 2305.250;  299.050;    0.000
460.027; 2264.250;  307.050;    0.000
460.071; 2293.250;  313.050;    0.000
460.115; 2257.250;  325.050;    0.000
460.159; 2344.250;  331.050;    0.000
460.204; 2356.250;  301.050;    0.000
460.248; 2322.250;  329.050;    0.000
460.292; 2352.250;  310.050;    0.000
460.336; 2318.250;  304.050;    0.000
460.380; 2304.250;  313.050;    0.000
460.424; 2280.250;  300.050;    0.000
460.468; 2369.250;  338.050;    0.000
460.512; 2294.250;  310.050;    0.000
460.556; 2341.250;  337.050;    0.000
460.599; 2286.250;  310.050;    0.000
460.643; 2316.250;  303.050;    0.000
460.687; 2312.250;  316.050;    0.000
460.731; 2307.250;  292.050;    0.000
460.775; 2364.250;  294.050;    0.000
460.819; 2325.250;  310.050;    0.000
460.863; 2326.250;  349.050;    0.000
460.907; 2354.250;  265.050;    0.000
460.951; 2241.250;  325.050;    0.000
460.995; 2296.250;  338.050;    0.000
461.038; 2366.250;  304.050;    0.000
461.082; 2343.250;  312.050;    0.000
461.126; 2431.250;  358.050;    0.000
461.170; 2334.250;  306.050;    0.000
461.214; 2316.250;  330.050;    0.000
461.257; 2391.250;  311.050;    0.000
461.301; 2357.250;  303.050;    0.000
461.345; 2389.250;  310.050;    0.000
461.389; 2363.250;  296.050;    0.000
461.432; 2396.250;  304.050;    0.000
461.476; 2349.250;  305.050;    0.000
461.520; 2306.250;  319.050;    0.000
461.563; 2432.250;  294.050;    0.000
461.607; 2401.250;  295.050;    0.000
461.651; 2366.250;  335.050;    0.000
461.694; 2354.250;  276.050;    0.000
461.738; 2347.250;  327.050;    0.000
461.782; 2398.250;  288.050;    0.000
461.825; 2430.250;  319.050;    0.000
461.869; 2449.250;  305.050;    0.000
461.913; 2339.250;  281.050;    0.000
461.956; 2469.250;  281.050;    0.000
462.000; 2475.250;  339.050;    0.000
462.043; 2385.250;  347.050;    0.000
462.087; 2472.250;  314.050;    0.000
462.130; 2475.250;  332.050;    0.000
462.174; 2536.250;  332.050;    0.000
462.217; 2439.250;  299.050;    0.000
462.261; 2432.250;  323.050;    0.000
462.304; 2406.250;  286.050;    0.000
462.348; 2375.250;  305.050;    0.000
462.391; 2450.250;  293.050;    0.000
462.435; 2471.250;  365.050;    0.000
462.478; 2402.250;  329.050;    0.000
462.522; 2455.250;  316.050;    0.000
462.565; 2443.250;  328.050;    0.000
462.608; 2491.250;  350.050;    0.000
462.652; 2585.250;  328.050;    0.000
462.695; 2609.250;  358.050;    0.000
462.739; 2583.250;  317.050;    0.000
462.782; 2571.250;  329.050;    0.000
462.825; 2653.250;  368.050;    0.000
462.869; 2622.250;  343.050;    0.000
462.912; 2616.250;  404.050;    0.000
462.955; 2657.250;  328.050;    0.000
462.998; 2601.250;  340.050;    0.000
463.042; 2606.250;  361.050;    0.000
463.085; 2655.250;  337.050;    0.000
463.128; 2646.250;  373.050;    0.000
463.172; 2572.250;  347.050;    0.000
463.215;  384.250;  305.050;    0.000
463.258;  357.250;  324.050;    0.000
463.301;  319.250;  296.050;    0.000
463.344;  313.250;  332.050;    0.000
463.388;  326.250;  309.050;    0.000
463.431;  298.250;  298.050;    0.000
463.474;  334.250;  351.050;    0.000
463.517;  347.250;  319.050;    0.000
463.560;  342.250;  325.050;    0.000
463.603;  305.250;  330.050;    0.000
463.646;  337.250;  332.050;    0.000
463.690;  299.250;  325.050;    0.000
463.733;  337.250;  323.050;    0.000
463.776;  315.250;  276.050;    0.000
463.819;  338.250;  320.050;    0.000
463.862;  276.250;  275.050;    0.000

