
Integration time [ms]:   0.300
Averaging Nr. [scans]: 1
Smoothing Nr. [pixels]: 0
Data measured with spectrometer [name]: VIS
Wave   ;Sample   ;Dark     ;Reference
[nm]   ;[counts] ;[counts] ;[counts] 

450.961;  184.275;  204.125;    0.000
451.100;  220.275;  219.125;    0.000
451.239;  198.275;  196.125;    0.000
451.377;  246.275;  252.125;    0.000
451.516;  217.275;  215.125;    0.000
451.655;  244.275;  214.125;    0.000
451.794;  244.275;  241.125;    0.000
451.932;  247.275;  242.125;    0.000
452.071;  235.275;  204.125;    0.000
452.210;  228.275;  243.125;    0.000
452.348;  222.275;  241.125;    0.000
452.487;  218.275;  246.125;    0.000
452.626;  235.275;  235.125;    0.000
452.764;  235.275;  230.125;    0.000
452.903;  212.275;  199.125;    0.000
453.042;  297.275;  178.125;    0.000
453.180; 3621.275;  291.125;    0.000
453.319; 3591.275;  335.125;    0.000
453.458; 3649.275;  245.125;    0.000
453.596; 3702.275;  325.125;    0.000
453.735; 3822.275;  291.125;    0.000
453.873; 3804.275;  295.125;    0.000
454.012; 3787.275;  291.125;    0.000
454.150; 3818.275;  292.125;    0.000
454.289; 3755.275;  328.125;    0.000
454.427; 3849.275;  295.125;    0.000
454.566; 4022.275;  295.125;    0.000
454.704; 3921.275;  301.125;    0.000
454.843; 4025.275;  278.125;    0.000
454.981; 4157.275;  306.125;    0.000
455.120; 4068.275;  237.125;    0.000
455.258; 4199.275;  325.125;    0.000
455.397; 4162.275;  276.125;    0.000
455.535; 4290.275;  269.125;    0.000
455.674; 4152.275;  259.125;    0.000
455.812; 4334.275;  264.125;    0.000
455.951; 4281.275;  286.125;    0.000
456.089; 4409.275;  302.125;    0.000
456.227; 4389.275;  230.125;    0.000
456.366; 4520.275;  303.125;    0.000
456.504; 4635.275;  316.125;    0.000
456.642; 4556.275;  309.125;    0.000
456.781; 4558.275;  299.125;    0.000
456.919; 4610.275;  281.125;    0.000
457.057; 4642.275;  253.125;    0.000
457.196; 4715.275;  268.125;    0.000
457.334; 4776.275;  292.125;    0.000
457.472; 4761.275;  287.125;    0.000
457.610; 4859.275;  300.125;    0.000
457.749; 4853.275;  342.125;    0.000
457.887; 4883.275;  310.125;    0.000
458.025; 5132.275;  310.125;    0.000
458.163; 5146.275;  323.125;    0.000
458.301; 5285.275;  336.125;    0.000
458.440; 5308.275;  297.125;    0.000
458.578; 5381.275;  295.125;    0.000
458.716; 5488.275;  309.125;    0.000
458.854; 5511.275;  335.125;    0.000
458.992; 5424.275;  244.125;    0.000
459.130; 5674.275;  370.125;    0.000
459.269; 5564.275;  313.125;    0.000
459.407; 5698.275;  370.125;    0.000
459.545; 5685.275;  341.125;    0.000
459.683; 5798.275;  336.125;    0.000
459.821; 5773.275;  311.125;    0.000
459.959; 6030.275;  330.125;    0.000
460.097; 6089.275;  355.125;    0.000
460.235; 6038.275;  348.125;    0.000
460.373; 6041.275;  338.125;    0.000
460.511; 6144.275;  361.125;    0.000
460.649; 6131.275;  295.125;    0.000
460.787; 6186.275;  325.125;    0.000
460.925; 6281.275;  266.125;    0.000
461.063; 6356.275;  365.125;    0.000
461.201; 6192.275;  334.125;    0.000
461.339; 6365.275;  341.125;    0.000
461.477; 6339.275;  304.125;    0.000
461.615; 6324.275;  311.125;    0.000
461.753; 6446.275;  342.125;    0.000
461.891; 6644.275;  333.125;    0.000
462.029; 6634.275;  336.125;    0.000
462.166; 6765.275;  272.125;    0.000
462.304; 6904.275;  313.125;    0.000
462.442; 6953.275;  313.125;    0.000
462.580; 6892.275;  328.125;    0.000
462.718; 7073.275;  358.125;    0.000
462.856; 6840.275;  302.125;    0.000
462.993; 7052.275;  360.125;    0.000
463.131; 6876.275;  280.125;    0.000
463.269; 6984.275;  312.125;    0.000
463.407; 6632.275;  263.125;    0.000
463.545; 6594.275;  253.125;    0.000
463.682; 6830.275;  296.125;    0.000
463.820; 6892.275;  308.125;    0.000
463.958; 7206.275;  300.125;    0.000
464.095; 7368.275;  289.125;    0.000
464.233; 7453.275;  340.125;    0.000
464.371; 7363.275;  300.125;    0.000
464.509; 7480.275;  266.125;    0.000
464.646; 7319.275;  294.125;    0.000
464.784; 7340.275;  284.125;    0.000
464.921; 7336.275;  350.125;    0.000
465.059; 7193.275;  256.125;    0.000
465.197; 7060.275;  289.125;    0.000
465.334; 6895.275;  287.125;    0.000
465.472; 6796.275;  322.125;    0.000
465.609; 6914.275;  311.125;    0.000
465.747; 6610.275;  336.125;    0.000
465.885; 6710.275;  308.125;    0.000
466.022; 6859.275;  299.125;    0.000
466.160; 6758.275;  293.125;    0.000
466.297; 6627.275;  317.125;    0.000
466.435; 6547.275;  336.125;    0.000
466.572; 6701.275;  282.125;    0.000
466.710; 6525.275;  299.125;    0.000
466.847; 6623.275;  288.125;    0.000
466.985; 6635.275;  274.125;    0.000
467.122; 6625.275;  302.125;    0.000
467.260; 6434.275;  271.125;    0.000
467.397; 6610.275;  263.125;    0.000
467.534; 6599.275;  320.125;    0.000
467.672; 6581.275;  309.125;    0.000
467.809; 6488.275;  275.125;    0.000
467.947; 6635.275;  319.125;    0.000
468.084; 6525.275;  309.125;    0.000
468.221; 6487.275;  302.125;    0.000
468.359; 6492.275;  286.125;    0.000
468.496; 6594.275;  293.125;    0.000
468.633; 6469.275;  273.125;    0.000
468.771; 6682.275;  296.125;    0.000
468.908; 6577.275;  277.125;    0.000
469.045; 6558.275;  303.125;    0.000
469.183; 6731.275;  314.125;    0.000
469.320; 6686.275;  278.125;    0.000
469.457; 6811.275;  308.125;    0.000
469.594; 6772.275;  272.125;    0.000
469.732; 6801.275;  321.125;    0.000
469.869; 6899.275;  299.125;    0.000
470.006; 6857.275;  267.125;    0.000
470.143; 7111.275;  298.125;    0.000
470.280; 7038.275;  272.125;    0.000
470.417; 7078.275;  314.125;    0.000
470.555; 6953.275;  305.125;    0.000
470.692; 6912.275;  309.125;    0.000
470.829; 7057.275;  311.125;    0.000
470.966; 6987.275;  260.125;    0.000
471.103; 6931.275;  267.125;    0.000
471.240; 6980.275;  290.125;    0.000
471.377; 7032.275;  290.125;    0.000
471.514; 6908.275;  295.125;    0.000
471.651; 6909.275;  300.125;    0.000
471.789; 6873.275;  281.125;    0.000
471.926; 6836.275;  291.125;    0.000
472.063; 6836.275;  305.125;    0.000
472.200; 6874.275;  285.125;    0.000
472.337; 6688.275;  288.125;    0.000
472.474; 6962.275;  276.125;    0.000
472.611; 6832.275;  309.125;    0.000
472.748; 6696.275;  280.125;    0.000
472.884; 6783.275;  300.125;    0.000
473.021; 6546.275;  280.125;    0.000
473.158; 6785.275;  304.125;    0.000
473.295; 6810.275;  308.125;    0.000
473.432; 6564.275;  294.125;    0.000
473.569; 6665.275;  288.125;    0.000
473.706; 6701.275;  254.125;    0.000
473.843; 6664.275;  282.125;    0.000
473.980; 6725.275;  286.125;    0.000
474.117; 6772.275;  257.125;    0.000
474.253; 6750.275;  298.125;    0.000
474.390; 6676.275;  253.125;    0.000
474.527; 6700.275;  271.125;    0.000
474.664; 6730.275;  257.125;    0.000
474.801; 6758.275;  296.125;    0.000
474.937; 6787.275;  263.125;    0.000
475.074; 6758.275;  262.125;    0.000
475.211; 6796.275;  299.125;    0.000
475.348; 6735.275;  308.125;    0.000
475.484; 6821.275;  278.125;    0.000
475.621; 6941.275;  287.125;    0.000
475.758; 6923.275;  231.125;    0.000
475.894; 6934.275;  295.125;    0.000
476.031; 6765.275;  290.125;    0.000
476.168; 6822.275;  287.125;    0.000
476.304; 6810.275;  331.125;    0.000
476.441; 6837.275;  301.125;    0.000
476.578; 6987.275;  263.125;    0.000
476.714; 7040.275;  261.125;    0.000
476.851; 7043.275;  247.125;    0.000
476.987; 6943.275;  297.125;    0.000
477.124; 7030.275;  296.125;    0.000
477.261; 7065.275;  299.125;    0.000
477.397; 7054.275;  292.125;    0.000
477.534; 7279.275;  289.125;    0.000
477.670; 7223.275;  268.125;    0.000
477.807; 7137.275;  234.125;    0.000
477.943; 7268.275;  279.125;    0.000
478.080; 7283.275;  276.125;    0.000
478.216; 7313.275;  248.125;    0.000
478.353; 7351.275;  296.125;    0.000
478.489; 7348.275;  267.125;    0.000
478.626; 7674.275;  243.125;    0.000
478.762; 7559.275;  252.125;    0.000
478.898; 7672.275;  266.125;    0.000
479.035; 7547.275;  290.125;    0.000
479.171; 7518.275;  247.125;    0.000
479.308; 7431.275;  283.125;    0.000
479.444; 7539.275;  244.125;    0.000
479.580; 7574.275;  259.125;    0.000
479.717; 7413.275;  301.125;    0.000
479.853; 7553.275;  257.125;    0.000
479.989; 7647.275;  249.125;    0.000
480.126; 7629.275;  218.125;    0.000
480.262; 7893.275;  275.125;    0.000
480.398; 7718.275;  246.125;    0.000
480.535; 7654.275;  246.125;    0.000
480.671; 7645.275;  272.125;    0.000
480.807; 7664.275;  281.125;    0.000
480.943; 7664.275;  233.125;    0.000
481.080; 7539.275;  303.125;    0.000
481.216; 7487.275;  229.125;    0.000
481.352; 7568.275;  240.125;    0.000
481.488; 7544.275;  284.125;    0.000
481.624; 7492.275;  236.125;    0.000
481.760; 7475.275;  255.125;    0.000
481.897; 7395.275;  206.125;    0.000
482.033; 7346.275;  254.125;    0.000
482.169; 7558.275;  268.125;    0.000
482.305; 7472.275;  214.125;    0.000
482.441; 7459.275;  225.125;    0.000
482.577; 7483.275;  251.125;    0.000
482.713; 7581.275;  221.125;    0.000
482.849; 7389.275;  218.125;    0.000
482.985; 7534.275;  245.125;    0.000
483.121; 7383.275;  224.125;    0.000
483.258; 7523.275;  249.125;    0.000
483.394; 7498.275;  224.125;    0.000
483.530; 7420.275;  247.125;    0.000
483.665; 7487.275;  256.125;    0.000
483.801; 7509.275;  220.125;    0.000
483.937; 7497.275;  200.125;    0.000
484.073; 7533.275;  272.125;    0.000
484.209; 7500.275;  243.125;    0.000
484.345; 7615.275;  274.125;    0.000
484.481; 7668.275;  264.125;    0.000
484.617; 7572.275;  270.125;    0.000
484.753; 7476.275;  244.125;    0.000
484.889; 7500.275;  293.125;    0.000
485.025; 7581.275;  257.125;    0.000
485.161; 7458.275;  264.125;    0.000
485.296; 7756.275;  247.125;    0.000
485.432; 7770.275;  240.125;    0.000
485.568; 7710.275;  240.125;    0.000
485.704; 7558.275;  232.125;    0.000
485.840; 7537.275;  280.125;    0.000
485.975; 7750.275;  253.125;    0.000
486.111; 7569.275;  250.125;    0.000
486.247; 7769.275;  272.125;    0.000
486.383; 7675.275;  258.125;    0.000
486.518; 7704.275;  256.125;    0.000
486.654; 7747.275;  250.125;    0.000
486.790; 7636.275;  259.125;    0.000
486.926; 7654.275;  256.125;    0.000
487.061; 7677.275;  267.125;    0.000
487.197; 7630.275;  224.125;    0.000
487.333; 7589.275;  265.125;    0.000
487.468; 7534.275;  223.125;    0.000
487.604; 7691.275;  298.125;    0.000
487.740; 7744.275;  261.125;    0.000
487.875; 7763.275;  278.125;    0.000
488.011; 7690.275;  292.125;    0.000
488.146; 7577.275;  239.125;    0.000
488.282; 7591.275;  265.125;    0.000
488.417; 7708.275;  286.125;    0.000
488.553; 7663.275;  271.125;    0.000
488.688; 7653.275;  252.125;    0.000
488.824; 7756.275;  239.125;    0.000
488.960; 7711.275;  266.125;    0.000
489.095; 7756.275;  229.125;    0.000
489.230; 7791.275;  247.125;    0.000
489.366; 7742.275;  260.125;    0.000
489.501; 7866.275;  257.125;    0.000
489.637; 7773.275;  233.125;    0.000
489.772; 7792.275;  254.125;    0.000
489.908; 7781.275;  235.125;    0.000
490.043; 7945.275;  266.125;    0.000
490.178; 7713.275;  228.125;    0.000
490.314; 7780.275;  310.125;    0.000
490.449; 7876.275;  251.125;    0.000
490.585; 7778.275;  221.125;    0.000
490.720; 7814.275;  203.125;    0.000
490.855; 7862.275;  266.125;    0.000
490.991; 7830.275;  249.125;    0.000
491.126; 7914.275;  313.125;    0.000
491.261; 7807.275;  284.125;    0.000
491.396; 7769.275;  225.125;    0.000
491.532; 7881.275;  227.125;    0.000
491.667; 7957.275;  210.125;    0.000
491.802; 7775.275;  214.125;    0.000
491.937; 7871.275;  246.125;    0.000
492.073; 7910.275;  250.125;    0.000
492.208; 7980.275;  267.125;    0.000
492.343; 7962.275;  245.125;    0.000
492.478; 8089.275;  271.125;    0.000
492.613; 8001.275;  253.125;    0.000
492.749; 8077.275;  249.125;    0.000
492.884; 7764.275;  217.125;    0.000
493.019; 7955.275;  244.125;    0.000
493.154; 7990.275;  265.125;    0.000
493.289; 7858.275;  266.125;    0.000
493.424; 7806.275;  226.125;    0.000
493.559; 7976.275;  222.125;    0.000
493.694; 7981.275;  218.125;    0.000
493.829; 8089.275;  246.125;    0.000
493.964; 7971.275;  243.125;    0.000
494.099; 7891.275;  269.125;    0.000
494.234; 8066.275;  249.125;    0.000
494.369; 8068.275;  279.125;    0.000
494.504; 7832.275;  261.125;    0.000
494.639; 8001.275;  289.125;    0.000
494.774; 7913.275;  252.125;    0.000
494.909; 7957.275;  250.125;    0.000
495.044; 7880.275;  207.125;    0.000
495.179; 7880.275;  266.125;    0.000
495.314; 7914.275;  228.125;    0.000
495.449; 8032.275;  262.125;    0.000
495.584; 8022.275;  281.125;    0.000
495.719; 8080.275;  251.125;    0.000
495.854; 7954.275;  237.125;    0.000
495.988; 8077.275;  238.125;    0.000
496.123; 8008.275;  255.125;    0.000
496.258; 8133.275;  264.125;    0.000
496.393; 8174.275;  253.125;    0.000
496.528; 8181.275;  244.125;    0.000
496.663; 8216.275;  267.125;    0.000
496.797; 8304.275;  271.125;    0.000
496.932; 8288.275;  262.125;    0.000
497.067; 8449.275;  260.125;    0.000
497.202; 8516.275;  264.125;    0.000
497.336; 8580.275;  243.125;    0.000
497.471; 8820.275;  251.125;    0.000
497.606; 8860.275;  219.125;    0.000
497.740; 8918.275;  264.125;    0.000
497.875; 9238.275;  252.125;    0.000
498.010; 9430.275;  241.125;    0.000
498.144; 9254.275;  261.125;    0.000
498.279; 9564.275;  221.125;    0.000
498.414; 9779.275;  246.125;    0.000
498.548; 9925.275;  212.125;    0.000
498.683; 9845.275;  260.125;    0.000
498.817;10109.275;  244.125;    0.000
498.952;10304.275;  252.125;    0.000
499.087;10395.275;  251.125;    0.000
499.221;10696.275;  282.125;    0.000
499.356;10944.275;  264.125;    0.000
499.490;11222.275;  280.125;    0.000
499.625;11398.275;  256.125;    0.000
499.759;11525.275;  253.125;    0.000
499.894;12086.275;  261.125;    0.000
500.028;12310.275;  304.125;    0.000
500.162;12555.275;  272.125;    0.000
500.297;12827.275;  274.125;    0.000
500.431;12726.275;  320.125;    0.000
500.566;12811.275;  268.125;    0.000
500.700;12829.275;  280.125;    0.000
500.835;12381.275;  288.125;    0.000
500.969;12173.275;  253.125;    0.000
501.103;11887.275;  234.125;    0.000
501.238;11629.275;  302.125;    0.000
501.372;11094.275;  292.125;    0.000
501.506;10768.275;  222.125;    0.000
501.641;10698.275;  274.125;    0.000
501.775;10313.275;  245.125;    0.000
501.909; 9942.275;  283.125;    0.000
502.043; 9753.275;  252.125;    0.000
502.178; 9698.275;  293.125;    0.000
502.312; 9479.275;  223.125;    0.000
502.446; 9390.275;  292.125;    0.000
502.580; 9189.275;  253.125;    0.000
502.715; 9090.275;  282.125;    0.000
502.849; 8919.275;  258.125;    0.000
502.983; 8899.275;  267.125;    0.000
503.117; 8701.275;  226.125;    0.000
503.251; 8758.275;  260.125;    0.000
503.385; 8543.275;  291.125;    0.000
503.520; 8431.275;  279.125;    0.000
503.654; 8309.275;  229.125;    0.000
503.788; 8272.275;  259.125;    0.000
503.922; 8041.275;  246.125;    0.000
504.056; 8093.275;  269.125;    0.000
504.190; 8091.275;  265.125;    0.000
504.324; 8024.275;  298.125;    0.000
504.458; 7908.275;  235.125;    0.000
504.592; 7856.275;  275.125;    0.000
504.726; 7748.275;  226.125;    0.000
504.860; 7661.275;  298.125;    0.000
504.994; 7572.275;  253.125;    0.000
505.128; 7560.275;  283.125;    0.000
505.262; 7434.275;  255.125;    0.000
505.396; 7172.275;  219.125;    0.000
505.530; 7188.275;  279.125;    0.000
505.664; 7158.275;  306.125;    0.000
505.798; 6930.275;  297.125;    0.000
505.932; 6941.275;  273.125;    0.000
506.066; 6924.275;  271.125;    0.000
506.199; 6850.275;  273.125;    0.000
506.333; 6867.275;  227.125;    0.000
506.467; 6681.275;  302.125;    0.000
506.601; 6696.275;  254.125;    0.000
506.735; 6716.275;  299.125;    0.000
506.869; 6537.275;  278.125;    0.000
507.002; 6551.275;  259.125;    0.000
507.136; 6620.275;  285.125;    0.000
507.270; 6446.275;  255.125;    0.000
507.404; 6554.275;  273.125;    0.000
507.537; 6380.275;  245.125;    0.000
507.671; 6551.275;  251.125;    0.000
507.805; 6358.275;  286.125;    0.000
507.939; 6387.275;  261.125;    0.000
508.072; 6143.275;  298.125;    0.000
508.206; 6312.275;  238.125;    0.000
508.340; 6287.275;  289.125;    0.000
508.473; 6375.275;  255.125;    0.000
508.607; 6315.275;  266.125;    0.000
508.740; 6257.275;  253.125;    0.000
508.874; 6270.275;  233.125;    0.000
509.008; 6197.275;  274.125;    0.000
509.141; 6135.275;  235.125;    0.000
509.275; 6185.275;  225.125;    0.000
509.408; 6110.275;  254.125;    0.000
509.542; 6169.275;  244.125;    0.000
509.675; 6308.275;  263.125;    0.000
509.809; 6083.275;  271.125;    0.000
509.942; 6084.275;  246.125;    0.000
510.076; 6183.275;  221.125;    0.000
510.209; 6040.275;  270.125;    0.000
510.343; 6038.275;  265.125;    0.000
510.476; 6039.275;  291.125;    0.000
510.610; 5938.275;  251.125;    0.000
510.743; 6075.275;  304.125;    0.000
510.877; 5932.275;  259.125;    0.000
511.010; 5863.275;  274.125;    0.000
511.143; 5829.275;  255.125;    0.000
511.277; 5963.275;  267.125;    0.000
511.410; 5835.275;  270.125;    0.000
511.543; 5884.275;  231.125;    0.000
511.677; 5873.275;  275.125;    0.000
511.810; 5782.275;  265.125;    0.000
511.943; 5829.275;  231.125;    0.000
512.077; 5829.275;  225.125;    0.000
512.210; 5880.275;  235.125;    0.000
512.343; 5812.275;  251.125;    0.000
512.476; 5933.275;  260.125;    0.000
512.610; 5842.275;  289.125;    0.000
512.743; 5846.275;  270.125;    0.000
512.876; 5906.275;  289.125;    0.000
513.009; 5884.275;  293.125;    0.000
513.142; 5844.275;  282.125;    0.000
513.276; 5769.275;  244.125;    0.000
513.409; 5867.275;  277.125;    0.000
513.542; 5845.275;  254.125;    0.000
513.675; 5874.275;  258.125;    0.000
513.808; 5736.275;  243.125;    0.000
513.941; 5834.275;  274.125;    0.000
514.074; 5869.275;  296.125;    0.000
514.207; 5836.275;  267.125;    0.000
514.340; 5915.275;  283.125;    0.000
514.474; 5882.275;  255.125;    0.000
514.607; 5869.275;  291.125;    0.000
514.740; 5974.275;  296.125;    0.000
514.873; 5894.275;  275.125;    0.000
515.006; 6035.275;  313.125;    0.000
515.139; 6037.275;  253.125;    0.000
515.272; 6178.275;  263.125;    0.000
515.404; 6151.275;  258.125;    0.000
515.537; 6157.275;  285.125;    0.000
515.670; 6129.275;  286.125;    0.000
515.803; 6256.275;  266.125;    0.000
515.936; 6229.275;  251.125;    0.000
516.069; 6289.275;  231.125;    0.000
516.202; 6328.275;  278.125;    0.000
516.335; 6436.275;  295.125;    0.000
516.468; 6758.275;  239.125;    0.000
516.600; 7928.275;  229.125;    0.000
516.733; 9612.275;  301.125;    0.000
516.866; 9832.275;  287.125;    0.000
516.999; 8864.275;  265.125;    0.000
517.132;10795.275;  291.125;    0.000
517.264;14550.275;  262.125;    0.000
517.397;14640.275;  292.125;    0.000
517.530;11494.275;  299.125;    0.000
517.663; 9462.275;  268.125;    0.000
517.795; 8943.275;  323.125;    0.000
517.928; 8537.275;  281.125;    0.000
518.061; 8628.275;  242.125;    0.000
518.193;10855.275;  279.125;    0.000
518.326;16775.275;  288.125;    0.000
518.459;18339.275;  251.125;    0.000
518.591;14308.275;  314.125;    0.000
518.724;10840.275;  279.125;    0.000
518.857; 9115.275;  245.125;    0.000
518.989; 8627.275;  290.125;    0.000
519.122; 8039.275;  319.125;    0.000
519.254; 7514.275;  295.125;    0.000
519.387; 7320.275;  271.125;    0.000
519.519; 6971.275;  312.125;    0.000
519.652; 6831.275;  289.125;    0.000
519.784; 6657.275;  311.125;    0.000
519.917; 6455.275;  283.125;    0.000
520.049; 6340.275;  281.125;    0.000
520.182; 6321.275;  242.125;    0.000
520.314; 6231.275;  310.125;    0.000
520.447; 6126.275;  215.125;    0.000
520.579; 6071.275;  277.125;    0.000
520.712; 6004.275;  224.125;    0.000
520.844; 6056.275;  293.125;    0.000
520.976; 5845.275;  281.125;    0.000
521.109; 5803.275;  279.125;    0.000
521.241; 5809.275;  318.125;    0.000
521.373; 5792.275;  242.125;    0.000
521.506; 5692.275;  246.125;    0.000
521.638; 5644.275;  312.125;    0.000
521.770; 5695.275;  257.125;    0.000
521.903; 5540.275;  295.125;    0.000
522.035; 5472.275;  283.125;    0.000
522.167; 5510.275;  281.125;    0.000
522.300; 5396.275;  262.125;    0.000
522.432; 5415.275;  272.125;    0.000
522.564; 5282.275;  277.125;    0.000
522.696; 5394.275;  295.125;    0.000
522.828; 5335.275;  284.125;    0.000
522.961; 5240.275;  295.125;    0.000
523.093; 5295.275;  282.125;    0.000
523.225; 5291.275;  270.125;    0.000
523.357; 5225.275;  285.125;    0.000
523.489; 5229.275;  292.125;    0.000
523.621; 5240.275;  285.125;    0.000
523.753; 5133.275;  273.125;    0.000
523.885; 5149.275;  271.125;    0.000
524.018; 5060.275;  276.125;    0.000
524.150; 5090.275;  320.125;    0.000
524.282; 5178.275;  304.125;    0.000
524.414; 5060.275;  302.125;    0.000
524.546; 4958.275;  305.125;    0.000
524.678; 4988.275;  264.125;    0.000
524.810; 4935.275;  258.125;    0.000
524.942; 5091.275;  252.125;    0.000
525.074; 4990.275;  275.125;    0.000
525.206; 4855.275;  286.125;    0.000
525.338; 4928.275;  280.125;    0.000
525.469; 4835.275;  267.125;    0.000
525.601; 4861.275;  266.125;    0.000
525.733; 5015.275;  283.125;    0.000
525.865; 4785.275;  273.125;    0.000
525.997; 4902.275;  286.125;    0.000
526.129; 4903.275;  249.125;    0.000
526.261; 4790.275;  233.125;    0.000
526.393; 4849.275;  257.125;    0.000
526.524; 4768.275;  184.125;    0.000
526.656; 4715.275;  259.125;    0.000
526.788; 4755.275;  268.125;    0.000
526.920; 4747.275;  262.125;    0.000
527.052; 4676.275;  250.125;    0.000
527.183; 4680.275;  264.125;    0.000
527.315; 4723.275;  301.125;    0.000
527.447; 4775.275;  262.125;    0.000
527.578; 4693.275;  267.125;    0.000
527.710; 4808.275;  299.125;    0.000
527.842; 4642.275;  266.125;    0.000
527.973; 4777.275;  240.125;    0.000
528.105; 4631.275;  275.125;    0.000
528.237; 4660.275;  239.125;    0.000
528.368; 4698.275;  275.125;    0.000
528.500; 4669.275;  271.125;    0.000
528.632; 4652.275;  252.125;    0.000
528.763; 4737.275;  253.125;    0.000
528.895; 4632.275;  259.125;    0.000
529.026; 4583.275;  209.125;    0.000
529.158; 4616.275;  291.125;    0.000
529.289; 4716.275;  280.125;    0.000
529.421; 4640.275;  274.125;    0.000
529.552; 4638.275;  253.125;    0.000
529.684; 4653.275;  310.125;    0.000
529.815; 4604.275;  305.125;    0.000
529.947; 4656.275;  234.125;    0.000
530.078; 4680.275;  259.125;    0.000
530.210; 4663.275;  264.125;    0.000
530.341; 4636.275;  267.125;    0.000
530.472; 4670.275;  232.125;    0.000
530.604; 4584.275;  293.125;    0.000
530.735; 4610.275;  275.125;    0.000
530.867; 4571.275;  280.125;    0.000
530.998; 4684.275;  295.125;    0.000
531.129; 4657.275;  274.125;    0.000
531.260; 4556.275;  272.125;    0.000
531.392; 4701.275;  275.125;    0.000
531.523; 4703.275;  244.125;    0.000
531.654; 4804.275;  289.125;    0.000
531.786; 4794.275;  259.125;    0.000
531.917; 4748.275;  286.125;    0.000
532.048; 4798.275;  293.125;    0.000
532.179; 4711.275;  288.125;    0.000
532.311; 4708.275;  296.125;    0.000
532.442; 4733.275;  277.125;    0.000
532.573; 4758.275;  273.125;    0.000
532.704; 4759.275;  308.125;    0.000
532.835; 4665.275;  308.125;    0.000
532.966; 4610.275;  274.125;    0.000
533.097; 4712.275;  310.125;    0.000
533.229; 4531.275;  294.125;    0.000
533.360; 4645.275;  324.125;    0.000
533.491; 4676.275;  278.125;    0.000
533.622; 4681.275;  319.125;    0.000
533.753; 4758.275;  303.125;    0.000
533.884; 4739.275;  269.125;    0.000
534.015; 4624.275;  266.125;    0.000
534.146; 4680.275;  283.125;    0.000
534.277; 4810.275;  299.125;    0.000
534.408; 4769.275;  265.125;    0.000
534.539; 4687.275;  310.125;    0.000
534.670; 4608.275;  319.125;    0.000
534.801; 4732.275;  281.125;    0.000
534.932; 4597.275;  239.125;    0.000
535.063; 4634.275;  276.125;    0.000
535.194; 4675.275;  361.125;    0.000
535.324; 4644.275;  283.125;    0.000
535.455; 4562.275;  282.125;    0.000
535.586; 4584.275;  331.125;    0.000
535.717; 4583.275;  262.125;    0.000
535.848; 4667.275;  308.125;    0.000
535.979; 4620.275;  273.125;    0.000
536.109; 4533.275;  277.125;    0.000
536.240; 4576.275;  293.125;    0.000
536.371; 4487.275;  295.125;    0.000
536.502; 4581.275;  330.125;    0.000
536.632; 4468.275;  280.125;    0.000
536.763; 4512.275;  332.125;    0.000
536.894; 4554.275;  334.125;    0.000
537.025; 4445.275;  295.125;    0.000
537.155; 4482.275;  321.125;    0.000
537.286; 4418.275;  292.125;    0.000
537.417; 4460.275;  314.125;    0.000
537.547; 4349.275;  287.125;    0.000
537.678; 4522.275;  287.125;    0.000
537.808; 4429.275;  278.125;    0.000
537.939; 4457.275;  304.125;    0.000
538.070; 4556.275;  303.125;    0.000
538.200; 4498.275;  279.125;    0.000
538.331; 4443.275;  321.125;    0.000
538.461; 4436.275;  313.125;    0.000
538.592; 4416.275;  290.125;    0.000
538.722; 4494.275;  285.125;    0.000
538.853; 4503.275;  261.125;    0.000
538.983; 4465.275;  280.125;    0.000
539.114; 4476.275;  310.125;    0.000
539.244; 4376.275;  281.125;    0.000
539.375; 4383.275;  292.125;    0.000
539.505; 4355.275;  286.125;    0.000
539.636; 4364.275;  276.125;    0.000
539.766; 4452.275;  287.125;    0.000
539.896; 4466.275;  292.125;    0.000
540.027; 4413.275;  262.125;    0.000
540.157; 4431.275;  269.125;    0.000
540.287; 4466.275;  282.125;    0.000
540.418; 4432.275;  269.125;    0.000
540.548; 4459.275;  328.125;    0.000
540.678; 4470.275;  271.125;    0.000
540.809; 4551.275;  272.125;    0.000
540.939; 4517.275;  299.125;    0.000
541.069; 4420.275;  266.125;    0.000
541.200; 4405.275;  242.125;    0.000
541.330; 4423.275;  257.125;    0.000
541.460; 4533.275;  270.125;    0.000
541.590; 4614.275;  287.125;    0.000
541.720; 4500.275;  255.125;    0.000
541.851; 4502.275;  273.125;    0.000
541.981; 4537.275;  244.125;    0.000
542.111; 4612.275;  263.125;    0.000
542.241; 4573.275;  271.125;    0.000
542.371; 4660.275;  263.125;    0.000
542.501; 4623.275;  274.125;    0.000
542.631; 4792.275;  288.125;    0.000
542.761; 4826.275;  261.125;    0.000
542.891; 4766.275;  253.125;    0.000
543.021; 4800.275;  249.125;    0.000
543.151; 4807.275;  261.125;    0.000
543.281; 4690.275;  256.125;    0.000
543.411; 4743.275;  290.125;    0.000
543.542; 4699.275;  278.125;    0.000
543.671; 4604.275;  238.125;    0.000
543.801; 4577.275;  256.125;    0.000
543.931; 4697.275;  254.125;    0.000
544.061; 4649.275;  237.125;    0.000
544.191; 4713.275;  245.125;    0.000
544.321; 4698.275;  267.125;    0.000
544.451; 4612.275;  262.125;    0.000
544.581; 4636.275;  221.125;    0.000
544.711; 4800.275;  252.125;    0.000
544.841; 4780.275;  264.125;    0.000
544.970; 4879.275;  315.125;    0.000
545.100; 4796.275;  245.125;    0.000
545.230; 4982.275;  276.125;    0.000
545.360; 4896.275;  278.125;    0.000
545.490; 4930.275;  268.125;    0.000
545.619; 4893.275;  237.125;    0.000
545.749; 4766.275;  228.125;    0.000
545.879; 4707.275;  234.125;    0.000
546.009; 4638.275;  287.125;    0.000
546.138; 4643.275;  222.125;    0.000
546.268; 4544.275;  228.125;    0.000
546.398; 4619.275;  244.125;    0.000
546.527; 4729.275;  233.125;    0.000
546.657; 4693.275;  189.125;    0.000
546.786; 4709.275;  247.125;    0.000
546.916; 4650.275;  244.125;    0.000
547.046; 4599.275;  214.125;    0.000
547.175; 4668.275;  242.125;    0.000
547.305; 4718.275;  252.125;    0.000
547.434; 4658.275;  191.125;    0.000
547.564; 4573.275;  208.125;    0.000
547.693; 4655.275;  213.125;    0.000
547.823; 4608.275;  209.125;    0.000
547.953; 4683.275;  250.125;    0.000
548.082; 4589.275;  231.125;    0.000
548.211; 4644.275;  226.125;    0.000
548.341; 4573.275;  254.125;    0.000
548.470; 4596.275;  266.125;    0.000
548.600; 4677.275;  229.125;    0.000
548.729; 4658.275;  225.125;    0.000
548.859; 4572.275;  185.125;    0.000
548.988; 4582.275;  225.125;    0.000
549.117; 4540.275;  241.125;    0.000
549.247; 4654.275;  236.125;    0.000
549.376; 4625.275;  220.125;    0.000
549.505; 4606.275;  254.125;    0.000
549.635; 4705.275;  268.125;    0.000
549.764; 4668.275;  194.125;    0.000
549.893; 4813.275;  232.125;    0.000
550.023; 4586.275;  222.125;    0.000
550.152; 4743.275;  223.125;    0.000
550.281; 4786.275;  210.125;    0.000
550.410; 4794.275;  197.125;    0.000
550.539; 4766.275;  222.125;    0.000
550.669; 4813.275;  245.125;    0.000
550.798; 4769.275;  265.125;    0.000
550.927; 4713.275;  249.125;    0.000
551.056; 4775.275;  184.125;    0.000
551.185; 4729.275;  247.125;    0.000
551.314; 4754.275;  258.125;    0.000
551.443; 4702.275;  224.125;    0.000
551.573; 4760.275;  204.125;    0.000
551.702; 4863.275;  220.125;    0.000
551.831; 4820.275;  287.125;    0.000
551.960; 4681.275;  259.125;    0.000
552.089; 4997.275;  222.125;    0.000
552.218; 4824.275;  254.125;    0.000
552.347; 4913.275;  260.125;    0.000
552.476; 4948.275;  251.125;    0.000
552.605; 4930.275;  229.125;    0.000
552.734; 4940.275;  261.125;    0.000
552.863; 5116.275;  225.125;    0.000
552.992; 5328.275;  202.125;    0.000
553.121; 5260.275;  193.125;    0.000
553.249; 5199.275;  224.125;    0.000
553.378; 5070.275;  274.125;    0.000
553.507; 5024.275;  248.125;    0.000
553.636; 5004.275;  203.125;    0.000
553.765; 4936.275;  224.125;    0.000
553.894; 4905.275;  246.125;    0.000
554.023; 4955.275;  229.125;    0.000
554.151; 4880.275;  216.125;    0.000
554.280; 4862.275;  223.125;    0.000
554.409; 4882.275;  240.125;    0.000
554.538; 4910.275;  277.125;    0.000
554.666; 4817.275;  244.125;    0.000
554.795; 4874.275;  240.125;    0.000
554.924; 4853.275;  257.125;    0.000
555.052; 4815.275;  266.125;    0.000
555.181; 4751.275;  244.125;    0.000
555.310; 4790.275;  262.125;    0.000
555.439; 4857.275;  260.125;    0.000
555.567; 4894.275;  234.125;    0.000
555.696; 4699.275;  237.125;    0.000
555.824; 4625.275;  232.125;    0.000
555.953; 4807.275;  279.125;    0.000
556.082; 4764.275;  234.125;    0.000
556.210; 4741.275;  235.125;    0.000
556.339; 4695.275;  198.125;    0.000
556.467; 4696.275;  216.125;    0.000
556.596; 4669.275;  273.125;    0.000
556.724; 4710.275;  245.125;    0.000
556.853; 4588.275;  241.125;    0.000
556.981; 4631.275;  219.125;    0.000
557.110; 4672.275;  242.125;    0.000
557.238; 4598.275;  202.125;    0.000
557.367; 4625.275;  254.125;    0.000
557.495; 4492.275;  260.125;    0.000
557.623; 4575.275;  207.125;    0.000
557.752; 4524.275;  219.125;    0.000
557.880; 4765.275;  209.125;    0.000
558.008; 4546.275;  243.125;    0.000
558.137; 4632.275;  244.125;    0.000
558.265; 4649.275;  221.125;    0.000
558.393; 4622.275;  297.125;    0.000
558.522; 4554.275;  232.125;    0.000
558.650; 4703.275;  299.125;    0.000
558.778; 4742.275;  210.125;    0.000
558.906; 4648.275;  240.125;    0.000
559.035; 4719.275;  252.125;    0.000
559.163; 4699.275;  246.125;    0.000
559.291; 4635.275;  213.125;    0.000
559.419; 4703.275;  221.125;    0.000
559.548; 4634.275;  208.125;    0.000
559.676; 4743.275;  254.125;    0.000
559.804; 4637.275;  213.125;    0.000
559.932; 4681.275;  208.125;    0.000
560.060; 4693.275;  276.125;    0.000
560.188; 4685.275;  278.125;    0.000
560.316; 4695.275;  217.125;    0.000
560.444; 4730.275;  254.125;    0.000
560.572; 4778.275;  226.125;    0.000
560.700; 4978.275;  282.125;    0.000
560.828; 4842.275;  211.125;    0.000
560.956; 4951.275;  264.125;    0.000
561.085; 4931.275;  295.125;    0.000
561.212; 4867.275;  229.125;    0.000
561.340; 4897.275;  259.125;    0.000
561.468; 4905.275;  253.125;    0.000
561.596; 4855.275;  240.125;    0.000
561.724; 4829.275;  259.125;    0.000
561.852; 4819.275;  224.125;    0.000
561.980; 4942.275;  251.125;    0.000
562.108; 4908.275;  214.125;    0.000
562.236; 4959.275;  258.125;    0.000
562.364; 5038.275;  237.125;    0.000
562.492; 4803.275;  228.125;    0.000
562.619; 5029.275;  223.125;    0.000
562.747; 4964.275;  263.125;    0.000
562.875; 4965.275;  257.125;    0.000
563.003; 5087.275;  216.125;    0.000
563.130; 5181.275;  190.125;    0.000
563.258; 5216.275;  225.125;    0.000
563.386; 5256.275;  259.125;    0.000
563.514; 5322.275;  264.125;    0.000
563.641; 5359.275;  230.125;    0.000
563.769; 5382.275;  257.125;    0.000
563.897; 5458.275;  210.125;    0.000
564.024; 5614.275;  221.125;    0.000
564.152; 5529.275;  256.125;    0.000
564.280; 5545.275;  225.125;    0.000
564.407; 5575.275;  262.125;    0.000
564.535; 5595.275;  235.125;    0.000
564.662; 5605.275;  238.125;    0.000
564.790; 5706.275;  248.125;    0.000
564.917; 5702.275;  214.125;    0.000
565.045; 5923.275;  253.125;    0.000
565.173; 5763.275;  225.125;    0.000
565.300; 5944.275;  261.125;    0.000
565.428; 5913.275;  218.125;    0.000
565.555; 5781.275;  245.125;    0.000
565.682; 6041.275;  242.125;    0.000
565.810; 6045.275;  228.125;    0.000
565.937; 6286.275;  230.125;    0.000
566.065; 6270.275;  251.125;    0.000
566.192; 6560.275;  196.125;    0.000
566.320; 6540.275;  217.125;    0.000
566.447; 6652.275;  224.125;    0.000
566.574; 6693.275;  221.125;    0.000
566.702; 6995.275;  221.125;    0.000
566.829; 6906.275;  252.125;    0.000
566.956; 6928.275;  214.125;    0.000
567.083; 7092.275;  204.125;    0.000
567.211; 7098.275;  216.125;    0.000
567.338; 7037.275;  228.125;    0.000
567.465; 7239.275;  208.125;    0.000
567.593; 7142.275;  205.125;    0.000
567.720; 7138.275;  194.125;    0.000
567.847; 7337.275;  268.125;    0.000
567.974; 7230.275;  198.125;    0.000
568.101; 7593.275;  224.125;    0.000
568.228; 8301.275;  236.125;    0.000
568.356; 8405.275;  207.125;    0.000
568.483; 8278.275;  220.125;    0.000
568.610; 7995.275;  181.125;    0.000
568.737; 9000.275;  216.125;    0.000
568.864; 9828.275;  258.125;    0.000
568.991; 9430.275;  203.125;    0.000
569.118; 8381.275;  232.125;    0.000
569.245; 7773.275;  192.125;    0.000
569.372; 7506.275;  226.125;    0.000
569.499; 6988.275;  211.125;    0.000
569.626; 6841.275;  247.125;    0.000
569.753; 6622.275;  248.125;    0.000
569.880; 6540.275;  226.125;    0.000
570.007; 6327.275;  215.125;    0.000
570.134; 6258.275;  205.125;    0.000
570.261; 6212.275;  187.125;    0.000
570.388; 6131.275;  258.125;    0.000
570.515; 5980.275;  241.125;    0.000
570.642; 5989.275;  211.125;    0.000
570.768; 5819.275;  228.125;    0.000
570.895; 5864.275;  229.125;    0.000
571.022; 5991.275;  203.125;    0.000
571.149; 5644.275;  206.125;    0.000
571.276; 5656.275;  191.125;    0.000
571.402; 5605.275;  218.125;    0.000
571.529; 5562.275;  192.125;    0.000
571.656; 5509.275;  209.125;    0.000
571.783; 5502.275;  181.125;    0.000
571.909; 5422.275;  251.125;    0.000
572.036; 5346.275;  225.125;    0.000
572.163; 5351.275;  214.125;    0.000
572.289; 5270.275;  252.125;    0.000
572.416; 5255.275;  220.125;    0.000
572.543; 5279.275;  225.125;    0.000
572.669; 5187.275;  226.125;    0.000
572.796; 5101.275;  231.125;    0.000
572.922; 5235.275;  258.125;    0.000
573.049; 5175.275;  202.125;    0.000
573.176; 5123.275;  254.125;    0.000
573.302; 5169.275;  215.125;    0.000
573.429; 5194.275;  251.125;    0.000
573.555; 5059.275;  221.125;    0.000
573.682; 5131.275;  227.125;    0.000
573.808; 4937.275;  259.125;    0.000
573.935; 5012.275;  233.125;    0.000
574.061; 5107.275;  241.125;    0.000
574.188; 4997.275;  238.125;    0.000
574.314; 5041.275;  221.125;    0.000
574.440; 5022.275;  221.125;    0.000
574.567; 4988.275;  216.125;    0.000
574.693; 4935.275;  224.125;    0.000
574.820; 5028.275;  199.125;    0.000
574.946; 4986.275;  248.125;    0.000
575.072; 4955.275;  220.125;    0.000
575.198; 5006.275;  262.125;    0.000
575.325; 4959.275;  232.125;    0.000
575.451; 4910.275;  225.125;    0.000
575.577; 5053.275;  216.125;    0.000
575.704; 4967.275;  248.125;    0.000
575.830; 4971.275;  227.125;    0.000
575.956; 4989.275;  206.125;    0.000
576.082; 4905.275;  222.125;    0.000
576.208; 4878.275;  206.125;    0.000
576.335; 4963.275;  256.125;    0.000
576.461; 4933.275;  247.125;    0.000
576.587; 4940.275;  219.125;    0.000
576.713; 5008.275;  215.125;    0.000
576.839; 4871.275;  225.125;    0.000
576.965; 5015.275;  230.125;    0.000
577.091; 4930.275;  235.125;    0.000
577.217; 4946.275;  235.125;    0.000
577.343; 4826.275;  233.125;    0.000
577.469; 4897.275;  242.125;    0.000
577.596; 4853.275;  241.125;    0.000
577.722; 4865.275;  255.125;    0.000
577.848; 4971.275;  235.125;    0.000
577.974; 4873.275;  210.125;    0.000
578.099; 4958.275;  239.125;    0.000
578.225; 4918.275;  258.125;    0.000
578.351; 4820.275;  209.125;    0.000
578.477; 5051.275;  255.125;    0.000
578.603; 4950.275;  213.125;    0.000
578.729; 5015.275;  221.125;    0.000
578.855; 4889.275;  209.125;    0.000
578.981; 4978.275;  206.125;    0.000
579.107; 4977.275;  221.125;    0.000
579.232; 4951.275;  206.125;    0.000
579.358; 4953.275;  226.125;    0.000
579.484; 4848.275;  244.125;    0.000
579.610; 4929.275;  261.125;    0.000
579.735; 5028.275;  270.125;    0.000
579.861; 5033.275;  255.125;    0.000
579.987; 4954.275;  249.125;    0.000
580.113; 5002.275;  260.125;    0.000
580.238; 5124.275;  206.125;    0.000
580.364; 5064.275;  249.125;    0.000
580.490; 5128.275;  225.125;    0.000
580.615; 5049.275;  266.125;    0.000
580.741; 4975.275;  224.125;    0.000
580.867; 5076.275;  251.125;    0.000
580.992; 5246.275;  270.125;    0.000
581.118; 5130.275;  248.125;    0.000
581.243; 5142.275;  251.125;    0.000
581.369; 5287.275;  192.125;    0.000
581.494; 5136.275;  259.125;    0.000
581.620; 5161.275;  245.125;    0.000
581.745; 5379.275;  232.125;    0.000
581.871; 5245.275;  243.125;    0.000
581.996; 5289.275;  216.125;    0.000
582.122; 5432.275;  263.125;    0.000
582.247; 5294.275;  254.125;    0.000
582.373; 5445.275;  232.125;    0.000
582.498; 5358.275;  275.125;    0.000
582.624; 5538.275;  260.125;    0.000
582.749; 5412.275;  251.125;    0.000
582.874; 5473.275;  245.125;    0.000
583.000; 5558.275;  278.125;    0.000
583.125; 5509.275;  211.125;    0.000
583.250; 5737.275;  246.125;    0.000
583.376; 5730.275;  259.125;    0.000
583.501; 5644.275;  254.125;    0.000
583.626; 5799.275;  209.125;    0.000
583.751; 5892.275;  239.125;    0.000
583.877; 5898.275;  255.125;    0.000
584.002; 5989.275;  263.125;    0.000
584.127; 6010.275;  205.125;    0.000
584.252; 6037.275;  196.125;    0.000
584.377; 6128.275;  249.125;    0.000
584.503; 6235.275;  219.125;    0.000
584.628; 6242.275;  243.125;    0.000
584.753; 6515.275;  250.125;    0.000
584.878; 6364.275;  208.125;    0.000
585.003; 6652.275;  234.125;    0.000
585.128; 6787.275;  207.125;    0.000
585.253; 6845.275;  219.125;    0.000
585.378; 6919.275;  205.125;    0.000
585.503; 7070.275;  256.125;    0.000
585.628; 7100.275;  217.125;    0.000
585.753; 7395.275;  213.125;    0.000
585.878; 7522.275;  147.125;    0.000
586.003; 7703.275;  256.125;    0.000
586.128; 7751.275;  214.125;    0.000
586.253; 7818.275;  254.125;    0.000
586.378; 8229.275;  252.125;    0.000
586.503; 8577.275;  219.125;    0.000
586.628; 8953.275;  226.125;    0.000
586.753; 9073.275;  237.125;    0.000
586.878; 9481.275;  185.125;    0.000
587.003; 9852.275;  248.125;    0.000
587.127;10314.275;  237.125;    0.000
587.252;10762.275;  221.125;    0.000
587.377;11424.275;  244.125;    0.000
587.502;12020.275;  260.125;    0.000
587.627;12832.275;  232.125;    0.000
587.751;13569.275;  250.125;    0.000
587.876;14707.275;  234.125;    0.000
588.001;15714.275;  248.125;    0.000
588.125;17040.275;  236.125;    0.000
588.250;19050.275;  192.125;    0.000
588.375;21542.275;  265.125;    0.000
588.499;24647.275;  235.125;    0.000
588.624;29163.275;  212.125;    0.000
588.749;35300.273;  214.125;    0.000
588.873;39635.273;  236.125;    0.000
588.998;42831.273;  230.125;    0.000
589.122;45581.273;  231.125;    0.000
589.247;44413.273;  250.125;    0.000
589.372;41536.273;  247.125;    0.000
589.496;41423.273;  230.125;    0.000
589.621;43223.273;  237.125;    0.000
589.745;42166.273;  277.125;    0.000
589.870;36976.273;  283.125;    0.000
589.994;31180.275;  263.125;    0.000
590.118;27027.275;  239.125;    0.000
590.243;23177.275;  218.125;    0.000
590.367;20749.275;  226.125;    0.000
590.492;18930.275;  269.125;    0.000
590.616;17388.275;  205.125;    0.000
590.740;15925.275;  243.125;    0.000
590.865;14950.275;  281.125;    0.000
590.989;13790.275;  233.125;    0.000
591.114;13139.275;  222.125;    0.000
591.238;12464.275;  204.125;    0.000
591.362;11910.275;  283.125;    0.000
591.486;11453.275;  236.125;    0.000
591.611;11079.275;  228.125;    0.000
591.735;10615.275;  249.125;    0.000
591.859;10286.275;  202.125;    0.000
591.983; 9949.275;  257.125;    0.000
592.107; 9648.275;  230.125;    0.000
592.232; 9285.275;  266.125;    0.000
592.356; 9125.275;  232.125;    0.000
592.480; 8901.275;  245.125;    0.000
592.604; 8600.275;  254.125;    0.000
592.728; 8540.275;  233.125;    0.000
592.852; 8478.275;  213.125;    0.000
592.976; 8206.275;  234.125;    0.000
593.100; 8242.275;  246.125;    0.000
593.224; 8002.275;  305.125;    0.000
593.349; 7738.275;  240.125;    0.000
593.473; 7663.275;  206.125;    0.000
593.597; 7579.275;  243.125;    0.000
593.721; 7409.275;  247.125;    0.000
593.844; 7313.275;  230.125;    0.000
593.968; 7245.275;  226.125;    0.000
594.092; 7171.275;  193.125;    0.000
594.216; 6933.275;  237.125;    0.000
594.340; 7072.275;  235.125;    0.000
594.464; 6822.275;  225.125;    0.000
594.588; 6776.275;  269.125;    0.000
594.712; 6701.275;  242.125;    0.000
594.836; 6616.275;  240.125;    0.000
594.959; 6468.275;  255.125;    0.000
595.083; 6315.275;  258.125;    0.000
595.207; 6274.275;  264.125;    0.000
595.331; 6262.275;  215.125;    0.000
595.455; 6098.275;  234.125;    0.000
595.578; 6108.275;  215.125;    0.000
595.702; 6049.275;  259.125;    0.000
595.826; 5853.275;  232.125;    0.000
595.949; 5839.275;  251.125;    0.000
596.073; 5955.275;  197.125;    0.000
596.197; 5722.275;  239.125;    0.000
596.320; 5642.275;  229.125;    0.000
596.444; 5608.275;  264.125;    0.000
596.568; 5461.275;  207.125;    0.000
596.691; 5393.275;  234.125;    0.000
596.815; 5421.275;  241.125;    0.000
596.938; 5475.275;  244.125;    0.000
597.062; 5282.275;  210.125;    0.000
597.186; 5342.275;  247.125;    0.000
597.309; 5326.275;  215.125;    0.000
597.433; 5342.275;  266.125;    0.000
597.556; 5269.275;  234.125;    0.000
597.680; 5259.275;  261.125;    0.000
597.803; 5073.275;  239.125;    0.000
597.926; 5165.275;  251.125;    0.000
598.050; 5105.275;  227.125;    0.000
598.173; 5034.275;  247.125;    0.000
598.297; 4921.275;  244.125;    0.000
598.420; 5024.275;  243.125;    0.000
598.543; 4932.275;  237.125;    0.000
598.667; 4892.275;  239.125;    0.000
598.790; 5041.275;  217.125;    0.000
598.913; 4940.275;  244.125;    0.000
599.037; 4902.275;  249.125;    0.000
599.160; 4932.275;  222.125;    0.000
599.283; 4936.275;  235.125;    0.000
599.406; 4824.275;  228.125;    0.000
599.530; 4838.275;  234.125;    0.000
599.653; 4829.275;  228.125;    0.000
599.776; 4776.275;  263.125;    0.000
599.899; 4744.275;  197.125;    0.000
600.022; 4698.275;  224.125;    0.000
600.145; 4659.275;  211.125;    0.000
600.269; 4736.275;  246.125;    0.000
600.392; 4514.275;  233.125;    0.000
600.515; 4596.275;  266.125;    0.000
600.638; 4759.275;  246.125;    0.000
600.761; 4653.275;  213.125;    0.000
600.884; 4520.275;  279.125;    0.000
601.007; 4543.275;  268.125;    0.000
601.130; 4494.275;  203.125;    0.000
601.253; 4569.275;  241.125;    0.000
601.376; 4586.275;  248.125;    0.000
601.499; 4526.275;  241.125;    0.000
601.622; 4519.275;  266.125;    0.000
601.745; 4541.275;  237.125;    0.000
601.868; 4362.275;  256.125;    0.000
601.991; 4467.275;  260.125;    0.000
602.113; 4437.275;  246.125;    0.000
602.236; 4401.275;  243.125;    0.000
602.359; 4430.275;  220.125;    0.000
602.482; 4279.275;  236.125;    0.000
602.605; 4429.275;  216.125;    0.000
602.728; 4408.275;  247.125;    0.000
602.850; 4260.275;  255.125;    0.000
602.973; 4347.275;  224.125;    0.000
603.096; 4303.275;  258.125;    0.000
603.219; 4432.275;  222.125;    0.000
603.341; 4476.275;  235.125;    0.000
603.464; 4336.275;  223.125;    0.000
603.587; 4331.275;  250.125;    0.000
603.709; 4271.275;  229.125;    0.000
603.832; 4380.275;  285.125;    0.000
603.955; 4254.275;  225.125;    0.000
604.077; 4290.275;  235.125;    0.000
604.200; 4331.275;  209.125;    0.000
604.323; 4309.275;  240.125;    0.000
604.445; 4276.275;  198.125;    0.000
604.568; 4267.275;  230.125;    0.000
604.690; 4219.275;  225.125;    0.000
604.813; 4235.275;  248.125;    0.000
604.935; 4236.275;  204.125;    0.000
605.058; 4214.275;  191.125;    0.000
605.180; 4233.275;  237.125;    0.000
605.303; 4123.275;  224.125;    0.000
605.425; 4201.275;  244.125;    0.000
605.547; 4116.275;  268.125;    0.000
605.670; 4245.275;  211.125;    0.000
605.792; 4212.275;  266.125;    0.000
605.915; 4307.275;  202.125;    0.000
606.037; 4252.275;  236.125;    0.000
606.159; 4080.275;  234.125;    0.000
606.282; 4076.275;  223.125;    0.000
606.404; 4156.275;  217.125;    0.000
606.526; 4143.275;  221.125;    0.000
606.648; 4154.275;  204.125;    0.000
606.771; 4094.275;  265.125;    0.000
606.893; 4040.275;  211.125;    0.000
607.015; 4048.275;  206.125;    0.000
607.137; 4045.275;  222.125;    0.000
607.260; 4115.275;  228.125;    0.000
607.382; 4149.275;  202.125;    0.000
607.504; 4064.275;  257.125;    0.000
607.626; 4172.275;  249.125;    0.000
607.748; 4158.275;  233.125;    0.000
607.870; 4045.275;  222.125;    0.000
607.992; 4000.275;  227.125;    0.000
608.114; 4056.275;  228.125;    0.000
608.237; 4122.275;  254.125;    0.000
608.359; 3961.275;  216.125;    0.000
608.481; 4042.275;  197.125;    0.000
608.603; 3968.275;  209.125;    0.000
608.725; 3926.275;  220.125;    0.000
608.847; 3999.275;  259.125;    0.000
608.969; 4136.275;  242.125;    0.000
609.090; 3991.275;  218.125;    0.000
609.212; 4048.275;  200.125;    0.000
609.334; 4061.275;  212.125;    0.000
609.456; 4089.275;  231.125;    0.000
609.578; 3940.275;  249.125;    0.000
609.700; 3917.275;  185.125;    0.000
609.822; 3928.275;  200.125;    0.000
609.944; 3984.275;  236.125;    0.000
610.065; 3934.275;  255.125;    0.000
610.187; 3990.275;  208.125;    0.000
610.309; 4040.275;  202.125;    0.000
610.431; 3944.275;  232.125;    0.000
610.552; 3958.275;  232.125;    0.000
610.674; 3951.275;  217.125;    0.000
610.796; 4009.275;  186.125;    0.000
610.918; 3984.275;  211.125;    0.000
611.039; 3862.275;  244.125;    0.000
611.161; 3993.275;  202.125;    0.000
611.282; 3897.275;  212.125;    0.000
611.404; 3972.275;  235.125;    0.000
611.526; 3906.275;  213.125;    0.000
611.647; 3919.275;  248.125;    0.000
611.769; 3914.275;  205.125;    0.000
611.890; 3948.275;  224.125;    0.000
612.012; 3954.275;  189.125;    0.000
612.133; 3869.275;  186.125;    0.000
612.255; 3939.275;  246.125;    0.000
612.377; 3903.275;  230.125;    0.000
612.498; 3830.275;  196.125;    0.000
612.619; 3991.275;  234.125;    0.000
612.741; 3908.275;  221.125;    0.000
612.862; 3881.275;  227.125;    0.000
612.984; 3859.275;  189.125;    0.000
613.105; 3897.275;  232.125;    0.000
613.226; 3939.275;  199.125;    0.000
613.348; 3916.275;  260.125;    0.000
613.469; 3906.275;  217.125;    0.000
613.590; 3873.275;  236.125;    0.000
613.712; 3878.275;  226.125;    0.000
613.833; 3887.275;  231.125;    0.000
613.954; 3734.275;  236.125;    0.000
614.076; 3921.275;  236.125;    0.000
614.197; 3808.275;  228.125;    0.000
614.318; 3849.275;  207.125;    0.000
614.439; 3805.275;  237.125;    0.000
614.560; 3885.275;  202.125;    0.000
614.682; 3862.275;  230.125;    0.000
614.803; 3816.275;  236.125;    0.000
614.924; 3928.275;  257.125;    0.000
615.045; 3838.275;  228.125;    0.000
615.166; 3944.275;  221.125;    0.000
615.287; 4131.275;  199.125;    0.000
615.408; 4448.275;  228.125;    0.000
615.529; 4580.275;  200.125;    0.000
615.650; 4471.275;  224.125;    0.000
615.771; 4174.275;  202.125;    0.000
615.892; 4189.275;  215.125;    0.000
616.013; 4948.275;  246.125;    0.000
616.134; 5300.275;  210.125;    0.000
616.255; 5029.275;  232.125;    0.000
616.376; 4497.275;  241.125;    0.000
616.497; 4330.275;  213.125;    0.000
616.618; 4192.275;  171.125;    0.000
616.739; 4188.275;  221.125;    0.000
616.860; 4072.275;  244.125;    0.000
616.981; 4008.275;  240.125;    0.000
617.102; 3931.275;  234.125;    0.000
617.222; 4102.275;  265.125;    0.000
617.343; 3984.275;  206.125;    0.000
617.464; 4018.275;  246.125;    0.000
617.585; 3822.275;  256.125;    0.000
617.705; 3919.275;  249.125;    0.000
617.826; 3867.275;  218.125;    0.000
617.947; 3864.275;  225.125;    0.000
618.068; 3877.275;  199.125;    0.000
618.188; 3867.275;  202.125;    0.000
618.309; 3867.275;  220.125;    0.000
618.430; 3849.275;  229.125;    0.000
618.550; 3918.275;  252.125;    0.000
618.671; 3780.275;  233.125;    0.000
618.791; 3865.275;  227.125;    0.000
618.912; 3699.275;  236.125;    0.000
619.033; 3770.275;  220.125;    0.000
619.153; 3757.275;  228.125;    0.000
619.274; 3770.275;  208.125;    0.000
619.394; 3758.275;  255.125;    0.000
619.515; 3689.275;  206.125;    0.000
619.635; 3751.275;  204.125;    0.000
619.756; 3776.275;  252.125;    0.000
619.876; 3741.275;  238.125;    0.000
619.996; 3779.275;  249.125;    0.000
620.117; 3666.275;  223.125;    0.000
620.237; 3759.275;  210.125;    0.000
620.358; 3860.275;  264.125;    0.000
620.478; 3682.275;  263.125;    0.000
620.598; 3729.275;  238.125;    0.000
620.719; 3697.275;  225.125;    0.000
620.839; 3723.275;  259.125;    0.000
620.959; 3628.275;  218.125;    0.000
621.079; 3651.275;  253.125;    0.000
621.200; 3654.275;  245.125;    0.000
621.320; 3712.275;  254.125;    0.000
621.440; 3663.275;  233.125;    0.000
621.560; 3654.275;  235.125;    0.000
621.681; 3633.275;  234.125;    0.000
621.801; 3723.275;  240.125;    0.000
621.921; 3594.275;  239.125;    0.000
622.041; 3691.275;  288.125;    0.000
622.161; 3675.275;  229.125;    0.000
622.281; 3602.275;  223.125;    0.000
622.401; 3661.275;  240.125;    0.000
622.521; 3687.275;  267.125;    0.000
622.641; 3623.275;  226.125;    0.000
622.761; 3637.275;  252.125;    0.000
622.882; 3629.275;  207.125;    0.000
623.002; 3660.275;  226.125;    0.000
623.121; 3595.275;  207.125;    0.000
623.241; 3497.275;  215.125;    0.000
623.361; 3642.275;  222.125;    0.000
623.481; 3538.275;  187.125;    0.000
623.601; 3534.275;  283.125;    0.000
623.721; 3685.275;  283.125;    0.000
623.841; 3638.275;  233.125;    0.000
623.961; 3587.275;  215.125;    0.000
624.081; 3439.275;  219.125;    0.000
624.201; 3467.275;  221.125;    0.000
624.320; 3534.275;  215.125;    0.000
624.440; 3487.275;  222.125;    0.000
624.560; 3631.275;  231.125;    0.000
624.680; 3441.275;  225.125;    0.000
624.799; 3519.275;  230.125;    0.000
624.919; 3447.275;  243.125;    0.000
625.039; 3497.275;  203.125;    0.000
625.159; 3475.275;  257.125;    0.000
625.278; 3446.275;  230.125;    0.000
625.398; 3479.275;  195.125;    0.000
625.518; 3437.275;  211.125;    0.000
625.637; 3544.275;  267.125;    0.000
625.757; 3477.275;  228.125;    0.000
625.876; 3479.275;  231.125;    0.000
625.996; 3533.275;  219.125;    0.000
626.115; 3534.275;  235.125;    0.000
626.235; 3504.275;  199.125;    0.000
626.354; 3416.275;  226.125;    0.000
626.474; 3467.275;  225.125;    0.000
626.594; 3514.275;  223.125;    0.000
626.713; 3469.275;  231.125;    0.000
626.832; 3486.275;  287.125;    0.000
626.952; 3386.275;  251.125;    0.000
627.071; 3387.275;  254.125;    0.000
627.191; 3535.275;  193.125;    0.000
627.310; 3380.275;  213.125;    0.000
627.429; 3583.275;  259.125;    0.000
627.549; 3459.275;  243.125;    0.000
627.668; 3451.275;  181.125;    0.000
627.787; 3455.275;  232.125;    0.000
627.907; 3374.275;  222.125;    0.000
628.026; 3417.275;  219.125;    0.000
628.145; 3353.275;  201.125;    0.000
628.264; 3445.275;  198.125;    0.000
628.384; 3269.275;  208.125;    0.000
628.503; 3429.275;  251.125;    0.000
628.622; 3434.275;  195.125;    0.000
628.741; 3528.275;  180.125;    0.000
628.860; 3492.275;  235.125;    0.000
628.980; 3458.275;  222.125;    0.000
629.099; 3494.275;  237.125;    0.000
629.218; 3449.275;  175.125;    0.000
629.337; 3370.275;  194.125;    0.000
629.456; 3466.275;  225.125;    0.000
629.575; 3387.275;  239.125;    0.000
629.694; 3365.275;  230.125;    0.000
629.813; 3458.275;  197.125;    0.000
629.932; 3365.275;  225.125;    0.000
630.051; 3411.275;  238.125;    0.000
630.170; 3387.275;  233.125;    0.000
630.289; 3372.275;  231.125;    0.000
630.408; 3343.275;  204.125;    0.000
630.527; 3390.275;  262.125;    0.000
630.646; 3285.275;  181.125;    0.000
630.764; 3293.275;  218.125;    0.000
630.883; 3348.275;  215.125;    0.000
631.002; 3323.275;  224.125;    0.000
631.121; 3339.275;  209.125;    0.000
631.240; 3352.275;  230.125;    0.000
631.359; 3426.275;  235.125;    0.000
631.477; 3342.275;  223.125;    0.000
631.596; 3403.275;  218.125;    0.000
631.715; 3425.275;  234.125;    0.000
631.834; 3374.275;  215.125;    0.000
631.952; 3395.275;  243.125;    0.000
632.071; 3295.275;  219.125;    0.000
632.190; 3313.275;  235.125;    0.000
632.308; 3320.275;  239.125;    0.000
632.427; 3303.275;  211.125;    0.000
632.546; 3249.275;  233.125;    0.000
632.664; 3233.275;  219.125;    0.000
632.783; 3270.275;  203.125;    0.000
632.901; 3374.275;  221.125;    0.000
633.020; 3271.275;  197.125;    0.000
633.138; 3266.275;  244.125;    0.000
633.257; 3214.275;  205.125;    0.000
633.375; 3309.275;  245.125;    0.000
633.494; 3153.275;  218.125;    0.000
633.612; 3353.275;  222.125;    0.000
633.731; 3237.275;  212.125;    0.000
633.849; 3231.275;  218.125;    0.000
633.968; 3350.275;  236.125;    0.000
634.086; 3234.275;  233.125;    0.000
634.204; 3260.275;  215.125;    0.000
634.323; 3344.275;  230.125;    0.000
634.441; 3259.275;  235.125;    0.000
634.559; 3247.275;  202.125;    0.000
634.678; 3305.275;  218.125;    0.000
634.796; 3216.275;  203.125;    0.000
634.914; 3176.275;  227.125;    0.000
635.032; 3279.275;  279.125;    0.000
635.151; 3195.275;  221.125;    0.000
635.269; 3278.275;  207.125;    0.000
635.387; 3270.275;  195.125;    0.000
635.505; 3204.275;  243.125;    0.000
635.623; 3213.275;  269.125;    0.000
635.742; 3251.275;  232.125;    0.000
635.860; 3171.275;  243.125;    0.000
635.978; 3245.275;  215.125;    0.000
636.096; 3232.275;  225.125;    0.000
636.214; 3264.275;  244.125;    0.000
636.332; 3147.275;  226.125;    0.000
636.450; 3165.275;  227.125;    0.000
636.568; 3192.275;  225.125;    0.000
636.686; 3204.275;  194.125;    0.000
636.804; 3132.275;  234.125;    0.000
636.922; 3153.275;  177.125;    0.000
637.040; 3246.275;  225.125;    0.000
637.158; 3228.275;  194.125;    0.000
637.276; 3230.275;  219.125;    0.000
637.394; 3196.275;  219.125;    0.000
637.512; 3168.275;  210.125;    0.000
637.629; 3165.275;  242.125;    0.000
637.747; 3300.275;  193.125;    0.000
637.865; 3169.275;  219.125;    0.000
637.983; 3134.275;  251.125;    0.000
638.101; 3176.275;  221.125;    0.000
638.218; 3196.275;  193.125;    0.000
638.336; 3246.275;  224.125;    0.000
638.454; 3236.275;  227.125;    0.000
638.572; 3155.275;  245.125;    0.000
638.689; 3216.275;  222.125;    0.000
638.807; 3152.275;  244.125;    0.000
638.925; 3245.275;  238.125;    0.000
639.042; 3114.275;  213.125;    0.000
639.160; 3171.275;  186.125;    0.000
639.278; 3100.275;  203.125;    0.000
639.395; 3118.275;  270.125;    0.000
639.513; 3162.275;  227.125;    0.000
639.630; 3217.275;  200.125;    0.000
639.748; 3131.275;  199.125;    0.000
639.865; 3168.275;  233.125;    0.000
639.983; 3169.275;  181.125;    0.000
640.100; 3119.275;  219.125;    0.000
640.218; 3224.275;  234.125;    0.000
640.335; 3103.275;  233.125;    0.000
640.453; 3110.275;  202.125;    0.000
640.570; 3096.275;  214.125;    0.000
640.688; 3119.275;  215.125;    0.000
640.805; 3098.275;  229.125;    0.000
640.922; 3099.275;  244.125;    0.000
641.040; 3067.275;  233.125;    0.000
641.157; 3164.275;  199.125;    0.000
641.274; 3085.275;  205.125;    0.000
641.391; 3179.275;  244.125;    0.000
641.509; 3109.275;  184.125;    0.000
641.626; 3117.275;  244.125;    0.000
641.743; 3180.275;  221.125;    0.000
641.860; 3162.275;  206.125;    0.000
641.978; 3123.275;  272.125;    0.000
642.095; 3218.275;  218.125;    0.000
642.212; 3174.275;  208.125;    0.000
642.329; 3162.275;  218.125;    0.000
642.446; 3073.275;  197.125;    0.000
642.563; 3071.275;  214.125;    0.000
642.681; 3071.275;  203.125;    0.000
642.798; 3151.275;  236.125;    0.000
642.915; 3133.275;  191.125;    0.000
643.032; 3158.275;  226.125;    0.000
643.149; 3127.275;  231.125;    0.000
643.266; 3167.275;  213.125;    0.000
643.383; 3079.275;  240.125;    0.000
643.500; 3116.275;  185.125;    0.000
643.617; 3095.275;  229.125;    0.000
643.734; 3093.275;  205.125;    0.000
643.850; 3101.275;  222.125;    0.000
643.967; 3211.275;  202.125;    0.000
644.084; 3202.275;  264.125;    0.000
644.201; 3103.275;  214.125;    0.000
644.318; 3052.275;  206.125;    0.000
644.435; 3092.275;  225.125;    0.000
644.552; 3053.275;  203.125;    0.000
644.668; 3165.275;  252.125;    0.000
644.785; 3175.275;  213.125;    0.000
644.902; 3106.275;  233.125;    0.000
645.019; 3092.275;  220.125;    0.000
645.135; 3090.275;  225.125;    0.000
645.252; 3122.275;  218.125;    0.000
645.369; 3133.275;  214.125;    0.000
645.485; 3097.275;  210.125;    0.000
645.602; 3154.275;  198.125;    0.000
645.719; 3219.275;  228.125;    0.000
645.835; 3205.275;  209.125;    0.000
645.952; 3178.275;  213.125;    0.000
646.068; 3260.275;  241.125;    0.000
646.185; 3155.275;  219.125;    0.000
646.302; 3241.275;  246.125;    0.000
646.418; 3290.275;  228.125;    0.000
646.535; 3095.275;  256.125;    0.000
646.651; 3208.275;  222.125;    0.000
646.768; 3197.275;  203.125;    0.000
646.884; 3260.275;  199.125;    0.000
647.000; 3321.275;  194.125;    0.000
647.117; 3245.275;  214.125;    0.000
647.233; 3194.275;  209.125;    0.000
647.350; 3396.275;  235.125;    0.000
647.466; 3292.275;  237.125;    0.000
647.582; 3370.275;  231.125;    0.000
647.699; 3318.275;  219.125;    0.000
647.815; 3291.275;  200.125;    0.000
647.931; 3282.275;  173.125;    0.000
648.047; 3288.275;  184.125;    0.000
648.164; 3451.275;  199.125;    0.000
648.280; 3305.275;  209.125;    0.000
648.396; 3311.275;  220.125;    0.000
648.512; 3335.275;  212.125;    0.000
648.629; 3340.275;  214.125;    0.000
648.745; 3349.275;  197.125;    0.000
648.861; 3336.275;  228.125;    0.000
648.977; 3345.275;  238.125;    0.000
649.093; 3363.275;  208.125;    0.000
649.209; 3322.275;  179.125;    0.000
649.325; 3364.275;  256.125;    0.000
649.441; 3328.275;  224.125;    0.000
649.557; 3366.275;  247.125;    0.000
649.673; 3315.275;  214.125;    0.000
649.789; 3441.275;  213.125;    0.000
649.905; 3230.275;  170.125;    0.000
650.021; 3434.275;  236.125;    0.000
650.137; 3395.275;  229.125;    0.000
650.253; 3333.275;  207.125;    0.000
650.369; 3364.275;  198.125;    0.000
650.485; 3455.275;  225.125;    0.000
650.601; 3325.275;  260.125;    0.000
650.717; 3439.275;  196.125;    0.000
650.833; 3396.275;  219.125;    0.000
650.948; 3440.275;  203.125;    0.000
651.064; 3435.275;  232.125;    0.000
651.180; 3474.275;  252.125;    0.000
651.296; 3465.275;  190.125;    0.000
651.411; 3492.275;  235.125;    0.000
651.527; 3478.275;  227.125;    0.000
651.643; 3533.275;  238.125;    0.000
651.759; 3513.275;  260.125;    0.000
651.874; 3454.275;  217.125;    0.000
651.990; 3564.275;  239.125;    0.000
652.105; 3543.275;  215.125;    0.000
652.221; 3572.275;  237.125;    0.000
652.337; 3614.275;  238.125;    0.000
652.452; 3603.275;  230.125;    0.000
652.568; 3474.275;  201.125;    0.000
652.683; 3589.275;  243.125;    0.000
652.799; 3676.275;  218.125;    0.000
652.914; 3609.275;  189.125;    0.000
653.030; 3675.275;  191.125;    0.000
653.145; 3671.275;  240.125;    0.000
653.261; 3696.275;  225.125;    0.000
653.376; 3796.275;  241.125;    0.000
653.492; 3766.275;  188.125;    0.000
653.607; 3787.275;  219.125;    0.000
653.722; 3913.275;  268.125;    0.000
653.838; 3946.275;  262.125;    0.000
653.953; 3984.275;  188.125;    0.000
654.068; 4011.275;  244.125;    0.000
654.184; 3987.275;  247.125;    0.000
654.299; 4162.275;  228.125;    0.000
654.414; 4071.275;  181.125;    0.000
654.530; 4238.275;  210.125;    0.000
654.645; 4221.275;  240.125;    0.000
654.760; 4305.275;  219.125;    0.000
654.875; 4349.275;  178.125;    0.000
654.990; 4631.275;  222.125;    0.000
655.106; 4613.275;  227.125;    0.000
655.221; 4728.275;  270.125;    0.000
655.336; 4740.275;  199.125;    0.000
655.451; 4844.275;  235.125;    0.000
655.566; 5029.275;  251.125;    0.000
655.681; 5148.275;  253.125;    0.000
655.796; 5462.275;  207.125;    0.000
655.911; 5436.275;  213.125;    0.000
656.026; 5762.275;  247.125;    0.000
656.141; 5912.275;  209.125;    0.000
656.256; 6054.275;  226.125;    0.000
656.371; 5899.275;  201.125;    0.000
656.486; 5960.275;  196.125;    0.000
656.601; 6105.275;  239.125;    0.000
656.716; 5814.275;  234.125;    0.000
656.831; 5713.275;  223.125;    0.000
656.946; 5579.275;  246.125;    0.000
657.060; 5626.275;  230.125;    0.000
657.175; 5408.275;  207.125;    0.000
657.290; 5265.275;  213.125;    0.000
657.405; 5216.275;  319.125;    0.000
657.520; 5069.275;  241.125;    0.000
657.634; 4943.275;  235.125;    0.000
657.749; 4878.275;  275.125;    0.000
657.864; 4776.275;  210.125;    0.000
657.979; 4730.275;  227.125;    0.000
658.093; 4730.275;  206.125;    0.000
658.208; 4467.275;  217.125;    0.000
658.323; 4421.275;  227.125;    0.000
658.437; 4342.275;  217.125;    0.000
658.552; 4429.275;  237.125;    0.000
658.666; 4325.275;  233.125;    0.000
658.781; 4321.275;  248.125;    0.000
658.895; 4202.275;  233.125;    0.000
659.010; 4159.275;  238.125;    0.000
659.125; 4028.275;  206.125;    0.000
659.239; 4102.275;  220.125;    0.000
659.353; 4058.275;  236.125;    0.000
659.468; 4009.275;  238.125;    0.000
659.582; 3915.275;  275.125;    0.000
659.697; 4034.275;  239.125;    0.000
659.811; 3857.275;  232.125;    0.000
659.926; 3849.275;  230.125;    0.000
660.040; 3886.275;  257.125;    0.000
660.154; 3837.275;  221.125;    0.000
660.269; 3785.275;  219.125;    0.000
660.383; 3742.275;  228.125;    0.000
660.497; 3770.275;  243.125;    0.000
660.612; 3703.275;  238.125;    0.000
660.726; 3732.275;  260.125;    0.000
660.840; 3652.275;  239.125;    0.000
660.954; 3563.275;  236.125;    0.000
661.068; 3537.275;  239.125;    0.000
661.183; 3527.275;  245.125;    0.000
661.297; 3448.275;  198.125;    0.000
661.411; 3452.275;  203.125;    0.000
661.525; 3341.275;  244.125;    0.000
661.639; 3458.275;  229.125;    0.000
661.753; 3363.275;  238.125;    0.000
661.867; 3406.275;  237.125;    0.000
661.981; 3298.275;  219.125;    0.000
662.095; 3330.275;  232.125;    0.000
662.209; 3323.275;  236.125;    0.000
662.323; 3235.275;  209.125;    0.000
662.437; 3273.275;  206.125;    0.000
662.551; 3227.275;  217.125;    0.000
662.665; 3223.275;  262.125;    0.000
662.779; 3195.275;  234.125;    0.000
662.893; 3143.275;  222.125;    0.000
663.007; 3116.275;  189.125;    0.000
663.121; 2997.275;  258.125;    0.000
663.235; 3089.275;  191.125;    0.000
663.349; 3049.275;  259.125;    0.000
663.462; 3139.275;  209.125;    0.000
663.576; 3118.275;  244.125;    0.000
663.690; 3092.275;  237.125;    0.000
663.804; 3056.275;  205.125;    0.000
663.917; 2974.275;  207.125;    0.000
664.031; 2933.275;  234.125;    0.000
664.145; 3021.275;  216.125;    0.000
664.258; 2948.275;  202.125;    0.000
664.372; 2996.275;  198.125;    0.000
664.486; 2839.275;  181.125;    0.000
664.599; 2926.275;  229.125;    0.000
664.713; 2986.275;  266.125;    0.000
664.827; 2870.275;  185.125;    0.000
664.940; 2944.275;  225.125;    0.000
665.054; 2911.275;  198.125;    0.000
665.167; 2959.275;  208.125;    0.000
665.281; 2873.275;  231.125;    0.000
665.394; 2883.275;  228.125;    0.000
665.508; 2904.275;  204.125;    0.000
665.621; 2905.275;  263.125;    0.000
665.735; 2857.275;  222.125;    0.000
665.848; 2834.275;  237.125;    0.000
665.961; 2885.275;  180.125;    0.000
666.075; 2908.275;  212.125;    0.000
666.188; 2754.275;  229.125;    0.000
666.301; 2800.275;  247.125;    0.000
666.415; 2763.275;  212.125;    0.000
666.528; 2806.275;  268.125;    0.000
666.641; 2702.275;  210.125;    0.000
666.755; 2781.275;  178.125;    0.000
666.868; 2674.275;  227.125;    0.000
666.981; 2817.275;  250.125;    0.000
667.094; 2801.275;  228.125;    0.000
667.207; 2589.275;  235.125;    0.000
667.321; 2686.275;  171.125;    0.000
667.434; 2645.275;  191.125;    0.000
667.547; 2642.275;  279.125;    0.000
667.660; 2662.275;  210.125;    0.000
667.773; 2758.275;  217.125;    0.000
667.886; 2671.275;  209.125;    0.000
667.999; 2692.275;  239.125;    0.000
668.112; 2615.275;  227.125;    0.000
668.225; 2685.275;  185.125;    0.000
668.338; 2689.275;  222.125;    0.000
668.451; 2647.275;  200.125;    0.000
668.564; 2674.275;  237.125;    0.000
668.677; 2663.275;  207.125;    0.000
668.790; 2598.275;  208.125;    0.000
668.903; 2632.275;  243.125;    0.000
669.016; 2563.275;  190.125;    0.000
669.129; 2577.275;  234.125;    0.000
669.242; 2585.275;  185.125;    0.000
669.354; 2531.275;  224.125;    0.000
669.467; 2484.275;  219.125;    0.000
669.580; 2559.275;  249.125;    0.000
669.693; 2520.275;  187.125;    0.000
669.806; 2508.275;  206.125;    0.000
669.918; 2515.275;  192.125;    0.000
670.031; 2668.275;  235.125;    0.000
670.144; 2511.275;  238.125;    0.000
670.256; 2508.275;  237.125;    0.000
670.369; 2470.275;  237.125;    0.000
670.482; 2565.275;  250.125;    0.000
670.594; 2554.275;  273.125;    0.000
670.707; 2521.275;  223.125;    0.000
670.820; 2542.275;  238.125;    0.000
670.932; 2491.275;  224.125;    0.000
671.045; 2640.275;  219.125;    0.000
671.157; 2457.275;  242.125;    0.000
671.270; 2458.275;  235.125;    0.000
671.382; 2469.275;  213.125;    0.000
671.495; 2507.275;  254.125;    0.000
671.607; 2464.275;  253.125;    0.000
671.720; 2466.275;  169.125;    0.000
671.832; 2455.275;  201.125;    0.000
671.944; 2458.275;  250.125;    0.000
672.057; 2541.275;  187.125;    0.000
672.169; 2352.275;  224.125;    0.000
672.281; 2459.275;  238.125;    0.000
672.394; 2475.275;  250.125;    0.000
672.506; 2435.275;  227.125;    0.000
672.618; 2432.275;  223.125;    0.000
672.731; 2484.275;  210.125;    0.000
672.843; 2461.275;  245.125;    0.000
672.955; 2473.275;  263.125;    0.000
673.067; 2441.275;  239.125;    0.000
673.180; 2560.275;  253.125;    0.000
673.292; 2516.275;  243.125;    0.000
673.404; 2470.275;  226.125;    0.000
673.516; 2450.275;  223.125;    0.000
673.628; 2424.275;  223.125;    0.000
673.740; 2378.275;  216.125;    0.000
673.852; 2438.275;  277.125;    0.000
673.964; 2421.275;  211.125;    0.000
674.076; 2405.275;  241.125;    0.000
674.188; 2356.275;  251.125;    0.000
674.300; 2463.275;  268.125;    0.000
674.412; 2461.275;  260.125;    0.000
674.524; 2428.275;  257.125;    0.000
674.636; 2452.275;  222.125;    0.000
674.748; 2434.275;  227.125;    0.000
674.860; 2413.275;  250.125;    0.000
674.972; 2400.275;  240.125;    0.000
675.084; 2292.275;  262.125;    0.000
675.196; 2396.275;  287.125;    0.000
675.307; 2393.275;  257.125;    0.000
675.419; 2398.275;  231.125;    0.000
675.531; 2470.275;  274.125;    0.000
675.643; 2350.275;  235.125;    0.000
675.755; 2326.275;  275.125;    0.000
675.866; 2344.275;  238.125;    0.000
675.978; 2365.275;  209.125;    0.000
676.090; 2391.275;  239.125;    0.000
676.201; 2355.275;  249.125;    0.000
676.313; 2327.275;  237.125;    0.000
676.425; 2326.275;  263.125;    0.000
676.536; 2316.275;  178.125;    0.000
676.648; 2265.275;  245.125;    0.000
676.759; 2293.275;  244.125;    0.000
676.871; 2315.275;  242.125;    0.000
676.983; 2327.275;  245.125;    0.000
677.094; 2324.275;  209.125;    0.000
677.206; 2412.275;  248.125;    0.000
677.317; 2446.275;  260.125;    0.000
677.429; 2307.275;  237.125;    0.000
677.540; 2341.275;  226.125;    0.000
677.651; 2282.275;  226.125;    0.000
677.763; 2258.275;  194.125;    0.000
677.874; 2229.275;  230.125;    0.000
677.986; 2293.275;  202.125;    0.000
678.097; 2276.275;  229.125;    0.000
678.208; 2323.275;  263.125;    0.000
678.320; 2241.275;  243.125;    0.000
678.431; 2264.275;  229.125;    0.000
678.542; 2218.275;  231.125;    0.000
678.653; 2256.275;  224.125;    0.000
678.765; 2213.275;  255.125;    0.000
678.876; 2290.275;  175.125;    0.000
678.987; 2196.275;  204.125;    0.000
679.098; 2213.275;  227.125;    0.000
679.209; 2272.275;  228.125;    0.000
679.320; 2228.275;  223.125;    0.000
679.432; 2269.275;  219.125;    0.000
679.543; 2150.275;  210.125;    0.000
679.654; 2288.275;  249.125;    0.000
679.765; 2282.275;  222.125;    0.000
679.876; 2244.275;  219.125;    0.000
679.987; 2238.275;  213.125;    0.000
680.098; 2283.275;  237.125;    0.000
680.209; 2198.275;  188.125;    0.000
680.320; 2191.275;  243.125;    0.000
680.431; 2320.275;  227.125;    0.000
680.542; 2197.275;  212.125;    0.000
680.653; 2217.275;  266.125;    0.000
680.763; 2263.275;  198.125;    0.000
680.874; 2199.275;  211.125;    0.000
680.985; 2118.275;  207.125;    0.000
681.096; 2218.275;  244.125;    0.000
681.207; 2250.275;  209.125;    0.000
681.318; 2099.275;  215.125;    0.000
681.428; 2199.275;  199.125;    0.000
681.539; 2187.275;  175.125;    0.000
681.650; 2177.275;  224.125;    0.000
681.760; 2187.275;  216.125;    0.000
681.871; 2183.275;  187.125;    0.000
681.982; 2129.275;  237.125;    0.000
682.093; 2199.275;  213.125;    0.000
682.203; 2200.275;  190.125;    0.000
682.314; 2153.275;  230.125;    0.000
682.424; 2185.275;  223.125;    0.000
682.535; 2142.275;  172.125;    0.000
682.646; 2217.275;  268.125;    0.000
682.756; 2138.275;  249.125;    0.000
682.867; 2188.275;  225.125;    0.000
682.977; 2144.275;  211.125;    0.000
683.088; 2217.275;  238.125;    0.000
683.198; 2132.275;  202.125;    0.000
683.308; 2165.275;  196.125;    0.000
683.419; 2260.275;  230.125;    0.000
683.529; 2214.275;  213.125;    0.000
683.640; 2210.275;  225.125;    0.000
683.750; 2106.275;  203.125;    0.000
683.860; 2230.275;  200.125;    0.000
683.971; 2162.275;  269.125;    0.000
684.081; 2073.275;  204.125;    0.000
684.191; 2179.275;  228.125;    0.000
684.301; 2075.275;  219.125;    0.000
684.412; 2215.275;  222.125;    0.000
684.522; 2143.275;  242.125;    0.000
684.632; 2132.275;  234.125;    0.000
684.742; 2195.275;  240.125;    0.000
684.852; 2041.275;  229.125;    0.000
684.963; 2045.275;  237.125;    0.000
685.073; 2143.275;  205.125;    0.000
685.183; 2232.275;  241.125;    0.000
685.293; 2133.275;  202.125;    0.000
685.403; 2190.275;  232.125;    0.000
685.513; 2160.275;  244.125;    0.000
685.623; 2135.275;  224.125;    0.000
685.733; 2170.275;  236.125;    0.000
685.843; 2166.275;  235.125;    0.000
685.953; 2237.275;  216.125;    0.000
686.063; 2156.275;  214.125;    0.000
686.173; 2137.275;  198.125;    0.000
686.283; 2151.275;  250.125;    0.000
686.393; 2187.275;  227.125;    0.000
686.503; 2136.275;  244.125;    0.000
686.612; 2222.275;  247.125;    0.000
686.722; 2222.275;  265.125;    0.000
686.832; 2125.275;  213.125;    0.000
686.942; 2143.275;  241.125;    0.000
687.052; 2092.275;  238.125;    0.000
687.161; 2155.275;  233.125;    0.000
687.271; 2189.275;  232.125;    0.000
687.381; 2150.275;  220.125;    0.000
687.491; 2147.275;  206.125;    0.000
687.600; 2170.275;  283.125;    0.000
687.710; 2127.275;  212.125;    0.000
687.820; 2150.275;  226.125;    0.000
687.929; 2151.275;  202.125;    0.000
688.039; 2105.275;  225.125;    0.000
688.148; 2147.275;  235.125;    0.000
688.258; 2161.275;  224.125;    0.000
688.367; 2133.275;  239.125;    0.000
688.477; 2153.275;  193.125;    0.000
688.586; 2248.275;  226.125;    0.000
688.696; 2093.275;  185.125;    0.000
688.805; 2144.275;  190.125;    0.000
688.915; 2062.275;  209.125;    0.000
689.024; 2154.275;  214.125;    0.000
689.134; 2118.275;  205.125;    0.000
689.243; 2090.275;  190.125;    0.000
689.352; 2138.275;  233.125;    0.000
689.462; 2093.275;  196.125;    0.000
689.571; 2069.275;  227.125;    0.000
689.680; 2077.275;  206.125;    0.000
689.790; 2053.275;  193.125;    0.000
689.899; 2119.275;  204.125;    0.000
690.008; 2140.275;  228.125;    0.000
690.117; 2086.275;  207.125;    0.000
690.227; 2078.275;  231.125;    0.000
690.336; 2070.275;  222.125;    0.000
690.445; 2105.275;  198.125;    0.000
690.554; 2094.275;  202.125;    0.000
690.663; 2117.275;  217.125;    0.000
690.772; 2023.275;  213.125;    0.000
690.881; 2205.275;  225.125;    0.000
690.990; 2018.275;  217.125;    0.000
691.099; 2075.275;  205.125;    0.000
691.209; 2086.275;  220.125;    0.000
691.318; 2093.275;  216.125;    0.000
691.427; 2128.275;  188.125;    0.000
691.536; 2041.275;  224.125;    0.000
691.644; 2087.275;  212.125;    0.000
691.753; 2039.275;  216.125;    0.000
691.862; 2104.275;  250.125;    0.000
691.971; 2112.275;  210.125;    0.000
692.080; 2004.275;  232.125;    0.000
692.189; 1991.275;  218.125;    0.000
692.298; 2237.275;  220.125;    0.000
692.406; 2106.275;  261.125;    0.000
692.515; 2032.275;  253.125;    0.000
692.624; 2034.275;  224.125;    0.000
692.733; 2057.275;  209.125;    0.000
692.842; 2028.275;  214.125;    0.000
692.950; 2079.275;  206.125;    0.000
693.059; 2072.275;  180.125;    0.000
693.168; 2073.275;  220.125;    0.000
693.276; 2064.275;  196.125;    0.000
693.385; 2072.275;  203.125;    0.000
693.494; 2059.275;  263.125;    0.000
693.602; 2044.275;  222.125;    0.000
693.711; 1996.275;  178.125;    0.000
693.819; 2092.275;  230.125;    0.000
693.928; 2004.275;  187.125;    0.000
694.036; 2077.275;  219.125;    0.000
694.145; 2044.275;  223.125;    0.000
694.253; 2078.275;  241.125;    0.000
694.362; 2036.275;  229.125;    0.000
694.470; 2156.275;  223.125;    0.000
694.579; 2044.275;  195.125;    0.000
694.687; 2050.275;  257.125;    0.000
694.795; 2061.275;  230.125;    0.000
694.904; 2068.275;  196.125;    0.000
695.012; 2200.275;  247.125;    0.000
695.120; 2016.275;  215.125;    0.000
695.229; 2167.275;  244.125;    0.000
695.337; 2114.275;  197.125;    0.000
695.445; 2098.275;  270.125;    0.000
695.553; 2110.275;  241.125;    0.000
695.662; 2124.275;  249.125;    0.000
695.770; 2083.275;  244.125;    0.000
695.878; 2001.275;  236.125;    0.000
695.986; 2079.275;  253.125;    0.000
696.094; 2043.275;  242.125;    0.000
696.202; 1988.275;  174.125;    0.000
696.310; 2087.275;  230.125;    0.000
696.419; 2018.275;  218.125;    0.000
696.527; 2003.275;  226.125;    0.000
696.635; 2057.275;  217.125;    0.000
696.743; 2026.275;  221.125;    0.000
696.851; 2071.275;  259.125;    0.000
696.959; 2069.275;  245.125;    0.000
697.067; 2037.275;  235.125;    0.000
697.174; 2046.275;  238.125;    0.000
697.282; 2023.275;  208.125;    0.000
697.390; 2085.275;  265.125;    0.000
697.498; 1998.275;  202.125;    0.000
697.606; 2052.275;  219.125;    0.000
697.714; 2093.275;  245.125;    0.000
697.822; 2065.275;  222.125;    0.000
697.929; 2030.275;  194.125;    0.000
698.037; 2093.275;  223.125;    0.000
698.145; 2010.275;  213.125;    0.000
698.253; 2072.275;  234.125;    0.000
698.360; 2076.275;  211.125;    0.000
698.468; 2103.275;  241.125;    0.000
698.576; 2082.275;  249.125;    0.000
698.683; 2035.275;  268.125;    0.000
698.791; 1986.275;  223.125;    0.000
698.899; 2124.275;  251.125;    0.000
699.006; 2061.275;  216.125;    0.000
699.114; 2015.275;  256.125;    0.000
699.221; 2003.275;  226.125;    0.000
699.329; 2103.275;  255.125;    0.000
699.436; 1988.275;  213.125;    0.000
699.544; 2030.275;  258.125;    0.000
699.651; 2029.275;  214.125;    0.000
699.759; 2055.275;  229.125;    0.000
699.866; 2019.275;  239.125;    0.000
699.974; 1960.275;  224.125;    0.000
700.081; 2063.275;  227.125;    0.000
700.188; 2052.275;  267.125;    0.000
700.296; 2081.275;  222.125;    0.000
700.403; 2055.275;  225.125;    0.000
700.510; 2072.275;  248.125;    0.000
700.618; 2085.275;  223.125;    0.000
700.725; 2010.275;  243.125;    0.000
700.832; 1946.275;  239.125;    0.000
700.940; 2033.275;  284.125;    0.000
701.047; 2032.275;  216.125;    0.000
701.154; 2006.275;  249.125;    0.000
701.261; 1981.275;  229.125;    0.000
701.368; 2021.275;  247.125;    0.000
701.475; 1966.275;  208.125;    0.000
701.582; 1948.275;  262.125;    0.000
701.690; 1953.275;  224.125;    0.000
701.797; 2044.275;  294.125;    0.000
701.904; 2022.275;  303.125;    0.000
702.011; 2073.275;  278.125;    0.000
702.118; 2064.275;  279.125;    0.000
702.225; 2046.275;  342.125;    0.000
702.332; 2046.275;  281.125;    0.000
702.439; 2063.275;  313.125;    0.000
702.546; 2100.275;  295.125;    0.000
702.652; 2090.275;  293.125;    0.000
702.759; 1983.275;  333.125;    0.000
702.866; 2039.275;  272.125;    0.000
702.973; 2079.275;  310.125;    0.000
703.080; 2086.275;  313.125;    0.000
703.187; 2101.275;  316.125;    0.000
703.294; 2031.275;  328.125;    0.000
703.400; 1893.275;  312.125;    0.000
703.507;  523.275;  349.125;    0.000
703.614;  327.275;  298.125;    0.000
703.720;  286.275;  300.125;    0.000
703.827;  319.275;  346.125;    0.000
703.934;  306.275;  308.125;    0.000
704.040;  295.275;  300.125;    0.000
704.147;  301.275;  317.125;    0.000
704.254;  321.275;  350.125;    0.000
704.360;  303.275;  285.125;    0.000
704.467;  343.275;  334.125;    0.000
704.573;  339.275;  330.125;    0.000
704.680;  312.275;  312.125;    0.000
704.786;  340.275;  305.125;    0.000
704.893;  317.275;  330.125;    0.000
704.999;  323.275;  315.125;    0.000
705.106;  347.275;  327.125;    0.000

