
Integration time [ms]:   0.300
Averaging Nr. [scans]: 1
Smoothing Nr. [pixels]: 0
Data measured with spectrometer [name]: UV2
Wave   ;Sample   ;Dark     ;Reference
[nm]   ;[counts] ;[counts] ;[counts] 

353.533;  185.200;  178.050;    0.000
353.597;  223.200;  251.050;    0.000
353.660;  225.200;  213.050;    0.000
353.723;  168.200;  185.050;    0.000
353.786;  209.200;  191.050;    0.000
353.850;  220.200;  238.050;    0.000
353.913;  203.200;  181.050;    0.000
353.976;  244.200;  190.050;    0.000
354.039;  209.200;  184.050;    0.000
354.102;  236.200;  231.050;    0.000
354.166;  231.200;  188.050;    0.000
354.229;  239.200;  224.050;    0.000
354.292;  209.200;  186.050;    0.000
354.355;  176.200;  175.050;    0.000
354.418;  193.200;  191.050;    0.000
354.481;  175.200;  181.050;    0.000
354.545;  729.200;  193.050;    0.000
354.608;  790.200;  210.050;    0.000
354.671;  773.200;  183.050;    0.000
354.734;  758.200;  189.050;    0.000
354.797;  807.200;  168.050;    0.000
354.860;  822.200;  178.050;    0.000
354.923;  816.200;  236.050;    0.000
354.986;  840.200;  181.050;    0.000
355.050;  848.200;  168.050;    0.000
355.113;  875.200;  201.050;    0.000
355.176;  888.200;  206.050;    0.000
355.239;  903.200;  213.050;    0.000
355.302;  917.200;  198.050;    0.000
355.365;  959.200;  199.050;    0.000
355.428;  979.200;  200.050;    0.000
355.491; 1061.200;  232.050;    0.000
355.554;  913.200;  184.050;    0.000
355.617;  980.200;  214.050;    0.000
355.680;  947.200;  191.050;    0.000
355.743; 1029.200;  161.050;    0.000
355.806;  996.200;  153.050;    0.000
355.869; 1056.200;  221.050;    0.000
355.932; 1019.200;  152.050;    0.000
355.995; 1061.200;  195.050;    0.000
356.058; 1056.200;  172.050;    0.000
356.121; 1077.200;  186.050;    0.000
356.184; 1075.200;  196.050;    0.000
356.247; 1081.200;  183.050;    0.000
356.310; 1072.200;  159.050;    0.000
356.373; 1089.200;  183.050;    0.000
356.436; 1120.200;  176.050;    0.000
356.498; 1061.200;  191.050;    0.000
356.561; 1134.200;  145.050;    0.000
356.624; 1049.200;  187.050;    0.000
356.687; 1108.200;  181.050;    0.000
356.750; 1149.200;  227.050;    0.000
356.813; 1066.200;  147.050;    0.000
356.876; 1118.200;  184.050;    0.000
356.939; 1116.200;  141.050;    0.000
357.001; 1133.200;  188.050;    0.000
357.064; 1168.200;  173.050;    0.000
357.127; 1170.200;  159.050;    0.000
357.190; 1094.200;  185.050;    0.000
357.253; 1125.200;  180.050;    0.000
357.316; 1120.200;  199.050;    0.000
357.378; 1159.200;  196.050;    0.000
357.441; 1174.200;  175.050;    0.000
357.504; 1196.200;  164.050;    0.000
357.567; 1104.200;  145.050;    0.000
357.629; 1147.200;  205.050;    0.000
357.692; 1159.200;  175.050;    0.000
357.755; 1112.200;  205.050;    0.000
357.818; 1147.200;  141.050;    0.000
357.880; 1183.200;  170.050;    0.000
357.943; 1165.200;  152.050;    0.000
358.006; 1207.200;  145.050;    0.000
358.069; 1183.200;  164.050;    0.000
358.131; 1133.200;  148.050;    0.000
358.194; 1165.200;  122.050;    0.000
358.257; 1188.200;  147.050;    0.000
358.319; 1215.200;  156.050;    0.000
358.382; 1245.200;  193.050;    0.000
358.445; 1212.200;  155.050;    0.000
358.507; 1188.200;  160.050;    0.000
358.570; 1197.200;  159.050;    0.000
358.633; 1219.200;  163.050;    0.000
358.695; 1224.200;  174.050;    0.000
358.758; 1227.200;  127.050;    0.000
358.821; 1181.200;  165.050;    0.000
358.883; 1178.200;  145.050;    0.000
358.946; 1269.200;  127.050;    0.000
359.008; 1303.200;  180.050;    0.000
359.071; 1265.200;  173.050;    0.000
359.134; 1222.200;  150.050;    0.000
359.196; 1174.200;  158.050;    0.000
359.259; 1226.200;  159.050;    0.000
359.321; 1191.200;  159.050;    0.000
359.384; 1210.200;  182.050;    0.000
359.446; 1182.200;  140.050;    0.000
359.509; 1250.200;  146.050;    0.000
359.571; 1192.200;  133.050;    0.000
359.634; 1269.200;   93.050;    0.000
359.696; 1268.200;  142.050;    0.000
359.759; 1214.200;  161.050;    0.000
359.821; 1290.200;  110.050;    0.000
359.884; 1229.200;  114.050;    0.000
359.946; 1338.200;  180.050;    0.000
360.009; 1277.200;  158.050;    0.000
360.071; 1270.200;  116.050;    0.000
360.134; 1288.200;  170.050;    0.000
360.196; 1224.200;  128.050;    0.000
360.259; 1324.200;  157.050;    0.000
360.321; 1268.200;  122.050;    0.000
360.384; 1296.200;  119.050;    0.000
360.446; 1317.200;  122.050;    0.000
360.508; 1309.200;  195.050;    0.000
360.571; 1283.200;  128.050;    0.000
360.633; 1197.200;  172.050;    0.000
360.696; 1343.200;  115.050;    0.000
360.758; 1294.200;  162.050;    0.000
360.820; 1310.200;  149.050;    0.000
360.883; 1311.200;  151.050;    0.000
360.945; 1344.200;  149.050;    0.000
361.007; 1281.200;  135.050;    0.000
361.070; 1320.200;  162.050;    0.000
361.132; 1332.200;  198.050;    0.000
361.194; 1269.200;  141.050;    0.000
361.257; 1323.200;  154.050;    0.000
361.319; 1258.200;  147.050;    0.000
361.381; 1357.200;  154.050;    0.000
361.443; 1301.200;  144.050;    0.000
361.506; 1368.200;  164.050;    0.000
361.568; 1311.200;  148.050;    0.000
361.630; 1372.200;  127.050;    0.000
361.693; 1306.200;  158.050;    0.000
361.755; 1402.200;  161.050;    0.000
361.817; 1459.200;  173.050;    0.000
361.879; 1327.200;  159.050;    0.000
361.941; 1297.200;  153.050;    0.000
362.004; 1378.200;  148.050;    0.000
362.066; 1352.200;  150.050;    0.000
362.128; 1387.200;  132.050;    0.000
362.190; 1413.200;  207.050;    0.000
362.252; 1402.200;  142.050;    0.000
362.315; 1344.200;  153.050;    0.000
362.377; 1417.200;  164.050;    0.000
362.439; 1373.200;  155.050;    0.000
362.501; 1378.200;  157.050;    0.000
362.563; 1414.200;  188.050;    0.000
362.625; 1421.200;  194.050;    0.000
362.688; 1424.200;  159.050;    0.000
362.750; 1390.200;  205.050;    0.000
362.812; 1412.200;  148.050;    0.000
362.874; 1372.200;  173.050;    0.000
362.936; 1416.200;  152.050;    0.000
362.998; 1387.200;  145.050;    0.000
363.060; 1460.200;  184.050;    0.000
363.122; 1411.200;  147.050;    0.000
363.184; 1381.200;  136.050;    0.000
363.246; 1443.200;  171.050;    0.000
363.308; 1417.200;  154.050;    0.000
363.370; 1431.200;  175.050;    0.000
363.432; 1409.200;  139.050;    0.000
363.494; 1456.200;  163.050;    0.000
363.556; 1381.200;  117.050;    0.000
363.618; 1428.200;  126.050;    0.000
363.680; 1457.200;  147.050;    0.000
363.742; 1434.200;  161.050;    0.000
363.804; 1421.200;  159.050;    0.000
363.866; 1484.200;  170.050;    0.000
363.928; 1437.200;  122.050;    0.000
363.990; 1426.200;  167.050;    0.000
364.052; 1476.200;  180.050;    0.000
364.114; 1402.200;  119.050;    0.000
364.176; 1439.200;  184.050;    0.000
364.238; 1430.200;  180.050;    0.000
364.300; 1436.200;  159.050;    0.000
364.362; 1441.200;  163.050;    0.000
364.424; 1370.200;  139.050;    0.000
364.486; 1465.200;  189.050;    0.000
364.548; 1428.200;  167.050;    0.000
364.609; 1505.200;  165.050;    0.000
364.671; 1464.200;  171.050;    0.000
364.733; 1484.200;  165.050;    0.000
364.795; 1420.200;  122.050;    0.000
364.857; 1427.200;  147.050;    0.000
364.919; 1372.200;  104.050;    0.000
364.981; 1503.200;  143.050;    0.000
365.042; 1527.200;  166.050;    0.000
365.104; 1461.200;  162.050;    0.000
365.166; 1399.200;  155.050;    0.000
365.228; 1463.200;  179.050;    0.000
365.290; 1413.200;  133.050;    0.000
365.351; 1473.200;  142.050;    0.000
365.413; 1406.200;  144.050;    0.000
365.475; 1477.200;  139.050;    0.000
365.537; 1427.200;  181.050;    0.000
365.598; 1492.200;  166.050;    0.000
365.660; 1512.200;  130.050;    0.000
365.722; 1600.200;  177.050;    0.000
365.784; 1534.200;  149.050;    0.000
365.845; 1499.200;  156.050;    0.000
365.907; 1403.200;  122.050;    0.000
365.969; 1465.200;  140.050;    0.000
366.030; 1535.200;  156.050;    0.000
366.092; 1466.200;  140.050;    0.000
366.154; 1503.200;  169.050;    0.000
366.215; 1485.200;  170.050;    0.000
366.277; 1542.200;  143.050;    0.000
366.339; 1549.200;  139.050;    0.000
366.400; 1510.200;  139.050;    0.000
366.462; 1479.200;  140.050;    0.000
366.524; 1542.200;  150.050;    0.000
366.585; 1426.200;  163.050;    0.000
366.647; 1566.200;  193.050;    0.000
366.708; 1512.200;  135.050;    0.000
366.770; 1543.200;  165.050;    0.000
366.832; 1538.200;  168.050;    0.000
366.893; 1504.200;  157.050;    0.000
366.955; 1472.200;  132.050;    0.000
367.016; 1475.200;  127.050;    0.000
367.078; 1489.200;  146.050;    0.000
367.139; 1448.200;  129.050;    0.000
367.201; 1569.200;  148.050;    0.000
367.262; 1533.200;  165.050;    0.000
367.324; 1549.200;  171.050;    0.000
367.385; 1482.200;  118.050;    0.000
367.447; 1535.200;  144.050;    0.000
367.508; 1524.200;  135.050;    0.000
367.570; 1536.200;  160.050;    0.000
367.631; 1538.200;  157.050;    0.000
367.693; 1564.200;  168.050;    0.000
367.754; 1549.200;  139.050;    0.000
367.816; 1551.200;  141.050;    0.000
367.877; 1589.200;  195.050;    0.000
367.939; 1542.200;  166.050;    0.000
368.000; 1531.200;  127.050;    0.000
368.062; 1532.200;  143.050;    0.000
368.123; 1479.200;  156.050;    0.000
368.184; 1598.200;  179.050;    0.000
368.246; 1574.200;  168.050;    0.000
368.307; 1497.200;  203.050;    0.000
368.369; 1547.200;  149.050;    0.000
368.430; 1559.200;  121.050;    0.000
368.491; 1526.200;  131.050;    0.000
368.553; 1584.200;  161.050;    0.000
368.614; 1582.200;  157.050;    0.000
368.675; 1567.200;  152.050;    0.000
368.737; 1601.200;  168.050;    0.000
368.798; 1552.200;  147.050;    0.000
368.859; 1603.200;  174.050;    0.000
368.921; 1612.200;  168.050;    0.000
368.982; 1567.200;  151.050;    0.000
369.043; 1602.200;  169.050;    0.000
369.104; 1603.200;  149.050;    0.000
369.166; 1547.200;  178.050;    0.000
369.227; 1551.200;  149.050;    0.000
369.288; 1553.200;  131.050;    0.000
369.349; 1618.200;  128.050;    0.000
369.411; 1647.200;  198.050;    0.000
369.472; 1583.200;  156.050;    0.000
369.533; 1595.200;  142.050;    0.000
369.594; 1588.200;  125.050;    0.000
369.656; 1632.200;  153.050;    0.000
369.717; 1611.200;  124.050;    0.000
369.778; 1643.200;  163.050;    0.000
369.839; 1641.200;  130.050;    0.000
369.900; 1621.200;  170.050;    0.000
369.961; 1591.200;  142.050;    0.000
370.023; 1583.200;  197.050;    0.000
370.084; 1583.200;  151.050;    0.000
370.145; 1640.200;  128.050;    0.000
370.206; 1614.200;  152.050;    0.000
370.267; 1691.200;  154.050;    0.000
370.328; 1597.200;  154.050;    0.000
370.389; 1635.200;  173.050;    0.000
370.451; 1653.200;  191.050;    0.000
370.512; 1638.200;  155.050;    0.000
370.573; 1671.200;  134.050;    0.000
370.634; 1600.200;  160.050;    0.000
370.695; 1599.200;  124.050;    0.000
370.756; 1598.200;  169.050;    0.000
370.817; 1636.200;  169.050;    0.000
370.878; 1667.200;  200.050;    0.000
370.939; 1593.200;  157.050;    0.000
371.000; 1677.200;  131.050;    0.000
371.061; 1622.200;  136.050;    0.000
371.122; 1705.200;  176.050;    0.000
371.183; 1619.200;   81.050;    0.000
371.244; 1708.200;  156.050;    0.000
371.305; 1610.200;  131.050;    0.000
371.366; 1632.200;  161.050;    0.000
371.427; 1636.200;  127.050;    0.000
371.488; 1613.200;  184.050;    0.000
371.549; 1619.200;  159.050;    0.000
371.610; 1666.200;  147.050;    0.000
371.671; 1687.200;  132.050;    0.000
371.732; 1683.200;  163.050;    0.000
371.793; 1680.200;  179.050;    0.000
371.853; 1633.200;  179.050;    0.000
371.914; 1622.200;  149.050;    0.000
371.975; 1567.200;  117.050;    0.000
372.036; 1695.200;  141.050;    0.000
372.097; 1667.200;  101.050;    0.000
372.158; 1666.200;  115.050;    0.000
372.219; 1650.200;  174.050;    0.000
372.280; 1665.200;  134.050;    0.000
372.340; 1715.200;  180.050;    0.000
372.401; 1627.200;  166.050;    0.000
372.462; 1670.200;  171.050;    0.000
372.523; 1692.200;  132.050;    0.000
372.584; 1688.200;  182.050;    0.000
372.645; 1701.200;  149.050;    0.000
372.705; 1721.200;  182.050;    0.000
372.766; 1634.200;  145.050;    0.000
372.827; 1669.200;  161.050;    0.000
372.888; 1765.200;  156.050;    0.000
372.948; 1636.200;  158.050;    0.000
373.009; 1652.200;  178.050;    0.000
373.070; 1662.200;  166.050;    0.000
373.131; 1732.200;  154.050;    0.000
373.191; 1756.200;  193.050;    0.000
373.252; 1699.200;  148.050;    0.000
373.313; 1729.200;  152.050;    0.000
373.373; 1684.200;  156.050;    0.000
373.434; 1727.200;  166.050;    0.000
373.495; 1639.200;  152.050;    0.000
373.555; 1647.200;  145.050;    0.000
373.616; 1636.200;  141.050;    0.000
373.677; 1719.200;  169.050;    0.000
373.737; 1703.200;  166.050;    0.000
373.798; 1689.200;  151.050;    0.000
373.859; 1713.200;  170.050;    0.000
373.919; 1797.200;  206.050;    0.000
373.980; 1705.200;  140.050;    0.000
374.041; 1695.200;  148.050;    0.000
374.101; 1776.200;  165.050;    0.000
374.162; 1722.200;  166.050;    0.000
374.222; 1770.200;  156.050;    0.000
374.283; 1716.200;  161.050;    0.000
374.343; 1715.200;  185.050;    0.000
374.404; 1729.200;  148.050;    0.000
374.465; 1770.200;  162.050;    0.000
374.525; 1806.200;  177.050;    0.000
374.586; 1679.200;  164.050;    0.000
374.646; 1755.200;  180.050;    0.000
374.707; 1774.200;  203.050;    0.000
374.767; 1882.200;  148.050;    0.000
374.828; 1740.200;  142.050;    0.000
374.888; 1865.200;  187.050;    0.000
374.949; 1781.200;  137.050;    0.000
375.009; 1750.200;  155.050;    0.000
375.070; 1782.200;  165.050;    0.000
375.130; 1827.200;  168.050;    0.000
375.190; 1772.200;  157.050;    0.000
375.251; 1800.200;  206.050;    0.000
375.311; 1758.200;  141.050;    0.000
375.372; 1788.200;  144.050;    0.000
375.432; 1803.200;  153.050;    0.000
375.493; 1745.200;  168.050;    0.000
375.553; 1827.200;  146.050;    0.000
375.613; 1774.200;  142.050;    0.000
375.674; 1739.200;  153.050;    0.000
375.734; 1817.200;  166.050;    0.000
375.794; 1812.200;  145.050;    0.000
375.855; 1787.200;  162.050;    0.000
375.915; 1796.200;  162.050;    0.000
375.975; 1763.200;  144.050;    0.000
376.036; 1770.200;  128.050;    0.000
376.096; 1807.200;  122.050;    0.000
376.156; 1773.200;  140.050;    0.000
376.217; 1785.200;  158.050;    0.000
376.277; 1849.200;  163.050;    0.000
376.337; 1812.200;  139.050;    0.000
376.398; 1845.200;  176.050;    0.000
376.458; 1832.200;  143.050;    0.000
376.518; 1812.200;  136.050;    0.000
376.578; 1788.200;  177.050;    0.000
376.639; 1763.200;  163.050;    0.000
376.699; 1810.200;  183.050;    0.000
376.759; 1849.200;  169.050;    0.000
376.819; 1813.200;  147.050;    0.000
376.880; 1865.200;  188.050;    0.000
376.940; 1827.200;  185.050;    0.000
377.000; 1776.200;  131.050;    0.000
377.060; 1856.200;  182.050;    0.000
377.120; 1832.200;  165.050;    0.000
377.180; 1802.200;  169.050;    0.000
377.241; 1775.200;  146.050;    0.000
377.301; 1849.200;  183.050;    0.000
377.361; 1907.200;  124.050;    0.000
377.421; 1921.200;  186.050;    0.000
377.481; 1868.200;  178.050;    0.000
377.541; 1929.200;  140.050;    0.000
377.601; 1860.200;  175.050;    0.000
377.661; 1843.200;  169.050;    0.000
377.722; 1874.200;  144.050;    0.000
377.782; 1835.200;  182.050;    0.000
377.842; 1942.200;  161.050;    0.000
377.902; 1939.200;  151.050;    0.000
377.962; 1941.200;  134.050;    0.000
378.022; 1848.200;  153.050;    0.000
378.082; 1879.200;  178.050;    0.000
378.142; 1924.200;  118.050;    0.000
378.202; 1981.200;  153.050;    0.000
378.262; 1912.200;  166.050;    0.000
378.322; 1983.200;  174.050;    0.000
378.382; 1983.200;  148.050;    0.000
378.442; 1941.200;  190.050;    0.000
378.502; 1920.200;  136.050;    0.000
378.562; 1893.200;  130.050;    0.000
378.622; 2003.200;  188.050;    0.000
378.682; 1995.200;  163.050;    0.000
378.742; 1984.200;  150.050;    0.000
378.802; 1875.200;  127.050;    0.000
378.862; 2048.200;  186.050;    0.000
378.921; 2003.200;  203.050;    0.000
378.981; 1989.200;  177.050;    0.000
379.041; 1949.200;  134.050;    0.000
379.101; 1977.200;  167.050;    0.000
379.161; 2075.200;  130.050;    0.000
379.221; 2031.200;  169.050;    0.000
379.281; 2068.200;  162.050;    0.000
379.341; 2024.200;  134.050;    0.000
379.401; 2078.200;  151.050;    0.000
379.460; 2135.200;  190.050;    0.000
379.520; 2135.200;  158.050;    0.000
379.580; 2105.200;  162.050;    0.000
379.640; 2089.200;  146.050;    0.000
379.700; 2048.200;  167.050;    0.000
379.759; 2119.200;  194.050;    0.000
379.819; 2069.200;  176.050;    0.000
379.879; 2088.200;  140.050;    0.000
379.939; 2180.200;  184.050;    0.000
379.999; 2133.200;  165.050;    0.000
380.058; 2127.200;  194.050;    0.000
380.118; 2146.200;  137.050;    0.000
380.178; 2153.200;  139.050;    0.000
380.237; 2161.200;  139.050;    0.000
380.297; 2208.200;  160.050;    0.000
380.357; 2239.200;  194.050;    0.000
380.417; 2156.200;  174.050;    0.000
380.476; 2228.200;  153.050;    0.000
380.536; 2192.200;  169.050;    0.000
380.596; 2211.200;  159.050;    0.000
380.655; 2205.200;  178.050;    0.000
380.715; 2263.200;  196.050;    0.000
380.775; 2285.200;  202.050;    0.000
380.834; 2241.200;  186.050;    0.000
380.894; 2281.200;  167.050;    0.000
380.954; 2200.200;  150.050;    0.000
381.013; 2289.200;  187.050;    0.000
381.073; 2248.200;  114.050;    0.000
381.132; 2254.200;  176.050;    0.000
381.192; 2266.200;  197.050;    0.000
381.252; 2249.200;  172.050;    0.000
381.311; 2366.200;  155.050;    0.000
381.371; 2325.200;  172.050;    0.000
381.430; 2364.200;  143.050;    0.000
381.490; 2402.200;  136.050;    0.000
381.549; 2312.200;  131.050;    0.000
381.609; 2324.200;  203.050;    0.000
381.668; 2352.200;  135.050;    0.000
381.728; 2427.200;  163.050;    0.000
381.787; 2414.200;  195.050;    0.000
381.847; 2397.200;  185.050;    0.000
381.906; 2473.200;  187.050;    0.000
381.966; 2439.200;  153.050;    0.000
382.025; 2433.200;  175.050;    0.000
382.085; 2388.200;  195.050;    0.000
382.144; 2530.200;  210.050;    0.000
382.204; 2520.200;  201.050;    0.000
382.263; 2587.200;  178.050;    0.000
382.323; 2630.200;  151.050;    0.000
382.382; 2723.200;  147.050;    0.000
382.441; 2772.200;  144.050;    0.000
382.501; 2797.200;  156.050;    0.000
382.560; 2987.200;  160.050;    0.000
382.619; 2918.200;  173.050;    0.000
382.679; 3085.200;  167.050;    0.000
382.738; 3223.200;  189.050;    0.000
382.798; 3290.200;  181.050;    0.000
382.857; 3519.200;  161.050;    0.000
382.916; 3950.200;  162.050;    0.000
382.976; 3972.200;  169.050;    0.000
383.035; 3793.200;  174.050;    0.000
383.094; 4016.200;  178.050;    0.000
383.154; 4463.200;  188.050;    0.000
383.213; 4852.200;  162.050;    0.000
383.272; 4791.200;  144.050;    0.000
383.331; 4074.200;  144.050;    0.000
383.391; 3847.200;  198.050;    0.000
383.450; 3783.200;  185.050;    0.000
383.509; 3747.200;  132.050;    0.000
383.568; 3929.200;  171.050;    0.000
383.628; 3922.200;  171.050;    0.000
383.687; 4333.200;  172.050;    0.000
383.746; 4865.200;  144.050;    0.000
383.805; 5369.200;  177.050;    0.000
383.864; 5314.200;  145.050;    0.000
383.924; 4340.200;  203.050;    0.000
383.983; 3766.200;  153.050;    0.000
384.042; 3470.200;  171.050;    0.000
384.101; 3226.200;  186.050;    0.000
384.160; 3124.200;  132.050;    0.000
384.219; 2915.200;  157.050;    0.000
384.279; 2920.200;  166.050;    0.000
384.338; 2928.200;  141.050;    0.000
384.397; 2828.200;  142.050;    0.000
384.456; 2717.200;  155.050;    0.000
384.515; 2711.200;  158.050;    0.000
384.574; 2725.200;  208.050;    0.000
384.633; 2555.200;  158.050;    0.000
384.692; 2621.200;  162.050;    0.000
384.751; 2710.200;  179.050;    0.000
384.810; 2619.200;  150.050;    0.000
384.869; 2528.200;  147.050;    0.000
384.929; 2619.200;  132.050;    0.000
384.988; 2508.200;  166.050;    0.000
385.047; 2570.200;  161.050;    0.000
385.106; 2489.200;  180.050;    0.000
385.165; 2477.200;  123.050;    0.000
385.224; 2635.200;  153.050;    0.000
385.283; 2633.200;  158.050;    0.000
385.342; 2554.200;  184.050;    0.000
385.401; 2452.200;  191.050;    0.000
385.459; 2604.200;  143.050;    0.000
385.518; 2547.200;  152.050;    0.000
385.577; 2468.200;  134.050;    0.000
385.636; 2522.200;  187.050;    0.000
385.695; 2569.200;  141.050;    0.000
385.754; 2467.200;  143.050;    0.000
385.813; 2509.200;  145.050;    0.000
385.872; 2551.200;  116.050;    0.000
385.931; 2536.200;  147.050;    0.000
385.990; 2472.200;  170.050;    0.000
386.049; 2509.200;  189.050;    0.000
386.107; 2514.200;  122.050;    0.000
386.166; 2511.200;  155.050;    0.000
386.225; 2475.200;  173.050;    0.000
386.284; 2465.200;  138.050;    0.000
386.343; 2496.200;  216.050;    0.000
386.402; 2436.200;  162.050;    0.000
386.460; 2515.200;  131.050;    0.000
386.519; 2507.200;  122.050;    0.000
386.578; 2534.200;  140.050;    0.000
386.637; 2473.200;  169.050;    0.000
386.696; 2433.200;  176.050;    0.000
386.754; 2383.200;  127.050;    0.000
386.813; 2415.200;  138.050;    0.000
386.872; 2470.200;  135.050;    0.000
386.931; 2488.200;  170.050;    0.000
386.989; 2496.200;  167.050;    0.000
387.048; 2457.200;  131.050;    0.000
387.107; 2557.200;  176.050;    0.000
387.165; 2412.200;  139.050;    0.000
387.224; 2381.200;  150.050;    0.000
387.283; 2519.200;  169.050;    0.000
387.342; 2468.200;  191.050;    0.000
387.400; 2444.200;  131.050;    0.000
387.459; 2437.200;  139.050;    0.000
387.517; 2576.200;  214.050;    0.000
387.576; 2413.200;  146.050;    0.000
387.635; 2349.200;  161.050;    0.000
387.693; 2453.200;  197.050;    0.000
387.752; 2384.200;  159.050;    0.000
387.811; 2465.200;  144.050;    0.000
387.869; 2484.200;  172.050;    0.000
387.928; 2348.200;  160.050;    0.000
387.986; 2392.200;  192.050;    0.000
388.045; 2379.200;  121.050;    0.000
388.103; 2400.200;  129.050;    0.000
388.162; 2361.200;  169.050;    0.000
388.221; 2401.200;  171.050;    0.000
388.279; 2365.200;  135.050;    0.000
388.338; 2437.200;  222.050;    0.000
388.396; 2399.200;  168.050;    0.000
388.455; 2374.200;  178.050;    0.000
388.513; 2386.200;  151.050;    0.000
388.572; 2416.200;  147.050;    0.000
388.630; 2366.200;  158.050;    0.000
388.689; 2387.200;  163.050;    0.000
388.747; 2464.200;  180.050;    0.000
388.806; 2350.200;  119.050;    0.000
388.864; 2327.200;  159.050;    0.000
388.922; 2370.200;  152.050;    0.000
388.981; 2343.200;  125.050;    0.000
389.039; 2403.200;  151.050;    0.000
389.098; 2438.200;  151.050;    0.000
389.156; 2467.200;  175.050;    0.000
389.214; 2438.200;  133.050;    0.000
389.273; 2399.200;  142.050;    0.000
389.331; 2425.200;  179.050;    0.000
389.390; 2350.200;  179.050;    0.000
389.448; 2379.200;  159.050;    0.000
389.506; 2408.200;  140.050;    0.000
389.565; 2379.200;  160.050;    0.000
389.623; 2410.200;  181.050;    0.000
389.681; 2476.200;  181.050;    0.000
389.740; 2341.200;  187.050;    0.000
389.798; 2321.200;  163.050;    0.000
389.856; 2461.200;  185.050;    0.000
389.914; 2490.200;  170.050;    0.000
389.973; 2411.200;  150.050;    0.000
390.031; 2322.200;  149.050;    0.000
390.089; 2330.200;  191.050;    0.000
390.147; 2390.200;  126.050;    0.000
390.206; 2352.200;  174.050;    0.000
390.264; 2339.200;  164.050;    0.000
390.322; 2402.200;  150.050;    0.000
390.380; 2410.200;  137.050;    0.000
390.439; 2378.200;  176.050;    0.000
390.497; 2431.200;  188.050;    0.000
390.555; 2399.200;  143.050;    0.000
390.613; 2348.200;  174.050;    0.000
390.671; 2362.200;  208.050;    0.000
390.729; 2314.200;  135.050;    0.000
390.788; 2327.200;  169.050;    0.000
390.846; 2395.200;  173.050;    0.000
390.904; 2443.200;  176.050;    0.000
390.962; 2398.200;  179.050;    0.000
391.020; 2360.200;  201.050;    0.000
391.078; 2409.200;  192.050;    0.000
391.136; 2367.200;  170.050;    0.000
391.194; 2437.200;  163.050;    0.000
391.253; 2560.200;  203.050;    0.000
391.311; 2365.200;  170.050;    0.000
391.369; 2458.200;  191.050;    0.000
391.427; 2531.200;  226.050;    0.000
391.485; 2396.200;  181.050;    0.000
391.543; 2499.200;  177.050;    0.000
391.601; 2458.200;  150.050;    0.000
391.659; 2428.200;  201.050;    0.000
391.717; 2423.200;  166.050;    0.000
391.775; 2427.200;  200.050;    0.000
391.833; 2487.200;  180.050;    0.000
391.891; 2496.200;  172.050;    0.000
391.949; 2371.200;  174.050;    0.000
392.007; 2579.200;  194.050;    0.000
392.065; 2461.200;  161.050;    0.000
392.123; 2371.200;  159.050;    0.000
392.180; 2455.200;  193.050;    0.000
392.238; 2419.200;  188.050;    0.000
392.296; 2445.200;  206.050;    0.000
392.354; 2372.200;  170.050;    0.000
392.412; 2427.200;  207.050;    0.000
392.470; 2471.200;  168.050;    0.000
392.528; 2539.200;  185.050;    0.000
392.586; 2512.200;  154.050;    0.000
392.644; 2541.200;  190.050;    0.000
392.701; 2401.200;  195.050;    0.000
392.759; 2487.200;  229.050;    0.000
392.817; 2475.200;  176.050;    0.000
392.875; 2435.200;  198.050;    0.000
392.933; 2434.200;  174.050;    0.000
392.991; 2534.200;  237.050;    0.000
393.048; 2543.200;  212.050;    0.000
393.106; 2457.200;  191.050;    0.000
393.164; 2469.200;  136.050;    0.000
393.222; 2490.200;  164.050;    0.000
393.279; 2530.200;  208.050;    0.000
393.337; 2543.200;  203.050;    0.000
393.395; 2578.200;  191.050;    0.000
393.453; 2542.200;  153.050;    0.000
393.510; 2540.200;  171.050;    0.000
393.568; 2544.200;  203.050;    0.000
393.626; 2461.200;  169.050;    0.000
393.684; 2422.200;  201.050;    0.000
393.741; 2472.200;  172.050;    0.000
393.799; 2553.200;  149.050;    0.000
393.857; 2421.200;  151.050;    0.000
393.914; 2492.200;  192.050;    0.000
393.972; 2456.200;  176.050;    0.000
394.030; 2589.200;  165.050;    0.000
394.087; 2464.200;  192.050;    0.000
394.145; 2576.200;  183.050;    0.000
394.202; 2487.200;  161.050;    0.000
394.260; 2511.200;  135.050;    0.000
394.318; 2526.200;  188.050;    0.000
394.375; 2493.200;  163.050;    0.000
394.433; 2557.200;  151.050;    0.000
394.490; 2555.200;  190.050;    0.000
394.548; 2449.200;  157.050;    0.000
394.605; 2540.200;  205.050;    0.000
394.663; 2622.200;  173.050;    0.000
394.720; 2642.200;  171.050;    0.000
394.778; 2621.200;  190.050;    0.000
394.836; 2672.200;  134.050;    0.000
394.893; 2517.200;  142.050;    0.000
394.951; 2640.200;  192.050;    0.000
395.008; 2590.200;  149.050;    0.000
395.065; 2626.200;  194.050;    0.000
395.123; 2605.200;  160.050;    0.000
395.180; 2610.200;  178.050;    0.000
395.238; 2679.200;  191.050;    0.000
395.295; 2606.200;  160.050;    0.000
395.353; 2542.200;  162.050;    0.000
395.410; 2594.200;  165.050;    0.000
395.468; 2592.200;  190.050;    0.000
395.525; 2617.200;  173.050;    0.000
395.582; 2620.200;  161.050;    0.000
395.640; 2688.200;  200.050;    0.000
395.697; 2672.200;  198.050;    0.000
395.754; 2611.200;  136.050;    0.000
395.812; 2562.200;  172.050;    0.000
395.869; 2815.200;  172.050;    0.000
395.927; 2719.200;  145.050;    0.000
395.984; 2737.200;  220.050;    0.000
396.041; 2595.200;  137.050;    0.000
396.098; 2692.200;  161.050;    0.000
396.156; 2617.200;  159.050;    0.000
396.213; 2719.200;  200.050;    0.000
396.270; 2656.200;  209.050;    0.000
396.328; 2629.200;  162.050;    0.000
396.385; 2579.200;  186.050;    0.000
396.442; 2706.200;  177.050;    0.000
396.499; 2739.200;  183.050;    0.000
396.557; 2761.200;  182.050;    0.000
396.614; 2622.200;  186.050;    0.000
396.671; 2635.200;  144.050;    0.000
396.728; 2728.200;  176.050;    0.000
396.785; 2685.200;  169.050;    0.000
396.843; 2712.200;  134.050;    0.000
396.900; 2814.200;  184.050;    0.000
396.957; 2743.200;  197.050;    0.000
397.014; 2777.200;  187.050;    0.000
397.071; 2720.200;  186.050;    0.000
397.128; 2829.200;  200.050;    0.000
397.186; 2834.200;  175.050;    0.000
397.243; 2765.200;  154.050;    0.000
397.300; 2758.200;  191.050;    0.000
397.357; 2729.200;  238.050;    0.000
397.414; 2806.200;  161.050;    0.000
397.471; 2766.200;  135.050;    0.000
397.528; 2814.200;  158.050;    0.000
397.585; 2774.200;  159.050;    0.000
397.642; 2774.200;  180.050;    0.000
397.699; 2776.200;  170.050;    0.000
397.756; 2680.200;  175.050;    0.000
397.814; 2748.200;  182.050;    0.000
397.871; 2830.200;  173.050;    0.000
397.928; 2774.200;  173.050;    0.000
397.985; 2743.200;  176.050;    0.000
398.042; 2845.200;  189.050;    0.000
398.099; 2797.200;  160.050;    0.000
398.156; 2864.200;  218.050;    0.000
398.212; 2824.200;  194.050;    0.000
398.269; 2891.200;  199.050;    0.000
398.326; 2732.200;  188.050;    0.000
398.383; 2856.200;  187.050;    0.000
398.440; 2769.200;  174.050;    0.000
398.497; 2955.200;  214.050;    0.000
398.554; 2877.200;  181.050;    0.000
398.611; 2821.200;  195.050;    0.000
398.668; 2825.200;  145.050;    0.000
398.725; 2946.200;  178.050;    0.000
398.782; 3033.200;  210.050;    0.000
398.839; 3006.200;  216.050;    0.000
398.895; 2978.200;  189.050;    0.000
398.952; 3008.200;  206.050;    0.000
399.009; 2940.200;  142.050;    0.000
399.066; 2940.200;  192.050;    0.000
399.123; 2960.200;  181.050;    0.000
399.180; 3048.200;  200.050;    0.000
399.236; 3021.200;  156.050;    0.000
399.293; 3085.200;  194.050;    0.000
399.350; 3149.200;  167.050;    0.000
399.407; 3105.200;  192.050;    0.000
399.463; 3139.200;  161.050;    0.000
399.520; 3200.200;  149.050;    0.000
399.577; 3330.200;  156.050;    0.000
399.634; 3278.200;  195.050;    0.000
399.690; 3216.200;  163.050;    0.000
399.747; 3269.200;  192.050;    0.000
399.804; 3323.200;  212.050;    0.000
399.861; 3218.200;  203.050;    0.000
399.917; 3316.200;  221.050;    0.000
399.974; 3201.200;  221.050;    0.000
400.031; 3190.200;  195.050;    0.000
400.087; 3181.200;  159.050;    0.000
400.144; 3178.200;  201.050;    0.000
400.201; 3219.200;  206.050;    0.000
400.257; 3164.200;  168.050;    0.000
400.314; 3224.200;  183.050;    0.000
400.370; 2998.200;  209.050;    0.000
400.427; 3042.200;  192.050;    0.000
400.484; 3043.200;  150.050;    0.000
400.540; 3023.200;  213.050;    0.000
400.597; 3107.200;  161.050;    0.000
400.653; 3142.200;  170.050;    0.000
400.710; 3020.200;  173.050;    0.000
400.766; 3107.200;  204.050;    0.000
400.823; 3101.200;  194.050;    0.000
400.879; 3079.200;  188.050;    0.000
400.936; 2990.200;  172.050;    0.000
400.993; 3057.200;  154.050;    0.000
401.049; 3027.200;  157.050;    0.000
401.105; 3112.200;  214.050;    0.000
401.162; 3187.200;  195.050;    0.000
401.218; 3028.200;  195.050;    0.000
401.275; 3094.200;  182.050;    0.000
401.331; 3003.200;  188.050;    0.000
401.388; 3069.200;  194.050;    0.000
401.444; 3159.200;  175.050;    0.000
401.501; 2987.200;  169.050;    0.000
401.557; 3064.200;  176.050;    0.000
401.614; 2991.200;  153.050;    0.000
401.670; 3076.200;  178.050;    0.000
401.726; 3181.200;  179.050;    0.000
401.783; 3059.200;  198.050;    0.000
401.839; 3059.200;  179.050;    0.000
401.895; 3019.200;  154.050;    0.000
401.952; 3081.200;  138.050;    0.000
402.008; 3038.200;  135.050;    0.000
402.064; 3125.200;  154.050;    0.000
402.121; 3149.200;  199.050;    0.000
402.177; 3015.200;  126.050;    0.000
402.233; 3070.200;  190.050;    0.000
402.290; 3058.200;  175.050;    0.000
402.346; 3040.200;  200.050;    0.000
402.402; 2992.200;  191.050;    0.000
402.458; 3101.200;  172.050;    0.000
402.515; 3156.200;  186.050;    0.000
402.571; 3286.200;  189.050;    0.000
402.627; 3047.200;  151.050;    0.000
402.683; 3127.200;  187.050;    0.000
402.740; 3126.200;  147.050;    0.000
402.796; 3087.200;  176.050;    0.000
402.852; 3102.200;  200.050;    0.000
402.908; 3065.200;  201.050;    0.000
402.964; 3083.200;  153.050;    0.000
403.021; 3102.200;  165.050;    0.000
403.077; 3197.200;  195.050;    0.000
403.133; 3084.200;  139.050;    0.000
403.189; 3132.200;  166.050;    0.000
403.245; 3131.200;  194.050;    0.000
403.301; 3112.200;  210.050;    0.000
403.357; 3234.200;  187.050;    0.000
403.414; 3199.200;  195.050;    0.000
403.470; 3109.200;  150.050;    0.000
403.526; 3157.200;  158.050;    0.000
403.582; 3193.200;  184.050;    0.000
403.638; 3212.200;  171.050;    0.000
403.694; 3113.200;  197.050;    0.000
403.750; 3182.200;  196.050;    0.000
403.806; 3160.200;  192.050;    0.000
403.862; 3276.200;  169.050;    0.000
403.918; 3221.200;  199.050;    0.000
403.974; 3222.200;  156.050;    0.000
404.030; 3226.200;  193.050;    0.000
404.086; 3147.200;  161.050;    0.000
404.142; 3245.200;  172.050;    0.000
404.198; 3186.200;  195.050;    0.000
404.254; 3238.200;  167.050;    0.000
404.310; 3182.200;  156.050;    0.000
404.366; 3237.200;  144.050;    0.000
404.422; 3212.200;  161.050;    0.000
404.478; 3188.200;  179.050;    0.000
404.534; 3338.200;  163.050;    0.000
404.590; 3300.200;  183.050;    0.000
404.646; 3266.200;  155.050;    0.000
404.701; 3115.200;  142.050;    0.000
404.757; 3217.200;  175.050;    0.000
404.813; 3260.200;  153.050;    0.000
404.869; 3291.200;  199.050;    0.000
404.925; 3262.200;  153.050;    0.000
404.981; 3269.200;  174.050;    0.000
405.037; 3218.200;  185.050;    0.000
405.092; 3203.200;  166.050;    0.000
405.148; 3353.200;  161.050;    0.000
405.204; 3236.200;  170.050;    0.000
405.260; 3272.200;  154.050;    0.000
405.316; 3256.200;  128.050;    0.000
405.371; 3257.200;  142.050;    0.000
405.427; 3286.200;  196.050;    0.000
405.483; 3339.200;  172.050;    0.000
405.539; 3237.200;  182.050;    0.000
405.594; 3329.200;  153.050;    0.000
405.650; 3276.200;  124.050;    0.000
405.706; 3276.200;  189.050;    0.000
405.761; 3261.200;  165.050;    0.000
405.817; 3298.200;  152.050;    0.000
405.873; 3308.200;  174.050;    0.000
405.928; 3303.200;  167.050;    0.000
405.984; 3331.200;  210.050;    0.000
406.040; 3276.200;  160.050;    0.000
406.095; 3354.200;  163.050;    0.000
406.151; 3345.200;  208.050;    0.000
406.207; 3471.200;  177.050;    0.000
406.262; 3511.200;  176.050;    0.000
406.318; 3431.200;  157.050;    0.000
406.374; 3430.200;  141.050;    0.000
406.429; 3392.200;  189.050;    0.000
406.485; 3493.200;  190.050;    0.000
406.540; 3383.200;  155.050;    0.000
406.596; 3447.200;  182.050;    0.000
406.651; 3516.200;  200.050;    0.000
406.707; 3445.200;  130.050;    0.000
406.763; 3410.200;  174.050;    0.000
406.818; 3457.200;  151.050;    0.000
406.874; 3457.200;  122.050;    0.000
406.929; 3579.200;  153.050;    0.000
406.985; 3526.200;  198.050;    0.000
407.040; 3580.200;  174.050;    0.000
407.095; 3594.200;  161.050;    0.000
407.151; 3628.200;  184.050;    0.000
407.206; 3727.200;  188.050;    0.000
407.262; 3550.200;  180.050;    0.000
407.317; 3651.200;  186.050;    0.000
407.373; 3784.200;  200.050;    0.000
407.428; 3637.200;  211.050;    0.000
407.484; 3675.200;  193.050;    0.000
407.539; 3740.200;  167.050;    0.000
407.594; 3659.200;  178.050;    0.000
407.650; 3685.200;  171.050;    0.000
407.705; 3612.200;  153.050;    0.000
407.760; 3671.200;  196.050;    0.000
407.816; 3713.200;  205.050;    0.000
407.871; 3723.200;  232.050;    0.000
407.926; 3688.200;  215.050;    0.000
407.982; 3695.200;  154.050;    0.000
408.037; 3695.200;  217.050;    0.000
408.092; 3658.200;  190.050;    0.000
408.148; 3655.200;  181.050;    0.000
408.203; 3701.200;  203.050;    0.000
408.258; 3535.200;  154.050;    0.000
408.314; 3615.200;  198.050;    0.000
408.369; 3616.200;  156.050;    0.000
408.424; 3645.200;  216.050;    0.000
408.479; 3610.200;  191.050;    0.000
408.534; 3617.200;  200.050;    0.000
408.590; 3657.200;  182.050;    0.000
408.645; 3609.200;  141.050;    0.000
408.700; 3642.200;  209.050;    0.000
408.755; 3658.200;  205.050;    0.000
408.810; 3556.200;  171.050;    0.000
408.866; 3560.200;  200.050;    0.000
408.921; 3582.200;  188.050;    0.000
408.976; 3598.200;  156.050;    0.000
409.031; 3734.200;  164.050;    0.000
409.086; 3681.200;  155.050;    0.000
409.141; 3537.200;  205.050;    0.000
409.196; 3628.200;  173.050;    0.000
409.252; 3614.200;  179.050;    0.000
409.307; 3592.200;  131.050;    0.000
409.362; 3610.200;  173.050;    0.000
409.417; 3488.200;  120.050;    0.000
409.472; 3607.200;  198.050;    0.000
409.527; 3558.200;  153.050;    0.000
409.582; 3527.200;  177.050;    0.000
409.637; 3588.200;  184.050;    0.000
409.692; 3547.200;  203.050;    0.000
409.747; 3563.200;  158.050;    0.000
409.802; 3574.200;  212.050;    0.000
409.857; 3625.200;  192.050;    0.000
409.912; 3581.200;  179.050;    0.000
409.967; 3589.200;  177.050;    0.000
410.022; 3607.200;  204.050;    0.000
410.077; 3524.200;  175.050;    0.000
410.132; 3606.200;  207.050;    0.000
410.187; 3588.200;  169.050;    0.000
410.242; 3592.200;  186.050;    0.000
410.297; 3589.200;  185.050;    0.000
410.351; 3597.200;  191.050;    0.000
410.406; 3592.200;  215.050;    0.000
410.461; 3625.200;  190.050;    0.000
410.516; 3567.200;  172.050;    0.000
410.571; 3532.200;  190.050;    0.000
410.626; 3584.200;  189.050;    0.000
410.681; 3677.200;  191.050;    0.000
410.736; 3482.200;  166.050;    0.000
410.790; 3577.200;  179.050;    0.000
410.845; 3565.200;  196.050;    0.000
410.900; 3655.200;  168.050;    0.000
410.955; 3610.200;  173.050;    0.000
411.010; 3624.200;  162.050;    0.000
411.064; 3660.200;  205.050;    0.000
411.119; 3580.200;  203.050;    0.000
411.174; 3649.200;  207.050;    0.000
411.229; 3640.200;  218.050;    0.000
411.283; 3667.200;  218.050;    0.000
411.338; 3545.200;  180.050;    0.000
411.393; 3613.200;  191.050;    0.000
411.447; 3618.200;  207.050;    0.000
411.502; 3597.200;  204.050;    0.000
411.557; 3567.200;  208.050;    0.000
411.612; 3582.200;  191.050;    0.000
411.666; 3566.200;  233.050;    0.000
411.721; 3576.200;  193.050;    0.000
411.776; 3638.200;  195.050;    0.000
411.830; 3627.200;  229.050;    0.000
411.885; 3608.200;  181.050;    0.000
411.939; 3728.200;  214.050;    0.000
411.994; 3563.200;  140.050;    0.000
412.049; 3582.200;  205.050;    0.000
412.103; 3635.200;  232.050;    0.000
412.158; 3673.200;  228.050;    0.000
412.212; 3587.200;  204.050;    0.000
412.267; 3693.200;  203.050;    0.000
412.322; 3604.200;  212.050;    0.000
412.376; 3655.200;  195.050;    0.000
412.431; 3698.200;  197.050;    0.000
412.485; 3645.200;  235.050;    0.000
412.540; 3654.200;  197.050;    0.000
412.594; 3579.200;  199.050;    0.000
412.649; 3747.200;  195.050;    0.000
412.703; 3590.200;  214.050;    0.000
412.758; 3616.200;  213.050;    0.000
412.812; 3582.200;  154.050;    0.000
412.866; 3545.200;  159.050;    0.000
412.921; 3593.200;  207.050;    0.000
412.975; 3586.200;  194.050;    0.000
413.030; 3651.200;  214.050;    0.000
413.084; 3546.200;  174.050;    0.000
413.139; 3544.200;  211.050;    0.000
413.193; 3626.200;  223.050;    0.000
413.247; 3588.200;  198.050;    0.000
413.302; 3573.200;  184.050;    0.000
413.356; 3520.200;  194.050;    0.000
413.410; 3651.200;  219.050;    0.000
413.465; 3552.200;  209.050;    0.000
413.519; 3527.200;  178.050;    0.000
413.573; 3554.200;  189.050;    0.000
413.628; 3597.200;  184.050;    0.000
413.682; 3499.200;  189.050;    0.000
413.736; 3611.200;  196.050;    0.000
413.791; 3607.200;  208.050;    0.000
413.845; 3632.200;  206.050;    0.000
413.899; 3646.200;  193.050;    0.000
413.953; 3661.200;  176.050;    0.000
414.008; 3587.200;  163.050;    0.000
414.062; 3553.200;  195.050;    0.000
414.116; 3495.200;  176.050;    0.000
414.170; 3634.200;  218.050;    0.000
414.225; 3608.200;  183.050;    0.000
414.279; 3625.200;  191.050;    0.000
414.333; 3592.200;  215.050;    0.000
414.387; 3587.200;  187.050;    0.000
414.441; 3624.200;  182.050;    0.000
414.496; 3671.200;  205.050;    0.000
414.550; 3624.200;  203.050;    0.000
414.604; 3669.200;  223.050;    0.000
414.658; 3527.200;  159.050;    0.000
414.712; 3557.200;  194.050;    0.000
414.766; 3687.200;  232.050;    0.000
414.820; 3615.200;  235.050;    0.000
414.874; 3610.200;  169.050;    0.000
414.928; 3683.200;  207.050;    0.000
414.982; 3548.200;  174.050;    0.000
415.037; 3545.200;  173.050;    0.000
415.091; 3647.200;  219.050;    0.000
415.145; 3568.200;  174.050;    0.000
415.199; 3577.200;  207.050;    0.000
415.253; 3569.200;  228.050;    0.000
415.307; 3568.200;  182.050;    0.000
415.361; 3555.200;  219.050;    0.000
415.415; 3611.200;  218.050;    0.000
415.469; 3580.200;  233.050;    0.000
415.523; 3612.200;  203.050;    0.000
415.577; 3517.200;  186.050;    0.000
415.631; 3603.200;  215.050;    0.000
415.684; 3645.200;  212.050;    0.000
415.738; 3589.200;  206.050;    0.000
415.792; 3595.200;  219.050;    0.000
415.846; 3590.200;  208.050;    0.000
415.900; 3527.200;  203.050;    0.000
415.954; 3640.200;  237.050;    0.000
416.008; 3542.200;  242.050;    0.000
416.062; 3545.200;  197.050;    0.000
416.116; 3598.200;  189.050;    0.000
416.169; 3581.200;  199.050;    0.000
416.223; 3605.200;  230.050;    0.000
416.277; 3694.200;  226.050;    0.000
416.331; 3566.200;  254.050;    0.000
416.385; 3538.200;  204.050;    0.000
416.439; 3548.200;  201.050;    0.000
416.492; 3662.200;  238.050;    0.000
416.546; 3588.200;  234.050;    0.000
416.600; 3604.200;  244.050;    0.000
416.654; 3598.200;  233.050;    0.000
416.707; 3601.200;  214.050;    0.000
416.761; 3496.200;  214.050;    0.000
416.815; 3569.200;  192.050;    0.000
416.869; 3615.200;  225.050;    0.000
416.922; 3542.200;  214.050;    0.000
416.976; 3698.200;  206.050;    0.000
417.030; 3597.200;  226.050;    0.000
417.083; 3480.200;  207.050;    0.000
417.137; 3577.200;  236.050;    0.000
417.191; 3662.200;  208.050;    0.000
417.244; 3616.200;  260.050;    0.000
417.298; 3508.200;  222.050;    0.000
417.352; 3561.200;  191.050;    0.000
417.405; 3562.200;  229.050;    0.000
417.459; 3570.200;  249.050;    0.000
417.512; 3693.200;  259.050;    0.000
417.566; 3645.200;  220.050;    0.000
417.620; 3560.200;  229.050;    0.000
417.673; 3522.200;  190.050;    0.000
417.727; 3520.200;  204.050;    0.000
417.780; 3474.200;  223.050;    0.000
417.834; 3558.200;  213.050;    0.000
417.887; 3567.200;  238.050;    0.000
417.941; 3574.200;  244.050;    0.000
417.994; 3509.200;  247.050;    0.000
418.048; 3520.200;  225.050;    0.000
418.101; 3552.200;  210.050;    0.000
418.155; 3421.200;  224.050;    0.000
418.208; 3604.200;  229.050;    0.000
418.262; 3500.200;  255.050;    0.000
418.315; 3481.200;  248.050;    0.000
418.369; 3593.200;  212.050;    0.000
418.422; 3538.200;  241.050;    0.000
418.476; 3607.200;  220.050;    0.000
418.529; 3621.200;  257.050;    0.000
418.582; 3640.200;  203.050;    0.000
418.636; 3644.200;  221.050;    0.000
418.689; 3706.200;  202.050;    0.000
418.743; 3489.200;  227.050;    0.000
418.796; 3628.200;  226.050;    0.000
418.849; 3617.200;  199.050;    0.000
418.903; 3559.200;  234.050;    0.000
418.956; 3604.200;  236.050;    0.000
419.009; 3550.200;  305.050;    0.000
419.063; 3537.200;  216.050;    0.000
419.116; 3590.200;  245.050;    0.000
419.169; 3489.200;  208.050;    0.000
419.222; 3641.200;  233.050;    0.000
419.276; 3544.200;  244.050;    0.000
419.329; 3662.200;  197.050;    0.000
419.382; 3522.200;  222.050;    0.000
419.435; 3346.200;  199.050;    0.000
419.489; 3634.200;  226.050;    0.000
419.542; 3523.200;  223.050;    0.000
419.595; 3508.200;  204.050;    0.000
419.648; 3596.200;  234.050;    0.000
419.701; 3694.200;  211.050;    0.000
419.755; 3512.200;  184.050;    0.000
419.808; 3445.200;  223.050;    0.000
419.861; 3537.200;  197.050;    0.000
419.914; 3495.200;  258.050;    0.000
419.967; 3550.200;  205.050;    0.000
420.020; 3397.200;  195.050;    0.000
420.073; 3404.200;  191.050;    0.000
420.127; 3474.200;  256.050;    0.000
420.180; 3437.200;  232.050;    0.000
420.233; 3432.200;  200.050;    0.000
420.286; 3472.200;  207.050;    0.000
420.339; 3429.200;  223.050;    0.000
420.392; 3494.200;  243.050;    0.000
420.445; 3364.200;  195.050;    0.000
420.498; 3453.200;  239.050;    0.000
420.551; 3353.200;  201.050;    0.000
420.604; 3376.200;  245.050;    0.000
420.657; 3446.200;  221.050;    0.000
420.710; 3367.200;  223.050;    0.000
420.763; 3380.200;  241.050;    0.000
420.816; 3380.200;  198.050;    0.000
420.869; 3399.200;  210.050;    0.000
420.922; 3370.200;  206.050;    0.000
420.975; 3415.200;  239.050;    0.000
421.028; 3365.200;  248.050;    0.000
421.081; 3397.200;  236.050;    0.000
421.134; 3329.200;  208.050;    0.000
421.187; 3302.200;  216.050;    0.000
421.239; 3269.200;  199.050;    0.000
421.292; 3354.200;  255.050;    0.000
421.345; 3278.200;  241.050;    0.000
421.398; 3370.200;  221.050;    0.000
421.451; 3432.200;  237.050;    0.000
421.504; 3266.200;  225.050;    0.000
421.557; 3344.200;  213.050;    0.000
421.609; 3358.200;  178.050;    0.000
421.662; 3382.200;  206.050;    0.000
421.715; 3429.200;  212.050;    0.000
421.768; 3366.200;  236.050;    0.000
421.821; 3365.200;  228.050;    0.000
421.873; 3388.200;  200.050;    0.000
421.926; 3342.200;  226.050;    0.000
421.979; 3380.200;  221.050;    0.000
422.032; 3274.200;  219.050;    0.000
422.084; 3320.200;  253.050;    0.000
422.137; 3277.200;  195.050;    0.000
422.190; 3340.200;  192.050;    0.000
422.243; 3237.200;  236.050;    0.000
422.295; 3408.200;  205.050;    0.000
422.348; 3321.200;  198.050;    0.000
422.401; 3306.200;  245.050;    0.000
422.453; 3313.200;  241.050;    0.000
422.506; 3334.200;  255.050;    0.000
422.559; 3301.200;  188.050;    0.000
422.611; 3316.200;  236.050;    0.000
422.664; 3374.200;  218.050;    0.000
422.716; 3388.200;  210.050;    0.000
422.769; 3376.200;  209.050;    0.000
422.822; 3282.200;  213.050;    0.000
422.874; 3283.200;  227.050;    0.000
422.927; 3298.200;  272.050;    0.000
422.979; 3317.200;  204.050;    0.000
423.032; 3211.200;  210.050;    0.000
423.084; 3226.200;  236.050;    0.000
423.137; 3259.200;  223.050;    0.000
423.189; 3300.200;  253.050;    0.000
423.242; 3348.200;  185.050;    0.000
423.294; 3331.200;  232.050;    0.000
423.347; 3228.200;  213.050;    0.000
423.399; 3327.200;  227.050;    0.000
423.452; 3271.200;  236.050;    0.000
423.504; 3315.200;  232.050;    0.000
423.557; 3169.200;  195.050;    0.000
423.609; 3239.200;  238.050;    0.000
423.662; 3213.200;  207.050;    0.000
423.714; 3225.200;  231.050;    0.000
423.766; 3287.200;  211.050;    0.000
423.819; 3270.200;  207.050;    0.000
423.871; 3299.200;  228.050;    0.000
423.923; 3278.200;  223.050;    0.000
423.976; 3254.200;  217.050;    0.000
424.028; 3105.200;  231.050;    0.000
424.081; 3180.200;  219.050;    0.000
424.133; 3341.200;  255.050;    0.000
424.185; 3202.200;  199.050;    0.000
424.238; 3238.200;  238.050;    0.000
424.290; 3216.200;  209.050;    0.000
424.342; 3305.200;  213.050;    0.000
424.394; 3240.200;  215.050;    0.000
424.447; 3218.200;  265.050;    0.000
424.499; 3246.200;  238.050;    0.000
424.551; 3277.200;  256.050;    0.000
424.603; 3194.200;  222.050;    0.000
424.656; 3193.200;  227.050;    0.000
424.708; 3208.200;  250.050;    0.000
424.760; 3194.200;  228.050;    0.000
424.812; 3140.200;  249.050;    0.000
424.864; 3178.200;  222.050;    0.000
424.917; 3126.200;  235.050;    0.000
424.969; 3289.200;  266.050;    0.000
425.021; 3184.200;  233.050;    0.000
425.073; 3123.200;  194.050;    0.000
425.125; 3122.200;  256.050;    0.000
425.177; 3052.200;  225.050;    0.000
425.229; 3268.200;  242.050;    0.000
425.282; 3241.200;  236.050;    0.000
425.334; 3113.200;  250.050;    0.000
425.386; 3144.200;  231.050;    0.000
425.438; 3167.200;  216.050;    0.000
425.490; 3261.200;  240.050;    0.000
425.542; 3188.200;  231.050;    0.000
425.594; 3128.200;  206.050;    0.000
425.646; 3177.200;  201.050;    0.000
425.698; 3163.200;  193.050;    0.000
425.750; 3190.200;  241.050;    0.000
425.802; 3185.200;  199.050;    0.000
425.854; 2991.200;  216.050;    0.000
425.906; 3270.200;  220.050;    0.000
425.958; 3131.200;  200.050;    0.000
426.010; 3152.200;  214.050;    0.000
426.062; 3106.200;  245.050;    0.000
426.114; 3047.200;  241.050;    0.000
426.166; 3116.200;  241.050;    0.000
426.218; 3059.200;  255.050;    0.000
426.270; 3061.200;  228.050;    0.000
426.321; 3070.200;  222.050;    0.000
426.373; 3069.200;  218.050;    0.000
426.425; 3125.200;  258.050;    0.000
426.477; 3047.200;  225.050;    0.000
426.529; 3110.200;  223.050;    0.000
426.581; 3032.200;  198.050;    0.000
426.633; 3102.200;  228.050;    0.000
426.684; 3130.200;  210.050;    0.000
426.736; 3073.200;  208.050;    0.000
426.788; 3106.200;  231.050;    0.000
426.840; 3109.200;  212.050;    0.000
426.892; 2996.200;  221.050;    0.000
426.943; 3002.200;  240.050;    0.000
426.995; 3094.200;  243.050;    0.000
427.047; 3082.200;  231.050;    0.000
427.099; 3084.200;  189.050;    0.000
427.150; 2933.200;  212.050;    0.000
427.202; 2994.200;  219.050;    0.000
427.254; 3006.200;  203.050;    0.000
427.306; 3014.200;  217.050;    0.000
427.357; 3175.200;  232.050;    0.000
427.409; 3096.200;  251.050;    0.000
427.461; 2940.200;  185.050;    0.000
427.512; 3048.200;  239.050;    0.000
427.564; 2962.200;  208.050;    0.000
427.616; 3115.200;  233.050;    0.000
427.667; 3001.200;  223.050;    0.000
427.719; 2975.200;  206.050;    0.000
427.770; 3015.200;  195.050;    0.000
427.822; 3002.200;  223.050;    0.000
427.874; 3011.200;  232.050;    0.000
427.925; 2970.200;  209.050;    0.000
427.977; 2977.200;  208.050;    0.000
428.028; 2983.200;  187.050;    0.000
428.080; 3018.200;  209.050;    0.000
428.131; 2949.200;  237.050;    0.000
428.183; 2940.200;  200.050;    0.000
428.234; 2952.200;  215.050;    0.000
428.286; 2997.200;  229.050;    0.000
428.337; 3010.200;  206.050;    0.000
428.389; 2880.200;  216.050;    0.000
428.440; 2937.200;  287.050;    0.000
428.492; 3099.200;  269.050;    0.000
428.543; 2872.200;  234.050;    0.000
428.595; 2984.200;  214.050;    0.000
428.646; 3001.200;  229.050;    0.000
428.697; 2964.200;  249.050;    0.000
428.749; 2973.200;  250.050;    0.000
428.800; 2899.200;  242.050;    0.000
428.852; 2979.200;  232.050;    0.000
428.903; 2954.200;  196.050;    0.000
428.954; 2933.200;  226.050;    0.000
429.006; 2914.200;  232.050;    0.000
429.057; 2863.200;  188.050;    0.000
429.108; 2937.200;  237.050;    0.000
429.160; 2938.200;  221.050;    0.000
429.211; 2886.200;  222.050;    0.000
429.262; 2938.200;  215.050;    0.000
429.314; 2909.200;  225.050;    0.000
429.365; 2800.200;  220.050;    0.000
429.416; 2950.200;  242.050;    0.000
429.467; 2896.200;  220.050;    0.000
429.519; 2878.200;  217.050;    0.000
429.570; 2846.200;  248.050;    0.000
429.621; 2827.200;  233.050;    0.000
429.672; 2786.200;  220.050;    0.000
429.724; 2843.200;  179.050;    0.000
429.775; 2944.200;  218.050;    0.000
429.826; 2806.200;  197.050;    0.000
429.877; 2955.200;  206.050;    0.000
429.928; 2920.200;  229.050;    0.000
429.980; 2849.200;  207.050;    0.000
430.031; 2885.200;  264.050;    0.000
430.082; 2812.200;  210.050;    0.000
430.133; 2767.200;  218.050;    0.000
430.184; 2891.200;  246.050;    0.000
430.235; 2830.200;  201.050;    0.000
430.286; 2934.200;  207.050;    0.000
430.337; 2799.200;  224.050;    0.000
430.388; 2917.200;  216.050;    0.000
430.439; 2821.200;  210.050;    0.000
430.490; 2908.200;  208.050;    0.000
430.542; 2858.200;  211.050;    0.000
430.593; 2839.200;  203.050;    0.000
430.644; 2888.200;  235.050;    0.000
430.695; 2898.200;  200.050;    0.000
430.746; 2697.200;  215.050;    0.000
430.797; 2826.200;  235.050;    0.000
430.848; 2815.200;  197.050;    0.000
430.898; 2785.200;  209.050;    0.000
430.949; 2750.200;  231.050;    0.000
431.000; 2834.200;  227.050;    0.000
431.051; 2874.200;  225.050;    0.000
431.102; 2849.200;  180.050;    0.000
431.153; 2836.200;  248.050;    0.000
431.204; 2842.200;  185.050;    0.000
431.255; 2780.200;  199.050;    0.000
431.306; 2860.200;  228.050;    0.000
431.357; 2924.200;  237.050;    0.000
431.408; 2827.200;  223.050;    0.000
431.458; 2886.200;  240.050;    0.000
431.509; 2773.200;  207.050;    0.000
431.560; 2761.200;  219.050;    0.000
431.611; 2793.200;  206.050;    0.000
431.662; 2913.200;  253.050;    0.000
431.713; 2832.200;  199.050;    0.000
431.763; 2826.200;  197.050;    0.000
431.814; 2826.200;  205.050;    0.000
431.865; 2804.200;  218.050;    0.000
431.916; 2880.200;  202.050;    0.000
431.966; 2767.200;  203.050;    0.000
432.017; 2874.200;  244.050;    0.000
432.068; 2898.200;  246.050;    0.000
432.118; 2811.200;  212.050;    0.000
432.169; 2753.200;  214.050;    0.000
432.220; 2837.200;  241.050;    0.000
432.271; 2840.200;  237.050;    0.000
432.321; 2846.200;  246.050;    0.000
432.372; 2895.200;  257.050;    0.000
432.423; 2842.200;  198.050;    0.000
432.473; 2824.200;  202.050;    0.000
432.524; 2741.200;  242.050;    0.000
432.574; 2820.200;  202.050;    0.000
432.625; 2727.200;  212.050;    0.000
432.676; 2800.200;  242.050;    0.000
432.726; 2769.200;  268.050;    0.000
432.777; 2834.200;  228.050;    0.000
432.827; 2779.200;  230.050;    0.000
432.878; 2741.200;  221.050;    0.000
432.928; 2781.200;  218.050;    0.000
432.979; 2778.200;  243.050;    0.000
433.029; 2772.200;  217.050;    0.000
433.080; 2811.200;  208.050;    0.000
433.130; 2736.200;  236.050;    0.000
433.181; 2872.200;  282.050;    0.000
433.231; 2806.200;  257.050;    0.000
433.282; 2761.200;  268.050;    0.000
433.332; 2733.200;  241.050;    0.000
433.383; 2873.200;  271.050;    0.000
433.433; 2769.200;  262.050;    0.000
433.484; 2848.200;  266.050;    0.000
433.534; 2732.200;  217.050;    0.000
433.585; 2756.200;  230.050;    0.000
433.635; 2824.200;  245.050;    0.000
433.685; 2812.200;  250.050;    0.000
433.736; 2793.200;  308.050;    0.000
433.786; 2775.200;  242.050;    0.000
433.836; 2827.200;  256.050;    0.000
433.887; 2859.200;  250.050;    0.000
433.937; 2833.200;  250.050;    0.000
433.987; 2702.200;  219.050;    0.000
434.038; 2749.200;  248.050;    0.000
434.088; 2867.200;  231.050;    0.000
434.138; 2839.200;  266.050;    0.000
434.189; 2788.200;  240.050;    0.000
434.239; 2828.200;  245.050;    0.000
434.289; 2826.200;  285.050;    0.000
434.339; 2859.200;  255.050;    0.000
434.389; 2843.200;  242.050;    0.000
434.440; 2907.200;  273.050;    0.000
434.490; 2821.200;  272.050;    0.000
434.540; 2834.200;  264.050;    0.000
434.590; 2847.200;  233.050;    0.000
434.640; 2883.200;  244.050;    0.000
434.691; 2831.200;  226.050;    0.000
434.741; 2834.200;  253.050;    0.000
434.791; 2866.200;  269.050;    0.000
434.841; 2823.200;  252.050;    0.000
434.891; 2897.200;  281.050;    0.000
434.941; 2885.200;  296.050;    0.000
434.991; 2880.200;  264.050;    0.000
435.042; 2824.200;  262.050;    0.000
435.092; 2863.200;  237.050;    0.000
435.142; 2796.200;  232.050;    0.000
435.192; 2796.200;  251.050;    0.000
435.242; 2891.200;  251.050;    0.000
435.292; 2859.200;  246.050;    0.000
435.342; 2781.200;  236.050;    0.000
435.392; 2755.200;  273.050;    0.000
435.442; 2785.200;  273.050;    0.000
435.492; 2737.200;  273.050;    0.000
435.542; 2663.200;  242.050;    0.000
435.592; 2740.200;  213.050;    0.000
435.642; 2795.200;  248.050;    0.000
435.692; 2766.200;  242.050;    0.000
435.742; 2732.200;  222.050;    0.000
435.792; 2719.200;  260.050;    0.000
435.842; 2667.200;  266.050;    0.000
435.891; 2651.200;  227.050;    0.000
435.941; 2802.200;  228.050;    0.000
435.991; 2689.200;  282.050;    0.000
436.041; 2677.200;  231.050;    0.000
436.091; 2733.200;  250.050;    0.000
436.141; 2667.200;  221.050;    0.000
436.191; 2652.200;  223.050;    0.000
436.241; 2598.200;  250.050;    0.000
436.290; 2594.200;  243.050;    0.000
436.340; 2674.200;  236.050;    0.000
436.390; 2681.200;  260.050;    0.000
436.440; 2667.200;  253.050;    0.000
436.490; 2610.200;  236.050;    0.000
436.539; 2596.200;  249.050;    0.000
436.589; 2618.200;  231.050;    0.000
436.639; 2678.200;  237.050;    0.000
436.689; 2719.200;  222.050;    0.000
436.738; 2648.200;  263.050;    0.000
436.788; 2535.200;  230.050;    0.000
436.838; 2610.200;  281.050;    0.000
436.887; 2622.200;  230.050;    0.000
436.937; 2615.200;  250.050;    0.000
436.987; 2633.200;  251.050;    0.000
437.036; 2627.200;  238.050;    0.000
437.086; 2652.200;  234.050;    0.000
437.136; 2652.200;  250.050;    0.000
437.185; 2553.200;  228.050;    0.000
437.235; 2612.200;  309.050;    0.000
437.285; 2647.200;  246.050;    0.000
437.334; 2601.200;  262.050;    0.000
437.384; 2531.200;  228.050;    0.000
437.433; 2648.200;  241.050;    0.000
437.483; 2609.200;  220.050;    0.000
437.532; 2627.200;  252.050;    0.000
437.582; 2622.200;  270.050;    0.000
437.631; 2563.200;  251.050;    0.000
437.681; 2551.200;  284.050;    0.000
437.730; 2598.200;  239.050;    0.000
437.780; 2581.200;  221.050;    0.000
437.829; 2584.200;  254.050;    0.000
437.879; 2559.200;  221.050;    0.000
437.928; 2571.200;  205.050;    0.000
437.978; 2560.200;  223.050;    0.000
438.027; 2586.200;  262.050;    0.000
438.077; 2533.200;  280.050;    0.000
438.126; 2595.200;  254.050;    0.000
438.176; 2569.200;  230.050;    0.000
438.225; 2463.200;  227.050;    0.000
438.274; 2568.200;  264.050;    0.000
438.324; 2602.200;  233.050;    0.000
438.373; 2493.200;  238.050;    0.000
438.422; 2518.200;  260.050;    0.000
438.472; 2613.200;  223.050;    0.000
438.521; 2541.200;  213.050;    0.000
438.570; 2482.200;  236.050;    0.000
438.620; 2606.200;  282.050;    0.000
438.669; 2600.200;  209.050;    0.000
438.718; 2520.200;  245.050;    0.000
438.768; 2458.200;  238.050;    0.000
438.817; 2530.200;  259.050;    0.000
438.866; 2504.200;  232.050;    0.000
438.915; 2477.200;  288.050;    0.000
438.965; 2603.200;  228.050;    0.000
439.014; 2560.200;  246.050;    0.000
439.063; 2554.200;  287.050;    0.000
439.112; 2623.200;  217.050;    0.000
439.162; 2484.200;  275.050;    0.000
439.211; 2665.200;  287.050;    0.000
439.260; 2601.200;  238.050;    0.000
439.309; 2556.200;  225.050;    0.000
439.358; 2573.200;  248.050;    0.000
439.407; 2529.200;  237.050;    0.000
439.456; 2556.200;  223.050;    0.000
439.506; 2584.200;  266.050;    0.000
439.555; 2565.200;  260.050;    0.000
439.604; 2634.200;  233.050;    0.000
439.653; 2566.200;  242.050;    0.000
439.702; 2565.200;  255.050;    0.000
439.751; 2511.200;  202.050;    0.000
439.800; 2516.200;  247.050;    0.000
439.849; 2646.200;  250.050;    0.000
439.898; 2528.200;  216.050;    0.000
439.947; 2650.200;  231.050;    0.000
439.996; 2677.200;  272.050;    0.000
440.045; 2587.200;  217.050;    0.000
440.094; 2646.200;  220.050;    0.000
440.143; 2593.200;  245.050;    0.000
440.192; 2590.200;  267.050;    0.000
440.241; 2554.200;  263.050;    0.000
440.290; 2581.200;  246.050;    0.000
440.339; 2548.200;  225.050;    0.000
440.388; 2478.200;  256.050;    0.000
440.437; 2630.200;  253.050;    0.000
440.486; 2598.200;  249.050;    0.000
440.535; 2598.200;  232.050;    0.000
440.583; 2599.200;  220.050;    0.000
440.632; 2574.200;  239.050;    0.000
440.681; 2636.200;  236.050;    0.000
440.730; 2608.200;  282.050;    0.000
440.779; 2542.200;  245.050;    0.000
440.828; 2619.200;  213.050;    0.000
440.876; 2592.200;  231.050;    0.000
440.925; 2625.200;  271.050;    0.000
440.974; 2689.200;  240.050;    0.000
441.023; 2608.200;  214.050;    0.000
441.072; 2645.200;  236.050;    0.000
441.120; 2677.200;  271.050;    0.000
441.169; 2730.200;  281.050;    0.000
441.218; 2662.200;  255.050;    0.000
441.267; 2623.200;  272.050;    0.000
441.315; 2654.200;  229.050;    0.000
441.364; 2558.200;  241.050;    0.000
441.413; 2568.200;  224.050;    0.000
441.461; 2682.200;  241.050;    0.000
441.510; 2705.200;  289.050;    0.000
441.559; 2716.200;  222.050;    0.000
441.607; 2574.200;  242.050;    0.000
441.656; 2643.200;  255.050;    0.000
441.705; 2650.200;  260.050;    0.000
441.753; 2672.200;  290.050;    0.000
441.802; 2681.200;  264.050;    0.000
441.850; 2678.200;  224.050;    0.000
441.899; 2693.200;  275.050;    0.000
441.948; 2622.200;  227.050;    0.000
441.996; 2677.200;  216.050;    0.000
442.045; 2660.200;  271.050;    0.000
442.093; 2694.200;  227.050;    0.000
442.142; 2594.200;  273.050;    0.000
442.190; 2738.200;  257.050;    0.000
442.239; 2668.200;  269.050;    0.000
442.287; 2765.200;  257.050;    0.000
442.336; 2640.200;  237.050;    0.000
442.384; 2686.200;  214.050;    0.000
442.433; 2606.200;  272.050;    0.000
442.481; 2645.200;  258.050;    0.000
442.529; 2730.200;  242.050;    0.000
442.578; 2657.200;  278.050;    0.000
442.626; 2694.200;  264.050;    0.000
442.675; 2642.200;  293.050;    0.000
442.723; 2620.200;  244.050;    0.000
442.771; 2628.200;  232.050;    0.000
442.820; 2640.200;  266.050;    0.000
442.868; 2624.200;  253.050;    0.000
442.917; 2710.200;  250.050;    0.000
442.965; 2607.200;  279.050;    0.000
443.013; 2693.200;  253.050;    0.000
443.062; 2713.200;  282.050;    0.000
443.110; 2667.200;  258.050;    0.000
443.158; 2754.200;  246.050;    0.000
443.206; 2641.200;  255.050;    0.000
443.255; 2764.200;  296.050;    0.000
443.303; 2724.200;  272.050;    0.000
443.351; 2713.200;  270.050;    0.000
443.399; 2696.200;  258.050;    0.000
443.448; 2652.200;  265.050;    0.000
443.496; 2749.200;  219.050;    0.000
443.544; 2659.200;  205.050;    0.000
443.592; 2710.200;  266.050;    0.000
443.640; 2789.200;  260.050;    0.000
443.689; 2681.200;  232.050;    0.000
443.737; 2726.200;  281.050;    0.000
443.785; 2727.200;  248.050;    0.000
443.833; 2768.200;  286.050;    0.000
443.881; 2672.200;  225.050;    0.000
443.929; 2682.200;  255.050;    0.000
443.977; 2692.200;  248.050;    0.000
444.025; 2781.200;  255.050;    0.000
444.074; 2743.200;  266.050;    0.000
444.122; 2785.200;  266.050;    0.000
444.170; 2746.200;  207.050;    0.000
444.218; 2797.200;  253.050;    0.000
444.266; 2838.200;  263.050;    0.000
444.314; 2745.200;  272.050;    0.000
444.362; 2808.200;  272.050;    0.000
444.410; 2758.200;  255.050;    0.000
444.458; 2854.200;  288.050;    0.000
444.506; 2838.200;  263.050;    0.000
444.554; 2798.200;  243.050;    0.000
444.602; 2837.200;  285.050;    0.000
444.650; 2884.200;  273.050;    0.000
444.698; 2826.200;  221.050;    0.000
444.746; 2824.200;  243.050;    0.000
444.793; 2770.200;  217.050;    0.000
444.841; 2932.200;  262.050;    0.000
444.889; 2759.200;  264.050;    0.000
444.937; 2828.200;  226.050;    0.000
444.985; 2783.200;  257.050;    0.000
445.033; 2902.200;  264.050;    0.000
445.081; 2907.200;  264.050;    0.000
445.129; 2831.200;  187.050;    0.000
445.176; 2839.200;  212.050;    0.000
445.224; 2837.200;  198.050;    0.000
445.272; 2780.200;  265.050;    0.000
445.320; 2805.200;  239.050;    0.000
445.368; 2757.200;  245.050;    0.000
445.415; 2883.200;  215.050;    0.000
445.463; 2698.200;  202.050;    0.000
445.511; 2849.200;  234.050;    0.000
445.559; 2792.200;  269.050;    0.000
445.606; 2778.200;  214.050;    0.000
445.654; 2797.200;  227.050;    0.000
445.702; 2804.200;  276.050;    0.000
445.749; 2814.200;  256.050;    0.000
445.797; 2887.200;  236.050;    0.000
445.845; 2860.200;  230.050;    0.000
445.892; 2868.200;  233.050;    0.000
445.940; 2805.200;  257.050;    0.000
445.988; 2840.200;  253.050;    0.000
446.035; 2885.200;  265.050;    0.000
446.083; 2743.200;  254.050;    0.000
446.130; 2781.200;  228.050;    0.000
446.178; 2942.200;  256.050;    0.000
446.226; 2879.200;  238.050;    0.000
446.273; 2852.200;  228.050;    0.000
446.321; 2953.200;  220.050;    0.000
446.368; 2856.200;  249.050;    0.000
446.416; 2842.200;  221.050;    0.000
446.463; 2841.200;  232.050;    0.000
446.511; 2821.200;  243.050;    0.000
446.558; 2878.200;  217.050;    0.000
446.606; 2861.200;  256.050;    0.000
446.653; 2910.200;  238.050;    0.000
446.701; 2950.200;  259.050;    0.000
446.748; 2946.200;  227.050;    0.000
446.796; 2898.200;  236.050;    0.000
446.843; 3076.200;  241.050;    0.000
446.891; 2986.200;  292.050;    0.000
446.938; 2976.200;  219.050;    0.000
446.985; 2972.200;  255.050;    0.000
447.033; 2994.200;  237.050;    0.000
447.080; 3031.200;  278.050;    0.000
447.128; 3056.200;  237.050;    0.000
447.175; 3079.200;  247.050;    0.000
447.222; 3125.200;  235.050;    0.000
447.270; 3210.200;  274.050;    0.000
447.317; 3047.200;  222.050;    0.000
447.364; 3197.200;  230.050;    0.000
447.411; 3121.200;  297.050;    0.000
447.459; 3192.200;  243.050;    0.000
447.506; 3210.200;  202.050;    0.000
447.553; 3331.200;  232.050;    0.000
447.601; 3206.200;  262.050;    0.000
447.648; 3282.200;  254.050;    0.000
447.695; 3401.200;  287.050;    0.000
447.742; 3422.200;  232.050;    0.000
447.789; 3369.200;  257.050;    0.000
447.837; 3398.200;  260.050;    0.000
447.884; 3376.200;  272.050;    0.000
447.931; 3518.200;  241.050;    0.000
447.978; 3552.200;  241.050;    0.000
448.025; 3546.200;  264.050;    0.000
448.072; 3590.200;  279.050;    0.000
448.120; 3533.200;  263.050;    0.000
448.167; 3562.200;  284.050;    0.000
448.214; 3607.200;  252.050;    0.000
448.261; 3392.200;  247.050;    0.000
448.308; 3416.200;  249.050;    0.000
448.355; 3438.200;  263.050;    0.000
448.402; 3334.200;  251.050;    0.000
448.449; 3345.200;  257.050;    0.000
448.496; 3285.200;  243.050;    0.000
448.543; 3265.200;  274.050;    0.000
448.590; 3260.200;  299.050;    0.000
448.637; 3136.200;  259.050;    0.000
448.684; 3074.200;  266.050;    0.000
448.731; 3216.200;  261.050;    0.000
448.778; 3194.200;  292.050;    0.000
448.825; 3041.200;  253.050;    0.000
448.872; 2973.200;  253.050;    0.000
448.919; 3092.200;  218.050;    0.000
448.966; 2861.200;  254.050;    0.000
449.013; 3060.200;  263.050;    0.000
449.060; 3036.200;  282.050;    0.000
449.107; 2902.200;  244.050;    0.000
449.154; 2907.200;  236.050;    0.000
449.200; 2826.200;  226.050;    0.000
449.247; 2875.200;  273.050;    0.000
449.294; 2843.200;  270.050;    0.000
449.341; 2924.200;  283.050;    0.000
449.388; 2827.200;  261.050;    0.000
449.435; 2836.200;  254.050;    0.000
449.481; 2867.200;  318.050;    0.000
449.528; 2797.200;  274.050;    0.000
449.575; 2785.200;  251.050;    0.000
449.622; 2679.200;  276.050;    0.000
449.668; 2755.200;  242.050;    0.000
449.715; 2753.200;  286.050;    0.000
449.762; 2790.200;  268.050;    0.000
449.809; 2752.200;  285.050;    0.000
449.855; 2809.200;  277.050;    0.000
449.902; 2763.200;  246.050;    0.000
449.949; 2716.200;  268.050;    0.000
449.995; 2774.200;  289.050;    0.000
450.042; 2803.200;  256.050;    0.000
450.089; 2750.200;  290.050;    0.000
450.135; 2693.200;  300.050;    0.000
450.182; 2617.200;  317.050;    0.000
450.229; 2664.200;  282.050;    0.000
450.275; 2727.200;  307.050;    0.000
450.322; 2654.200;  260.050;    0.000
450.368; 2680.200;  315.050;    0.000
450.415; 2750.200;  306.050;    0.000
450.462; 2593.200;  314.050;    0.000
450.508; 2585.200;  303.050;    0.000
450.555; 2628.200;  281.050;    0.000
450.601; 2635.200;  291.050;    0.000
450.648; 2598.200;  288.050;    0.000
450.694; 2684.200;  290.050;    0.000
450.741; 2618.200;  303.050;    0.000
450.787; 2627.200;  298.050;    0.000
450.834; 2597.200;  265.050;    0.000
450.880; 2626.200;  273.050;    0.000
450.927; 2679.200;  312.050;    0.000
450.973; 2514.200;  303.050;    0.000
451.019; 2545.200;  222.050;    0.000
451.066; 2618.200;  284.050;    0.000
451.112; 2584.200;  296.050;    0.000
451.159; 2557.200;  299.050;    0.000
451.205; 2620.200;  311.050;    0.000
451.251; 2524.200;  306.050;    0.000
451.298; 2596.200;  281.050;    0.000
451.344; 2645.200;  311.050;    0.000
451.390; 2542.200;  331.050;    0.000
451.437; 2499.200;  303.050;    0.000
451.483; 2601.200;  284.050;    0.000
451.529; 2579.200;  310.050;    0.000
451.576; 2536.200;  301.050;    0.000
451.622; 2476.200;  275.050;    0.000
451.668; 2605.200;  269.050;    0.000
451.714; 2534.200;  277.050;    0.000
451.761; 2523.200;  298.050;    0.000
451.807; 2555.200;  316.050;    0.000
451.853; 2559.200;  301.050;    0.000
451.899; 2590.200;  292.050;    0.000
451.945; 2530.200;  324.050;    0.000
451.992; 2601.200;  292.050;    0.000
452.038; 2509.200;  261.050;    0.000
452.084; 2527.200;  286.050;    0.000
452.130; 2512.200;  301.050;    0.000
452.176; 2582.200;  287.050;    0.000
452.222; 2444.200;  265.050;    0.000
452.268; 2522.200;  268.050;    0.000
452.315; 2555.200;  272.050;    0.000
452.361; 2479.200;  258.050;    0.000
452.407; 2548.200;  279.050;    0.000
452.453; 2481.200;  252.050;    0.000
452.499; 2614.200;  305.050;    0.000
452.545; 2503.200;  263.050;    0.000
452.591; 2433.200;  284.050;    0.000
452.637; 2475.200;  289.050;    0.000
452.683; 2468.200;  249.050;    0.000
452.729; 2564.200;  290.050;    0.000
452.775; 2541.200;  315.050;    0.000
452.821; 2548.200;  271.050;    0.000
452.867; 2415.200;  258.050;    0.000
452.913; 2431.200;  256.050;    0.000
452.959; 2491.200;  266.050;    0.000
453.005; 2440.200;  299.050;    0.000
453.051; 2493.200;  299.050;    0.000
453.097; 2443.200;  268.050;    0.000
453.142; 2407.200;  251.050;    0.000
453.188; 2445.200;  284.050;    0.000
453.234; 2405.200;  285.050;    0.000
453.280; 2388.200;  263.050;    0.000
453.326; 2443.200;  273.050;    0.000
453.372; 2385.200;  253.050;    0.000
453.418; 2416.200;  269.050;    0.000
453.463; 2360.200;  250.050;    0.000
453.509; 2391.200;  289.050;    0.000
453.555; 2449.200;  262.050;    0.000
453.601; 2394.200;  274.050;    0.000
453.647; 2407.200;  306.050;    0.000
453.692; 2357.200;  264.050;    0.000
453.738; 2427.200;  312.050;    0.000
453.784; 2412.200;  300.050;    0.000
453.829; 2418.200;  284.050;    0.000
453.875; 2345.200;  270.050;    0.000
453.921; 2388.200;  237.050;    0.000
453.967; 2425.200;  263.050;    0.000
454.012; 2473.200;  295.050;    0.000
454.058; 2404.200;  293.050;    0.000
454.104; 2442.200;  264.050;    0.000
454.149; 2381.200;  282.050;    0.000
454.195; 2354.200;  277.050;    0.000
454.240; 2464.200;  307.050;    0.000
454.286; 2389.200;  282.050;    0.000
454.332; 2444.200;  291.050;    0.000
454.377; 2430.200;  302.050;    0.000
454.423; 2422.200;  276.050;    0.000
454.468; 2437.200;  281.050;    0.000
454.514; 2400.200;  290.050;    0.000
454.559; 2391.200;  289.050;    0.000
454.605; 2456.200;  258.050;    0.000
454.650; 2490.200;  281.050;    0.000
454.696; 2354.200;  308.050;    0.000
454.741; 2431.200;  288.050;    0.000
454.787; 2453.200;  284.050;    0.000
454.832; 2401.200;  306.050;    0.000
454.878; 2408.200;  288.050;    0.000
454.923; 2386.200;  287.050;    0.000
454.969; 2465.200;  325.050;    0.000
455.014; 2478.200;  323.050;    0.000
455.060; 2358.200;  290.050;    0.000
455.105; 2365.200;  285.050;    0.000
455.150; 2370.200;  303.050;    0.000
455.196; 2388.200;  282.050;    0.000
455.241; 2412.200;  281.050;    0.000
455.286; 2330.200;  290.050;    0.000
455.332; 2416.200;  280.050;    0.000
455.377; 2388.200;  243.050;    0.000
455.422; 2449.200;  308.050;    0.000
455.468; 2355.200;  308.050;    0.000
455.513; 2296.200;  290.050;    0.000
455.558; 2363.200;  211.050;    0.000
455.604; 2435.200;  289.050;    0.000
455.649; 2404.200;  297.050;    0.000
455.694; 2403.200;  287.050;    0.000
455.739; 2389.200;  296.050;    0.000
455.785; 2473.200;  315.050;    0.000
455.830; 2433.200;  328.050;    0.000
455.875; 2441.200;  310.050;    0.000
455.920; 2441.200;  261.050;    0.000
455.965; 2414.200;  277.050;    0.000
456.010; 2348.200;  317.050;    0.000
456.056; 2326.200;  299.050;    0.000
456.101; 2362.200;  262.050;    0.000
456.146; 2358.200;  318.050;    0.000
456.191; 2360.200;  274.050;    0.000
456.236; 2399.200;  274.050;    0.000
456.281; 2386.200;  275.050;    0.000
456.326; 2342.200;  256.050;    0.000
456.371; 2346.200;  260.050;    0.000
456.416; 2409.200;  304.050;    0.000
456.461; 2333.200;  278.050;    0.000
456.507; 2338.200;  299.050;    0.000
456.552; 2424.200;  305.050;    0.000
456.597; 2330.200;  271.050;    0.000
456.642; 2390.200;  273.050;    0.000
456.687; 2402.200;  290.050;    0.000
456.732; 2376.200;  327.050;    0.000
456.776; 2439.200;  284.050;    0.000
456.821; 2340.200;  321.050;    0.000
456.866; 2434.200;  272.050;    0.000
456.911; 2322.200;  232.050;    0.000
456.956; 2401.200;  263.050;    0.000
457.001; 2287.200;  277.050;    0.000
457.046; 2421.200;  284.050;    0.000
457.091; 2338.200;  269.050;    0.000
457.136; 2364.200;  269.050;    0.000
457.181; 2412.200;  275.050;    0.000
457.225; 2415.200;  310.050;    0.000
457.270; 2406.200;  295.050;    0.000
457.315; 2348.200;  284.050;    0.000
457.360; 2327.200;  264.050;    0.000
457.405; 2317.200;  273.050;    0.000
457.450; 2441.200;  284.050;    0.000
457.494; 2342.200;  273.050;    0.000
457.539; 2447.200;  287.050;    0.000
457.584; 2405.200;  279.050;    0.000
457.629; 2370.200;  288.050;    0.000
457.673; 2444.200;  297.050;    0.000
457.718; 2392.200;  270.050;    0.000
457.763; 2423.200;  295.050;    0.000
457.807; 2432.200;  321.050;    0.000
457.852; 2484.200;  293.050;    0.000
457.897; 2439.200;  282.050;    0.000
457.941; 2415.200;  320.050;    0.000
457.986; 2519.200;  295.050;    0.000
458.031; 2389.200;  314.050;    0.000
458.075; 2445.200;  280.050;    0.000
458.120; 2433.200;  314.050;    0.000
458.165; 2471.200;  289.050;    0.000
458.209; 2467.200;  289.050;    0.000
458.254; 2436.200;  272.050;    0.000
458.298; 2442.200;  305.050;    0.000
458.343; 2462.200;  284.050;    0.000
458.387; 2461.200;  340.050;    0.000
458.432; 2455.200;  306.050;    0.000
458.476; 2547.200;  311.050;    0.000
458.521; 2508.200;  304.050;    0.000
458.565; 2518.200;  329.050;    0.000
458.610; 2498.200;  287.050;    0.000
458.654; 2533.200;  300.050;    0.000
458.699; 2547.200;  295.050;    0.000
458.743; 2471.200;  269.050;    0.000
458.788; 2566.200;  294.050;    0.000
458.832; 2582.200;  301.050;    0.000
458.877; 2558.200;  303.050;    0.000
458.921; 2437.200;  259.050;    0.000
458.965; 2513.200;  308.050;    0.000
459.010; 2536.200;  330.050;    0.000
459.054; 2588.200;  298.050;    0.000
459.099; 2548.200;  303.050;    0.000
459.143; 2596.200;  333.050;    0.000
459.187; 2596.200;  291.050;    0.000
459.231; 2691.200;  316.050;    0.000
459.276; 2623.200;  294.050;    0.000
459.320; 2611.200;  291.050;    0.000
459.364; 2687.200;  318.050;    0.000
459.409; 2595.200;  325.050;    0.000
459.453; 2515.200;  293.050;    0.000
459.497; 2675.200;  354.050;    0.000
459.541; 2631.200;  313.050;    0.000
459.586; 2535.200;  282.050;    0.000
459.630; 2639.200;  286.050;    0.000
459.674; 2567.200;  292.050;    0.000
459.718; 2587.200;  280.050;    0.000
459.762; 2573.200;  304.050;    0.000
459.807; 2683.200;  352.050;    0.000
459.851; 2671.200;  300.050;    0.000
459.895; 2589.200;  311.050;    0.000
459.939; 2609.200;  303.050;    0.000
459.983; 2624.200;  299.050;    0.000
460.027; 2611.200;  307.050;    0.000
460.071; 2611.200;  313.050;    0.000
460.115; 2646.200;  325.050;    0.000
460.159; 2686.200;  331.050;    0.000
460.204; 2665.200;  301.050;    0.000
460.248; 2621.200;  329.050;    0.000
460.292; 2709.200;  310.050;    0.000
460.336; 2770.200;  304.050;    0.000
460.380; 2646.200;  313.050;    0.000
460.424; 2650.200;  300.050;    0.000
460.468; 2730.200;  338.050;    0.000
460.512; 2598.200;  310.050;    0.000
460.556; 2690.200;  337.050;    0.000
460.599; 2758.200;  310.050;    0.000
460.643; 2666.200;  303.050;    0.000
460.687; 2726.200;  316.050;    0.000
460.731; 2648.200;  292.050;    0.000
460.775; 2646.200;  294.050;    0.000
460.819; 2750.200;  310.050;    0.000
460.863; 2634.200;  349.050;    0.000
460.907; 2636.200;  265.050;    0.000
460.951; 2693.200;  325.050;    0.000
460.995; 2696.200;  338.050;    0.000
461.038; 2736.200;  304.050;    0.000
461.082; 2760.200;  312.050;    0.000
461.126; 2719.200;  358.050;    0.000
461.170; 2688.200;  306.050;    0.000
461.214; 2725.200;  330.050;    0.000
461.257; 2721.200;  311.050;    0.000
461.301; 2841.200;  303.050;    0.000
461.345; 2765.200;  310.050;    0.000
461.389; 2813.200;  296.050;    0.000
461.432; 2742.200;  304.050;    0.000
461.476; 2718.200;  305.050;    0.000
461.520; 2714.200;  319.050;    0.000
461.563; 2674.200;  294.050;    0.000
461.607; 2714.200;  295.050;    0.000
461.651; 2726.200;  335.050;    0.000
461.694; 2760.200;  276.050;    0.000
461.738; 2702.200;  327.050;    0.000
461.782; 2722.200;  288.050;    0.000
461.825; 2836.200;  319.050;    0.000
461.869; 2716.200;  305.050;    0.000
461.913; 2673.200;  281.050;    0.000
461.956; 2832.200;  281.050;    0.000
462.000; 2790.200;  339.050;    0.000
462.043; 2759.200;  347.050;    0.000
462.087; 2761.200;  314.050;    0.000
462.130; 2830.200;  332.050;    0.000
462.174; 2839.200;  332.050;    0.000
462.217; 2824.200;  299.050;    0.000
462.261; 2799.200;  323.050;    0.000
462.304; 2758.200;  286.050;    0.000
462.348; 2802.200;  305.050;    0.000
462.391; 2689.200;  293.050;    0.000
462.435; 2945.200;  365.050;    0.000
462.478; 2841.200;  329.050;    0.000
462.522; 2934.200;  316.050;    0.000
462.565; 2826.200;  328.050;    0.000
462.608; 2938.200;  350.050;    0.000
462.652; 2816.200;  328.050;    0.000
462.695; 2942.200;  358.050;    0.000
462.739; 2838.200;  317.050;    0.000
462.782; 2978.200;  329.050;    0.000
462.825; 2948.200;  368.050;    0.000
462.869; 2961.200;  343.050;    0.000
462.912; 2986.200;  404.050;    0.000
462.955; 2964.200;  328.050;    0.000
462.998; 2956.200;  340.050;    0.000
463.042; 3035.200;  361.050;    0.000
463.085; 3014.200;  337.050;    0.000
463.128; 3062.200;  373.050;    0.000
463.172; 2927.200;  347.050;    0.000
463.215;  391.200;  305.050;    0.000
463.258;  331.200;  324.050;    0.000
463.301;  304.200;  296.050;    0.000
463.344;  324.200;  332.050;    0.000
463.388;  325.200;  309.050;    0.000
463.431;  273.200;  298.050;    0.000
463.474;  329.200;  351.050;    0.000
463.517;  329.200;  319.050;    0.000
463.560;  325.200;  325.050;    0.000
463.603;  328.200;  330.050;    0.000
463.646;  294.200;  332.050;    0.000
463.690;  326.200;  325.050;    0.000
463.733;  356.200;  323.050;    0.000
463.776;  280.200;  276.050;    0.000
463.819;  313.200;  320.050;    0.000
463.862;  290.200;  275.050;    0.000

