
Integration time [ms]:   0.300
Averaging Nr. [scans]: 1
Smoothing Nr. [pixels]: 0
Data measured with spectrometer [name]: UV2
Wave   ;Sample   ;Dark     ;Reference
[nm]   ;[counts] ;[counts] ;[counts] 

353.533;  195.650;  178.050;    0.000
353.597;  220.650;  251.050;    0.000
353.660;  210.650;  213.050;    0.000
353.723;  188.650;  185.050;    0.000
353.786;  182.650;  191.050;    0.000
353.850;  218.650;  238.050;    0.000
353.913;  217.650;  181.050;    0.000
353.976;  236.650;  190.050;    0.000
354.039;  177.650;  184.050;    0.000
354.102;  212.650;  231.050;    0.000
354.166;  230.650;  188.050;    0.000
354.229;  205.650;  224.050;    0.000
354.292;  171.650;  186.050;    0.000
354.355;  195.650;  175.050;    0.000
354.418;  199.650;  191.050;    0.000
354.481;  200.650;  181.050;    0.000
354.545;  765.650;  193.050;    0.000
354.608;  820.650;  210.050;    0.000
354.671;  766.650;  183.050;    0.000
354.734;  868.650;  189.050;    0.000
354.797;  875.650;  168.050;    0.000
354.860;  865.650;  178.050;    0.000
354.923;  861.650;  236.050;    0.000
354.986;  870.650;  181.050;    0.000
355.050;  805.650;  168.050;    0.000
355.113;  906.650;  201.050;    0.000
355.176;  891.650;  206.050;    0.000
355.239;  913.650;  213.050;    0.000
355.302;  924.650;  198.050;    0.000
355.365;  987.650;  199.050;    0.000
355.428;  950.650;  200.050;    0.000
355.491; 1048.650;  232.050;    0.000
355.554;  999.650;  184.050;    0.000
355.617;  985.650;  214.050;    0.000
355.680; 1014.650;  191.050;    0.000
355.743; 1016.650;  161.050;    0.000
355.806;  963.650;  153.050;    0.000
355.869; 1098.650;  221.050;    0.000
355.932;  979.650;  152.050;    0.000
355.995; 1058.650;  195.050;    0.000
356.058; 1079.650;  172.050;    0.000
356.121; 1044.650;  186.050;    0.000
356.184; 1074.650;  196.050;    0.000
356.247; 1118.650;  183.050;    0.000
356.310; 1116.650;  159.050;    0.000
356.373; 1132.650;  183.050;    0.000
356.436; 1093.650;  176.050;    0.000
356.498; 1098.650;  191.050;    0.000
356.561; 1080.650;  145.050;    0.000
356.624; 1137.650;  187.050;    0.000
356.687; 1155.650;  181.050;    0.000
356.750; 1133.650;  227.050;    0.000
356.813; 1142.650;  147.050;    0.000
356.876; 1137.650;  184.050;    0.000
356.939; 1121.650;  141.050;    0.000
357.001; 1150.650;  188.050;    0.000
357.064; 1127.650;  173.050;    0.000
357.127; 1134.650;  159.050;    0.000
357.190; 1175.650;  185.050;    0.000
357.253; 1181.650;  180.050;    0.000
357.316; 1130.650;  199.050;    0.000
357.378; 1160.650;  196.050;    0.000
357.441; 1176.650;  175.050;    0.000
357.504; 1158.650;  164.050;    0.000
357.567; 1133.650;  145.050;    0.000
357.629; 1188.650;  205.050;    0.000
357.692; 1169.650;  175.050;    0.000
357.755; 1219.650;  205.050;    0.000
357.818; 1170.650;  141.050;    0.000
357.880; 1131.650;  170.050;    0.000
357.943; 1177.650;  152.050;    0.000
358.006; 1149.650;  145.050;    0.000
358.069; 1176.650;  164.050;    0.000
358.131; 1236.650;  148.050;    0.000
358.194; 1178.650;  122.050;    0.000
358.257; 1219.650;  147.050;    0.000
358.319; 1205.650;  156.050;    0.000
358.382; 1241.650;  193.050;    0.000
358.445; 1187.650;  155.050;    0.000
358.507; 1166.650;  160.050;    0.000
358.570; 1196.650;  159.050;    0.000
358.633; 1171.650;  163.050;    0.000
358.695; 1261.650;  174.050;    0.000
358.758; 1250.650;  127.050;    0.000
358.821; 1200.650;  165.050;    0.000
358.883; 1193.650;  145.050;    0.000
358.946; 1244.650;  127.050;    0.000
359.008; 1257.650;  180.050;    0.000
359.071; 1286.650;  173.050;    0.000
359.134; 1243.650;  150.050;    0.000
359.196; 1275.650;  158.050;    0.000
359.259; 1215.650;  159.050;    0.000
359.321; 1311.650;  159.050;    0.000
359.384; 1254.650;  182.050;    0.000
359.446; 1282.650;  140.050;    0.000
359.509; 1316.650;  146.050;    0.000
359.571; 1290.650;  133.050;    0.000
359.634; 1302.650;   93.050;    0.000
359.696; 1312.650;  142.050;    0.000
359.759; 1262.650;  161.050;    0.000
359.821; 1289.650;  110.050;    0.000
359.884; 1230.650;  114.050;    0.000
359.946; 1312.650;  180.050;    0.000
360.009; 1293.650;  158.050;    0.000
360.071; 1250.650;  116.050;    0.000
360.134; 1271.650;  170.050;    0.000
360.196; 1266.650;  128.050;    0.000
360.259; 1341.650;  157.050;    0.000
360.321; 1323.650;  122.050;    0.000
360.384; 1292.650;  119.050;    0.000
360.446; 1270.650;  122.050;    0.000
360.508; 1286.650;  195.050;    0.000
360.571; 1359.650;  128.050;    0.000
360.633; 1292.650;  172.050;    0.000
360.696; 1297.650;  115.050;    0.000
360.758; 1360.650;  162.050;    0.000
360.820; 1316.650;  149.050;    0.000
360.883; 1214.650;  151.050;    0.000
360.945; 1361.650;  149.050;    0.000
361.007; 1401.650;  135.050;    0.000
361.070; 1357.650;  162.050;    0.000
361.132; 1397.650;  198.050;    0.000
361.194; 1338.650;  141.050;    0.000
361.257; 1343.650;  154.050;    0.000
361.319; 1395.650;  147.050;    0.000
361.381; 1361.650;  154.050;    0.000
361.443; 1417.650;  144.050;    0.000
361.506; 1414.650;  164.050;    0.000
361.568; 1298.650;  148.050;    0.000
361.630; 1342.650;  127.050;    0.000
361.693; 1313.650;  158.050;    0.000
361.755; 1335.650;  161.050;    0.000
361.817; 1418.650;  173.050;    0.000
361.879; 1364.650;  159.050;    0.000
361.941; 1406.650;  153.050;    0.000
362.004; 1443.650;  148.050;    0.000
362.066; 1378.650;  150.050;    0.000
362.128; 1470.650;  132.050;    0.000
362.190; 1413.650;  207.050;    0.000
362.252; 1394.650;  142.050;    0.000
362.315; 1408.650;  153.050;    0.000
362.377; 1416.650;  164.050;    0.000
362.439; 1486.650;  155.050;    0.000
362.501; 1365.650;  157.050;    0.000
362.563; 1450.650;  188.050;    0.000
362.625; 1455.650;  194.050;    0.000
362.688; 1407.650;  159.050;    0.000
362.750; 1434.650;  205.050;    0.000
362.812; 1387.650;  148.050;    0.000
362.874; 1360.650;  173.050;    0.000
362.936; 1418.650;  152.050;    0.000
362.998; 1434.650;  145.050;    0.000
363.060; 1526.650;  184.050;    0.000
363.122; 1448.650;  147.050;    0.000
363.184; 1449.650;  136.050;    0.000
363.246; 1436.650;  171.050;    0.000
363.308; 1400.650;  154.050;    0.000
363.370; 1512.650;  175.050;    0.000
363.432; 1479.650;  139.050;    0.000
363.494; 1457.650;  163.050;    0.000
363.556; 1387.650;  117.050;    0.000
363.618; 1409.650;  126.050;    0.000
363.680; 1455.650;  147.050;    0.000
363.742; 1492.650;  161.050;    0.000
363.804; 1485.650;  159.050;    0.000
363.866; 1492.650;  170.050;    0.000
363.928; 1391.650;  122.050;    0.000
363.990; 1472.650;  167.050;    0.000
364.052; 1487.650;  180.050;    0.000
364.114; 1469.650;  119.050;    0.000
364.176; 1513.650;  184.050;    0.000
364.238; 1482.650;  180.050;    0.000
364.300; 1517.650;  159.050;    0.000
364.362; 1444.650;  163.050;    0.000
364.424; 1427.650;  139.050;    0.000
364.486; 1531.650;  189.050;    0.000
364.548; 1482.650;  167.050;    0.000
364.609; 1511.650;  165.050;    0.000
364.671; 1493.650;  171.050;    0.000
364.733; 1488.650;  165.050;    0.000
364.795; 1462.650;  122.050;    0.000
364.857; 1484.650;  147.050;    0.000
364.919; 1506.650;  104.050;    0.000
364.981; 1419.650;  143.050;    0.000
365.042; 1567.650;  166.050;    0.000
365.104; 1442.650;  162.050;    0.000
365.166; 1429.650;  155.050;    0.000
365.228; 1538.650;  179.050;    0.000
365.290; 1482.650;  133.050;    0.000
365.351; 1532.650;  142.050;    0.000
365.413; 1450.650;  144.050;    0.000
365.475; 1519.650;  139.050;    0.000
365.537; 1568.650;  181.050;    0.000
365.598; 1540.650;  166.050;    0.000
365.660; 1425.650;  130.050;    0.000
365.722; 1484.650;  177.050;    0.000
365.784; 1520.650;  149.050;    0.000
365.845; 1583.650;  156.050;    0.000
365.907; 1487.650;  122.050;    0.000
365.969; 1585.650;  140.050;    0.000
366.030; 1547.650;  156.050;    0.000
366.092; 1543.650;  140.050;    0.000
366.154; 1596.650;  169.050;    0.000
366.215; 1564.650;  170.050;    0.000
366.277; 1523.650;  143.050;    0.000
366.339; 1544.650;  139.050;    0.000
366.400; 1554.650;  139.050;    0.000
366.462; 1513.650;  140.050;    0.000
366.524; 1535.650;  150.050;    0.000
366.585; 1588.650;  163.050;    0.000
366.647; 1565.650;  193.050;    0.000
366.708; 1500.650;  135.050;    0.000
366.770; 1557.650;  165.050;    0.000
366.832; 1632.650;  168.050;    0.000
366.893; 1529.650;  157.050;    0.000
366.955; 1543.650;  132.050;    0.000
367.016; 1575.650;  127.050;    0.000
367.078; 1557.650;  146.050;    0.000
367.139; 1525.650;  129.050;    0.000
367.201; 1575.650;  148.050;    0.000
367.262; 1510.650;  165.050;    0.000
367.324; 1564.650;  171.050;    0.000
367.385; 1545.650;  118.050;    0.000
367.447; 1585.650;  144.050;    0.000
367.508; 1568.650;  135.050;    0.000
367.570; 1558.650;  160.050;    0.000
367.631; 1549.650;  157.050;    0.000
367.693; 1501.650;  168.050;    0.000
367.754; 1575.650;  139.050;    0.000
367.816; 1543.650;  141.050;    0.000
367.877; 1590.650;  195.050;    0.000
367.939; 1583.650;  166.050;    0.000
368.000; 1561.650;  127.050;    0.000
368.062; 1546.650;  143.050;    0.000
368.123; 1604.650;  156.050;    0.000
368.184; 1560.650;  179.050;    0.000
368.246; 1568.650;  168.050;    0.000
368.307; 1591.650;  203.050;    0.000
368.369; 1554.650;  149.050;    0.000
368.430; 1557.650;  121.050;    0.000
368.491; 1575.650;  131.050;    0.000
368.553; 1629.650;  161.050;    0.000
368.614; 1594.650;  157.050;    0.000
368.675; 1532.650;  152.050;    0.000
368.737; 1599.650;  168.050;    0.000
368.798; 1590.650;  147.050;    0.000
368.859; 1685.650;  174.050;    0.000
368.921; 1690.650;  168.050;    0.000
368.982; 1613.650;  151.050;    0.000
369.043; 1596.650;  169.050;    0.000
369.104; 1556.650;  149.050;    0.000
369.166; 1611.650;  178.050;    0.000
369.227; 1606.650;  149.050;    0.000
369.288; 1633.650;  131.050;    0.000
369.349; 1631.650;  128.050;    0.000
369.411; 1677.650;  198.050;    0.000
369.472; 1606.650;  156.050;    0.000
369.533; 1612.650;  142.050;    0.000
369.594; 1623.650;  125.050;    0.000
369.656; 1682.650;  153.050;    0.000
369.717; 1611.650;  124.050;    0.000
369.778; 1648.650;  163.050;    0.000
369.839; 1629.650;  130.050;    0.000
369.900; 1646.650;  170.050;    0.000
369.961; 1618.650;  142.050;    0.000
370.023; 1614.650;  197.050;    0.000
370.084; 1639.650;  151.050;    0.000
370.145; 1573.650;  128.050;    0.000
370.206; 1684.650;  152.050;    0.000
370.267; 1676.650;  154.050;    0.000
370.328; 1674.650;  154.050;    0.000
370.389; 1700.650;  173.050;    0.000
370.451; 1679.650;  191.050;    0.000
370.512; 1643.650;  155.050;    0.000
370.573; 1635.650;  134.050;    0.000
370.634; 1700.650;  160.050;    0.000
370.695; 1725.650;  124.050;    0.000
370.756; 1690.650;  169.050;    0.000
370.817; 1686.650;  169.050;    0.000
370.878; 1746.650;  200.050;    0.000
370.939; 1623.650;  157.050;    0.000
371.000; 1689.650;  131.050;    0.000
371.061; 1630.650;  136.050;    0.000
371.122; 1742.650;  176.050;    0.000
371.183; 1622.650;   81.050;    0.000
371.244; 1736.650;  156.050;    0.000
371.305; 1715.650;  131.050;    0.000
371.366; 1610.650;  161.050;    0.000
371.427; 1664.650;  127.050;    0.000
371.488; 1674.650;  184.050;    0.000
371.549; 1683.650;  159.050;    0.000
371.610; 1654.650;  147.050;    0.000
371.671; 1666.650;  132.050;    0.000
371.732; 1773.650;  163.050;    0.000
371.793; 1746.650;  179.050;    0.000
371.853; 1672.650;  179.050;    0.000
371.914; 1714.650;  149.050;    0.000
371.975; 1714.650;  117.050;    0.000
372.036; 1727.650;  141.050;    0.000
372.097; 1704.650;  101.050;    0.000
372.158; 1687.650;  115.050;    0.000
372.219; 1642.650;  174.050;    0.000
372.280; 1788.650;  134.050;    0.000
372.340; 1742.650;  180.050;    0.000
372.401; 1733.650;  166.050;    0.000
372.462; 1712.650;  171.050;    0.000
372.523; 1694.650;  132.050;    0.000
372.584; 1667.650;  182.050;    0.000
372.645; 1684.650;  149.050;    0.000
372.705; 1753.650;  182.050;    0.000
372.766; 1777.650;  145.050;    0.000
372.827; 1756.650;  161.050;    0.000
372.888; 1724.650;  156.050;    0.000
372.948; 1735.650;  158.050;    0.000
373.009; 1737.650;  178.050;    0.000
373.070; 1771.650;  166.050;    0.000
373.131; 1745.650;  154.050;    0.000
373.191; 1755.650;  193.050;    0.000
373.252; 1718.650;  148.050;    0.000
373.313; 1717.650;  152.050;    0.000
373.373; 1718.650;  156.050;    0.000
373.434; 1795.650;  166.050;    0.000
373.495; 1788.650;  152.050;    0.000
373.555; 1816.650;  145.050;    0.000
373.616; 1717.650;  141.050;    0.000
373.677; 1680.650;  169.050;    0.000
373.737; 1758.650;  166.050;    0.000
373.798; 1773.650;  151.050;    0.000
373.859; 1789.650;  170.050;    0.000
373.919; 1715.650;  206.050;    0.000
373.980; 1741.650;  140.050;    0.000
374.041; 1706.650;  148.050;    0.000
374.101; 1751.650;  165.050;    0.000
374.162; 1829.650;  166.050;    0.000
374.222; 1804.650;  156.050;    0.000
374.283; 1839.650;  161.050;    0.000
374.343; 1812.650;  185.050;    0.000
374.404; 1814.650;  148.050;    0.000
374.465; 1719.650;  162.050;    0.000
374.525; 1723.650;  177.050;    0.000
374.586; 1808.650;  164.050;    0.000
374.646; 1849.650;  180.050;    0.000
374.707; 1856.650;  203.050;    0.000
374.767; 1856.650;  148.050;    0.000
374.828; 1856.650;  142.050;    0.000
374.888; 1815.650;  187.050;    0.000
374.949; 1883.650;  137.050;    0.000
375.009; 1877.650;  155.050;    0.000
375.070; 1887.650;  165.050;    0.000
375.130; 1817.650;  168.050;    0.000
375.190; 1868.650;  157.050;    0.000
375.251; 1920.650;  206.050;    0.000
375.311; 1829.650;  141.050;    0.000
375.372; 1866.650;  144.050;    0.000
375.432; 1849.650;  153.050;    0.000
375.493; 1965.650;  168.050;    0.000
375.553; 1847.650;  146.050;    0.000
375.613; 1833.650;  142.050;    0.000
375.674; 1908.650;  153.050;    0.000
375.734; 1859.650;  166.050;    0.000
375.794; 1885.650;  145.050;    0.000
375.855; 1818.650;  162.050;    0.000
375.915; 1807.650;  162.050;    0.000
375.975; 1839.650;  144.050;    0.000
376.036; 1778.650;  128.050;    0.000
376.096; 1821.650;  122.050;    0.000
376.156; 1764.650;  140.050;    0.000
376.217; 1874.650;  158.050;    0.000
376.277; 1830.650;  163.050;    0.000
376.337; 1952.650;  139.050;    0.000
376.398; 1861.650;  176.050;    0.000
376.458; 1907.650;  143.050;    0.000
376.518; 1864.650;  136.050;    0.000
376.578; 1802.650;  177.050;    0.000
376.639; 1845.650;  163.050;    0.000
376.699; 1871.650;  183.050;    0.000
376.759; 1872.650;  169.050;    0.000
376.819; 1881.650;  147.050;    0.000
376.880; 1932.650;  188.050;    0.000
376.940; 1933.650;  185.050;    0.000
377.000; 1896.650;  131.050;    0.000
377.060; 1901.650;  182.050;    0.000
377.120; 1797.650;  165.050;    0.000
377.180; 1971.650;  169.050;    0.000
377.241; 1929.650;  146.050;    0.000
377.301; 1883.650;  183.050;    0.000
377.361; 1937.650;  124.050;    0.000
377.421; 1887.650;  186.050;    0.000
377.481; 1966.650;  178.050;    0.000
377.541; 2001.650;  140.050;    0.000
377.601; 1902.650;  175.050;    0.000
377.661; 1969.650;  169.050;    0.000
377.722; 1982.650;  144.050;    0.000
377.782; 1952.650;  182.050;    0.000
377.842; 2045.650;  161.050;    0.000
377.902; 2018.650;  151.050;    0.000
377.962; 1907.650;  134.050;    0.000
378.022; 1978.650;  153.050;    0.000
378.082; 1963.650;  178.050;    0.000
378.142; 1901.650;  118.050;    0.000
378.202; 2018.650;  153.050;    0.000
378.262; 1996.650;  166.050;    0.000
378.322; 1964.650;  174.050;    0.000
378.382; 2048.650;  148.050;    0.000
378.442; 2045.650;  190.050;    0.000
378.502; 2062.650;  136.050;    0.000
378.562; 2021.650;  130.050;    0.000
378.622; 1935.650;  188.050;    0.000
378.682; 2035.650;  163.050;    0.000
378.742; 2031.650;  150.050;    0.000
378.802; 2012.650;  127.050;    0.000
378.862; 2037.650;  186.050;    0.000
378.921; 2112.650;  203.050;    0.000
378.981; 2126.650;  177.050;    0.000
379.041; 2014.650;  134.050;    0.000
379.101; 2087.650;  167.050;    0.000
379.161; 1993.650;  130.050;    0.000
379.221; 2165.650;  169.050;    0.000
379.281; 2166.650;  162.050;    0.000
379.341; 2106.650;  134.050;    0.000
379.401; 2064.650;  151.050;    0.000
379.460; 2087.650;  190.050;    0.000
379.520; 2213.650;  158.050;    0.000
379.580; 2130.650;  162.050;    0.000
379.640; 2176.650;  146.050;    0.000
379.700; 2195.650;  167.050;    0.000
379.759; 2180.650;  194.050;    0.000
379.819; 2179.650;  176.050;    0.000
379.879; 2192.650;  140.050;    0.000
379.939; 2255.650;  184.050;    0.000
379.999; 2176.650;  165.050;    0.000
380.058; 2227.650;  194.050;    0.000
380.118; 2186.650;  137.050;    0.000
380.178; 2239.650;  139.050;    0.000
380.237; 2254.650;  139.050;    0.000
380.297; 2311.650;  160.050;    0.000
380.357; 2262.650;  194.050;    0.000
380.417; 2358.650;  174.050;    0.000
380.476; 2314.650;  153.050;    0.000
380.536; 2262.650;  169.050;    0.000
380.596; 2320.650;  159.050;    0.000
380.655; 2282.650;  178.050;    0.000
380.715; 2248.650;  196.050;    0.000
380.775; 2364.650;  202.050;    0.000
380.834; 2242.650;  186.050;    0.000
380.894; 2283.650;  167.050;    0.000
380.954; 2314.650;  150.050;    0.000
381.013; 2359.650;  187.050;    0.000
381.073; 2267.650;  114.050;    0.000
381.132; 2410.650;  176.050;    0.000
381.192; 2410.650;  197.050;    0.000
381.252; 2366.650;  172.050;    0.000
381.311; 2382.650;  155.050;    0.000
381.371; 2406.650;  172.050;    0.000
381.430; 2348.650;  143.050;    0.000
381.490; 2466.650;  136.050;    0.000
381.549; 2476.650;  131.050;    0.000
381.609; 2460.650;  203.050;    0.000
381.668; 2424.650;  135.050;    0.000
381.728; 2505.650;  163.050;    0.000
381.787; 2524.650;  195.050;    0.000
381.847; 2553.650;  185.050;    0.000
381.906; 2495.650;  187.050;    0.000
381.966; 2613.650;  153.050;    0.000
382.025; 2627.650;  175.050;    0.000
382.085; 2617.650;  195.050;    0.000
382.144; 2761.650;  210.050;    0.000
382.204; 2786.650;  201.050;    0.000
382.263; 2755.650;  178.050;    0.000
382.323; 2652.650;  151.050;    0.000
382.382; 2853.650;  147.050;    0.000
382.441; 2841.650;  144.050;    0.000
382.501; 2976.650;  156.050;    0.000
382.560; 3056.650;  160.050;    0.000
382.619; 3085.650;  173.050;    0.000
382.679; 3233.650;  167.050;    0.000
382.738; 3415.650;  189.050;    0.000
382.798; 3641.650;  181.050;    0.000
382.857; 3919.650;  161.050;    0.000
382.916; 4301.650;  162.050;    0.000
382.976; 4455.650;  169.050;    0.000
383.035; 4204.650;  174.050;    0.000
383.094; 4421.650;  178.050;    0.000
383.154; 4896.650;  188.050;    0.000
383.213; 5515.650;  162.050;    0.000
383.272; 5380.650;  144.050;    0.000
383.331; 4531.650;  144.050;    0.000
383.391; 4239.650;  198.050;    0.000
383.450; 4069.650;  185.050;    0.000
383.509; 4060.650;  132.050;    0.000
383.568; 4259.650;  171.050;    0.000
383.628; 4436.650;  171.050;    0.000
383.687; 4874.650;  172.050;    0.000
383.746; 5443.650;  144.050;    0.000
383.805; 6325.650;  177.050;    0.000
383.864; 6040.650;  145.050;    0.000
383.924; 4845.650;  203.050;    0.000
383.983; 4072.650;  153.050;    0.000
384.042; 3802.650;  171.050;    0.000
384.101; 3577.650;  186.050;    0.000
384.160; 3359.650;  132.050;    0.000
384.219; 3255.650;  157.050;    0.000
384.279; 3103.650;  166.050;    0.000
384.338; 2926.650;  141.050;    0.000
384.397; 2909.650;  142.050;    0.000
384.456; 2922.650;  155.050;    0.000
384.515; 2866.650;  158.050;    0.000
384.574; 2788.650;  208.050;    0.000
384.633; 2746.650;  158.050;    0.000
384.692; 2793.650;  162.050;    0.000
384.751; 2792.650;  179.050;    0.000
384.810; 2698.650;  150.050;    0.000
384.869; 2713.650;  147.050;    0.000
384.929; 2732.650;  132.050;    0.000
384.988; 2675.650;  166.050;    0.000
385.047; 2701.650;  161.050;    0.000
385.106; 2764.650;  180.050;    0.000
385.165; 2595.650;  123.050;    0.000
385.224; 2603.650;  153.050;    0.000
385.283; 2640.650;  158.050;    0.000
385.342; 2615.650;  184.050;    0.000
385.401; 2749.650;  191.050;    0.000
385.459; 2650.650;  143.050;    0.000
385.518; 2584.650;  152.050;    0.000
385.577; 2699.650;  134.050;    0.000
385.636; 2672.650;  187.050;    0.000
385.695; 2695.650;  141.050;    0.000
385.754; 2672.650;  143.050;    0.000
385.813; 2705.650;  145.050;    0.000
385.872; 2680.650;  116.050;    0.000
385.931; 2657.650;  147.050;    0.000
385.990; 2518.650;  170.050;    0.000
386.049; 2549.650;  189.050;    0.000
386.107; 2625.650;  122.050;    0.000
386.166; 2661.650;  155.050;    0.000
386.225; 2601.650;  173.050;    0.000
386.284; 2712.650;  138.050;    0.000
386.343; 2693.650;  216.050;    0.000
386.402; 2661.650;  162.050;    0.000
386.460; 2629.650;  131.050;    0.000
386.519; 2511.650;  122.050;    0.000
386.578; 2633.650;  140.050;    0.000
386.637; 2665.650;  169.050;    0.000
386.696; 2627.650;  176.050;    0.000
386.754; 2579.650;  127.050;    0.000
386.813; 2614.650;  138.050;    0.000
386.872; 2591.650;  135.050;    0.000
386.931; 2635.650;  170.050;    0.000
386.989; 2562.650;  167.050;    0.000
387.048; 2486.650;  131.050;    0.000
387.107; 2608.650;  176.050;    0.000
387.165; 2638.650;  139.050;    0.000
387.224; 2576.650;  150.050;    0.000
387.283; 2594.650;  169.050;    0.000
387.342; 2588.650;  191.050;    0.000
387.400; 2489.650;  131.050;    0.000
387.459; 2562.650;  139.050;    0.000
387.517; 2549.650;  214.050;    0.000
387.576; 2508.650;  146.050;    0.000
387.635; 2545.650;  161.050;    0.000
387.693; 2637.650;  197.050;    0.000
387.752; 2508.650;  159.050;    0.000
387.811; 2459.650;  144.050;    0.000
387.869; 2633.650;  172.050;    0.000
387.928; 2525.650;  160.050;    0.000
387.986; 2525.650;  192.050;    0.000
388.045; 2483.650;  121.050;    0.000
388.103; 2550.650;  129.050;    0.000
388.162; 2601.650;  169.050;    0.000
388.221; 2581.650;  171.050;    0.000
388.279; 2445.650;  135.050;    0.000
388.338; 2508.650;  222.050;    0.000
388.396; 2450.650;  168.050;    0.000
388.455; 2553.650;  178.050;    0.000
388.513; 2511.650;  151.050;    0.000
388.572; 2507.650;  147.050;    0.000
388.630; 2563.650;  158.050;    0.000
388.689; 2480.650;  163.050;    0.000
388.747; 2489.650;  180.050;    0.000
388.806; 2500.650;  119.050;    0.000
388.864; 2424.650;  159.050;    0.000
388.922; 2482.650;  152.050;    0.000
388.981; 2473.650;  125.050;    0.000
389.039; 2401.650;  151.050;    0.000
389.098; 2555.650;  151.050;    0.000
389.156; 2569.650;  175.050;    0.000
389.214; 2504.650;  133.050;    0.000
389.273; 2559.650;  142.050;    0.000
389.331; 2611.650;  179.050;    0.000
389.390; 2462.650;  179.050;    0.000
389.448; 2509.650;  159.050;    0.000
389.506; 2531.650;  140.050;    0.000
389.565; 2598.650;  160.050;    0.000
389.623; 2472.650;  181.050;    0.000
389.681; 2458.650;  181.050;    0.000
389.740; 2581.650;  187.050;    0.000
389.798; 2534.650;  163.050;    0.000
389.856; 2508.650;  185.050;    0.000
389.914; 2495.650;  170.050;    0.000
389.973; 2538.650;  150.050;    0.000
390.031; 2531.650;  149.050;    0.000
390.089; 2510.650;  191.050;    0.000
390.147; 2481.650;  126.050;    0.000
390.206; 2446.650;  174.050;    0.000
390.264; 2420.650;  164.050;    0.000
390.322; 2464.650;  150.050;    0.000
390.380; 2384.650;  137.050;    0.000
390.439; 2445.650;  176.050;    0.000
390.497; 2532.650;  188.050;    0.000
390.555; 2465.650;  143.050;    0.000
390.613; 2463.650;  174.050;    0.000
390.671; 2515.650;  208.050;    0.000
390.729; 2543.650;  135.050;    0.000
390.788; 2481.650;  169.050;    0.000
390.846; 2537.650;  173.050;    0.000
390.904; 2468.650;  176.050;    0.000
390.962; 2460.650;  179.050;    0.000
391.020; 2558.650;  201.050;    0.000
391.078; 2539.650;  192.050;    0.000
391.136; 2495.650;  170.050;    0.000
391.194; 2543.650;  163.050;    0.000
391.253; 2485.650;  203.050;    0.000
391.311; 2490.650;  170.050;    0.000
391.369; 2552.650;  191.050;    0.000
391.427; 2630.650;  226.050;    0.000
391.485; 2508.650;  181.050;    0.000
391.543; 2563.650;  177.050;    0.000
391.601; 2548.650;  150.050;    0.000
391.659; 2607.650;  201.050;    0.000
391.717; 2616.650;  166.050;    0.000
391.775; 2545.650;  200.050;    0.000
391.833; 2524.650;  180.050;    0.000
391.891; 2483.650;  172.050;    0.000
391.949; 2538.650;  174.050;    0.000
392.007; 2603.650;  194.050;    0.000
392.065; 2511.650;  161.050;    0.000
392.123; 2527.650;  159.050;    0.000
392.180; 2654.650;  193.050;    0.000
392.238; 2664.650;  188.050;    0.000
392.296; 2618.650;  206.050;    0.000
392.354; 2670.650;  170.050;    0.000
392.412; 2570.650;  207.050;    0.000
392.470; 2544.650;  168.050;    0.000
392.528; 2595.650;  185.050;    0.000
392.586; 2592.650;  154.050;    0.000
392.644; 2606.650;  190.050;    0.000
392.701; 2682.650;  195.050;    0.000
392.759; 2583.650;  229.050;    0.000
392.817; 2614.650;  176.050;    0.000
392.875; 2535.650;  198.050;    0.000
392.933; 2582.650;  174.050;    0.000
392.991; 2610.650;  237.050;    0.000
393.048; 2584.650;  212.050;    0.000
393.106; 2618.650;  191.050;    0.000
393.164; 2638.650;  136.050;    0.000
393.222; 2614.650;  164.050;    0.000
393.279; 2718.650;  208.050;    0.000
393.337; 2597.650;  203.050;    0.000
393.395; 2652.650;  191.050;    0.000
393.453; 2628.650;  153.050;    0.000
393.510; 2686.650;  171.050;    0.000
393.568; 2652.650;  203.050;    0.000
393.626; 2657.650;  169.050;    0.000
393.684; 2583.650;  201.050;    0.000
393.741; 2627.650;  172.050;    0.000
393.799; 2608.650;  149.050;    0.000
393.857; 2567.650;  151.050;    0.000
393.914; 2587.650;  192.050;    0.000
393.972; 2616.650;  176.050;    0.000
394.030; 2622.650;  165.050;    0.000
394.087; 2657.650;  192.050;    0.000
394.145; 2548.650;  183.050;    0.000
394.202; 2720.650;  161.050;    0.000
394.260; 2677.650;  135.050;    0.000
394.318; 2666.650;  188.050;    0.000
394.375; 2693.650;  163.050;    0.000
394.433; 2669.650;  151.050;    0.000
394.490; 2707.650;  190.050;    0.000
394.548; 2693.650;  157.050;    0.000
394.605; 2694.650;  205.050;    0.000
394.663; 2707.650;  173.050;    0.000
394.720; 2635.650;  171.050;    0.000
394.778; 2702.650;  190.050;    0.000
394.836; 2673.650;  134.050;    0.000
394.893; 2736.650;  142.050;    0.000
394.951; 2680.650;  192.050;    0.000
395.008; 2746.650;  149.050;    0.000
395.065; 2792.650;  194.050;    0.000
395.123; 2633.650;  160.050;    0.000
395.180; 2697.650;  178.050;    0.000
395.238; 2713.650;  191.050;    0.000
395.295; 2700.650;  160.050;    0.000
395.353; 2815.650;  162.050;    0.000
395.410; 2761.650;  165.050;    0.000
395.468; 2843.650;  190.050;    0.000
395.525; 2737.650;  173.050;    0.000
395.582; 2903.650;  161.050;    0.000
395.640; 2872.650;  200.050;    0.000
395.697; 2833.650;  198.050;    0.000
395.754; 2772.650;  136.050;    0.000
395.812; 2781.650;  172.050;    0.000
395.869; 2830.650;  172.050;    0.000
395.927; 2881.650;  145.050;    0.000
395.984; 2851.650;  220.050;    0.000
396.041; 2801.650;  137.050;    0.000
396.098; 2775.650;  161.050;    0.000
396.156; 2814.650;  159.050;    0.000
396.213; 2811.650;  200.050;    0.000
396.270; 2734.650;  209.050;    0.000
396.328; 2821.650;  162.050;    0.000
396.385; 2772.650;  186.050;    0.000
396.442; 2806.650;  177.050;    0.000
396.499; 2872.650;  183.050;    0.000
396.557; 2868.650;  182.050;    0.000
396.614; 2883.650;  186.050;    0.000
396.671; 2821.650;  144.050;    0.000
396.728; 2858.650;  176.050;    0.000
396.785; 2831.650;  169.050;    0.000
396.843; 2895.650;  134.050;    0.000
396.900; 2934.650;  184.050;    0.000
396.957; 2889.650;  197.050;    0.000
397.014; 2826.650;  187.050;    0.000
397.071; 2912.650;  186.050;    0.000
397.128; 2922.650;  200.050;    0.000
397.186; 2984.650;  175.050;    0.000
397.243; 2911.650;  154.050;    0.000
397.300; 2842.650;  191.050;    0.000
397.357; 2867.650;  238.050;    0.000
397.414; 2856.650;  161.050;    0.000
397.471; 2855.650;  135.050;    0.000
397.528; 2924.650;  158.050;    0.000
397.585; 2954.650;  159.050;    0.000
397.642; 2786.650;  180.050;    0.000
397.699; 3013.650;  170.050;    0.000
397.756; 2948.650;  175.050;    0.000
397.814; 2997.650;  182.050;    0.000
397.871; 2916.650;  173.050;    0.000
397.928; 2928.650;  173.050;    0.000
397.985; 2903.650;  176.050;    0.000
398.042; 2985.650;  189.050;    0.000
398.099; 3039.650;  160.050;    0.000
398.156; 3041.650;  218.050;    0.000
398.212; 3023.650;  194.050;    0.000
398.269; 2976.650;  199.050;    0.000
398.326; 3067.650;  188.050;    0.000
398.383; 3038.650;  187.050;    0.000
398.440; 3091.650;  174.050;    0.000
398.497; 3082.650;  214.050;    0.000
398.554; 3053.650;  181.050;    0.000
398.611; 3078.650;  195.050;    0.000
398.668; 3034.650;  145.050;    0.000
398.725; 3116.650;  178.050;    0.000
398.782; 3186.650;  210.050;    0.000
398.839; 3175.650;  216.050;    0.000
398.895; 3100.650;  189.050;    0.000
398.952; 3176.650;  206.050;    0.000
399.009; 3215.650;  142.050;    0.000
399.066; 3198.650;  192.050;    0.000
399.123; 3256.650;  181.050;    0.000
399.180; 3305.650;  200.050;    0.000
399.236; 3299.650;  156.050;    0.000
399.293; 3344.650;  194.050;    0.000
399.350; 3242.650;  167.050;    0.000
399.407; 3427.650;  192.050;    0.000
399.463; 3391.650;  161.050;    0.000
399.520; 3438.650;  149.050;    0.000
399.577; 3639.650;  156.050;    0.000
399.634; 3580.650;  195.050;    0.000
399.690; 3494.650;  163.050;    0.000
399.747; 3632.650;  192.050;    0.000
399.804; 3618.650;  212.050;    0.000
399.861; 3612.650;  203.050;    0.000
399.917; 3453.650;  221.050;    0.000
399.974; 3460.650;  221.050;    0.000
400.031; 3485.650;  195.050;    0.000
400.087; 3480.650;  159.050;    0.000
400.144; 3489.650;  201.050;    0.000
400.201; 3451.650;  206.050;    0.000
400.257; 3461.650;  168.050;    0.000
400.314; 3407.650;  183.050;    0.000
400.370; 3293.650;  209.050;    0.000
400.427; 3367.650;  192.050;    0.000
400.484; 3372.650;  150.050;    0.000
400.540; 3297.650;  213.050;    0.000
400.597; 3386.650;  161.050;    0.000
400.653; 3381.650;  170.050;    0.000
400.710; 3350.650;  173.050;    0.000
400.766; 3381.650;  204.050;    0.000
400.823; 3313.650;  194.050;    0.000
400.879; 3210.650;  188.050;    0.000
400.936; 3273.650;  172.050;    0.000
400.993; 3334.650;  154.050;    0.000
401.049; 3203.650;  157.050;    0.000
401.105; 3331.650;  214.050;    0.000
401.162; 3260.650;  195.050;    0.000
401.218; 3343.650;  195.050;    0.000
401.275; 3232.650;  182.050;    0.000
401.331; 3308.650;  188.050;    0.000
401.388; 3280.650;  194.050;    0.000
401.444; 3327.650;  175.050;    0.000
401.501; 3204.650;  169.050;    0.000
401.557; 3279.650;  176.050;    0.000
401.614; 3099.650;  153.050;    0.000
401.670; 3275.650;  178.050;    0.000
401.726; 3350.650;  179.050;    0.000
401.783; 3317.650;  198.050;    0.000
401.839; 3244.650;  179.050;    0.000
401.895; 3252.650;  154.050;    0.000
401.952; 3294.650;  138.050;    0.000
402.008; 3214.650;  135.050;    0.000
402.064; 3165.650;  154.050;    0.000
402.121; 3233.650;  199.050;    0.000
402.177; 3301.650;  126.050;    0.000
402.233; 3206.650;  190.050;    0.000
402.290; 3308.650;  175.050;    0.000
402.346; 3271.650;  200.050;    0.000
402.402; 3323.650;  191.050;    0.000
402.458; 3365.650;  172.050;    0.000
402.515; 3326.650;  186.050;    0.000
402.571; 3245.650;  189.050;    0.000
402.627; 3330.650;  151.050;    0.000
402.683; 3370.650;  187.050;    0.000
402.740; 3325.650;  147.050;    0.000
402.796; 3302.650;  176.050;    0.000
402.852; 3393.650;  200.050;    0.000
402.908; 3338.650;  201.050;    0.000
402.964; 3288.650;  153.050;    0.000
403.021; 3463.650;  165.050;    0.000
403.077; 3386.650;  195.050;    0.000
403.133; 3363.650;  139.050;    0.000
403.189; 3478.650;  166.050;    0.000
403.245; 3423.650;  194.050;    0.000
403.301; 3360.650;  210.050;    0.000
403.357; 3426.650;  187.050;    0.000
403.414; 3410.650;  195.050;    0.000
403.470; 3462.650;  150.050;    0.000
403.526; 3412.650;  158.050;    0.000
403.582; 3423.650;  184.050;    0.000
403.638; 3392.650;  171.050;    0.000
403.694; 3380.650;  197.050;    0.000
403.750; 3480.650;  196.050;    0.000
403.806; 3347.650;  192.050;    0.000
403.862; 3466.650;  169.050;    0.000
403.918; 3397.650;  199.050;    0.000
403.974; 3353.650;  156.050;    0.000
404.030; 3485.650;  193.050;    0.000
404.086; 3530.650;  161.050;    0.000
404.142; 3502.650;  172.050;    0.000
404.198; 3543.650;  195.050;    0.000
404.254; 3483.650;  167.050;    0.000
404.310; 3589.650;  156.050;    0.000
404.366; 3446.650;  144.050;    0.000
404.422; 3432.650;  161.050;    0.000
404.478; 3468.650;  179.050;    0.000
404.534; 3574.650;  163.050;    0.000
404.590; 3465.650;  183.050;    0.000
404.646; 3492.650;  155.050;    0.000
404.701; 3447.650;  142.050;    0.000
404.757; 3451.650;  175.050;    0.000
404.813; 3604.650;  153.050;    0.000
404.869; 3387.650;  199.050;    0.000
404.925; 3381.650;  153.050;    0.000
404.981; 3614.650;  174.050;    0.000
405.037; 3494.650;  185.050;    0.000
405.092; 3519.650;  166.050;    0.000
405.148; 3548.650;  161.050;    0.000
405.204; 3455.650;  170.050;    0.000
405.260; 3526.650;  154.050;    0.000
405.316; 3490.650;  128.050;    0.000
405.371; 3558.650;  142.050;    0.000
405.427; 3459.650;  196.050;    0.000
405.483; 3556.650;  172.050;    0.000
405.539; 3534.650;  182.050;    0.000
405.594; 3556.650;  153.050;    0.000
405.650; 3526.650;  124.050;    0.000
405.706; 3608.650;  189.050;    0.000
405.761; 3613.650;  165.050;    0.000
405.817; 3484.650;  152.050;    0.000
405.873; 3545.650;  174.050;    0.000
405.928; 3504.650;  167.050;    0.000
405.984; 3675.650;  210.050;    0.000
406.040; 3573.650;  160.050;    0.000
406.095; 3577.650;  163.050;    0.000
406.151; 3591.650;  208.050;    0.000
406.207; 3695.650;  177.050;    0.000
406.262; 3668.650;  176.050;    0.000
406.318; 3711.650;  157.050;    0.000
406.374; 3655.650;  141.050;    0.000
406.429; 3688.650;  189.050;    0.000
406.485; 3784.650;  190.050;    0.000
406.540; 3651.650;  155.050;    0.000
406.596; 3548.650;  182.050;    0.000
406.651; 3744.650;  200.050;    0.000
406.707; 3695.650;  130.050;    0.000
406.763; 3749.650;  174.050;    0.000
406.818; 3718.650;  151.050;    0.000
406.874; 3787.650;  122.050;    0.000
406.929; 3891.650;  153.050;    0.000
406.985; 3888.650;  198.050;    0.000
407.040; 3903.650;  174.050;    0.000
407.095; 3888.650;  161.050;    0.000
407.151; 3952.650;  184.050;    0.000
407.206; 3974.650;  188.050;    0.000
407.262; 3945.650;  180.050;    0.000
407.317; 3916.650;  186.050;    0.000
407.373; 4085.650;  200.050;    0.000
407.428; 3943.650;  211.050;    0.000
407.484; 4036.650;  193.050;    0.000
407.539; 3957.650;  167.050;    0.000
407.594; 3997.650;  178.050;    0.000
407.650; 4013.650;  171.050;    0.000
407.705; 3974.650;  153.050;    0.000
407.760; 4053.650;  196.050;    0.000
407.816; 4013.650;  205.050;    0.000
407.871; 3993.650;  232.050;    0.000
407.926; 3985.650;  215.050;    0.000
407.982; 3988.650;  154.050;    0.000
408.037; 3887.650;  217.050;    0.000
408.092; 3813.650;  190.050;    0.000
408.148; 3883.650;  181.050;    0.000
408.203; 3883.650;  203.050;    0.000
408.258; 3845.650;  154.050;    0.000
408.314; 4026.650;  198.050;    0.000
408.369; 3801.650;  156.050;    0.000
408.424; 3916.650;  216.050;    0.000
408.479; 3840.650;  191.050;    0.000
408.534; 3917.650;  200.050;    0.000
408.590; 3934.650;  182.050;    0.000
408.645; 3839.650;  141.050;    0.000
408.700; 3909.650;  209.050;    0.000
408.755; 3817.650;  205.050;    0.000
408.810; 3771.650;  171.050;    0.000
408.866; 3864.650;  200.050;    0.000
408.921; 3894.650;  188.050;    0.000
408.976; 3889.650;  156.050;    0.000
409.031; 3797.650;  164.050;    0.000
409.086; 3830.650;  155.050;    0.000
409.141; 3909.650;  205.050;    0.000
409.196; 3844.650;  173.050;    0.000
409.252; 3867.650;  179.050;    0.000
409.307; 3893.650;  131.050;    0.000
409.362; 3810.650;  173.050;    0.000
409.417; 3877.650;  120.050;    0.000
409.472; 3925.650;  198.050;    0.000
409.527; 3904.650;  153.050;    0.000
409.582; 3859.650;  177.050;    0.000
409.637; 3904.650;  184.050;    0.000
409.692; 3719.650;  203.050;    0.000
409.747; 3953.650;  158.050;    0.000
409.802; 3771.650;  212.050;    0.000
409.857; 3778.650;  192.050;    0.000
409.912; 3873.650;  179.050;    0.000
409.967; 3822.650;  177.050;    0.000
410.022; 3909.650;  204.050;    0.000
410.077; 3812.650;  175.050;    0.000
410.132; 3922.650;  207.050;    0.000
410.187; 3791.650;  169.050;    0.000
410.242; 3828.650;  186.050;    0.000
410.297; 3813.650;  185.050;    0.000
410.351; 3781.650;  191.050;    0.000
410.406; 3844.650;  215.050;    0.000
410.461; 3904.650;  190.050;    0.000
410.516; 3845.650;  172.050;    0.000
410.571; 3811.650;  190.050;    0.000
410.626; 3939.650;  189.050;    0.000
410.681; 3873.650;  191.050;    0.000
410.736; 3791.650;  166.050;    0.000
410.790; 3859.650;  179.050;    0.000
410.845; 3892.650;  196.050;    0.000
410.900; 3874.650;  168.050;    0.000
410.955; 3847.650;  173.050;    0.000
411.010; 3834.650;  162.050;    0.000
411.064; 3752.650;  205.050;    0.000
411.119; 3793.650;  203.050;    0.000
411.174; 3876.650;  207.050;    0.000
411.229; 3794.650;  218.050;    0.000
411.283; 3732.650;  218.050;    0.000
411.338; 3889.650;  180.050;    0.000
411.393; 3831.650;  191.050;    0.000
411.447; 3801.650;  207.050;    0.000
411.502; 3830.650;  204.050;    0.000
411.557; 3935.650;  208.050;    0.000
411.612; 3745.650;  191.050;    0.000
411.666; 3828.650;  233.050;    0.000
411.721; 3825.650;  193.050;    0.000
411.776; 3898.650;  195.050;    0.000
411.830; 3806.650;  229.050;    0.000
411.885; 3969.650;  181.050;    0.000
411.939; 3937.650;  214.050;    0.000
411.994; 3961.650;  140.050;    0.000
412.049; 3912.650;  205.050;    0.000
412.103; 3960.650;  232.050;    0.000
412.158; 3957.650;  228.050;    0.000
412.212; 3887.650;  204.050;    0.000
412.267; 3843.650;  203.050;    0.000
412.322; 3991.650;  212.050;    0.000
412.376; 3903.650;  195.050;    0.000
412.431; 3887.650;  197.050;    0.000
412.485; 3908.650;  235.050;    0.000
412.540; 3820.650;  197.050;    0.000
412.594; 3852.650;  199.050;    0.000
412.649; 3864.650;  195.050;    0.000
412.703; 3762.650;  214.050;    0.000
412.758; 3849.650;  213.050;    0.000
412.812; 3873.650;  154.050;    0.000
412.866; 3699.650;  159.050;    0.000
412.921; 3803.650;  207.050;    0.000
412.975; 3814.650;  194.050;    0.000
413.030; 3799.650;  214.050;    0.000
413.084; 3849.650;  174.050;    0.000
413.139; 3802.650;  211.050;    0.000
413.193; 3818.650;  223.050;    0.000
413.247; 3760.650;  198.050;    0.000
413.302; 3748.650;  184.050;    0.000
413.356; 3773.650;  194.050;    0.000
413.410; 3774.650;  219.050;    0.000
413.465; 3798.650;  209.050;    0.000
413.519; 3727.650;  178.050;    0.000
413.573; 3845.650;  189.050;    0.000
413.628; 3753.650;  184.050;    0.000
413.682; 3782.650;  189.050;    0.000
413.736; 3870.650;  196.050;    0.000
413.791; 3958.650;  208.050;    0.000
413.845; 3849.650;  206.050;    0.000
413.899; 3855.650;  193.050;    0.000
413.953; 3860.650;  176.050;    0.000
414.008; 3840.650;  163.050;    0.000
414.062; 3784.650;  195.050;    0.000
414.116; 3807.650;  176.050;    0.000
414.170; 3846.650;  218.050;    0.000
414.225; 3777.650;  183.050;    0.000
414.279; 3923.650;  191.050;    0.000
414.333; 3793.650;  215.050;    0.000
414.387; 3848.650;  187.050;    0.000
414.441; 3836.650;  182.050;    0.000
414.496; 3895.650;  205.050;    0.000
414.550; 3782.650;  203.050;    0.000
414.604; 3811.650;  223.050;    0.000
414.658; 3831.650;  159.050;    0.000
414.712; 3867.650;  194.050;    0.000
414.766; 3746.650;  232.050;    0.000
414.820; 3998.650;  235.050;    0.000
414.874; 3944.650;  169.050;    0.000
414.928; 3822.650;  207.050;    0.000
414.982; 3918.650;  174.050;    0.000
415.037; 3814.650;  173.050;    0.000
415.091; 3844.650;  219.050;    0.000
415.145; 3799.650;  174.050;    0.000
415.199; 3724.650;  207.050;    0.000
415.253; 3830.650;  228.050;    0.000
415.307; 3938.650;  182.050;    0.000
415.361; 3771.650;  219.050;    0.000
415.415; 3808.650;  218.050;    0.000
415.469; 3741.650;  233.050;    0.000
415.523; 3838.650;  203.050;    0.000
415.577; 3788.650;  186.050;    0.000
415.631; 3766.650;  215.050;    0.000
415.684; 3951.650;  212.050;    0.000
415.738; 3815.650;  206.050;    0.000
415.792; 3682.650;  219.050;    0.000
415.846; 3817.650;  208.050;    0.000
415.900; 3872.650;  203.050;    0.000
415.954; 3760.650;  237.050;    0.000
416.008; 3816.650;  242.050;    0.000
416.062; 3926.650;  197.050;    0.000
416.116; 3845.650;  189.050;    0.000
416.169; 3789.650;  199.050;    0.000
416.223; 3823.650;  230.050;    0.000
416.277; 3791.650;  226.050;    0.000
416.331; 3856.650;  254.050;    0.000
416.385; 3755.650;  204.050;    0.000
416.439; 3755.650;  201.050;    0.000
416.492; 3780.650;  238.050;    0.000
416.546; 3838.650;  234.050;    0.000
416.600; 3827.650;  244.050;    0.000
416.654; 3878.650;  233.050;    0.000
416.707; 3848.650;  214.050;    0.000
416.761; 3845.650;  214.050;    0.000
416.815; 3818.650;  192.050;    0.000
416.869; 3888.650;  225.050;    0.000
416.922; 3850.650;  214.050;    0.000
416.976; 3773.650;  206.050;    0.000
417.030; 3835.650;  226.050;    0.000
417.083; 3738.650;  207.050;    0.000
417.137; 3743.650;  236.050;    0.000
417.191; 3788.650;  208.050;    0.000
417.244; 3739.650;  260.050;    0.000
417.298; 3776.650;  222.050;    0.000
417.352; 3756.650;  191.050;    0.000
417.405; 3824.650;  229.050;    0.000
417.459; 3835.650;  249.050;    0.000
417.512; 3824.650;  259.050;    0.000
417.566; 3745.650;  220.050;    0.000
417.620; 3741.650;  229.050;    0.000
417.673; 3789.650;  190.050;    0.000
417.727; 3776.650;  204.050;    0.000
417.780; 3757.650;  223.050;    0.000
417.834; 3815.650;  213.050;    0.000
417.887; 3815.650;  238.050;    0.000
417.941; 3747.650;  244.050;    0.000
417.994; 3785.650;  247.050;    0.000
418.048; 3785.650;  225.050;    0.000
418.101; 3726.650;  210.050;    0.000
418.155; 3738.650;  224.050;    0.000
418.208; 3818.650;  229.050;    0.000
418.262; 3773.650;  255.050;    0.000
418.315; 3819.650;  248.050;    0.000
418.369; 3794.650;  212.050;    0.000
418.422; 3844.650;  241.050;    0.000
418.476; 3810.650;  220.050;    0.000
418.529; 3769.650;  257.050;    0.000
418.582; 3826.650;  203.050;    0.000
418.636; 3782.650;  221.050;    0.000
418.689; 3729.650;  202.050;    0.000
418.743; 3820.650;  227.050;    0.000
418.796; 3759.650;  226.050;    0.000
418.849; 3764.650;  199.050;    0.000
418.903; 3856.650;  234.050;    0.000
418.956; 3785.650;  236.050;    0.000
419.009; 3811.650;  305.050;    0.000
419.063; 3762.650;  216.050;    0.000
419.116; 3783.650;  245.050;    0.000
419.169; 3699.650;  208.050;    0.000
419.222; 3771.650;  233.050;    0.000
419.276; 3752.650;  244.050;    0.000
419.329; 3818.650;  197.050;    0.000
419.382; 3850.650;  222.050;    0.000
419.435; 3718.650;  199.050;    0.000
419.489; 3760.650;  226.050;    0.000
419.542; 3785.650;  223.050;    0.000
419.595; 3716.650;  204.050;    0.000
419.648; 3812.650;  234.050;    0.000
419.701; 3658.650;  211.050;    0.000
419.755; 3639.650;  184.050;    0.000
419.808; 3821.650;  223.050;    0.000
419.861; 3681.650;  197.050;    0.000
419.914; 3835.650;  258.050;    0.000
419.967; 3732.650;  205.050;    0.000
420.020; 3632.650;  195.050;    0.000
420.073; 3733.650;  191.050;    0.000
420.127; 3691.650;  256.050;    0.000
420.180; 3682.650;  232.050;    0.000
420.233; 3783.650;  200.050;    0.000
420.286; 3611.650;  207.050;    0.000
420.339; 3669.650;  223.050;    0.000
420.392; 3624.650;  243.050;    0.000
420.445; 3630.650;  195.050;    0.000
420.498; 3716.650;  239.050;    0.000
420.551; 3632.650;  201.050;    0.000
420.604; 3571.650;  245.050;    0.000
420.657; 3659.650;  221.050;    0.000
420.710; 3710.650;  223.050;    0.000
420.763; 3571.650;  241.050;    0.000
420.816; 3521.650;  198.050;    0.000
420.869; 3526.650;  210.050;    0.000
420.922; 3582.650;  206.050;    0.000
420.975; 3752.650;  239.050;    0.000
421.028; 3598.650;  248.050;    0.000
421.081; 3641.650;  236.050;    0.000
421.134; 3504.650;  208.050;    0.000
421.187; 3648.650;  216.050;    0.000
421.239; 3491.650;  199.050;    0.000
421.292; 3638.650;  255.050;    0.000
421.345; 3587.650;  241.050;    0.000
421.398; 3575.650;  221.050;    0.000
421.451; 3705.650;  237.050;    0.000
421.504; 3570.650;  225.050;    0.000
421.557; 3570.650;  213.050;    0.000
421.609; 3624.650;  178.050;    0.000
421.662; 3468.650;  206.050;    0.000
421.715; 3569.650;  212.050;    0.000
421.768; 3568.650;  236.050;    0.000
421.821; 3570.650;  228.050;    0.000
421.873; 3563.650;  200.050;    0.000
421.926; 3541.650;  226.050;    0.000
421.979; 3571.650;  221.050;    0.000
422.032; 3613.650;  219.050;    0.000
422.084; 3532.650;  253.050;    0.000
422.137; 3560.650;  195.050;    0.000
422.190; 3505.650;  192.050;    0.000
422.243; 3446.650;  236.050;    0.000
422.295; 3589.650;  205.050;    0.000
422.348; 3619.650;  198.050;    0.000
422.401; 3439.650;  245.050;    0.000
422.453; 3531.650;  241.050;    0.000
422.506; 3490.650;  255.050;    0.000
422.559; 3581.650;  188.050;    0.000
422.611; 3458.650;  236.050;    0.000
422.664; 3540.650;  218.050;    0.000
422.716; 3480.650;  210.050;    0.000
422.769; 3492.650;  209.050;    0.000
422.822; 3499.650;  213.050;    0.000
422.874; 3490.650;  227.050;    0.000
422.927; 3513.650;  272.050;    0.000
422.979; 3447.650;  204.050;    0.000
423.032; 3395.650;  210.050;    0.000
423.084; 3436.650;  236.050;    0.000
423.137; 3508.650;  223.050;    0.000
423.189; 3519.650;  253.050;    0.000
423.242; 3436.650;  185.050;    0.000
423.294; 3514.650;  232.050;    0.000
423.347; 3429.650;  213.050;    0.000
423.399; 3547.650;  227.050;    0.000
423.452; 3504.650;  236.050;    0.000
423.504; 3491.650;  232.050;    0.000
423.557; 3536.650;  195.050;    0.000
423.609; 3443.650;  238.050;    0.000
423.662; 3460.650;  207.050;    0.000
423.714; 3411.650;  231.050;    0.000
423.766; 3496.650;  211.050;    0.000
423.819; 3367.650;  207.050;    0.000
423.871; 3452.650;  228.050;    0.000
423.923; 3407.650;  223.050;    0.000
423.976; 3518.650;  217.050;    0.000
424.028; 3487.650;  231.050;    0.000
424.081; 3368.650;  219.050;    0.000
424.133; 3493.650;  255.050;    0.000
424.185; 3500.650;  199.050;    0.000
424.238; 3412.650;  238.050;    0.000
424.290; 3442.650;  209.050;    0.000
424.342; 3417.650;  213.050;    0.000
424.394; 3393.650;  215.050;    0.000
424.447; 3515.650;  265.050;    0.000
424.499; 3439.650;  238.050;    0.000
424.551; 3346.650;  256.050;    0.000
424.603; 3315.650;  222.050;    0.000
424.656; 3379.650;  227.050;    0.000
424.708; 3378.650;  250.050;    0.000
424.760; 3398.650;  228.050;    0.000
424.812; 3470.650;  249.050;    0.000
424.864; 3358.650;  222.050;    0.000
424.917; 3298.650;  235.050;    0.000
424.969; 3318.650;  266.050;    0.000
425.021; 3438.650;  233.050;    0.000
425.073; 3270.650;  194.050;    0.000
425.125; 3432.650;  256.050;    0.000
425.177; 3346.650;  225.050;    0.000
425.229; 3418.650;  242.050;    0.000
425.282; 3410.650;  236.050;    0.000
425.334; 3390.650;  250.050;    0.000
425.386; 3377.650;  231.050;    0.000
425.438; 3310.650;  216.050;    0.000
425.490; 3332.650;  240.050;    0.000
425.542; 3344.650;  231.050;    0.000
425.594; 3280.650;  206.050;    0.000
425.646; 3331.650;  201.050;    0.000
425.698; 3394.650;  193.050;    0.000
425.750; 3381.650;  241.050;    0.000
425.802; 3277.650;  199.050;    0.000
425.854; 3405.650;  216.050;    0.000
425.906; 3332.650;  220.050;    0.000
425.958; 3336.650;  200.050;    0.000
426.010; 3357.650;  214.050;    0.000
426.062; 3257.650;  245.050;    0.000
426.114; 3221.650;  241.050;    0.000
426.166; 3321.650;  241.050;    0.000
426.218; 3349.650;  255.050;    0.000
426.270; 3255.650;  228.050;    0.000
426.321; 3337.650;  222.050;    0.000
426.373; 3249.650;  218.050;    0.000
426.425; 3299.650;  258.050;    0.000
426.477; 3269.650;  225.050;    0.000
426.529; 3306.650;  223.050;    0.000
426.581; 3125.650;  198.050;    0.000
426.633; 3195.650;  228.050;    0.000
426.684; 3228.650;  210.050;    0.000
426.736; 3187.650;  208.050;    0.000
426.788; 3266.650;  231.050;    0.000
426.840; 3179.650;  212.050;    0.000
426.892; 3312.650;  221.050;    0.000
426.943; 3215.650;  240.050;    0.000
426.995; 3198.650;  243.050;    0.000
427.047; 3168.650;  231.050;    0.000
427.099; 3268.650;  189.050;    0.000
427.150; 3241.650;  212.050;    0.000
427.202; 3164.650;  219.050;    0.000
427.254; 3124.650;  203.050;    0.000
427.306; 3113.650;  217.050;    0.000
427.357; 3137.650;  232.050;    0.000
427.409; 3235.650;  251.050;    0.000
427.461; 3093.650;  185.050;    0.000
427.512; 3101.650;  239.050;    0.000
427.564; 3157.650;  208.050;    0.000
427.616; 3113.650;  233.050;    0.000
427.667; 3226.650;  223.050;    0.000
427.719; 3087.650;  206.050;    0.000
427.770; 3251.650;  195.050;    0.000
427.822; 3127.650;  223.050;    0.000
427.874; 3079.650;  232.050;    0.000
427.925; 3156.650;  209.050;    0.000
427.977; 3090.650;  208.050;    0.000
428.028; 3190.650;  187.050;    0.000
428.080; 3128.650;  209.050;    0.000
428.131; 3160.650;  237.050;    0.000
428.183; 3209.650;  200.050;    0.000
428.234; 3058.650;  215.050;    0.000
428.286; 3110.650;  229.050;    0.000
428.337; 3177.650;  206.050;    0.000
428.389; 3145.650;  216.050;    0.000
428.440; 3113.650;  287.050;    0.000
428.492; 3128.650;  269.050;    0.000
428.543; 3090.650;  234.050;    0.000
428.595; 3065.650;  214.050;    0.000
428.646; 3049.650;  229.050;    0.000
428.697; 3039.650;  249.050;    0.000
428.749; 3105.650;  250.050;    0.000
428.800; 3182.650;  242.050;    0.000
428.852; 3159.650;  232.050;    0.000
428.903; 3115.650;  196.050;    0.000
428.954; 3040.650;  226.050;    0.000
429.006; 3137.650;  232.050;    0.000
429.057; 3050.650;  188.050;    0.000
429.108; 3064.650;  237.050;    0.000
429.160; 3036.650;  221.050;    0.000
429.211; 3121.650;  222.050;    0.000
429.262; 3043.650;  215.050;    0.000
429.314; 2966.650;  225.050;    0.000
429.365; 2983.650;  220.050;    0.000
429.416; 3099.650;  242.050;    0.000
429.467; 3101.650;  220.050;    0.000
429.519; 3038.650;  217.050;    0.000
429.570; 3038.650;  248.050;    0.000
429.621; 3024.650;  233.050;    0.000
429.672; 2954.650;  220.050;    0.000
429.724; 3029.650;  179.050;    0.000
429.775; 3048.650;  218.050;    0.000
429.826; 2948.650;  197.050;    0.000
429.877; 3081.650;  206.050;    0.000
429.928; 3038.650;  229.050;    0.000
429.980; 2949.650;  207.050;    0.000
430.031; 3035.650;  264.050;    0.000
430.082; 2971.650;  210.050;    0.000
430.133; 2963.650;  218.050;    0.000
430.184; 3040.650;  246.050;    0.000
430.235; 3009.650;  201.050;    0.000
430.286; 3008.650;  207.050;    0.000
430.337; 3018.650;  224.050;    0.000
430.388; 2954.650;  216.050;    0.000
430.439; 2967.650;  210.050;    0.000
430.490; 2999.650;  208.050;    0.000
430.542; 2957.650;  211.050;    0.000
430.593; 2998.650;  203.050;    0.000
430.644; 2984.650;  235.050;    0.000
430.695; 3060.650;  200.050;    0.000
430.746; 3024.650;  215.050;    0.000
430.797; 3013.650;  235.050;    0.000
430.848; 3046.650;  197.050;    0.000
430.898; 2957.650;  209.050;    0.000
430.949; 2999.650;  231.050;    0.000
431.000; 3009.650;  227.050;    0.000
431.051; 2999.650;  225.050;    0.000
431.102; 2976.650;  180.050;    0.000
431.153; 3055.650;  248.050;    0.000
431.204; 2988.650;  185.050;    0.000
431.255; 2875.650;  199.050;    0.000
431.306; 3070.650;  228.050;    0.000
431.357; 2939.650;  237.050;    0.000
431.408; 2990.650;  223.050;    0.000
431.458; 3135.650;  240.050;    0.000
431.509; 2926.650;  207.050;    0.000
431.560; 3010.650;  219.050;    0.000
431.611; 3044.650;  206.050;    0.000
431.662; 3054.650;  253.050;    0.000
431.713; 2984.650;  199.050;    0.000
431.763; 2934.650;  197.050;    0.000
431.814; 3076.650;  205.050;    0.000
431.865; 3007.650;  218.050;    0.000
431.916; 3016.650;  202.050;    0.000
431.966; 3019.650;  203.050;    0.000
432.017; 2936.650;  244.050;    0.000
432.068; 3043.650;  246.050;    0.000
432.118; 3070.650;  212.050;    0.000
432.169; 2923.650;  214.050;    0.000
432.220; 2942.650;  241.050;    0.000
432.271; 2935.650;  237.050;    0.000
432.321; 2978.650;  246.050;    0.000
432.372; 3002.650;  257.050;    0.000
432.423; 2896.650;  198.050;    0.000
432.473; 2946.650;  202.050;    0.000
432.524; 2912.650;  242.050;    0.000
432.574; 2820.650;  202.050;    0.000
432.625; 2920.650;  212.050;    0.000
432.676; 2997.650;  242.050;    0.000
432.726; 2954.650;  268.050;    0.000
432.777; 2985.650;  228.050;    0.000
432.827; 2947.650;  230.050;    0.000
432.878; 2931.650;  221.050;    0.000
432.928; 2943.650;  218.050;    0.000
432.979; 2974.650;  243.050;    0.000
433.029; 2863.650;  217.050;    0.000
433.080; 2898.650;  208.050;    0.000
433.130; 2990.650;  236.050;    0.000
433.181; 2990.650;  282.050;    0.000
433.231; 2928.650;  257.050;    0.000
433.282; 2966.650;  268.050;    0.000
433.332; 2968.650;  241.050;    0.000
433.383; 2984.650;  271.050;    0.000
433.433; 2848.650;  262.050;    0.000
433.484; 2893.650;  266.050;    0.000
433.534; 3026.650;  217.050;    0.000
433.585; 2977.650;  230.050;    0.000
433.635; 2923.650;  245.050;    0.000
433.685; 3057.650;  250.050;    0.000
433.736; 2959.650;  308.050;    0.000
433.786; 3020.650;  242.050;    0.000
433.836; 2991.650;  256.050;    0.000
433.887; 2972.650;  250.050;    0.000
433.937; 2987.650;  250.050;    0.000
433.987; 3032.650;  219.050;    0.000
434.038; 2939.650;  248.050;    0.000
434.088; 3024.650;  231.050;    0.000
434.138; 2973.650;  266.050;    0.000
434.189; 2944.650;  240.050;    0.000
434.239; 2989.650;  245.050;    0.000
434.289; 3180.650;  285.050;    0.000
434.339; 2987.650;  255.050;    0.000
434.389; 3009.650;  242.050;    0.000
434.440; 3051.650;  273.050;    0.000
434.490; 2965.650;  272.050;    0.000
434.540; 3039.650;  264.050;    0.000
434.590; 3044.650;  233.050;    0.000
434.640; 3043.650;  244.050;    0.000
434.691; 3016.650;  226.050;    0.000
434.741; 3067.650;  253.050;    0.000
434.791; 3086.650;  269.050;    0.000
434.841; 3051.650;  252.050;    0.000
434.891; 3090.650;  281.050;    0.000
434.941; 3119.650;  296.050;    0.000
434.991; 3002.650;  264.050;    0.000
435.042; 3086.650;  262.050;    0.000
435.092; 2978.650;  237.050;    0.000
435.142; 2942.650;  232.050;    0.000
435.192; 3006.650;  251.050;    0.000
435.242; 2984.650;  251.050;    0.000
435.292; 3026.650;  246.050;    0.000
435.342; 2904.650;  236.050;    0.000
435.392; 3056.650;  273.050;    0.000
435.442; 2978.650;  273.050;    0.000
435.492; 2885.650;  273.050;    0.000
435.542; 2970.650;  242.050;    0.000
435.592; 2955.650;  213.050;    0.000
435.642; 2843.650;  248.050;    0.000
435.692; 2926.650;  242.050;    0.000
435.742; 2831.650;  222.050;    0.000
435.792; 2938.650;  260.050;    0.000
435.842; 2910.650;  266.050;    0.000
435.891; 2868.650;  227.050;    0.000
435.941; 2806.650;  228.050;    0.000
435.991; 2948.650;  282.050;    0.000
436.041; 2884.650;  231.050;    0.000
436.091; 2836.650;  250.050;    0.000
436.141; 2793.650;  221.050;    0.000
436.191; 2860.650;  223.050;    0.000
436.241; 2845.650;  250.050;    0.000
436.290; 2965.650;  243.050;    0.000
436.340; 2803.650;  236.050;    0.000
436.390; 2845.650;  260.050;    0.000
436.440; 2775.650;  253.050;    0.000
436.490; 2833.650;  236.050;    0.000
436.539; 2841.650;  249.050;    0.000
436.589; 2832.650;  231.050;    0.000
436.639; 2819.650;  237.050;    0.000
436.689; 2776.650;  222.050;    0.000
436.738; 2819.650;  263.050;    0.000
436.788; 2825.650;  230.050;    0.000
436.838; 2797.650;  281.050;    0.000
436.887; 2860.650;  230.050;    0.000
436.937; 2749.650;  250.050;    0.000
436.987; 2742.650;  251.050;    0.000
437.036; 2721.650;  238.050;    0.000
437.086; 2755.650;  234.050;    0.000
437.136; 2721.650;  250.050;    0.000
437.185; 2751.650;  228.050;    0.000
437.235; 2812.650;  309.050;    0.000
437.285; 2781.650;  246.050;    0.000
437.334; 2760.650;  262.050;    0.000
437.384; 2741.650;  228.050;    0.000
437.433; 2774.650;  241.050;    0.000
437.483; 2721.650;  220.050;    0.000
437.532; 2727.650;  252.050;    0.000
437.582; 2763.650;  270.050;    0.000
437.631; 2745.650;  251.050;    0.000
437.681; 2730.650;  284.050;    0.000
437.730; 2591.650;  239.050;    0.000
437.780; 2644.650;  221.050;    0.000
437.829; 2726.650;  254.050;    0.000
437.879; 2635.650;  221.050;    0.000
437.928; 2636.650;  205.050;    0.000
437.978; 2674.650;  223.050;    0.000
438.027; 2729.650;  262.050;    0.000
438.077; 2694.650;  280.050;    0.000
438.126; 2840.650;  254.050;    0.000
438.176; 2675.650;  230.050;    0.000
438.225; 2690.650;  227.050;    0.000
438.274; 2719.650;  264.050;    0.000
438.324; 2678.650;  233.050;    0.000
438.373; 2649.650;  238.050;    0.000
438.422; 2686.650;  260.050;    0.000
438.472; 2748.650;  223.050;    0.000
438.521; 2590.650;  213.050;    0.000
438.570; 2656.650;  236.050;    0.000
438.620; 2747.650;  282.050;    0.000
438.669; 2716.650;  209.050;    0.000
438.718; 2605.650;  245.050;    0.000
438.768; 2604.650;  238.050;    0.000
438.817; 2637.650;  259.050;    0.000
438.866; 2676.650;  232.050;    0.000
438.915; 2741.650;  288.050;    0.000
438.965; 2617.650;  228.050;    0.000
439.014; 2721.650;  246.050;    0.000
439.063; 2705.650;  287.050;    0.000
439.112; 2651.650;  217.050;    0.000
439.162; 2779.650;  275.050;    0.000
439.211; 2795.650;  287.050;    0.000
439.260; 2743.650;  238.050;    0.000
439.309; 2633.650;  225.050;    0.000
439.358; 2654.650;  248.050;    0.000
439.407; 2752.650;  237.050;    0.000
439.456; 2714.650;  223.050;    0.000
439.506; 2676.650;  266.050;    0.000
439.555; 2755.650;  260.050;    0.000
439.604; 2786.650;  233.050;    0.000
439.653; 2775.650;  242.050;    0.000
439.702; 2602.650;  255.050;    0.000
439.751; 2679.650;  202.050;    0.000
439.800; 2692.650;  247.050;    0.000
439.849; 2658.650;  250.050;    0.000
439.898; 2684.650;  216.050;    0.000
439.947; 2760.650;  231.050;    0.000
439.996; 2732.650;  272.050;    0.000
440.045; 2773.650;  217.050;    0.000
440.094; 2720.650;  220.050;    0.000
440.143; 2653.650;  245.050;    0.000
440.192; 2723.650;  267.050;    0.000
440.241; 2703.650;  263.050;    0.000
440.290; 2791.650;  246.050;    0.000
440.339; 2729.650;  225.050;    0.000
440.388; 2811.650;  256.050;    0.000
440.437; 2648.650;  253.050;    0.000
440.486; 2730.650;  249.050;    0.000
440.535; 2806.650;  232.050;    0.000
440.583; 2759.650;  220.050;    0.000
440.632; 2718.650;  239.050;    0.000
440.681; 2825.650;  236.050;    0.000
440.730; 2782.650;  282.050;    0.000
440.779; 2804.650;  245.050;    0.000
440.828; 2692.650;  213.050;    0.000
440.876; 2682.650;  231.050;    0.000
440.925; 2781.650;  271.050;    0.000
440.974; 2806.650;  240.050;    0.000
441.023; 2757.650;  214.050;    0.000
441.072; 2803.650;  236.050;    0.000
441.120; 2800.650;  271.050;    0.000
441.169; 2829.650;  281.050;    0.000
441.218; 2784.650;  255.050;    0.000
441.267; 2903.650;  272.050;    0.000
441.315; 2930.650;  229.050;    0.000
441.364; 2783.650;  241.050;    0.000
441.413; 2855.650;  224.050;    0.000
441.461; 2825.650;  241.050;    0.000
441.510; 2830.650;  289.050;    0.000
441.559; 2874.650;  222.050;    0.000
441.607; 2904.650;  242.050;    0.000
441.656; 2786.650;  255.050;    0.000
441.705; 2921.650;  260.050;    0.000
441.753; 2790.650;  290.050;    0.000
441.802; 2928.650;  264.050;    0.000
441.850; 2911.650;  224.050;    0.000
441.899; 2844.650;  275.050;    0.000
441.948; 2961.650;  227.050;    0.000
441.996; 2820.650;  216.050;    0.000
442.045; 2871.650;  271.050;    0.000
442.093; 2778.650;  227.050;    0.000
442.142; 2799.650;  273.050;    0.000
442.190; 2867.650;  257.050;    0.000
442.239; 2881.650;  269.050;    0.000
442.287; 2838.650;  257.050;    0.000
442.336; 2834.650;  237.050;    0.000
442.384; 2874.650;  214.050;    0.000
442.433; 2862.650;  272.050;    0.000
442.481; 2777.650;  258.050;    0.000
442.529; 2826.650;  242.050;    0.000
442.578; 2812.650;  278.050;    0.000
442.626; 2784.650;  264.050;    0.000
442.675; 2872.650;  293.050;    0.000
442.723; 2905.650;  244.050;    0.000
442.771; 2850.650;  232.050;    0.000
442.820; 2815.650;  266.050;    0.000
442.868; 2875.650;  253.050;    0.000
442.917; 2923.650;  250.050;    0.000
442.965; 2835.650;  279.050;    0.000
443.013; 2800.650;  253.050;    0.000
443.062; 2826.650;  282.050;    0.000
443.110; 2826.650;  258.050;    0.000
443.158; 2870.650;  246.050;    0.000
443.206; 2850.650;  255.050;    0.000
443.255; 2865.650;  296.050;    0.000
443.303; 2854.650;  272.050;    0.000
443.351; 2944.650;  270.050;    0.000
443.399; 2828.650;  258.050;    0.000
443.448; 2834.650;  265.050;    0.000
443.496; 2921.650;  219.050;    0.000
443.544; 2826.650;  205.050;    0.000
443.592; 2897.650;  266.050;    0.000
443.640; 2923.650;  260.050;    0.000
443.689; 2944.650;  232.050;    0.000
443.737; 2867.650;  281.050;    0.000
443.785; 2904.650;  248.050;    0.000
443.833; 2887.650;  286.050;    0.000
443.881; 2878.650;  225.050;    0.000
443.929; 2939.650;  255.050;    0.000
443.977; 2924.650;  248.050;    0.000
444.025; 2917.650;  255.050;    0.000
444.074; 2918.650;  266.050;    0.000
444.122; 3024.650;  266.050;    0.000
444.170; 3032.650;  207.050;    0.000
444.218; 2979.650;  253.050;    0.000
444.266; 2993.650;  263.050;    0.000
444.314; 3062.650;  272.050;    0.000
444.362; 2957.650;  272.050;    0.000
444.410; 3075.650;  255.050;    0.000
444.458; 3028.650;  288.050;    0.000
444.506; 3149.650;  263.050;    0.000
444.554; 3100.650;  243.050;    0.000
444.602; 3079.650;  285.050;    0.000
444.650; 3022.650;  273.050;    0.000
444.698; 3027.650;  221.050;    0.000
444.746; 3035.650;  243.050;    0.000
444.793; 3043.650;  217.050;    0.000
444.841; 3102.650;  262.050;    0.000
444.889; 3102.650;  264.050;    0.000
444.937; 3044.650;  226.050;    0.000
444.985; 3134.650;  257.050;    0.000
445.033; 3106.650;  264.050;    0.000
445.081; 3098.650;  264.050;    0.000
445.129; 3092.650;  187.050;    0.000
445.176; 2989.650;  212.050;    0.000
445.224; 3072.650;  198.050;    0.000
445.272; 2980.650;  265.050;    0.000
445.320; 3048.650;  239.050;    0.000
445.368; 2963.650;  245.050;    0.000
445.415; 3071.650;  215.050;    0.000
445.463; 2991.650;  202.050;    0.000
445.511; 3003.650;  234.050;    0.000
445.559; 3057.650;  269.050;    0.000
445.606; 2958.650;  214.050;    0.000
445.654; 3030.650;  227.050;    0.000
445.702; 2990.650;  276.050;    0.000
445.749; 3014.650;  256.050;    0.000
445.797; 3025.650;  236.050;    0.000
445.845; 2968.650;  230.050;    0.000
445.892; 3060.650;  233.050;    0.000
445.940; 3064.650;  257.050;    0.000
445.988; 3070.650;  253.050;    0.000
446.035; 3025.650;  265.050;    0.000
446.083; 3173.650;  254.050;    0.000
446.130; 3003.650;  228.050;    0.000
446.178; 3007.650;  256.050;    0.000
446.226; 3050.650;  238.050;    0.000
446.273; 3055.650;  228.050;    0.000
446.321; 3125.650;  220.050;    0.000
446.368; 3128.650;  249.050;    0.000
446.416; 2946.650;  221.050;    0.000
446.463; 3030.650;  232.050;    0.000
446.511; 3102.650;  243.050;    0.000
446.558; 3141.650;  217.050;    0.000
446.606; 3111.650;  256.050;    0.000
446.653; 3108.650;  238.050;    0.000
446.701; 3176.650;  259.050;    0.000
446.748; 3094.650;  227.050;    0.000
446.796; 3265.650;  236.050;    0.000
446.843; 3178.650;  241.050;    0.000
446.891; 3247.650;  292.050;    0.000
446.938; 3315.650;  219.050;    0.000
446.985; 3296.650;  255.050;    0.000
447.033; 3227.650;  237.050;    0.000
447.080; 3240.650;  278.050;    0.000
447.128; 3196.650;  237.050;    0.000
447.175; 3308.650;  247.050;    0.000
447.222; 3283.650;  235.050;    0.000
447.270; 3362.650;  274.050;    0.000
447.317; 3381.650;  222.050;    0.000
447.364; 3371.650;  230.050;    0.000
447.411; 3363.650;  297.050;    0.000
447.459; 3456.650;  243.050;    0.000
447.506; 3514.650;  202.050;    0.000
447.553; 3507.650;  232.050;    0.000
447.601; 3618.650;  262.050;    0.000
447.648; 3780.650;  254.050;    0.000
447.695; 3763.650;  287.050;    0.000
447.742; 3596.650;  232.050;    0.000
447.789; 3644.650;  257.050;    0.000
447.837; 3748.650;  260.050;    0.000
447.884; 3783.650;  272.050;    0.000
447.931; 3780.650;  241.050;    0.000
447.978; 3903.650;  241.050;    0.000
448.025; 3967.650;  264.050;    0.000
448.072; 3885.650;  279.050;    0.000
448.120; 3918.650;  263.050;    0.000
448.167; 3977.650;  284.050;    0.000
448.214; 3834.650;  252.050;    0.000
448.261; 3818.650;  247.050;    0.000
448.308; 3855.650;  249.050;    0.000
448.355; 3692.650;  263.050;    0.000
448.402; 3689.650;  251.050;    0.000
448.449; 3672.650;  257.050;    0.000
448.496; 3580.650;  243.050;    0.000
448.543; 3572.650;  274.050;    0.000
448.590; 3505.650;  299.050;    0.000
448.637; 3495.650;  259.050;    0.000
448.684; 3331.650;  266.050;    0.000
448.731; 3365.650;  261.050;    0.000
448.778; 3311.650;  292.050;    0.000
448.825; 3317.650;  253.050;    0.000
448.872; 3270.650;  253.050;    0.000
448.919; 3258.650;  218.050;    0.000
448.966; 3205.650;  254.050;    0.000
449.013; 3206.650;  263.050;    0.000
449.060; 3157.650;  282.050;    0.000
449.107; 3116.650;  244.050;    0.000
449.154; 3088.650;  236.050;    0.000
449.200; 3103.650;  226.050;    0.000
449.247; 3014.650;  273.050;    0.000
449.294; 3021.650;  270.050;    0.000
449.341; 3051.650;  283.050;    0.000
449.388; 2955.650;  261.050;    0.000
449.435; 3114.650;  254.050;    0.000
449.481; 3102.650;  318.050;    0.000
449.528; 3025.650;  274.050;    0.000
449.575; 2996.650;  251.050;    0.000
449.622; 2988.650;  276.050;    0.000
449.668; 2994.650;  242.050;    0.000
449.715; 2982.650;  286.050;    0.000
449.762; 2969.650;  268.050;    0.000
449.809; 2949.650;  285.050;    0.000
449.855; 2991.650;  277.050;    0.000
449.902; 2954.650;  246.050;    0.000
449.949; 2952.650;  268.050;    0.000
449.995; 2945.650;  289.050;    0.000
450.042; 2825.650;  256.050;    0.000
450.089; 2946.650;  290.050;    0.000
450.135; 2888.650;  300.050;    0.000
450.182; 2855.650;  317.050;    0.000
450.229; 2843.650;  282.050;    0.000
450.275; 2851.650;  307.050;    0.000
450.322; 2828.650;  260.050;    0.000
450.368; 2785.650;  315.050;    0.000
450.415; 2808.650;  306.050;    0.000
450.462; 2798.650;  314.050;    0.000
450.508; 2828.650;  303.050;    0.000
450.555; 2735.650;  281.050;    0.000
450.601; 2755.650;  291.050;    0.000
450.648; 2795.650;  288.050;    0.000
450.694; 2898.650;  290.050;    0.000
450.741; 2803.650;  303.050;    0.000
450.787; 2780.650;  298.050;    0.000
450.834; 2774.650;  265.050;    0.000
450.880; 2736.650;  273.050;    0.000
450.927; 2730.650;  312.050;    0.000
450.973; 2704.650;  303.050;    0.000
451.019; 2663.650;  222.050;    0.000
451.066; 2698.650;  284.050;    0.000
451.112; 2743.650;  296.050;    0.000
451.159; 2692.650;  299.050;    0.000
451.205; 2807.650;  311.050;    0.000
451.251; 2736.650;  306.050;    0.000
451.298; 2642.650;  281.050;    0.000
451.344; 2778.650;  311.050;    0.000
451.390; 2695.650;  331.050;    0.000
451.437; 2782.650;  303.050;    0.000
451.483; 2743.650;  284.050;    0.000
451.529; 2608.650;  310.050;    0.000
451.576; 2754.650;  301.050;    0.000
451.622; 2688.650;  275.050;    0.000
451.668; 2710.650;  269.050;    0.000
451.714; 2612.650;  277.050;    0.000
451.761; 2693.650;  298.050;    0.000
451.807; 2714.650;  316.050;    0.000
451.853; 2733.650;  301.050;    0.000
451.899; 2650.650;  292.050;    0.000
451.945; 2639.650;  324.050;    0.000
451.992; 2679.650;  292.050;    0.000
452.038; 2626.650;  261.050;    0.000
452.084; 2613.650;  286.050;    0.000
452.130; 2614.650;  301.050;    0.000
452.176; 2650.650;  287.050;    0.000
452.222; 2644.650;  265.050;    0.000
452.268; 2742.650;  268.050;    0.000
452.315; 2707.650;  272.050;    0.000
452.361; 2556.650;  258.050;    0.000
452.407; 2654.650;  279.050;    0.000
452.453; 2677.650;  252.050;    0.000
452.499; 2628.650;  305.050;    0.000
452.545; 2650.650;  263.050;    0.000
452.591; 2649.650;  284.050;    0.000
452.637; 2638.650;  289.050;    0.000
452.683; 2579.650;  249.050;    0.000
452.729; 2551.650;  290.050;    0.000
452.775; 2680.650;  315.050;    0.000
452.821; 2601.650;  271.050;    0.000
452.867; 2532.650;  258.050;    0.000
452.913; 2638.650;  256.050;    0.000
452.959; 2556.650;  266.050;    0.000
453.005; 2491.650;  299.050;    0.000
453.051; 2585.650;  299.050;    0.000
453.097; 2527.650;  268.050;    0.000
453.142; 2472.650;  251.050;    0.000
453.188; 2629.650;  284.050;    0.000
453.234; 2608.650;  285.050;    0.000
453.280; 2501.650;  263.050;    0.000
453.326; 2600.650;  273.050;    0.000
453.372; 2417.650;  253.050;    0.000
453.418; 2533.650;  269.050;    0.000
453.463; 2583.650;  250.050;    0.000
453.509; 2649.650;  289.050;    0.000
453.555; 2517.650;  262.050;    0.000
453.601; 2545.650;  274.050;    0.000
453.647; 2579.650;  306.050;    0.000
453.692; 2568.650;  264.050;    0.000
453.738; 2595.650;  312.050;    0.000
453.784; 2455.650;  300.050;    0.000
453.829; 2599.650;  284.050;    0.000
453.875; 2594.650;  270.050;    0.000
453.921; 2555.650;  237.050;    0.000
453.967; 2524.650;  263.050;    0.000
454.012; 2602.650;  295.050;    0.000
454.058; 2550.650;  293.050;    0.000
454.104; 2538.650;  264.050;    0.000
454.149; 2538.650;  282.050;    0.000
454.195; 2497.650;  277.050;    0.000
454.240; 2494.650;  307.050;    0.000
454.286; 2512.650;  282.050;    0.000
454.332; 2396.650;  291.050;    0.000
454.377; 2476.650;  302.050;    0.000
454.423; 2577.650;  276.050;    0.000
454.468; 2510.650;  281.050;    0.000
454.514; 2421.650;  290.050;    0.000
454.559; 2589.650;  289.050;    0.000
454.605; 2419.650;  258.050;    0.000
454.650; 2515.650;  281.050;    0.000
454.696; 2540.650;  308.050;    0.000
454.741; 2539.650;  288.050;    0.000
454.787; 2565.650;  284.050;    0.000
454.832; 2450.650;  306.050;    0.000
454.878; 2496.650;  288.050;    0.000
454.923; 2453.650;  287.050;    0.000
454.969; 2574.650;  325.050;    0.000
455.014; 2565.650;  323.050;    0.000
455.060; 2536.650;  290.050;    0.000
455.105; 2415.650;  285.050;    0.000
455.150; 2417.650;  303.050;    0.000
455.196; 2458.650;  282.050;    0.000
455.241; 2477.650;  281.050;    0.000
455.286; 2527.650;  290.050;    0.000
455.332; 2464.650;  280.050;    0.000
455.377; 2439.650;  243.050;    0.000
455.422; 2628.650;  308.050;    0.000
455.468; 2455.650;  308.050;    0.000
455.513; 2508.650;  290.050;    0.000
455.558; 2409.650;  211.050;    0.000
455.604; 2528.650;  289.050;    0.000
455.649; 2511.650;  297.050;    0.000
455.694; 2456.650;  287.050;    0.000
455.739; 2533.650;  296.050;    0.000
455.785; 2519.650;  315.050;    0.000
455.830; 2463.650;  328.050;    0.000
455.875; 2510.650;  310.050;    0.000
455.920; 2397.650;  261.050;    0.000
455.965; 2445.650;  277.050;    0.000
456.010; 2568.650;  317.050;    0.000
456.056; 2428.650;  299.050;    0.000
456.101; 2440.650;  262.050;    0.000
456.146; 2529.650;  318.050;    0.000
456.191; 2555.650;  274.050;    0.000
456.236; 2383.650;  274.050;    0.000
456.281; 2427.650;  275.050;    0.000
456.326; 2555.650;  256.050;    0.000
456.371; 2383.650;  260.050;    0.000
456.416; 2478.650;  304.050;    0.000
456.461; 2462.650;  278.050;    0.000
456.507; 2510.650;  299.050;    0.000
456.552; 2508.650;  305.050;    0.000
456.597; 2482.650;  271.050;    0.000
456.642; 2450.650;  273.050;    0.000
456.687; 2584.650;  290.050;    0.000
456.732; 2540.650;  327.050;    0.000
456.776; 2553.650;  284.050;    0.000
456.821; 2434.650;  321.050;    0.000
456.866; 2430.650;  272.050;    0.000
456.911; 2471.650;  232.050;    0.000
456.956; 2495.650;  263.050;    0.000
457.001; 2523.650;  277.050;    0.000
457.046; 2516.650;  284.050;    0.000
457.091; 2540.650;  269.050;    0.000
457.136; 2460.650;  269.050;    0.000
457.181; 2526.650;  275.050;    0.000
457.225; 2482.650;  310.050;    0.000
457.270; 2527.650;  295.050;    0.000
457.315; 2569.650;  284.050;    0.000
457.360; 2437.650;  264.050;    0.000
457.405; 2528.650;  273.050;    0.000
457.450; 2504.650;  284.050;    0.000
457.494; 2528.650;  273.050;    0.000
457.539; 2471.650;  287.050;    0.000
457.584; 2549.650;  279.050;    0.000
457.629; 2481.650;  288.050;    0.000
457.673; 2573.650;  297.050;    0.000
457.718; 2527.650;  270.050;    0.000
457.763; 2566.650;  295.050;    0.000
457.807; 2515.650;  321.050;    0.000
457.852; 2559.650;  293.050;    0.000
457.897; 2631.650;  282.050;    0.000
457.941; 2612.650;  320.050;    0.000
457.986; 2576.650;  295.050;    0.000
458.031; 2550.650;  314.050;    0.000
458.075; 2574.650;  280.050;    0.000
458.120; 2578.650;  314.050;    0.000
458.165; 2571.650;  289.050;    0.000
458.209; 2535.650;  289.050;    0.000
458.254; 2558.650;  272.050;    0.000
458.298; 2558.650;  305.050;    0.000
458.343; 2562.650;  284.050;    0.000
458.387; 2618.650;  340.050;    0.000
458.432; 2600.650;  306.050;    0.000
458.476; 2612.650;  311.050;    0.000
458.521; 2590.650;  304.050;    0.000
458.565; 2632.650;  329.050;    0.000
458.610; 2624.650;  287.050;    0.000
458.654; 2619.650;  300.050;    0.000
458.699; 2603.650;  295.050;    0.000
458.743; 2702.650;  269.050;    0.000
458.788; 2651.650;  294.050;    0.000
458.832; 2661.650;  301.050;    0.000
458.877; 2652.650;  303.050;    0.000
458.921; 2670.650;  259.050;    0.000
458.965; 2674.650;  308.050;    0.000
459.010; 2720.650;  330.050;    0.000
459.054; 2711.650;  298.050;    0.000
459.099; 2723.650;  303.050;    0.000
459.143; 2732.650;  333.050;    0.000
459.187; 2664.650;  291.050;    0.000
459.231; 2677.650;  316.050;    0.000
459.276; 2756.650;  294.050;    0.000
459.320; 2716.650;  291.050;    0.000
459.364; 2721.650;  318.050;    0.000
459.409; 2771.650;  325.050;    0.000
459.453; 2703.650;  293.050;    0.000
459.497; 2817.650;  354.050;    0.000
459.541; 2801.650;  313.050;    0.000
459.586; 2733.650;  282.050;    0.000
459.630; 2728.650;  286.050;    0.000
459.674; 2846.650;  292.050;    0.000
459.718; 2703.650;  280.050;    0.000
459.762; 2745.650;  304.050;    0.000
459.807; 2899.650;  352.050;    0.000
459.851; 2811.650;  300.050;    0.000
459.895; 2760.650;  311.050;    0.000
459.939; 2802.650;  303.050;    0.000
459.983; 2885.650;  299.050;    0.000
460.027; 2848.650;  307.050;    0.000
460.071; 2904.650;  313.050;    0.000
460.115; 2837.650;  325.050;    0.000
460.159; 2842.650;  331.050;    0.000
460.204; 2943.650;  301.050;    0.000
460.248; 2897.650;  329.050;    0.000
460.292; 2929.650;  310.050;    0.000
460.336; 2929.650;  304.050;    0.000
460.380; 2866.650;  313.050;    0.000
460.424; 2938.650;  300.050;    0.000
460.468; 2937.650;  338.050;    0.000
460.512; 2999.650;  310.050;    0.000
460.556; 2903.650;  337.050;    0.000
460.599; 2872.650;  310.050;    0.000
460.643; 2938.650;  303.050;    0.000
460.687; 2959.650;  316.050;    0.000
460.731; 2976.650;  292.050;    0.000
460.775; 2904.650;  294.050;    0.000
460.819; 2945.650;  310.050;    0.000
460.863; 2884.650;  349.050;    0.000
460.907; 2892.650;  265.050;    0.000
460.951; 2947.650;  325.050;    0.000
460.995; 2969.650;  338.050;    0.000
461.038; 2763.650;  304.050;    0.000
461.082; 2885.650;  312.050;    0.000
461.126; 2911.650;  358.050;    0.000
461.170; 2854.650;  306.050;    0.000
461.214; 2929.650;  330.050;    0.000
461.257; 2974.650;  311.050;    0.000
461.301; 2951.650;  303.050;    0.000
461.345; 3018.650;  310.050;    0.000
461.389; 2906.650;  296.050;    0.000
461.432; 2833.650;  304.050;    0.000
461.476; 2932.650;  305.050;    0.000
461.520; 2880.650;  319.050;    0.000
461.563; 2904.650;  294.050;    0.000
461.607; 2880.650;  295.050;    0.000
461.651; 2889.650;  335.050;    0.000
461.694; 2877.650;  276.050;    0.000
461.738; 2895.650;  327.050;    0.000
461.782; 2979.650;  288.050;    0.000
461.825; 2873.650;  319.050;    0.000
461.869; 2981.650;  305.050;    0.000
461.913; 2963.650;  281.050;    0.000
461.956; 2948.650;  281.050;    0.000
462.000; 2986.650;  339.050;    0.000
462.043; 3047.650;  347.050;    0.000
462.087; 2899.650;  314.050;    0.000
462.130; 2976.650;  332.050;    0.000
462.174; 3021.650;  332.050;    0.000
462.217; 2964.650;  299.050;    0.000
462.261; 3068.650;  323.050;    0.000
462.304; 2982.650;  286.050;    0.000
462.348; 3057.650;  305.050;    0.000
462.391; 2991.650;  293.050;    0.000
462.435; 3123.650;  365.050;    0.000
462.478; 3103.650;  329.050;    0.000
462.522; 3032.650;  316.050;    0.000
462.565; 3105.650;  328.050;    0.000
462.608; 3208.650;  350.050;    0.000
462.652; 3152.650;  328.050;    0.000
462.695; 3258.650;  358.050;    0.000
462.739; 3167.650;  317.050;    0.000
462.782; 3213.650;  329.050;    0.000
462.825; 3163.650;  368.050;    0.000
462.869; 3289.650;  343.050;    0.000
462.912; 3204.650;  404.050;    0.000
462.955; 3262.650;  328.050;    0.000
462.998; 3265.650;  340.050;    0.000
463.042; 3234.650;  361.050;    0.000
463.085; 3271.650;  337.050;    0.000
463.128; 3263.650;  373.050;    0.000
463.172; 3102.650;  347.050;    0.000
463.215;  373.650;  305.050;    0.000
463.258;  290.650;  324.050;    0.000
463.301;  320.650;  296.050;    0.000
463.344;  322.650;  332.050;    0.000
463.388;  332.650;  309.050;    0.000
463.431;  275.650;  298.050;    0.000
463.474;  346.650;  351.050;    0.000
463.517;  303.650;  319.050;    0.000
463.560;  302.650;  325.050;    0.000
463.603;  321.650;  330.050;    0.000
463.646;  318.650;  332.050;    0.000
463.690;  290.650;  325.050;    0.000
463.733;  372.650;  323.050;    0.000
463.776;  300.650;  276.050;    0.000
463.819;  315.650;  320.050;    0.000
463.862;  292.650;  275.050;    0.000

