
Integration time [ms]:   0.300
Averaging Nr. [scans]: 1
Smoothing Nr. [pixels]: 0
Data measured with spectrometer [name]: UV2
Wave   ;Sample   ;Dark     ;Reference
[nm]   ;[counts] ;[counts] ;[counts] 

353.533;  218.500;  178.050;    0.000
353.597;  219.500;  251.050;    0.000
353.660;  204.500;  213.050;    0.000
353.723;  192.500;  185.050;    0.000
353.786;  187.500;  191.050;    0.000
353.850;  220.500;  238.050;    0.000
353.913;  212.500;  181.050;    0.000
353.976;  195.500;  190.050;    0.000
354.039;  185.500;  184.050;    0.000
354.102;  222.500;  231.050;    0.000
354.166;  247.500;  188.050;    0.000
354.229;  233.500;  224.050;    0.000
354.292;  178.500;  186.050;    0.000
354.355;  223.500;  175.050;    0.000
354.418;  196.500;  191.050;    0.000
354.481;  200.500;  181.050;    0.000
354.545;  599.500;  193.050;    0.000
354.608;  678.500;  210.050;    0.000
354.671;  630.500;  183.050;    0.000
354.734;  637.500;  189.050;    0.000
354.797;  685.500;  168.050;    0.000
354.860;  672.500;  178.050;    0.000
354.923;  660.500;  236.050;    0.000
354.986;  656.500;  181.050;    0.000
355.050;  713.500;  168.050;    0.000
355.113;  735.500;  201.050;    0.000
355.176;  713.500;  206.050;    0.000
355.239;  717.500;  213.050;    0.000
355.302;  713.500;  198.050;    0.000
355.365;  749.500;  199.050;    0.000
355.428;  724.500;  200.050;    0.000
355.491;  787.500;  232.050;    0.000
355.554;  749.500;  184.050;    0.000
355.617;  793.500;  214.050;    0.000
355.680;  789.500;  191.050;    0.000
355.743;  825.500;  161.050;    0.000
355.806;  744.500;  153.050;    0.000
355.869;  763.500;  221.050;    0.000
355.932;  757.500;  152.050;    0.000
355.995;  815.500;  195.050;    0.000
356.058;  767.500;  172.050;    0.000
356.121;  839.500;  186.050;    0.000
356.184;  858.500;  196.050;    0.000
356.247;  831.500;  183.050;    0.000
356.310;  776.500;  159.050;    0.000
356.373;  912.500;  183.050;    0.000
356.436;  820.500;  176.050;    0.000
356.498;  866.500;  191.050;    0.000
356.561;  848.500;  145.050;    0.000
356.624;  857.500;  187.050;    0.000
356.687;  875.500;  181.050;    0.000
356.750;  881.500;  227.050;    0.000
356.813;  828.500;  147.050;    0.000
356.876;  903.500;  184.050;    0.000
356.939;  845.500;  141.050;    0.000
357.001;  912.500;  188.050;    0.000
357.064;  831.500;  173.050;    0.000
357.127;  857.500;  159.050;    0.000
357.190;  848.500;  185.050;    0.000
357.253;  871.500;  180.050;    0.000
357.316;  905.500;  199.050;    0.000
357.378;  838.500;  196.050;    0.000
357.441;  921.500;  175.050;    0.000
357.504;  911.500;  164.050;    0.000
357.567;  832.500;  145.050;    0.000
357.629;  889.500;  205.050;    0.000
357.692;  834.500;  175.050;    0.000
357.755;  899.500;  205.050;    0.000
357.818;  822.500;  141.050;    0.000
357.880;  871.500;  170.050;    0.000
357.943;  897.500;  152.050;    0.000
358.006;  920.500;  145.050;    0.000
358.069;  884.500;  164.050;    0.000
358.131;  952.500;  148.050;    0.000
358.194;  904.500;  122.050;    0.000
358.257;  905.500;  147.050;    0.000
358.319;  889.500;  156.050;    0.000
358.382;  969.500;  193.050;    0.000
358.445;  853.500;  155.050;    0.000
358.507;  905.500;  160.050;    0.000
358.570;  925.500;  159.050;    0.000
358.633;  969.500;  163.050;    0.000
358.695;  969.500;  174.050;    0.000
358.758;  939.500;  127.050;    0.000
358.821;  967.500;  165.050;    0.000
358.883;  971.500;  145.050;    0.000
358.946;  951.500;  127.050;    0.000
359.008;  937.500;  180.050;    0.000
359.071;  920.500;  173.050;    0.000
359.134;  922.500;  150.050;    0.000
359.196;  962.500;  158.050;    0.000
359.259;  940.500;  159.050;    0.000
359.321;  923.500;  159.050;    0.000
359.384;  967.500;  182.050;    0.000
359.446;  930.500;  140.050;    0.000
359.509;  980.500;  146.050;    0.000
359.571;  961.500;  133.050;    0.000
359.634;  924.500;   93.050;    0.000
359.696;  948.500;  142.050;    0.000
359.759;  992.500;  161.050;    0.000
359.821;  973.500;  110.050;    0.000
359.884;  945.500;  114.050;    0.000
359.946;  977.500;  180.050;    0.000
360.009;  993.500;  158.050;    0.000
360.071; 1029.500;  116.050;    0.000
360.134;  951.500;  170.050;    0.000
360.196;  987.500;  128.050;    0.000
360.259;  995.500;  157.050;    0.000
360.321;  973.500;  122.050;    0.000
360.384;  927.500;  119.050;    0.000
360.446;  994.500;  122.050;    0.000
360.508; 1048.500;  195.050;    0.000
360.571;  982.500;  128.050;    0.000
360.633;  949.500;  172.050;    0.000
360.696;  968.500;  115.050;    0.000
360.758; 1020.500;  162.050;    0.000
360.820;  995.500;  149.050;    0.000
360.883;  950.500;  151.050;    0.000
360.945; 1043.500;  149.050;    0.000
361.007; 1007.500;  135.050;    0.000
361.070; 1001.500;  162.050;    0.000
361.132; 1020.500;  198.050;    0.000
361.194; 1044.500;  141.050;    0.000
361.257; 1004.500;  154.050;    0.000
361.319; 1112.500;  147.050;    0.000
361.381; 1061.500;  154.050;    0.000
361.443; 1069.500;  144.050;    0.000
361.506; 1031.500;  164.050;    0.000
361.568; 1039.500;  148.050;    0.000
361.630; 1055.500;  127.050;    0.000
361.693; 1043.500;  158.050;    0.000
361.755; 1073.500;  161.050;    0.000
361.817; 1076.500;  173.050;    0.000
361.879; 1068.500;  159.050;    0.000
361.941; 1012.500;  153.050;    0.000
362.004; 1006.500;  148.050;    0.000
362.066; 1053.500;  150.050;    0.000
362.128; 1059.500;  132.050;    0.000
362.190; 1051.500;  207.050;    0.000
362.252; 1039.500;  142.050;    0.000
362.315; 1026.500;  153.050;    0.000
362.377; 1049.500;  164.050;    0.000
362.439; 1054.500;  155.050;    0.000
362.501; 1018.500;  157.050;    0.000
362.563; 1090.500;  188.050;    0.000
362.625; 1060.500;  194.050;    0.000
362.688; 1093.500;  159.050;    0.000
362.750; 1100.500;  205.050;    0.000
362.812; 1116.500;  148.050;    0.000
362.874; 1030.500;  173.050;    0.000
362.936; 1067.500;  152.050;    0.000
362.998; 1111.500;  145.050;    0.000
363.060; 1129.500;  184.050;    0.000
363.122; 1083.500;  147.050;    0.000
363.184; 1118.500;  136.050;    0.000
363.246; 1058.500;  171.050;    0.000
363.308; 1100.500;  154.050;    0.000
363.370; 1127.500;  175.050;    0.000
363.432; 1120.500;  139.050;    0.000
363.494; 1078.500;  163.050;    0.000
363.556; 1068.500;  117.050;    0.000
363.618; 1067.500;  126.050;    0.000
363.680; 1064.500;  147.050;    0.000
363.742; 1063.500;  161.050;    0.000
363.804; 1132.500;  159.050;    0.000
363.866; 1113.500;  170.050;    0.000
363.928; 1130.500;  122.050;    0.000
363.990; 1079.500;  167.050;    0.000
364.052; 1134.500;  180.050;    0.000
364.114; 1091.500;  119.050;    0.000
364.176; 1125.500;  184.050;    0.000
364.238; 1102.500;  180.050;    0.000
364.300; 1074.500;  159.050;    0.000
364.362; 1166.500;  163.050;    0.000
364.424; 1062.500;  139.050;    0.000
364.486; 1105.500;  189.050;    0.000
364.548; 1160.500;  167.050;    0.000
364.609; 1098.500;  165.050;    0.000
364.671; 1106.500;  171.050;    0.000
364.733; 1088.500;  165.050;    0.000
364.795; 1151.500;  122.050;    0.000
364.857; 1131.500;  147.050;    0.000
364.919; 1178.500;  104.050;    0.000
364.981; 1122.500;  143.050;    0.000
365.042; 1167.500;  166.050;    0.000
365.104; 1138.500;  162.050;    0.000
365.166; 1078.500;  155.050;    0.000
365.228; 1116.500;  179.050;    0.000
365.290; 1124.500;  133.050;    0.000
365.351; 1110.500;  142.050;    0.000
365.413; 1054.500;  144.050;    0.000
365.475; 1100.500;  139.050;    0.000
365.537; 1119.500;  181.050;    0.000
365.598; 1117.500;  166.050;    0.000
365.660; 1144.500;  130.050;    0.000
365.722; 1118.500;  177.050;    0.000
365.784; 1125.500;  149.050;    0.000
365.845; 1138.500;  156.050;    0.000
365.907; 1115.500;  122.050;    0.000
365.969; 1105.500;  140.050;    0.000
366.030; 1158.500;  156.050;    0.000
366.092; 1149.500;  140.050;    0.000
366.154; 1148.500;  169.050;    0.000
366.215; 1168.500;  170.050;    0.000
366.277; 1179.500;  143.050;    0.000
366.339; 1152.500;  139.050;    0.000
366.400; 1105.500;  139.050;    0.000
366.462; 1173.500;  140.050;    0.000
366.524; 1133.500;  150.050;    0.000
366.585; 1158.500;  163.050;    0.000
366.647; 1135.500;  193.050;    0.000
366.708; 1081.500;  135.050;    0.000
366.770; 1223.500;  165.050;    0.000
366.832; 1237.500;  168.050;    0.000
366.893; 1184.500;  157.050;    0.000
366.955; 1126.500;  132.050;    0.000
367.016; 1177.500;  127.050;    0.000
367.078; 1136.500;  146.050;    0.000
367.139; 1137.500;  129.050;    0.000
367.201; 1167.500;  148.050;    0.000
367.262; 1216.500;  165.050;    0.000
367.324; 1137.500;  171.050;    0.000
367.385; 1153.500;  118.050;    0.000
367.447; 1163.500;  144.050;    0.000
367.508; 1164.500;  135.050;    0.000
367.570; 1143.500;  160.050;    0.000
367.631; 1159.500;  157.050;    0.000
367.693; 1201.500;  168.050;    0.000
367.754; 1232.500;  139.050;    0.000
367.816; 1163.500;  141.050;    0.000
367.877; 1244.500;  195.050;    0.000
367.939; 1242.500;  166.050;    0.000
368.000; 1127.500;  127.050;    0.000
368.062; 1201.500;  143.050;    0.000
368.123; 1140.500;  156.050;    0.000
368.184; 1159.500;  179.050;    0.000
368.246; 1184.500;  168.050;    0.000
368.307; 1188.500;  203.050;    0.000
368.369; 1121.500;  149.050;    0.000
368.430; 1089.500;  121.050;    0.000
368.491; 1198.500;  131.050;    0.000
368.553; 1215.500;  161.050;    0.000
368.614; 1121.500;  157.050;    0.000
368.675; 1177.500;  152.050;    0.000
368.737; 1211.500;  168.050;    0.000
368.798; 1198.500;  147.050;    0.000
368.859; 1188.500;  174.050;    0.000
368.921; 1167.500;  168.050;    0.000
368.982; 1221.500;  151.050;    0.000
369.043; 1204.500;  169.050;    0.000
369.104; 1222.500;  149.050;    0.000
369.166; 1225.500;  178.050;    0.000
369.227; 1204.500;  149.050;    0.000
369.288; 1143.500;  131.050;    0.000
369.349; 1181.500;  128.050;    0.000
369.411; 1236.500;  198.050;    0.000
369.472; 1211.500;  156.050;    0.000
369.533; 1197.500;  142.050;    0.000
369.594; 1176.500;  125.050;    0.000
369.656; 1221.500;  153.050;    0.000
369.717; 1195.500;  124.050;    0.000
369.778; 1220.500;  163.050;    0.000
369.839; 1179.500;  130.050;    0.000
369.900; 1259.500;  170.050;    0.000
369.961; 1153.500;  142.050;    0.000
370.023; 1230.500;  197.050;    0.000
370.084; 1161.500;  151.050;    0.000
370.145; 1170.500;  128.050;    0.000
370.206; 1256.500;  152.050;    0.000
370.267; 1157.500;  154.050;    0.000
370.328; 1222.500;  154.050;    0.000
370.389; 1241.500;  173.050;    0.000
370.451; 1252.500;  191.050;    0.000
370.512; 1205.500;  155.050;    0.000
370.573; 1253.500;  134.050;    0.000
370.634; 1284.500;  160.050;    0.000
370.695; 1249.500;  124.050;    0.000
370.756; 1261.500;  169.050;    0.000
370.817; 1273.500;  169.050;    0.000
370.878; 1281.500;  200.050;    0.000
370.939; 1221.500;  157.050;    0.000
371.000; 1235.500;  131.050;    0.000
371.061; 1243.500;  136.050;    0.000
371.122; 1241.500;  176.050;    0.000
371.183; 1207.500;   81.050;    0.000
371.244; 1273.500;  156.050;    0.000
371.305; 1236.500;  131.050;    0.000
371.366; 1240.500;  161.050;    0.000
371.427; 1295.500;  127.050;    0.000
371.488; 1314.500;  184.050;    0.000
371.549; 1235.500;  159.050;    0.000
371.610; 1277.500;  147.050;    0.000
371.671; 1221.500;  132.050;    0.000
371.732; 1300.500;  163.050;    0.000
371.793; 1340.500;  179.050;    0.000
371.853; 1238.500;  179.050;    0.000
371.914; 1293.500;  149.050;    0.000
371.975; 1245.500;  117.050;    0.000
372.036; 1221.500;  141.050;    0.000
372.097; 1205.500;  101.050;    0.000
372.158; 1340.500;  115.050;    0.000
372.219; 1249.500;  174.050;    0.000
372.280; 1221.500;  134.050;    0.000
372.340; 1247.500;  180.050;    0.000
372.401; 1307.500;  166.050;    0.000
372.462; 1277.500;  171.050;    0.000
372.523; 1285.500;  132.050;    0.000
372.584; 1299.500;  182.050;    0.000
372.645; 1312.500;  149.050;    0.000
372.705; 1278.500;  182.050;    0.000
372.766; 1359.500;  145.050;    0.000
372.827; 1311.500;  161.050;    0.000
372.888; 1266.500;  156.050;    0.000
372.948; 1279.500;  158.050;    0.000
373.009; 1302.500;  178.050;    0.000
373.070; 1286.500;  166.050;    0.000
373.131; 1268.500;  154.050;    0.000
373.191; 1370.500;  193.050;    0.000
373.252; 1272.500;  148.050;    0.000
373.313; 1276.500;  152.050;    0.000
373.373; 1258.500;  156.050;    0.000
373.434; 1317.500;  166.050;    0.000
373.495; 1264.500;  152.050;    0.000
373.555; 1345.500;  145.050;    0.000
373.616; 1281.500;  141.050;    0.000
373.677; 1290.500;  169.050;    0.000
373.737; 1299.500;  166.050;    0.000
373.798; 1325.500;  151.050;    0.000
373.859; 1375.500;  170.050;    0.000
373.919; 1325.500;  206.050;    0.000
373.980; 1300.500;  140.050;    0.000
374.041; 1274.500;  148.050;    0.000
374.101; 1297.500;  165.050;    0.000
374.162; 1338.500;  166.050;    0.000
374.222; 1365.500;  156.050;    0.000
374.283; 1345.500;  161.050;    0.000
374.343; 1332.500;  185.050;    0.000
374.404; 1425.500;  148.050;    0.000
374.465; 1382.500;  162.050;    0.000
374.525; 1289.500;  177.050;    0.000
374.586; 1459.500;  164.050;    0.000
374.646; 1365.500;  180.050;    0.000
374.707; 1377.500;  203.050;    0.000
374.767; 1340.500;  148.050;    0.000
374.828; 1381.500;  142.050;    0.000
374.888; 1378.500;  187.050;    0.000
374.949; 1313.500;  137.050;    0.000
375.009; 1351.500;  155.050;    0.000
375.070; 1383.500;  165.050;    0.000
375.130; 1397.500;  168.050;    0.000
375.190; 1332.500;  157.050;    0.000
375.251; 1427.500;  206.050;    0.000
375.311; 1404.500;  141.050;    0.000
375.372; 1344.500;  144.050;    0.000
375.432; 1369.500;  153.050;    0.000
375.493; 1375.500;  168.050;    0.000
375.553; 1398.500;  146.050;    0.000
375.613; 1337.500;  142.050;    0.000
375.674; 1375.500;  153.050;    0.000
375.734; 1353.500;  166.050;    0.000
375.794; 1310.500;  145.050;    0.000
375.855; 1380.500;  162.050;    0.000
375.915; 1407.500;  162.050;    0.000
375.975; 1374.500;  144.050;    0.000
376.036; 1349.500;  128.050;    0.000
376.096; 1438.500;  122.050;    0.000
376.156; 1345.500;  140.050;    0.000
376.217; 1378.500;  158.050;    0.000
376.277; 1376.500;  163.050;    0.000
376.337; 1355.500;  139.050;    0.000
376.398; 1376.500;  176.050;    0.000
376.458; 1349.500;  143.050;    0.000
376.518; 1370.500;  136.050;    0.000
376.578; 1397.500;  177.050;    0.000
376.639; 1392.500;  163.050;    0.000
376.699; 1409.500;  183.050;    0.000
376.759; 1411.500;  169.050;    0.000
376.819; 1362.500;  147.050;    0.000
376.880; 1363.500;  188.050;    0.000
376.940; 1361.500;  185.050;    0.000
377.000; 1337.500;  131.050;    0.000
377.060; 1438.500;  182.050;    0.000
377.120; 1362.500;  165.050;    0.000
377.180; 1450.500;  169.050;    0.000
377.241; 1275.500;  146.050;    0.000
377.301; 1421.500;  183.050;    0.000
377.361; 1392.500;  124.050;    0.000
377.421; 1396.500;  186.050;    0.000
377.481; 1418.500;  178.050;    0.000
377.541; 1410.500;  140.050;    0.000
377.601; 1443.500;  175.050;    0.000
377.661; 1487.500;  169.050;    0.000
377.722; 1443.500;  144.050;    0.000
377.782; 1416.500;  182.050;    0.000
377.842; 1436.500;  161.050;    0.000
377.902; 1404.500;  151.050;    0.000
377.962; 1452.500;  134.050;    0.000
378.022; 1382.500;  153.050;    0.000
378.082; 1419.500;  178.050;    0.000
378.142; 1395.500;  118.050;    0.000
378.202; 1439.500;  153.050;    0.000
378.262; 1451.500;  166.050;    0.000
378.322; 1546.500;  174.050;    0.000
378.382; 1432.500;  148.050;    0.000
378.442; 1442.500;  190.050;    0.000
378.502; 1414.500;  136.050;    0.000
378.562; 1468.500;  130.050;    0.000
378.622; 1538.500;  188.050;    0.000
378.682; 1503.500;  163.050;    0.000
378.742; 1534.500;  150.050;    0.000
378.802; 1442.500;  127.050;    0.000
378.862; 1515.500;  186.050;    0.000
378.921; 1538.500;  203.050;    0.000
378.981; 1532.500;  177.050;    0.000
379.041; 1484.500;  134.050;    0.000
379.101; 1510.500;  167.050;    0.000
379.161; 1498.500;  130.050;    0.000
379.221; 1554.500;  169.050;    0.000
379.281; 1509.500;  162.050;    0.000
379.341; 1475.500;  134.050;    0.000
379.401; 1546.500;  151.050;    0.000
379.460; 1522.500;  190.050;    0.000
379.520; 1544.500;  158.050;    0.000
379.580; 1565.500;  162.050;    0.000
379.640; 1584.500;  146.050;    0.000
379.700; 1578.500;  167.050;    0.000
379.759; 1596.500;  194.050;    0.000
379.819; 1537.500;  176.050;    0.000
379.879; 1593.500;  140.050;    0.000
379.939; 1621.500;  184.050;    0.000
379.999; 1512.500;  165.050;    0.000
380.058; 1571.500;  194.050;    0.000
380.118; 1601.500;  137.050;    0.000
380.178; 1585.500;  139.050;    0.000
380.237; 1629.500;  139.050;    0.000
380.297; 1571.500;  160.050;    0.000
380.357; 1594.500;  194.050;    0.000
380.417; 1633.500;  174.050;    0.000
380.476; 1623.500;  153.050;    0.000
380.536; 1595.500;  169.050;    0.000
380.596; 1630.500;  159.050;    0.000
380.655; 1660.500;  178.050;    0.000
380.715; 1601.500;  196.050;    0.000
380.775; 1622.500;  202.050;    0.000
380.834; 1606.500;  186.050;    0.000
380.894; 1618.500;  167.050;    0.000
380.954; 1607.500;  150.050;    0.000
381.013; 1643.500;  187.050;    0.000
381.073; 1692.500;  114.050;    0.000
381.132; 1672.500;  176.050;    0.000
381.192; 1662.500;  197.050;    0.000
381.252; 1716.500;  172.050;    0.000
381.311; 1696.500;  155.050;    0.000
381.371; 1739.500;  172.050;    0.000
381.430; 1797.500;  143.050;    0.000
381.490; 1732.500;  136.050;    0.000
381.549; 1687.500;  131.050;    0.000
381.609; 1795.500;  203.050;    0.000
381.668; 1762.500;  135.050;    0.000
381.728; 1717.500;  163.050;    0.000
381.787; 1853.500;  195.050;    0.000
381.847; 1828.500;  185.050;    0.000
381.906; 1782.500;  187.050;    0.000
381.966; 1834.500;  153.050;    0.000
382.025; 1819.500;  175.050;    0.000
382.085; 1849.500;  195.050;    0.000
382.144; 1895.500;  210.050;    0.000
382.204; 1962.500;  201.050;    0.000
382.263; 1864.500;  178.050;    0.000
382.323; 1976.500;  151.050;    0.000
382.382; 1991.500;  147.050;    0.000
382.441; 2062.500;  144.050;    0.000
382.501; 2116.500;  156.050;    0.000
382.560; 2097.500;  160.050;    0.000
382.619; 2177.500;  173.050;    0.000
382.679; 2200.500;  167.050;    0.000
382.738; 2316.500;  189.050;    0.000
382.798; 2381.500;  181.050;    0.000
382.857; 2505.500;  161.050;    0.000
382.916; 2707.500;  162.050;    0.000
382.976; 2815.500;  169.050;    0.000
383.035; 2667.500;  174.050;    0.000
383.094; 2735.500;  178.050;    0.000
383.154; 3079.500;  188.050;    0.000
383.213; 3438.500;  162.050;    0.000
383.272; 3342.500;  144.050;    0.000
383.331; 2886.500;  144.050;    0.000
383.391; 2606.500;  198.050;    0.000
383.450; 2756.500;  185.050;    0.000
383.509; 2684.500;  132.050;    0.000
383.568; 2736.500;  171.050;    0.000
383.628; 2802.500;  171.050;    0.000
383.687; 3056.500;  172.050;    0.000
383.746; 3299.500;  144.050;    0.000
383.805; 3809.500;  177.050;    0.000
383.864; 3719.500;  145.050;    0.000
383.924; 3102.500;  203.050;    0.000
383.983; 2613.500;  153.050;    0.000
384.042; 2396.500;  171.050;    0.000
384.101; 2325.500;  186.050;    0.000
384.160; 2292.500;  132.050;    0.000
384.219; 2102.500;  157.050;    0.000
384.279; 2083.500;  166.050;    0.000
384.338; 1995.500;  141.050;    0.000
384.397; 2105.500;  142.050;    0.000
384.456; 1997.500;  155.050;    0.000
384.515; 1992.500;  158.050;    0.000
384.574; 1908.500;  208.050;    0.000
384.633; 1936.500;  158.050;    0.000
384.692; 1929.500;  162.050;    0.000
384.751; 1903.500;  179.050;    0.000
384.810; 1955.500;  150.050;    0.000
384.869; 1915.500;  147.050;    0.000
384.929; 1935.500;  132.050;    0.000
384.988; 1905.500;  166.050;    0.000
385.047; 1866.500;  161.050;    0.000
385.106; 1942.500;  180.050;    0.000
385.165; 1906.500;  123.050;    0.000
385.224; 1800.500;  153.050;    0.000
385.283; 1869.500;  158.050;    0.000
385.342; 1806.500;  184.050;    0.000
385.401; 1834.500;  191.050;    0.000
385.459; 1908.500;  143.050;    0.000
385.518; 1815.500;  152.050;    0.000
385.577; 1911.500;  134.050;    0.000
385.636; 1942.500;  187.050;    0.000
385.695; 1850.500;  141.050;    0.000
385.754; 1811.500;  143.050;    0.000
385.813; 1750.500;  145.050;    0.000
385.872; 1828.500;  116.050;    0.000
385.931; 1916.500;  147.050;    0.000
385.990; 1868.500;  170.050;    0.000
386.049; 1846.500;  189.050;    0.000
386.107; 1846.500;  122.050;    0.000
386.166; 1847.500;  155.050;    0.000
386.225; 1821.500;  173.050;    0.000
386.284; 1795.500;  138.050;    0.000
386.343; 1856.500;  216.050;    0.000
386.402; 1892.500;  162.050;    0.000
386.460; 1790.500;  131.050;    0.000
386.519; 1875.500;  122.050;    0.000
386.578; 1802.500;  140.050;    0.000
386.637; 1825.500;  169.050;    0.000
386.696; 1843.500;  176.050;    0.000
386.754; 1836.500;  127.050;    0.000
386.813; 1784.500;  138.050;    0.000
386.872; 1824.500;  135.050;    0.000
386.931; 1879.500;  170.050;    0.000
386.989; 1816.500;  167.050;    0.000
387.048; 1861.500;  131.050;    0.000
387.107; 1885.500;  176.050;    0.000
387.165; 1807.500;  139.050;    0.000
387.224; 1890.500;  150.050;    0.000
387.283; 1847.500;  169.050;    0.000
387.342; 1911.500;  191.050;    0.000
387.400; 1775.500;  131.050;    0.000
387.459; 1842.500;  139.050;    0.000
387.517; 1810.500;  214.050;    0.000
387.576; 1832.500;  146.050;    0.000
387.635; 1790.500;  161.050;    0.000
387.693; 1928.500;  197.050;    0.000
387.752; 1816.500;  159.050;    0.000
387.811; 1814.500;  144.050;    0.000
387.869; 1831.500;  172.050;    0.000
387.928; 1826.500;  160.050;    0.000
387.986; 1865.500;  192.050;    0.000
388.045; 1823.500;  121.050;    0.000
388.103; 1804.500;  129.050;    0.000
388.162; 1822.500;  169.050;    0.000
388.221; 1818.500;  171.050;    0.000
388.279; 1729.500;  135.050;    0.000
388.338; 1824.500;  222.050;    0.000
388.396; 1867.500;  168.050;    0.000
388.455; 1806.500;  178.050;    0.000
388.513; 1786.500;  151.050;    0.000
388.572; 1855.500;  147.050;    0.000
388.630; 1861.500;  158.050;    0.000
388.689; 1800.500;  163.050;    0.000
388.747; 1824.500;  180.050;    0.000
388.806; 1760.500;  119.050;    0.000
388.864; 1806.500;  159.050;    0.000
388.922; 1881.500;  152.050;    0.000
388.981; 1791.500;  125.050;    0.000
389.039; 1793.500;  151.050;    0.000
389.098; 1829.500;  151.050;    0.000
389.156; 1870.500;  175.050;    0.000
389.214; 1795.500;  133.050;    0.000
389.273; 1838.500;  142.050;    0.000
389.331; 1805.500;  179.050;    0.000
389.390; 1759.500;  179.050;    0.000
389.448; 1798.500;  159.050;    0.000
389.506; 1836.500;  140.050;    0.000
389.565; 1812.500;  160.050;    0.000
389.623; 1931.500;  181.050;    0.000
389.681; 1884.500;  181.050;    0.000
389.740; 1842.500;  187.050;    0.000
389.798; 1831.500;  163.050;    0.000
389.856; 1885.500;  185.050;    0.000
389.914; 1842.500;  170.050;    0.000
389.973; 1831.500;  150.050;    0.000
390.031; 1822.500;  149.050;    0.000
390.089; 1864.500;  191.050;    0.000
390.147; 1803.500;  126.050;    0.000
390.206; 1804.500;  174.050;    0.000
390.264; 1842.500;  164.050;    0.000
390.322; 1838.500;  150.050;    0.000
390.380; 1757.500;  137.050;    0.000
390.439; 1796.500;  176.050;    0.000
390.497; 1763.500;  188.050;    0.000
390.555; 1822.500;  143.050;    0.000
390.613; 1822.500;  174.050;    0.000
390.671; 1837.500;  208.050;    0.000
390.729; 1793.500;  135.050;    0.000
390.788; 1784.500;  169.050;    0.000
390.846; 1838.500;  173.050;    0.000
390.904; 1824.500;  176.050;    0.000
390.962; 1813.500;  179.050;    0.000
391.020; 1839.500;  201.050;    0.000
391.078; 1841.500;  192.050;    0.000
391.136; 1864.500;  170.050;    0.000
391.194; 1805.500;  163.050;    0.000
391.253; 1885.500;  203.050;    0.000
391.311; 1826.500;  170.050;    0.000
391.369; 1859.500;  191.050;    0.000
391.427; 1937.500;  226.050;    0.000
391.485; 1911.500;  181.050;    0.000
391.543; 1891.500;  177.050;    0.000
391.601; 1840.500;  150.050;    0.000
391.659; 1960.500;  201.050;    0.000
391.717; 1927.500;  166.050;    0.000
391.775; 1852.500;  200.050;    0.000
391.833; 1858.500;  180.050;    0.000
391.891; 1859.500;  172.050;    0.000
391.949; 1899.500;  174.050;    0.000
392.007; 1906.500;  194.050;    0.000
392.065; 1915.500;  161.050;    0.000
392.123; 1854.500;  159.050;    0.000
392.180; 1940.500;  193.050;    0.000
392.238; 1928.500;  188.050;    0.000
392.296; 1884.500;  206.050;    0.000
392.354; 1880.500;  170.050;    0.000
392.412; 1868.500;  207.050;    0.000
392.470; 1923.500;  168.050;    0.000
392.528; 1917.500;  185.050;    0.000
392.586; 1819.500;  154.050;    0.000
392.644; 1955.500;  190.050;    0.000
392.701; 1889.500;  195.050;    0.000
392.759; 1912.500;  229.050;    0.000
392.817; 1905.500;  176.050;    0.000
392.875; 1900.500;  198.050;    0.000
392.933; 1886.500;  174.050;    0.000
392.991; 1885.500;  237.050;    0.000
393.048; 1841.500;  212.050;    0.000
393.106; 1867.500;  191.050;    0.000
393.164; 1917.500;  136.050;    0.000
393.222; 1810.500;  164.050;    0.000
393.279; 1969.500;  208.050;    0.000
393.337; 2041.500;  203.050;    0.000
393.395; 1932.500;  191.050;    0.000
393.453; 1935.500;  153.050;    0.000
393.510; 1986.500;  171.050;    0.000
393.568; 1931.500;  203.050;    0.000
393.626; 1945.500;  169.050;    0.000
393.684; 1941.500;  201.050;    0.000
393.741; 1970.500;  172.050;    0.000
393.799; 1936.500;  149.050;    0.000
393.857; 1962.500;  151.050;    0.000
393.914; 1961.500;  192.050;    0.000
393.972; 1949.500;  176.050;    0.000
394.030; 1938.500;  165.050;    0.000
394.087; 1947.500;  192.050;    0.000
394.145; 1900.500;  183.050;    0.000
394.202; 1907.500;  161.050;    0.000
394.260; 1925.500;  135.050;    0.000
394.318; 2000.500;  188.050;    0.000
394.375; 1956.500;  163.050;    0.000
394.433; 1981.500;  151.050;    0.000
394.490; 1970.500;  190.050;    0.000
394.548; 1935.500;  157.050;    0.000
394.605; 1989.500;  205.050;    0.000
394.663; 1923.500;  173.050;    0.000
394.720; 2047.500;  171.050;    0.000
394.778; 1958.500;  190.050;    0.000
394.836; 2066.500;  134.050;    0.000
394.893; 1931.500;  142.050;    0.000
394.951; 1978.500;  192.050;    0.000
395.008; 2040.500;  149.050;    0.000
395.065; 1996.500;  194.050;    0.000
395.123; 2002.500;  160.050;    0.000
395.180; 2026.500;  178.050;    0.000
395.238; 2048.500;  191.050;    0.000
395.295; 2037.500;  160.050;    0.000
395.353; 2067.500;  162.050;    0.000
395.410; 2012.500;  165.050;    0.000
395.468; 2132.500;  190.050;    0.000
395.525; 2039.500;  173.050;    0.000
395.582; 2105.500;  161.050;    0.000
395.640; 2062.500;  200.050;    0.000
395.697; 2065.500;  198.050;    0.000
395.754; 2091.500;  136.050;    0.000
395.812; 2110.500;  172.050;    0.000
395.869; 2153.500;  172.050;    0.000
395.927; 2068.500;  145.050;    0.000
395.984; 2157.500;  220.050;    0.000
396.041; 1990.500;  137.050;    0.000
396.098; 2072.500;  161.050;    0.000
396.156; 2101.500;  159.050;    0.000
396.213; 2049.500;  200.050;    0.000
396.270; 2035.500;  209.050;    0.000
396.328; 2042.500;  162.050;    0.000
396.385; 2061.500;  186.050;    0.000
396.442; 2047.500;  177.050;    0.000
396.499; 2061.500;  183.050;    0.000
396.557; 2082.500;  182.050;    0.000
396.614; 2108.500;  186.050;    0.000
396.671; 2021.500;  144.050;    0.000
396.728; 2080.500;  176.050;    0.000
396.785; 2073.500;  169.050;    0.000
396.843; 2148.500;  134.050;    0.000
396.900; 2107.500;  184.050;    0.000
396.957; 2191.500;  197.050;    0.000
397.014; 2027.500;  187.050;    0.000
397.071; 2137.500;  186.050;    0.000
397.128; 2165.500;  200.050;    0.000
397.186; 2174.500;  175.050;    0.000
397.243; 2174.500;  154.050;    0.000
397.300; 2186.500;  191.050;    0.000
397.357; 2157.500;  238.050;    0.000
397.414; 2209.500;  161.050;    0.000
397.471; 2082.500;  135.050;    0.000
397.528; 2114.500;  158.050;    0.000
397.585; 2126.500;  159.050;    0.000
397.642; 2097.500;  180.050;    0.000
397.699; 2165.500;  170.050;    0.000
397.756; 2194.500;  175.050;    0.000
397.814; 2206.500;  182.050;    0.000
397.871; 2162.500;  173.050;    0.000
397.928; 2149.500;  173.050;    0.000
397.985; 2163.500;  176.050;    0.000
398.042; 2152.500;  189.050;    0.000
398.099; 2124.500;  160.050;    0.000
398.156; 2182.500;  218.050;    0.000
398.212; 2223.500;  194.050;    0.000
398.269; 2258.500;  199.050;    0.000
398.326; 2203.500;  188.050;    0.000
398.383; 2175.500;  187.050;    0.000
398.440; 2216.500;  174.050;    0.000
398.497; 2234.500;  214.050;    0.000
398.554; 2290.500;  181.050;    0.000
398.611; 2266.500;  195.050;    0.000
398.668; 2230.500;  145.050;    0.000
398.725; 2293.500;  178.050;    0.000
398.782; 2246.500;  210.050;    0.000
398.839; 2314.500;  216.050;    0.000
398.895; 2242.500;  189.050;    0.000
398.952; 2394.500;  206.050;    0.000
399.009; 2457.500;  142.050;    0.000
399.066; 2294.500;  192.050;    0.000
399.123; 2370.500;  181.050;    0.000
399.180; 2434.500;  200.050;    0.000
399.236; 2432.500;  156.050;    0.000
399.293; 2483.500;  194.050;    0.000
399.350; 2436.500;  167.050;    0.000
399.407; 2460.500;  192.050;    0.000
399.463; 2442.500;  161.050;    0.000
399.520; 2539.500;  149.050;    0.000
399.577; 2528.500;  156.050;    0.000
399.634; 2581.500;  195.050;    0.000
399.690; 2519.500;  163.050;    0.000
399.747; 2572.500;  192.050;    0.000
399.804; 2556.500;  212.050;    0.000
399.861; 2519.500;  203.050;    0.000
399.917; 2577.500;  221.050;    0.000
399.974; 2546.500;  221.050;    0.000
400.031; 2581.500;  195.050;    0.000
400.087; 2509.500;  159.050;    0.000
400.144; 2502.500;  201.050;    0.000
400.201; 2421.500;  206.050;    0.000
400.257; 2418.500;  168.050;    0.000
400.314; 2497.500;  183.050;    0.000
400.370; 2389.500;  209.050;    0.000
400.427; 2486.500;  192.050;    0.000
400.484; 2323.500;  150.050;    0.000
400.540; 2456.500;  213.050;    0.000
400.597; 2403.500;  161.050;    0.000
400.653; 2441.500;  170.050;    0.000
400.710; 2408.500;  173.050;    0.000
400.766; 2450.500;  204.050;    0.000
400.823; 2425.500;  194.050;    0.000
400.879; 2382.500;  188.050;    0.000
400.936; 2345.500;  172.050;    0.000
400.993; 2381.500;  154.050;    0.000
401.049; 2432.500;  157.050;    0.000
401.105; 2425.500;  214.050;    0.000
401.162; 2360.500;  195.050;    0.000
401.218; 2459.500;  195.050;    0.000
401.275; 2371.500;  182.050;    0.000
401.331; 2457.500;  188.050;    0.000
401.388; 2401.500;  194.050;    0.000
401.444; 2437.500;  175.050;    0.000
401.501; 2410.500;  169.050;    0.000
401.557; 2334.500;  176.050;    0.000
401.614; 2361.500;  153.050;    0.000
401.670; 2325.500;  178.050;    0.000
401.726; 2343.500;  179.050;    0.000
401.783; 2412.500;  198.050;    0.000
401.839; 2412.500;  179.050;    0.000
401.895; 2391.500;  154.050;    0.000
401.952; 2421.500;  138.050;    0.000
402.008; 2416.500;  135.050;    0.000
402.064; 2345.500;  154.050;    0.000
402.121; 2399.500;  199.050;    0.000
402.177; 2442.500;  126.050;    0.000
402.233; 2429.500;  190.050;    0.000
402.290; 2419.500;  175.050;    0.000
402.346; 2441.500;  200.050;    0.000
402.402; 2428.500;  191.050;    0.000
402.458; 2486.500;  172.050;    0.000
402.515; 2375.500;  186.050;    0.000
402.571; 2488.500;  189.050;    0.000
402.627; 2487.500;  151.050;    0.000
402.683; 2539.500;  187.050;    0.000
402.740; 2394.500;  147.050;    0.000
402.796; 2422.500;  176.050;    0.000
402.852; 2529.500;  200.050;    0.000
402.908; 2406.500;  201.050;    0.000
402.964; 2424.500;  153.050;    0.000
403.021; 2424.500;  165.050;    0.000
403.077; 2404.500;  195.050;    0.000
403.133; 2429.500;  139.050;    0.000
403.189; 2472.500;  166.050;    0.000
403.245; 2441.500;  194.050;    0.000
403.301; 2531.500;  210.050;    0.000
403.357; 2507.500;  187.050;    0.000
403.414; 2431.500;  195.050;    0.000
403.470; 2501.500;  150.050;    0.000
403.526; 2449.500;  158.050;    0.000
403.582; 2530.500;  184.050;    0.000
403.638; 2508.500;  171.050;    0.000
403.694; 2476.500;  197.050;    0.000
403.750; 2495.500;  196.050;    0.000
403.806; 2553.500;  192.050;    0.000
403.862; 2568.500;  169.050;    0.000
403.918; 2541.500;  199.050;    0.000
403.974; 2555.500;  156.050;    0.000
404.030; 2552.500;  193.050;    0.000
404.086; 2443.500;  161.050;    0.000
404.142; 2577.500;  172.050;    0.000
404.198; 2599.500;  195.050;    0.000
404.254; 2520.500;  167.050;    0.000
404.310; 2539.500;  156.050;    0.000
404.366; 2472.500;  144.050;    0.000
404.422; 2521.500;  161.050;    0.000
404.478; 2540.500;  179.050;    0.000
404.534; 2491.500;  163.050;    0.000
404.590; 2498.500;  183.050;    0.000
404.646; 2479.500;  155.050;    0.000
404.701; 2563.500;  142.050;    0.000
404.757; 2499.500;  175.050;    0.000
404.813; 2496.500;  153.050;    0.000
404.869; 2604.500;  199.050;    0.000
404.925; 2636.500;  153.050;    0.000
404.981; 2600.500;  174.050;    0.000
405.037; 2512.500;  185.050;    0.000
405.092; 2581.500;  166.050;    0.000
405.148; 2515.500;  161.050;    0.000
405.204; 2551.500;  170.050;    0.000
405.260; 2477.500;  154.050;    0.000
405.316; 2571.500;  128.050;    0.000
405.371; 2607.500;  142.050;    0.000
405.427; 2530.500;  196.050;    0.000
405.483; 2654.500;  172.050;    0.000
405.539; 2595.500;  182.050;    0.000
405.594; 2638.500;  153.050;    0.000
405.650; 2656.500;  124.050;    0.000
405.706; 2606.500;  189.050;    0.000
405.761; 2630.500;  165.050;    0.000
405.817; 2606.500;  152.050;    0.000
405.873; 2558.500;  174.050;    0.000
405.928; 2629.500;  167.050;    0.000
405.984; 2608.500;  210.050;    0.000
406.040; 2606.500;  160.050;    0.000
406.095; 2566.500;  163.050;    0.000
406.151; 2686.500;  208.050;    0.000
406.207; 2625.500;  177.050;    0.000
406.262; 2673.500;  176.050;    0.000
406.318; 2528.500;  157.050;    0.000
406.374; 2626.500;  141.050;    0.000
406.429; 2638.500;  189.050;    0.000
406.485; 2789.500;  190.050;    0.000
406.540; 2709.500;  155.050;    0.000
406.596; 2717.500;  182.050;    0.000
406.651; 2730.500;  200.050;    0.000
406.707; 2780.500;  130.050;    0.000
406.763; 2805.500;  174.050;    0.000
406.818; 2765.500;  151.050;    0.000
406.874; 2787.500;  122.050;    0.000
406.929; 2820.500;  153.050;    0.000
406.985; 2773.500;  198.050;    0.000
407.040; 2803.500;  174.050;    0.000
407.095; 2917.500;  161.050;    0.000
407.151; 2878.500;  184.050;    0.000
407.206; 2775.500;  188.050;    0.000
407.262; 2969.500;  180.050;    0.000
407.317; 2986.500;  186.050;    0.000
407.373; 2915.500;  200.050;    0.000
407.428; 2926.500;  211.050;    0.000
407.484; 2830.500;  193.050;    0.000
407.539; 2907.500;  167.050;    0.000
407.594; 2914.500;  178.050;    0.000
407.650; 2898.500;  171.050;    0.000
407.705; 2968.500;  153.050;    0.000
407.760; 2886.500;  196.050;    0.000
407.816; 2866.500;  205.050;    0.000
407.871; 2902.500;  232.050;    0.000
407.926; 2840.500;  215.050;    0.000
407.982; 2933.500;  154.050;    0.000
408.037; 2962.500;  217.050;    0.000
408.092; 2858.500;  190.050;    0.000
408.148; 2896.500;  181.050;    0.000
408.203; 2889.500;  203.050;    0.000
408.258; 2769.500;  154.050;    0.000
408.314; 2828.500;  198.050;    0.000
408.369; 2846.500;  156.050;    0.000
408.424; 2861.500;  216.050;    0.000
408.479; 2873.500;  191.050;    0.000
408.534; 2901.500;  200.050;    0.000
408.590; 2821.500;  182.050;    0.000
408.645; 2806.500;  141.050;    0.000
408.700; 2841.500;  209.050;    0.000
408.755; 2849.500;  205.050;    0.000
408.810; 2837.500;  171.050;    0.000
408.866; 2837.500;  200.050;    0.000
408.921; 2734.500;  188.050;    0.000
408.976; 2809.500;  156.050;    0.000
409.031; 2769.500;  164.050;    0.000
409.086; 2759.500;  155.050;    0.000
409.141; 2803.500;  205.050;    0.000
409.196; 2790.500;  173.050;    0.000
409.252; 2773.500;  179.050;    0.000
409.307; 2779.500;  131.050;    0.000
409.362; 2864.500;  173.050;    0.000
409.417; 2750.500;  120.050;    0.000
409.472; 2930.500;  198.050;    0.000
409.527; 2877.500;  153.050;    0.000
409.582; 2782.500;  177.050;    0.000
409.637; 2737.500;  184.050;    0.000
409.692; 2852.500;  203.050;    0.000
409.747; 2842.500;  158.050;    0.000
409.802; 2833.500;  212.050;    0.000
409.857; 2810.500;  192.050;    0.000
409.912; 2801.500;  179.050;    0.000
409.967; 2857.500;  177.050;    0.000
410.022; 2814.500;  204.050;    0.000
410.077; 2745.500;  175.050;    0.000
410.132; 2814.500;  207.050;    0.000
410.187; 2829.500;  169.050;    0.000
410.242; 2869.500;  186.050;    0.000
410.297; 2840.500;  185.050;    0.000
410.351; 2743.500;  191.050;    0.000
410.406; 2738.500;  215.050;    0.000
410.461; 2839.500;  190.050;    0.000
410.516; 2861.500;  172.050;    0.000
410.571; 2779.500;  190.050;    0.000
410.626; 2810.500;  189.050;    0.000
410.681; 2776.500;  191.050;    0.000
410.736; 2756.500;  166.050;    0.000
410.790; 2853.500;  179.050;    0.000
410.845; 2834.500;  196.050;    0.000
410.900; 2808.500;  168.050;    0.000
410.955; 2749.500;  173.050;    0.000
411.010; 2841.500;  162.050;    0.000
411.064; 2799.500;  205.050;    0.000
411.119; 2878.500;  203.050;    0.000
411.174; 2849.500;  207.050;    0.000
411.229; 2825.500;  218.050;    0.000
411.283; 2853.500;  218.050;    0.000
411.338; 2806.500;  180.050;    0.000
411.393; 2734.500;  191.050;    0.000
411.447; 2805.500;  207.050;    0.000
411.502; 2919.500;  204.050;    0.000
411.557; 2947.500;  208.050;    0.000
411.612; 2762.500;  191.050;    0.000
411.666; 2806.500;  233.050;    0.000
411.721; 2847.500;  193.050;    0.000
411.776; 2920.500;  195.050;    0.000
411.830; 2864.500;  229.050;    0.000
411.885; 2808.500;  181.050;    0.000
411.939; 2850.500;  214.050;    0.000
411.994; 2834.500;  140.050;    0.000
412.049; 2899.500;  205.050;    0.000
412.103; 2833.500;  232.050;    0.000
412.158; 2913.500;  228.050;    0.000
412.212; 2842.500;  204.050;    0.000
412.267; 2838.500;  203.050;    0.000
412.322; 2826.500;  212.050;    0.000
412.376; 2861.500;  195.050;    0.000
412.431; 2895.500;  197.050;    0.000
412.485; 2810.500;  235.050;    0.000
412.540; 2794.500;  197.050;    0.000
412.594; 2886.500;  199.050;    0.000
412.649; 2793.500;  195.050;    0.000
412.703; 2796.500;  214.050;    0.000
412.758; 2876.500;  213.050;    0.000
412.812; 2786.500;  154.050;    0.000
412.866; 2860.500;  159.050;    0.000
412.921; 2809.500;  207.050;    0.000
412.975; 2843.500;  194.050;    0.000
413.030; 2899.500;  214.050;    0.000
413.084; 2774.500;  174.050;    0.000
413.139; 2775.500;  211.050;    0.000
413.193; 2767.500;  223.050;    0.000
413.247; 2862.500;  198.050;    0.000
413.302; 2814.500;  184.050;    0.000
413.356; 2846.500;  194.050;    0.000
413.410; 2760.500;  219.050;    0.000
413.465; 2774.500;  209.050;    0.000
413.519; 2734.500;  178.050;    0.000
413.573; 2818.500;  189.050;    0.000
413.628; 2876.500;  184.050;    0.000
413.682; 2753.500;  189.050;    0.000
413.736; 2754.500;  196.050;    0.000
413.791; 2912.500;  208.050;    0.000
413.845; 2850.500;  206.050;    0.000
413.899; 2791.500;  193.050;    0.000
413.953; 2795.500;  176.050;    0.000
414.008; 2882.500;  163.050;    0.000
414.062; 2721.500;  195.050;    0.000
414.116; 2768.500;  176.050;    0.000
414.170; 2860.500;  218.050;    0.000
414.225; 2790.500;  183.050;    0.000
414.279; 2934.500;  191.050;    0.000
414.333; 2901.500;  215.050;    0.000
414.387; 2897.500;  187.050;    0.000
414.441; 2777.500;  182.050;    0.000
414.496; 2820.500;  205.050;    0.000
414.550; 2864.500;  203.050;    0.000
414.604; 2799.500;  223.050;    0.000
414.658; 2777.500;  159.050;    0.000
414.712; 2789.500;  194.050;    0.000
414.766; 2815.500;  232.050;    0.000
414.820; 2795.500;  235.050;    0.000
414.874; 2850.500;  169.050;    0.000
414.928; 2821.500;  207.050;    0.000
414.982; 2869.500;  174.050;    0.000
415.037; 2862.500;  173.050;    0.000
415.091; 2912.500;  219.050;    0.000
415.145; 2890.500;  174.050;    0.000
415.199; 2789.500;  207.050;    0.000
415.253; 2875.500;  228.050;    0.000
415.307; 2870.500;  182.050;    0.000
415.361; 2895.500;  219.050;    0.000
415.415; 2786.500;  218.050;    0.000
415.469; 2851.500;  233.050;    0.000
415.523; 2900.500;  203.050;    0.000
415.577; 2938.500;  186.050;    0.000
415.631; 2962.500;  215.050;    0.000
415.684; 2872.500;  212.050;    0.000
415.738; 2840.500;  206.050;    0.000
415.792; 2807.500;  219.050;    0.000
415.846; 2840.500;  208.050;    0.000
415.900; 2760.500;  203.050;    0.000
415.954; 2845.500;  237.050;    0.000
416.008; 2795.500;  242.050;    0.000
416.062; 2798.500;  197.050;    0.000
416.116; 2775.500;  189.050;    0.000
416.169; 2831.500;  199.050;    0.000
416.223; 2801.500;  230.050;    0.000
416.277; 2772.500;  226.050;    0.000
416.331; 2838.500;  254.050;    0.000
416.385; 2814.500;  204.050;    0.000
416.439; 2786.500;  201.050;    0.000
416.492; 2913.500;  238.050;    0.000
416.546; 2859.500;  234.050;    0.000
416.600; 2872.500;  244.050;    0.000
416.654; 2776.500;  233.050;    0.000
416.707; 2814.500;  214.050;    0.000
416.761; 2773.500;  214.050;    0.000
416.815; 2796.500;  192.050;    0.000
416.869; 2845.500;  225.050;    0.000
416.922; 2843.500;  214.050;    0.000
416.976; 2788.500;  206.050;    0.000
417.030; 2765.500;  226.050;    0.000
417.083; 2801.500;  207.050;    0.000
417.137; 2811.500;  236.050;    0.000
417.191; 2798.500;  208.050;    0.000
417.244; 2731.500;  260.050;    0.000
417.298; 2779.500;  222.050;    0.000
417.352; 2845.500;  191.050;    0.000
417.405; 2766.500;  229.050;    0.000
417.459; 2778.500;  249.050;    0.000
417.512; 2812.500;  259.050;    0.000
417.566; 2838.500;  220.050;    0.000
417.620; 2823.500;  229.050;    0.000
417.673; 2746.500;  190.050;    0.000
417.727; 2756.500;  204.050;    0.000
417.780; 2755.500;  223.050;    0.000
417.834; 2700.500;  213.050;    0.000
417.887; 2772.500;  238.050;    0.000
417.941; 2884.500;  244.050;    0.000
417.994; 2785.500;  247.050;    0.000
418.048; 2746.500;  225.050;    0.000
418.101; 2743.500;  210.050;    0.000
418.155; 2741.500;  224.050;    0.000
418.208; 2801.500;  229.050;    0.000
418.262; 2823.500;  255.050;    0.000
418.315; 2838.500;  248.050;    0.000
418.369; 2922.500;  212.050;    0.000
418.422; 2771.500;  241.050;    0.000
418.476; 2893.500;  220.050;    0.000
418.529; 2806.500;  257.050;    0.000
418.582; 2852.500;  203.050;    0.000
418.636; 2808.500;  221.050;    0.000
418.689; 2880.500;  202.050;    0.000
418.743; 2781.500;  227.050;    0.000
418.796; 2888.500;  226.050;    0.000
418.849; 2851.500;  199.050;    0.000
418.903; 2783.500;  234.050;    0.000
418.956; 2809.500;  236.050;    0.000
419.009; 2823.500;  305.050;    0.000
419.063; 2801.500;  216.050;    0.000
419.116; 2794.500;  245.050;    0.000
419.169; 2764.500;  208.050;    0.000
419.222; 2747.500;  233.050;    0.000
419.276; 2730.500;  244.050;    0.000
419.329; 2893.500;  197.050;    0.000
419.382; 2786.500;  222.050;    0.000
419.435; 2701.500;  199.050;    0.000
419.489; 2858.500;  226.050;    0.000
419.542; 2794.500;  223.050;    0.000
419.595; 2737.500;  204.050;    0.000
419.648; 2814.500;  234.050;    0.000
419.701; 2837.500;  211.050;    0.000
419.755; 2722.500;  184.050;    0.000
419.808; 2828.500;  223.050;    0.000
419.861; 2755.500;  197.050;    0.000
419.914; 2776.500;  258.050;    0.000
419.967; 2761.500;  205.050;    0.000
420.020; 2690.500;  195.050;    0.000
420.073; 2695.500;  191.050;    0.000
420.127; 2704.500;  256.050;    0.000
420.180; 2653.500;  232.050;    0.000
420.233; 2703.500;  200.050;    0.000
420.286; 2654.500;  207.050;    0.000
420.339; 2718.500;  223.050;    0.000
420.392; 2715.500;  243.050;    0.000
420.445; 2705.500;  195.050;    0.000
420.498; 2728.500;  239.050;    0.000
420.551; 2728.500;  201.050;    0.000
420.604; 2702.500;  245.050;    0.000
420.657; 2718.500;  221.050;    0.000
420.710; 2669.500;  223.050;    0.000
420.763; 2701.500;  241.050;    0.000
420.816; 2641.500;  198.050;    0.000
420.869; 2630.500;  210.050;    0.000
420.922; 2734.500;  206.050;    0.000
420.975; 2707.500;  239.050;    0.000
421.028; 2715.500;  248.050;    0.000
421.081; 2731.500;  236.050;    0.000
421.134; 2628.500;  208.050;    0.000
421.187; 2652.500;  216.050;    0.000
421.239; 2618.500;  199.050;    0.000
421.292; 2656.500;  255.050;    0.000
421.345; 2690.500;  241.050;    0.000
421.398; 2617.500;  221.050;    0.000
421.451; 2707.500;  237.050;    0.000
421.504; 2566.500;  225.050;    0.000
421.557; 2637.500;  213.050;    0.000
421.609; 2678.500;  178.050;    0.000
421.662; 2651.500;  206.050;    0.000
421.715; 2570.500;  212.050;    0.000
421.768; 2710.500;  236.050;    0.000
421.821; 2591.500;  228.050;    0.000
421.873; 2608.500;  200.050;    0.000
421.926; 2638.500;  226.050;    0.000
421.979; 2594.500;  221.050;    0.000
422.032; 2566.500;  219.050;    0.000
422.084; 2574.500;  253.050;    0.000
422.137; 2523.500;  195.050;    0.000
422.190; 2576.500;  192.050;    0.000
422.243; 2616.500;  236.050;    0.000
422.295; 2666.500;  205.050;    0.000
422.348; 2618.500;  198.050;    0.000
422.401; 2608.500;  245.050;    0.000
422.453; 2617.500;  241.050;    0.000
422.506; 2599.500;  255.050;    0.000
422.559; 2574.500;  188.050;    0.000
422.611; 2530.500;  236.050;    0.000
422.664; 2593.500;  218.050;    0.000
422.716; 2641.500;  210.050;    0.000
422.769; 2612.500;  209.050;    0.000
422.822; 2520.500;  213.050;    0.000
422.874; 2626.500;  227.050;    0.000
422.927; 2713.500;  272.050;    0.000
422.979; 2561.500;  204.050;    0.000
423.032; 2603.500;  210.050;    0.000
423.084; 2625.500;  236.050;    0.000
423.137; 2604.500;  223.050;    0.000
423.189; 2603.500;  253.050;    0.000
423.242; 2529.500;  185.050;    0.000
423.294; 2580.500;  232.050;    0.000
423.347; 2443.500;  213.050;    0.000
423.399; 2619.500;  227.050;    0.000
423.452; 2548.500;  236.050;    0.000
423.504; 2483.500;  232.050;    0.000
423.557; 2553.500;  195.050;    0.000
423.609; 2602.500;  238.050;    0.000
423.662; 2552.500;  207.050;    0.000
423.714; 2443.500;  231.050;    0.000
423.766; 2642.500;  211.050;    0.000
423.819; 2547.500;  207.050;    0.000
423.871; 2530.500;  228.050;    0.000
423.923; 2539.500;  223.050;    0.000
423.976; 2588.500;  217.050;    0.000
424.028; 2554.500;  231.050;    0.000
424.081; 2548.500;  219.050;    0.000
424.133; 2536.500;  255.050;    0.000
424.185; 2556.500;  199.050;    0.000
424.238; 2525.500;  238.050;    0.000
424.290; 2544.500;  209.050;    0.000
424.342; 2569.500;  213.050;    0.000
424.394; 2557.500;  215.050;    0.000
424.447; 2537.500;  265.050;    0.000
424.499; 2509.500;  238.050;    0.000
424.551; 2543.500;  256.050;    0.000
424.603; 2529.500;  222.050;    0.000
424.656; 2541.500;  227.050;    0.000
424.708; 2531.500;  250.050;    0.000
424.760; 2471.500;  228.050;    0.000
424.812; 2490.500;  249.050;    0.000
424.864; 2543.500;  222.050;    0.000
424.917; 2505.500;  235.050;    0.000
424.969; 2550.500;  266.050;    0.000
425.021; 2468.500;  233.050;    0.000
425.073; 2568.500;  194.050;    0.000
425.125; 2522.500;  256.050;    0.000
425.177; 2489.500;  225.050;    0.000
425.229; 2578.500;  242.050;    0.000
425.282; 2513.500;  236.050;    0.000
425.334; 2443.500;  250.050;    0.000
425.386; 2544.500;  231.050;    0.000
425.438; 2533.500;  216.050;    0.000
425.490; 2452.500;  240.050;    0.000
425.542; 2505.500;  231.050;    0.000
425.594; 2432.500;  206.050;    0.000
425.646; 2513.500;  201.050;    0.000
425.698; 2443.500;  193.050;    0.000
425.750; 2449.500;  241.050;    0.000
425.802; 2413.500;  199.050;    0.000
425.854; 2485.500;  216.050;    0.000
425.906; 2503.500;  220.050;    0.000
425.958; 2462.500;  200.050;    0.000
426.010; 2485.500;  214.050;    0.000
426.062; 2475.500;  245.050;    0.000
426.114; 2489.500;  241.050;    0.000
426.166; 2430.500;  241.050;    0.000
426.218; 2504.500;  255.050;    0.000
426.270; 2413.500;  228.050;    0.000
426.321; 2440.500;  222.050;    0.000
426.373; 2395.500;  218.050;    0.000
426.425; 2482.500;  258.050;    0.000
426.477; 2439.500;  225.050;    0.000
426.529; 2439.500;  223.050;    0.000
426.581; 2365.500;  198.050;    0.000
426.633; 2482.500;  228.050;    0.000
426.684; 2452.500;  210.050;    0.000
426.736; 2420.500;  208.050;    0.000
426.788; 2368.500;  231.050;    0.000
426.840; 2387.500;  212.050;    0.000
426.892; 2352.500;  221.050;    0.000
426.943; 2421.500;  240.050;    0.000
426.995; 2327.500;  243.050;    0.000
427.047; 2423.500;  231.050;    0.000
427.099; 2406.500;  189.050;    0.000
427.150; 2433.500;  212.050;    0.000
427.202; 2405.500;  219.050;    0.000
427.254; 2370.500;  203.050;    0.000
427.306; 2386.500;  217.050;    0.000
427.357; 2438.500;  232.050;    0.000
427.409; 2453.500;  251.050;    0.000
427.461; 2407.500;  185.050;    0.000
427.512; 2378.500;  239.050;    0.000
427.564; 2306.500;  208.050;    0.000
427.616; 2362.500;  233.050;    0.000
427.667; 2353.500;  223.050;    0.000
427.719; 2338.500;  206.050;    0.000
427.770; 2332.500;  195.050;    0.000
427.822; 2370.500;  223.050;    0.000
427.874; 2428.500;  232.050;    0.000
427.925; 2331.500;  209.050;    0.000
427.977; 2286.500;  208.050;    0.000
428.028; 2289.500;  187.050;    0.000
428.080; 2384.500;  209.050;    0.000
428.131; 2361.500;  237.050;    0.000
428.183; 2398.500;  200.050;    0.000
428.234; 2330.500;  215.050;    0.000
428.286; 2299.500;  229.050;    0.000
428.337; 2283.500;  206.050;    0.000
428.389; 2317.500;  216.050;    0.000
428.440; 2346.500;  287.050;    0.000
428.492; 2334.500;  269.050;    0.000
428.543; 2302.500;  234.050;    0.000
428.595; 2284.500;  214.050;    0.000
428.646; 2365.500;  229.050;    0.000
428.697; 2330.500;  249.050;    0.000
428.749; 2380.500;  250.050;    0.000
428.800; 2326.500;  242.050;    0.000
428.852; 2329.500;  232.050;    0.000
428.903; 2323.500;  196.050;    0.000
428.954; 2370.500;  226.050;    0.000
429.006; 2259.500;  232.050;    0.000
429.057; 2298.500;  188.050;    0.000
429.108; 2237.500;  237.050;    0.000
429.160; 2300.500;  221.050;    0.000
429.211; 2290.500;  222.050;    0.000
429.262; 2250.500;  215.050;    0.000
429.314; 2342.500;  225.050;    0.000
429.365; 2331.500;  220.050;    0.000
429.416; 2331.500;  242.050;    0.000
429.467; 2252.500;  220.050;    0.000
429.519; 2266.500;  217.050;    0.000
429.570; 2264.500;  248.050;    0.000
429.621; 2300.500;  233.050;    0.000
429.672; 2262.500;  220.050;    0.000
429.724; 2235.500;  179.050;    0.000
429.775; 2246.500;  218.050;    0.000
429.826; 2245.500;  197.050;    0.000
429.877; 2237.500;  206.050;    0.000
429.928; 2274.500;  229.050;    0.000
429.980; 2230.500;  207.050;    0.000
430.031; 2222.500;  264.050;    0.000
430.082; 2317.500;  210.050;    0.000
430.133; 2187.500;  218.050;    0.000
430.184; 2252.500;  246.050;    0.000
430.235; 2262.500;  201.050;    0.000
430.286; 2186.500;  207.050;    0.000
430.337; 2261.500;  224.050;    0.000
430.388; 2246.500;  216.050;    0.000
430.439; 2247.500;  210.050;    0.000
430.490; 2248.500;  208.050;    0.000
430.542; 2212.500;  211.050;    0.000
430.593; 2227.500;  203.050;    0.000
430.644; 2260.500;  235.050;    0.000
430.695; 2270.500;  200.050;    0.000
430.746; 2257.500;  215.050;    0.000
430.797; 2277.500;  235.050;    0.000
430.848; 2282.500;  197.050;    0.000
430.898; 2247.500;  209.050;    0.000
430.949; 2210.500;  231.050;    0.000
431.000; 2295.500;  227.050;    0.000
431.051; 2353.500;  225.050;    0.000
431.102; 2214.500;  180.050;    0.000
431.153; 2238.500;  248.050;    0.000
431.204; 2290.500;  185.050;    0.000
431.255; 2184.500;  199.050;    0.000
431.306; 2167.500;  228.050;    0.000
431.357; 2286.500;  237.050;    0.000
431.408; 2212.500;  223.050;    0.000
431.458; 2224.500;  240.050;    0.000
431.509; 2253.500;  207.050;    0.000
431.560; 2288.500;  219.050;    0.000
431.611; 2220.500;  206.050;    0.000
431.662; 2287.500;  253.050;    0.000
431.713; 2265.500;  199.050;    0.000
431.763; 2253.500;  197.050;    0.000
431.814; 2191.500;  205.050;    0.000
431.865; 2275.500;  218.050;    0.000
431.916; 2260.500;  202.050;    0.000
431.966; 2189.500;  203.050;    0.000
432.017; 2251.500;  244.050;    0.000
432.068; 2258.500;  246.050;    0.000
432.118; 2280.500;  212.050;    0.000
432.169; 2215.500;  214.050;    0.000
432.220; 2229.500;  241.050;    0.000
432.271; 2160.500;  237.050;    0.000
432.321; 2222.500;  246.050;    0.000
432.372; 2279.500;  257.050;    0.000
432.423; 2248.500;  198.050;    0.000
432.473; 2165.500;  202.050;    0.000
432.524; 2197.500;  242.050;    0.000
432.574; 2162.500;  202.050;    0.000
432.625; 2206.500;  212.050;    0.000
432.676; 2273.500;  242.050;    0.000
432.726; 2285.500;  268.050;    0.000
432.777; 2207.500;  228.050;    0.000
432.827; 2240.500;  230.050;    0.000
432.878; 2188.500;  221.050;    0.000
432.928; 2221.500;  218.050;    0.000
432.979; 2179.500;  243.050;    0.000
433.029; 2200.500;  217.050;    0.000
433.080; 2183.500;  208.050;    0.000
433.130; 2209.500;  236.050;    0.000
433.181; 2287.500;  282.050;    0.000
433.231; 2232.500;  257.050;    0.000
433.282; 2209.500;  268.050;    0.000
433.332; 2222.500;  241.050;    0.000
433.383; 2257.500;  271.050;    0.000
433.433; 2228.500;  262.050;    0.000
433.484; 2203.500;  266.050;    0.000
433.534; 2213.500;  217.050;    0.000
433.585; 2202.500;  230.050;    0.000
433.635; 2167.500;  245.050;    0.000
433.685; 2243.500;  250.050;    0.000
433.736; 2254.500;  308.050;    0.000
433.786; 2197.500;  242.050;    0.000
433.836; 2298.500;  256.050;    0.000
433.887; 2244.500;  250.050;    0.000
433.937; 2332.500;  250.050;    0.000
433.987; 2240.500;  219.050;    0.000
434.038; 2231.500;  248.050;    0.000
434.088; 2202.500;  231.050;    0.000
434.138; 2205.500;  266.050;    0.000
434.189; 2287.500;  240.050;    0.000
434.239; 2239.500;  245.050;    0.000
434.289; 2246.500;  285.050;    0.000
434.339; 2266.500;  255.050;    0.000
434.389; 2265.500;  242.050;    0.000
434.440; 2236.500;  273.050;    0.000
434.490; 2220.500;  272.050;    0.000
434.540; 2264.500;  264.050;    0.000
434.590; 2244.500;  233.050;    0.000
434.640; 2173.500;  244.050;    0.000
434.691; 2283.500;  226.050;    0.000
434.741; 2301.500;  253.050;    0.000
434.791; 2299.500;  269.050;    0.000
434.841; 2333.500;  252.050;    0.000
434.891; 2227.500;  281.050;    0.000
434.941; 2276.500;  296.050;    0.000
434.991; 2387.500;  264.050;    0.000
435.042; 2372.500;  262.050;    0.000
435.092; 2303.500;  237.050;    0.000
435.142; 2242.500;  232.050;    0.000
435.192; 2327.500;  251.050;    0.000
435.242; 2256.500;  251.050;    0.000
435.292; 2313.500;  246.050;    0.000
435.342; 2208.500;  236.050;    0.000
435.392; 2262.500;  273.050;    0.000
435.442; 2172.500;  273.050;    0.000
435.492; 2267.500;  273.050;    0.000
435.542; 2243.500;  242.050;    0.000
435.592; 2219.500;  213.050;    0.000
435.642; 2220.500;  248.050;    0.000
435.692; 2197.500;  242.050;    0.000
435.742; 2252.500;  222.050;    0.000
435.792; 2206.500;  260.050;    0.000
435.842; 2228.500;  266.050;    0.000
435.891; 2163.500;  227.050;    0.000
435.941; 2159.500;  228.050;    0.000
435.991; 2147.500;  282.050;    0.000
436.041; 2194.500;  231.050;    0.000
436.091; 2123.500;  250.050;    0.000
436.141; 2106.500;  221.050;    0.000
436.191; 2102.500;  223.050;    0.000
436.241; 2176.500;  250.050;    0.000
436.290; 2286.500;  243.050;    0.000
436.340; 2170.500;  236.050;    0.000
436.390; 2142.500;  260.050;    0.000
436.440; 2070.500;  253.050;    0.000
436.490; 2103.500;  236.050;    0.000
436.539; 2128.500;  249.050;    0.000
436.589; 2170.500;  231.050;    0.000
436.639; 2080.500;  237.050;    0.000
436.689; 2102.500;  222.050;    0.000
436.738; 2118.500;  263.050;    0.000
436.788; 2151.500;  230.050;    0.000
436.838; 2166.500;  281.050;    0.000
436.887; 2171.500;  230.050;    0.000
436.937; 2116.500;  250.050;    0.000
436.987; 2078.500;  251.050;    0.000
437.036; 2096.500;  238.050;    0.000
437.086; 2058.500;  234.050;    0.000
437.136; 2200.500;  250.050;    0.000
437.185; 2105.500;  228.050;    0.000
437.235; 2144.500;  309.050;    0.000
437.285; 2157.500;  246.050;    0.000
437.334; 2042.500;  262.050;    0.000
437.384; 2021.500;  228.050;    0.000
437.433; 2057.500;  241.050;    0.000
437.483; 2087.500;  220.050;    0.000
437.532; 2041.500;  252.050;    0.000
437.582; 2116.500;  270.050;    0.000
437.631; 2095.500;  251.050;    0.000
437.681; 2037.500;  284.050;    0.000
437.730; 2054.500;  239.050;    0.000
437.780; 2059.500;  221.050;    0.000
437.829; 1977.500;  254.050;    0.000
437.879; 2022.500;  221.050;    0.000
437.928; 2061.500;  205.050;    0.000
437.978; 2104.500;  223.050;    0.000
438.027; 2058.500;  262.050;    0.000
438.077; 2029.500;  280.050;    0.000
438.126; 2102.500;  254.050;    0.000
438.176; 1999.500;  230.050;    0.000
438.225; 1971.500;  227.050;    0.000
438.274; 2012.500;  264.050;    0.000
438.324; 2047.500;  233.050;    0.000
438.373; 2044.500;  238.050;    0.000
438.422; 2050.500;  260.050;    0.000
438.472; 1976.500;  223.050;    0.000
438.521; 2037.500;  213.050;    0.000
438.570; 2008.500;  236.050;    0.000
438.620; 2105.500;  282.050;    0.000
438.669; 1996.500;  209.050;    0.000
438.718; 2081.500;  245.050;    0.000
438.768; 1957.500;  238.050;    0.000
438.817; 2067.500;  259.050;    0.000
438.866; 2021.500;  232.050;    0.000
438.915; 1957.500;  288.050;    0.000
438.965; 1981.500;  228.050;    0.000
439.014; 2127.500;  246.050;    0.000
439.063; 2056.500;  287.050;    0.000
439.112; 2025.500;  217.050;    0.000
439.162; 2041.500;  275.050;    0.000
439.211; 2135.500;  287.050;    0.000
439.260; 2060.500;  238.050;    0.000
439.309; 2087.500;  225.050;    0.000
439.358; 2011.500;  248.050;    0.000
439.407; 2057.500;  237.050;    0.000
439.456; 2050.500;  223.050;    0.000
439.506; 2063.500;  266.050;    0.000
439.555; 2030.500;  260.050;    0.000
439.604; 2056.500;  233.050;    0.000
439.653; 2027.500;  242.050;    0.000
439.702; 2032.500;  255.050;    0.000
439.751; 2048.500;  202.050;    0.000
439.800; 2036.500;  247.050;    0.000
439.849; 2069.500;  250.050;    0.000
439.898; 2074.500;  216.050;    0.000
439.947; 1973.500;  231.050;    0.000
439.996; 1993.500;  272.050;    0.000
440.045; 1995.500;  217.050;    0.000
440.094; 1967.500;  220.050;    0.000
440.143; 2052.500;  245.050;    0.000
440.192; 2061.500;  267.050;    0.000
440.241; 2051.500;  263.050;    0.000
440.290; 2106.500;  246.050;    0.000
440.339; 2040.500;  225.050;    0.000
440.388; 2095.500;  256.050;    0.000
440.437; 2157.500;  253.050;    0.000
440.486; 2000.500;  249.050;    0.000
440.535; 2064.500;  232.050;    0.000
440.583; 2013.500;  220.050;    0.000
440.632; 2082.500;  239.050;    0.000
440.681; 2091.500;  236.050;    0.000
440.730; 2217.500;  282.050;    0.000
440.779; 2111.500;  245.050;    0.000
440.828; 2117.500;  213.050;    0.000
440.876; 2070.500;  231.050;    0.000
440.925; 2056.500;  271.050;    0.000
440.974; 2119.500;  240.050;    0.000
441.023; 2168.500;  214.050;    0.000
441.072; 2101.500;  236.050;    0.000
441.120; 2200.500;  271.050;    0.000
441.169; 2131.500;  281.050;    0.000
441.218; 2148.500;  255.050;    0.000
441.267; 2127.500;  272.050;    0.000
441.315; 2089.500;  229.050;    0.000
441.364; 2103.500;  241.050;    0.000
441.413; 2136.500;  224.050;    0.000
441.461; 2057.500;  241.050;    0.000
441.510; 2186.500;  289.050;    0.000
441.559; 2125.500;  222.050;    0.000
441.607; 2178.500;  242.050;    0.000
441.656; 2105.500;  255.050;    0.000
441.705; 2243.500;  260.050;    0.000
441.753; 2186.500;  290.050;    0.000
441.802; 2209.500;  264.050;    0.000
441.850; 2180.500;  224.050;    0.000
441.899; 2155.500;  275.050;    0.000
441.948; 2078.500;  227.050;    0.000
441.996; 2082.500;  216.050;    0.000
442.045; 2091.500;  271.050;    0.000
442.093; 2187.500;  227.050;    0.000
442.142; 2116.500;  273.050;    0.000
442.190; 2198.500;  257.050;    0.000
442.239; 2130.500;  269.050;    0.000
442.287; 2164.500;  257.050;    0.000
442.336; 2114.500;  237.050;    0.000
442.384; 2167.500;  214.050;    0.000
442.433; 2134.500;  272.050;    0.000
442.481; 2114.500;  258.050;    0.000
442.529; 2133.500;  242.050;    0.000
442.578; 2176.500;  278.050;    0.000
442.626; 2200.500;  264.050;    0.000
442.675; 2138.500;  293.050;    0.000
442.723; 2118.500;  244.050;    0.000
442.771; 2135.500;  232.050;    0.000
442.820; 2157.500;  266.050;    0.000
442.868; 2149.500;  253.050;    0.000
442.917; 2162.500;  250.050;    0.000
442.965; 2164.500;  279.050;    0.000
443.013; 2158.500;  253.050;    0.000
443.062; 2167.500;  282.050;    0.000
443.110; 2193.500;  258.050;    0.000
443.158; 2036.500;  246.050;    0.000
443.206; 2131.500;  255.050;    0.000
443.255; 2128.500;  296.050;    0.000
443.303; 2212.500;  272.050;    0.000
443.351; 2113.500;  270.050;    0.000
443.399; 2229.500;  258.050;    0.000
443.448; 2204.500;  265.050;    0.000
443.496; 2187.500;  219.050;    0.000
443.544; 2145.500;  205.050;    0.000
443.592; 2179.500;  266.050;    0.000
443.640; 2179.500;  260.050;    0.000
443.689; 2159.500;  232.050;    0.000
443.737; 2190.500;  281.050;    0.000
443.785; 2215.500;  248.050;    0.000
443.833; 2190.500;  286.050;    0.000
443.881; 2118.500;  225.050;    0.000
443.929; 2186.500;  255.050;    0.000
443.977; 2260.500;  248.050;    0.000
444.025; 2256.500;  255.050;    0.000
444.074; 2266.500;  266.050;    0.000
444.122; 2236.500;  266.050;    0.000
444.170; 2196.500;  207.050;    0.000
444.218; 2147.500;  253.050;    0.000
444.266; 2261.500;  263.050;    0.000
444.314; 2260.500;  272.050;    0.000
444.362; 2281.500;  272.050;    0.000
444.410; 2303.500;  255.050;    0.000
444.458; 2284.500;  288.050;    0.000
444.506; 2325.500;  263.050;    0.000
444.554; 2227.500;  243.050;    0.000
444.602; 2321.500;  285.050;    0.000
444.650; 2286.500;  273.050;    0.000
444.698; 2169.500;  221.050;    0.000
444.746; 2239.500;  243.050;    0.000
444.793; 2256.500;  217.050;    0.000
444.841; 2285.500;  262.050;    0.000
444.889; 2312.500;  264.050;    0.000
444.937; 2241.500;  226.050;    0.000
444.985; 2340.500;  257.050;    0.000
445.033; 2263.500;  264.050;    0.000
445.081; 2267.500;  264.050;    0.000
445.129; 2313.500;  187.050;    0.000
445.176; 2233.500;  212.050;    0.000
445.224; 2197.500;  198.050;    0.000
445.272; 2260.500;  265.050;    0.000
445.320; 2244.500;  239.050;    0.000
445.368; 2233.500;  245.050;    0.000
445.415; 2223.500;  215.050;    0.000
445.463; 2267.500;  202.050;    0.000
445.511; 2249.500;  234.050;    0.000
445.559; 2309.500;  269.050;    0.000
445.606; 2281.500;  214.050;    0.000
445.654; 2260.500;  227.050;    0.000
445.702; 2198.500;  276.050;    0.000
445.749; 2291.500;  256.050;    0.000
445.797; 2287.500;  236.050;    0.000
445.845; 2247.500;  230.050;    0.000
445.892; 2337.500;  233.050;    0.000
445.940; 2222.500;  257.050;    0.000
445.988; 2248.500;  253.050;    0.000
446.035; 2316.500;  265.050;    0.000
446.083; 2274.500;  254.050;    0.000
446.130; 2247.500;  228.050;    0.000
446.178; 2240.500;  256.050;    0.000
446.226; 2327.500;  238.050;    0.000
446.273; 2367.500;  228.050;    0.000
446.321; 2284.500;  220.050;    0.000
446.368; 2320.500;  249.050;    0.000
446.416; 2273.500;  221.050;    0.000
446.463; 2318.500;  232.050;    0.000
446.511; 2278.500;  243.050;    0.000
446.558; 2353.500;  217.050;    0.000
446.606; 2411.500;  256.050;    0.000
446.653; 2347.500;  238.050;    0.000
446.701; 2364.500;  259.050;    0.000
446.748; 2374.500;  227.050;    0.000
446.796; 2283.500;  236.050;    0.000
446.843; 2366.500;  241.050;    0.000
446.891; 2380.500;  292.050;    0.000
446.938; 2387.500;  219.050;    0.000
446.985; 2416.500;  255.050;    0.000
447.033; 2394.500;  237.050;    0.000
447.080; 2496.500;  278.050;    0.000
447.128; 2333.500;  237.050;    0.000
447.175; 2462.500;  247.050;    0.000
447.222; 2509.500;  235.050;    0.000
447.270; 2488.500;  274.050;    0.000
447.317; 2457.500;  222.050;    0.000
447.364; 2509.500;  230.050;    0.000
447.411; 2574.500;  297.050;    0.000
447.459; 2543.500;  243.050;    0.000
447.506; 2567.500;  202.050;    0.000
447.553; 2543.500;  232.050;    0.000
447.601; 2593.500;  262.050;    0.000
447.648; 2664.500;  254.050;    0.000
447.695; 2604.500;  287.050;    0.000
447.742; 2600.500;  232.050;    0.000
447.789; 2708.500;  257.050;    0.000
447.837; 2765.500;  260.050;    0.000
447.884; 2683.500;  272.050;    0.000
447.931; 2779.500;  241.050;    0.000
447.978; 2817.500;  241.050;    0.000
448.025; 2895.500;  264.050;    0.000
448.072; 2851.500;  279.050;    0.000
448.120; 2926.500;  263.050;    0.000
448.167; 2776.500;  284.050;    0.000
448.214; 2741.500;  252.050;    0.000
448.261; 2852.500;  247.050;    0.000
448.308; 2796.500;  249.050;    0.000
448.355; 2778.500;  263.050;    0.000
448.402; 2673.500;  251.050;    0.000
448.449; 2599.500;  257.050;    0.000
448.496; 2599.500;  243.050;    0.000
448.543; 2611.500;  274.050;    0.000
448.590; 2636.500;  299.050;    0.000
448.637; 2567.500;  259.050;    0.000
448.684; 2474.500;  266.050;    0.000
448.731; 2602.500;  261.050;    0.000
448.778; 2448.500;  292.050;    0.000
448.825; 2445.500;  253.050;    0.000
448.872; 2476.500;  253.050;    0.000
448.919; 2402.500;  218.050;    0.000
448.966; 2462.500;  254.050;    0.000
449.013; 2441.500;  263.050;    0.000
449.060; 2461.500;  282.050;    0.000
449.107; 2413.500;  244.050;    0.000
449.154; 2338.500;  236.050;    0.000
449.200; 2318.500;  226.050;    0.000
449.247; 2435.500;  273.050;    0.000
449.294; 2343.500;  270.050;    0.000
449.341; 2289.500;  283.050;    0.000
449.388; 2330.500;  261.050;    0.000
449.435; 2308.500;  254.050;    0.000
449.481; 2326.500;  318.050;    0.000
449.528; 2248.500;  274.050;    0.000
449.575; 2279.500;  251.050;    0.000
449.622; 2262.500;  276.050;    0.000
449.668; 2237.500;  242.050;    0.000
449.715; 2232.500;  286.050;    0.000
449.762; 2243.500;  268.050;    0.000
449.809; 2350.500;  285.050;    0.000
449.855; 2242.500;  277.050;    0.000
449.902; 2211.500;  246.050;    0.000
449.949; 2247.500;  268.050;    0.000
449.995; 2186.500;  289.050;    0.000
450.042; 2164.500;  256.050;    0.000
450.089; 2150.500;  290.050;    0.000
450.135; 2250.500;  300.050;    0.000
450.182; 2150.500;  317.050;    0.000
450.229; 2182.500;  282.050;    0.000
450.275; 2123.500;  307.050;    0.000
450.322; 2156.500;  260.050;    0.000
450.368; 2154.500;  315.050;    0.000
450.415; 2160.500;  306.050;    0.000
450.462; 2210.500;  314.050;    0.000
450.508; 2218.500;  303.050;    0.000
450.555; 2147.500;  281.050;    0.000
450.601; 2070.500;  291.050;    0.000
450.648; 2141.500;  288.050;    0.000
450.694; 2140.500;  290.050;    0.000
450.741; 2078.500;  303.050;    0.000
450.787; 2148.500;  298.050;    0.000
450.834; 2054.500;  265.050;    0.000
450.880; 2083.500;  273.050;    0.000
450.927; 2101.500;  312.050;    0.000
450.973; 2144.500;  303.050;    0.000
451.019; 2049.500;  222.050;    0.000
451.066; 2098.500;  284.050;    0.000
451.112; 2028.500;  296.050;    0.000
451.159; 2097.500;  299.050;    0.000
451.205; 2055.500;  311.050;    0.000
451.251; 2133.500;  306.050;    0.000
451.298; 2068.500;  281.050;    0.000
451.344; 2071.500;  311.050;    0.000
451.390; 2097.500;  331.050;    0.000
451.437; 2018.500;  303.050;    0.000
451.483; 2103.500;  284.050;    0.000
451.529; 2033.500;  310.050;    0.000
451.576; 2010.500;  301.050;    0.000
451.622; 2001.500;  275.050;    0.000
451.668; 2054.500;  269.050;    0.000
451.714; 2118.500;  277.050;    0.000
451.761; 2001.500;  298.050;    0.000
451.807; 2044.500;  316.050;    0.000
451.853; 2075.500;  301.050;    0.000
451.899; 2012.500;  292.050;    0.000
451.945; 2072.500;  324.050;    0.000
451.992; 2011.500;  292.050;    0.000
452.038; 1931.500;  261.050;    0.000
452.084; 2058.500;  286.050;    0.000
452.130; 2013.500;  301.050;    0.000
452.176; 1989.500;  287.050;    0.000
452.222; 2016.500;  265.050;    0.000
452.268; 2068.500;  268.050;    0.000
452.315; 1968.500;  272.050;    0.000
452.361; 2013.500;  258.050;    0.000
452.407; 1989.500;  279.050;    0.000
452.453; 2007.500;  252.050;    0.000
452.499; 2001.500;  305.050;    0.000
452.545; 2005.500;  263.050;    0.000
452.591; 1997.500;  284.050;    0.000
452.637; 2003.500;  289.050;    0.000
452.683; 1974.500;  249.050;    0.000
452.729; 1989.500;  290.050;    0.000
452.775; 1969.500;  315.050;    0.000
452.821; 1979.500;  271.050;    0.000
452.867; 1972.500;  258.050;    0.000
452.913; 1900.500;  256.050;    0.000
452.959; 1937.500;  266.050;    0.000
453.005; 2013.500;  299.050;    0.000
453.051; 1938.500;  299.050;    0.000
453.097; 1979.500;  268.050;    0.000
453.142; 1955.500;  251.050;    0.000
453.188; 1971.500;  284.050;    0.000
453.234; 1887.500;  285.050;    0.000
453.280; 1928.500;  263.050;    0.000
453.326; 1912.500;  273.050;    0.000
453.372; 1940.500;  253.050;    0.000
453.418; 1932.500;  269.050;    0.000
453.463; 1990.500;  250.050;    0.000
453.509; 1885.500;  289.050;    0.000
453.555; 1885.500;  262.050;    0.000
453.601; 1839.500;  274.050;    0.000
453.647; 1959.500;  306.050;    0.000
453.692; 1934.500;  264.050;    0.000
453.738; 1977.500;  312.050;    0.000
453.784; 1887.500;  300.050;    0.000
453.829; 1932.500;  284.050;    0.000
453.875; 1896.500;  270.050;    0.000
453.921; 1992.500;  237.050;    0.000
453.967; 1911.500;  263.050;    0.000
454.012; 1992.500;  295.050;    0.000
454.058; 1991.500;  293.050;    0.000
454.104; 1895.500;  264.050;    0.000
454.149; 1899.500;  282.050;    0.000
454.195; 1964.500;  277.050;    0.000
454.240; 1957.500;  307.050;    0.000
454.286; 1950.500;  282.050;    0.000
454.332; 1910.500;  291.050;    0.000
454.377; 1962.500;  302.050;    0.000
454.423; 1881.500;  276.050;    0.000
454.468; 1939.500;  281.050;    0.000
454.514; 1984.500;  290.050;    0.000
454.559; 1916.500;  289.050;    0.000
454.605; 1912.500;  258.050;    0.000
454.650; 1807.500;  281.050;    0.000
454.696; 1894.500;  308.050;    0.000
454.741; 1907.500;  288.050;    0.000
454.787; 1945.500;  284.050;    0.000
454.832; 1895.500;  306.050;    0.000
454.878; 1856.500;  288.050;    0.000
454.923; 1894.500;  287.050;    0.000
454.969; 1938.500;  325.050;    0.000
455.014; 1933.500;  323.050;    0.000
455.060; 1934.500;  290.050;    0.000
455.105; 1873.500;  285.050;    0.000
455.150; 1982.500;  303.050;    0.000
455.196; 1950.500;  282.050;    0.000
455.241; 1947.500;  281.050;    0.000
455.286; 1928.500;  290.050;    0.000
455.332; 1967.500;  280.050;    0.000
455.377; 1866.500;  243.050;    0.000
455.422; 1998.500;  308.050;    0.000
455.468; 1912.500;  308.050;    0.000
455.513; 1895.500;  290.050;    0.000
455.558; 1904.500;  211.050;    0.000
455.604; 1946.500;  289.050;    0.000
455.649; 1974.500;  297.050;    0.000
455.694; 1887.500;  287.050;    0.000
455.739; 1878.500;  296.050;    0.000
455.785; 1907.500;  315.050;    0.000
455.830; 1944.500;  328.050;    0.000
455.875; 1822.500;  310.050;    0.000
455.920; 1842.500;  261.050;    0.000
455.965; 1864.500;  277.050;    0.000
456.010; 1932.500;  317.050;    0.000
456.056; 1937.500;  299.050;    0.000
456.101; 1890.500;  262.050;    0.000
456.146; 1990.500;  318.050;    0.000
456.191; 1929.500;  274.050;    0.000
456.236; 1867.500;  274.050;    0.000
456.281; 1851.500;  275.050;    0.000
456.326; 1920.500;  256.050;    0.000
456.371; 1952.500;  260.050;    0.000
456.416; 1923.500;  304.050;    0.000
456.461; 1886.500;  278.050;    0.000
456.507; 1980.500;  299.050;    0.000
456.552; 1895.500;  305.050;    0.000
456.597; 1875.500;  271.050;    0.000
456.642; 1976.500;  273.050;    0.000
456.687; 1914.500;  290.050;    0.000
456.732; 1949.500;  327.050;    0.000
456.776; 1888.500;  284.050;    0.000
456.821; 1922.500;  321.050;    0.000
456.866; 1909.500;  272.050;    0.000
456.911; 1848.500;  232.050;    0.000
456.956; 1885.500;  263.050;    0.000
457.001; 1911.500;  277.050;    0.000
457.046; 1942.500;  284.050;    0.000
457.091; 1899.500;  269.050;    0.000
457.136; 1951.500;  269.050;    0.000
457.181; 1945.500;  275.050;    0.000
457.225; 1948.500;  310.050;    0.000
457.270; 1880.500;  295.050;    0.000
457.315; 1892.500;  284.050;    0.000
457.360; 1926.500;  264.050;    0.000
457.405; 1865.500;  273.050;    0.000
457.450; 1895.500;  284.050;    0.000
457.494; 1937.500;  273.050;    0.000
457.539; 1941.500;  287.050;    0.000
457.584; 1932.500;  279.050;    0.000
457.629; 1969.500;  288.050;    0.000
457.673; 1944.500;  297.050;    0.000
457.718; 1923.500;  270.050;    0.000
457.763; 2025.500;  295.050;    0.000
457.807; 2037.500;  321.050;    0.000
457.852; 1961.500;  293.050;    0.000
457.897; 1881.500;  282.050;    0.000
457.941; 1930.500;  320.050;    0.000
457.986; 2027.500;  295.050;    0.000
458.031; 1979.500;  314.050;    0.000
458.075; 1939.500;  280.050;    0.000
458.120; 1973.500;  314.050;    0.000
458.165; 1914.500;  289.050;    0.000
458.209; 1910.500;  289.050;    0.000
458.254; 1966.500;  272.050;    0.000
458.298; 1960.500;  305.050;    0.000
458.343; 1995.500;  284.050;    0.000
458.387; 2056.500;  340.050;    0.000
458.432; 2074.500;  306.050;    0.000
458.476; 1986.500;  311.050;    0.000
458.521; 1989.500;  304.050;    0.000
458.565; 2078.500;  329.050;    0.000
458.610; 1961.500;  287.050;    0.000
458.654; 2036.500;  300.050;    0.000
458.699; 1986.500;  295.050;    0.000
458.743; 2013.500;  269.050;    0.000
458.788; 1988.500;  294.050;    0.000
458.832; 2067.500;  301.050;    0.000
458.877; 2049.500;  303.050;    0.000
458.921; 1998.500;  259.050;    0.000
458.965; 2099.500;  308.050;    0.000
459.010; 2079.500;  330.050;    0.000
459.054; 2084.500;  298.050;    0.000
459.099; 2055.500;  303.050;    0.000
459.143; 2172.500;  333.050;    0.000
459.187; 2044.500;  291.050;    0.000
459.231; 2102.500;  316.050;    0.000
459.276; 2075.500;  294.050;    0.000
459.320; 2064.500;  291.050;    0.000
459.364; 2159.500;  318.050;    0.000
459.409; 2111.500;  325.050;    0.000
459.453; 2084.500;  293.050;    0.000
459.497; 2112.500;  354.050;    0.000
459.541; 2197.500;  313.050;    0.000
459.586; 2118.500;  282.050;    0.000
459.630; 2120.500;  286.050;    0.000
459.674; 2057.500;  292.050;    0.000
459.718; 2097.500;  280.050;    0.000
459.762; 2081.500;  304.050;    0.000
459.807; 2136.500;  352.050;    0.000
459.851; 2153.500;  300.050;    0.000
459.895; 2091.500;  311.050;    0.000
459.939; 2169.500;  303.050;    0.000
459.983; 2167.500;  299.050;    0.000
460.027; 2159.500;  307.050;    0.000
460.071; 2181.500;  313.050;    0.000
460.115; 2218.500;  325.050;    0.000
460.159; 2117.500;  331.050;    0.000
460.204; 2192.500;  301.050;    0.000
460.248; 2210.500;  329.050;    0.000
460.292; 2145.500;  310.050;    0.000
460.336; 2216.500;  304.050;    0.000
460.380; 2157.500;  313.050;    0.000
460.424; 2233.500;  300.050;    0.000
460.468; 2202.500;  338.050;    0.000
460.512; 2211.500;  310.050;    0.000
460.556; 2195.500;  337.050;    0.000
460.599; 2293.500;  310.050;    0.000
460.643; 2253.500;  303.050;    0.000
460.687; 2142.500;  316.050;    0.000
460.731; 2072.500;  292.050;    0.000
460.775; 2148.500;  294.050;    0.000
460.819; 2157.500;  310.050;    0.000
460.863; 2235.500;  349.050;    0.000
460.907; 2120.500;  265.050;    0.000
460.951; 2167.500;  325.050;    0.000
460.995; 2209.500;  338.050;    0.000
461.038; 2213.500;  304.050;    0.000
461.082; 2204.500;  312.050;    0.000
461.126; 2239.500;  358.050;    0.000
461.170; 2192.500;  306.050;    0.000
461.214; 2197.500;  330.050;    0.000
461.257; 2209.500;  311.050;    0.000
461.301; 2221.500;  303.050;    0.000
461.345; 2238.500;  310.050;    0.000
461.389; 2189.500;  296.050;    0.000
461.432; 2143.500;  304.050;    0.000
461.476; 2195.500;  305.050;    0.000
461.520; 2151.500;  319.050;    0.000
461.563; 2154.500;  294.050;    0.000
461.607; 2207.500;  295.050;    0.000
461.651; 2148.500;  335.050;    0.000
461.694; 2188.500;  276.050;    0.000
461.738; 2240.500;  327.050;    0.000
461.782; 2230.500;  288.050;    0.000
461.825; 2238.500;  319.050;    0.000
461.869; 2281.500;  305.050;    0.000
461.913; 2203.500;  281.050;    0.000
461.956; 2303.500;  281.050;    0.000
462.000; 2244.500;  339.050;    0.000
462.043; 2350.500;  347.050;    0.000
462.087; 2295.500;  314.050;    0.000
462.130; 2272.500;  332.050;    0.000
462.174; 2316.500;  332.050;    0.000
462.217; 2231.500;  299.050;    0.000
462.261; 2308.500;  323.050;    0.000
462.304; 2270.500;  286.050;    0.000
462.348; 2249.500;  305.050;    0.000
462.391; 2267.500;  293.050;    0.000
462.435; 2460.500;  365.050;    0.000
462.478; 2283.500;  329.050;    0.000
462.522; 2280.500;  316.050;    0.000
462.565; 2309.500;  328.050;    0.000
462.608; 2294.500;  350.050;    0.000
462.652; 2307.500;  328.050;    0.000
462.695; 2386.500;  358.050;    0.000
462.739; 2387.500;  317.050;    0.000
462.782; 2395.500;  329.050;    0.000
462.825; 2452.500;  368.050;    0.000
462.869; 2420.500;  343.050;    0.000
462.912; 2412.500;  404.050;    0.000
462.955; 2448.500;  328.050;    0.000
462.998; 2428.500;  340.050;    0.000
463.042; 2457.500;  361.050;    0.000
463.085; 2437.500;  337.050;    0.000
463.128; 2491.500;  373.050;    0.000
463.172; 2277.500;  347.050;    0.000
463.215;  361.500;  305.050;    0.000
463.258;  343.500;  324.050;    0.000
463.301;  327.500;  296.050;    0.000
463.344;  346.500;  332.050;    0.000
463.388;  295.500;  309.050;    0.000
463.431;  311.500;  298.050;    0.000
463.474;  346.500;  351.050;    0.000
463.517;  324.500;  319.050;    0.000
463.560;  336.500;  325.050;    0.000
463.603;  326.500;  330.050;    0.000
463.646;  306.500;  332.050;    0.000
463.690;  320.500;  325.050;    0.000
463.733;  345.500;  323.050;    0.000
463.776;  327.500;  276.050;    0.000
463.819;  326.500;  320.050;    0.000
463.862;  290.500;  275.050;    0.000

