
Integration time [ms]:   0.300
Averaging Nr. [scans]: 1
Smoothing Nr. [pixels]: 0
Data measured with spectrometer [name]: NIR
Wave   ;Sample   ;Dark     ;Reference
[nm]   ;[counts] ;[counts] ;[counts] 

691.496;  -19.100;  155.525;    0.000
691.696;   27.900;  186.525;    0.000
691.896;  -49.100;  113.525;    0.000
692.096;  -10.100;  169.525;    0.000
692.296;  -46.100;  119.525;    0.000
692.496;    3.900;  182.525;    0.000
692.695;  -40.100;  119.525;    0.000
692.895;   12.900;  183.525;    0.000
693.095;  -33.100;  119.525;    0.000
693.295;   18.900;  156.525;    0.000
693.495;   -4.100;  145.525;    0.000
693.695;   21.900;  144.525;    0.000
693.894;  -16.100;  174.525;    0.000
694.094;   -9.100;  148.525;    0.000
694.294;  -17.100;  114.525;    0.000
694.494;  341.900;  137.525;    0.000
694.693; 3404.900;  112.525;    0.000
694.893; 3695.900;   85.525;    0.000
695.093; 3664.900;  152.525;    0.000
695.293; 3804.900;  159.525;    0.000
695.492; 3728.900;  131.525;    0.000
695.692; 3757.900;  134.525;    0.000
695.891; 3759.900;  161.525;    0.000
696.091; 3769.900;  180.525;    0.000
696.291; 3915.900;  120.525;    0.000
696.490; 3875.900;  146.525;    0.000
696.690; 3824.900;  145.525;    0.000
696.889; 3955.900;  171.525;    0.000
697.089; 3880.900;   98.525;    0.000
697.288; 3899.900;  172.525;    0.000
697.488; 3895.900;  137.525;    0.000
697.687; 3863.900;  171.525;    0.000
697.887; 3869.900;  142.525;    0.000
698.086; 3921.900;  159.525;    0.000
698.286; 3991.900;  122.525;    0.000
698.485; 3971.900;  121.525;    0.000
698.684; 3929.900;   94.525;    0.000
698.884; 4068.900;  131.525;    0.000
699.083; 3952.900;  112.525;    0.000
699.282; 3999.900;  119.525;    0.000
699.482; 3827.900;  117.525;    0.000
699.681; 3966.900;  115.525;    0.000
699.880; 4053.900;  166.525;    0.000
700.080; 4051.900;  194.525;    0.000
700.279; 3973.900;   98.525;    0.000
700.478; 3979.900;  159.525;    0.000
700.677; 4012.900;  134.525;    0.000
700.877; 4226.900;  171.525;    0.000
701.076; 4103.900;  141.525;    0.000
701.275; 4110.900;  119.525;    0.000
701.474; 3941.900;  132.525;    0.000
701.673; 3921.900;  141.525;    0.000
701.872; 4062.900;  158.525;    0.000
702.071; 4021.900;  129.525;    0.000
702.271; 4104.900;  122.525;    0.000
702.470; 4136.900;  158.525;    0.000
702.669; 4146.900;  145.525;    0.000
702.868; 4112.900;  135.525;    0.000
703.067; 4082.900;  169.525;    0.000
703.266; 4089.900;  125.525;    0.000
703.465; 3981.900;  153.525;    0.000
703.664; 4144.900;  113.525;    0.000
703.863; 4189.900;  170.525;    0.000
704.062; 4160.900;  115.525;    0.000
704.260; 4192.900;  133.525;    0.000
704.459; 4158.900;  123.525;    0.000
704.658; 4137.900;  105.525;    0.000
704.857; 4128.900;  125.525;    0.000
705.056; 4117.900;  108.525;    0.000
705.255; 4149.900;  117.525;    0.000
705.454; 4282.900;  126.525;    0.000
705.652; 4252.900;  137.525;    0.000
705.851; 4149.900;   95.525;    0.000
706.050; 4176.900;  120.525;    0.000
706.249; 4138.900;   81.525;    0.000
706.447; 4178.900;  105.525;    0.000
706.646; 4151.900;  107.525;    0.000
706.845; 4264.900;  104.525;    0.000
707.043; 4217.900;  136.525;    0.000
707.242; 4210.900;   89.525;    0.000
707.441; 4344.900;  147.525;    0.000
707.639; 4217.900;  156.525;    0.000
707.838; 4251.900;  114.525;    0.000
708.037; 4060.900;  100.525;    0.000
708.235; 4098.900;  103.525;    0.000
708.434; 4279.900;  102.525;    0.000
708.632; 4262.900;  100.525;    0.000
708.831; 4341.900;  121.525;    0.000
709.029; 4323.900;  102.525;    0.000
709.228; 4330.900;   88.525;    0.000
709.426; 4253.900;  135.525;    0.000
709.625; 4310.900;  128.525;    0.000
709.823; 4224.900;  123.525;    0.000
710.022; 4395.900;  137.525;    0.000
710.220; 4342.900;  134.525;    0.000
710.418; 4412.900;  122.525;    0.000
710.617; 4344.900;   64.525;    0.000
710.815; 4345.900;   94.525;    0.000
711.013; 4341.900;  127.525;    0.000
711.212; 4252.900;  105.525;    0.000
711.410; 4369.900;  117.525;    0.000
711.608; 4435.900;  114.525;    0.000
711.807; 4402.900;  119.525;    0.000
712.005; 4378.900;   92.525;    0.000
712.203; 4519.900;   95.525;    0.000
712.401; 4558.900;  107.525;    0.000
712.599; 4393.900;  127.525;    0.000
712.798; 4554.900;  120.525;    0.000
712.996; 4404.900;   76.525;    0.000
713.194; 4489.900;  118.525;    0.000
713.392; 4486.900;   60.525;    0.000
713.590; 4602.900;   92.525;    0.000
713.788; 4558.900;  110.525;    0.000
713.986; 4647.900;  130.525;    0.000
714.184; 4704.900;   71.525;    0.000
714.382; 4776.900;   86.525;    0.000
714.580; 4698.900;   74.525;    0.000
714.778; 4694.900;  133.525;    0.000
714.976; 4665.900;   81.525;    0.000
715.174; 4917.900;  100.525;    0.000
715.372; 5171.900;  141.525;    0.000
715.570; 5210.900;   73.525;    0.000
715.768; 5606.900;  119.525;    0.000
715.966; 5672.900;   81.525;    0.000
716.164; 5596.900;  130.525;    0.000
716.362; 5489.900;  125.525;    0.000
716.560; 5458.900;  109.525;    0.000
716.758; 5406.900;   96.525;    0.000
716.955; 5157.900;   83.525;    0.000
717.153; 5247.900;   87.525;    0.000
717.351; 5160.900;  123.525;    0.000
717.549; 5070.900;  121.525;    0.000
717.746; 5058.900;  128.525;    0.000
717.944; 5076.900;  132.525;    0.000
718.142; 5093.900;  120.525;    0.000
718.340; 4943.900;   94.525;    0.000
718.537; 4944.900;   95.525;    0.000
718.735; 5024.900;  152.525;    0.000
718.933; 5011.900;  124.525;    0.000
719.130; 5012.900;  114.525;    0.000
719.328; 4991.900;   63.525;    0.000
719.525; 5021.900;  146.525;    0.000
719.723; 4951.900;   96.525;    0.000
719.920; 4977.900;  120.525;    0.000
720.118; 4885.900;   59.525;    0.000
720.316; 5029.900;  116.525;    0.000
720.513; 4908.900;  127.525;    0.000
720.711; 4957.900;  110.525;    0.000
720.908; 4932.900;   92.525;    0.000
721.105; 5060.900;  138.525;    0.000
721.303; 5006.900;   90.525;    0.000
721.500; 4979.900;  126.525;    0.000
721.698; 5076.900;  103.525;    0.000
721.895; 5153.900;  206.525;    0.000
722.092; 4991.900;   63.525;    0.000
722.290; 5014.900;  123.525;    0.000
722.487; 4809.900;  137.525;    0.000
722.684; 4931.900;  126.525;    0.000
722.882; 4954.900;  119.525;    0.000
723.079; 5059.900;  132.525;    0.000
723.276; 4902.900;   98.525;    0.000
723.473; 4862.900;   97.525;    0.000
723.671; 4925.900;   43.525;    0.000
723.868; 5036.900;  142.525;    0.000
724.065; 5085.900;  102.525;    0.000
724.262; 5052.900;  119.525;    0.000
724.459; 5002.900;   73.525;    0.000
724.656; 5028.900;  128.525;    0.000
724.854; 5099.900;  135.525;    0.000
725.051; 5066.900;   81.525;    0.000
725.248; 5071.900;   88.525;    0.000
725.445; 5166.900;  129.525;    0.000
725.642; 5093.900;   76.525;    0.000
725.839; 5257.900;  134.525;    0.000
726.036; 5142.900;  101.525;    0.000
726.233; 5121.900;   68.525;    0.000
726.430; 5130.900;  121.525;    0.000
726.627; 5200.900;  136.525;    0.000
726.824; 5110.900;   87.525;    0.000
727.021; 5154.900;  141.525;    0.000
727.218; 5174.900;   92.525;    0.000
727.414; 5264.900;  121.525;    0.000
727.611; 5171.900;  100.525;    0.000
727.808; 5214.900;  130.525;    0.000
728.005; 5180.900;   83.525;    0.000
728.202; 5116.900;  120.525;    0.000
728.399; 5209.900;   75.525;    0.000
728.595; 5179.900;  148.525;    0.000
728.792; 5276.900;   79.525;    0.000
728.989; 5367.900;   86.525;    0.000
729.186; 5109.900;   80.525;    0.000
729.382; 5190.900;   72.525;    0.000
729.579; 5217.900;  112.525;    0.000
729.776; 5283.900;  106.525;    0.000
729.972; 5273.900;   77.525;    0.000
730.169; 5344.900;  118.525;    0.000
730.366; 5242.900;   92.525;    0.000
730.562; 5318.900;  104.525;    0.000
730.759; 5313.900;   95.525;    0.000
730.955; 5236.900;   85.525;    0.000
731.152; 5177.900;   79.525;    0.000
731.348; 5326.900;   72.525;    0.000
731.545; 5316.900;   56.525;    0.000
731.741; 5356.900;  106.525;    0.000
731.938; 5435.900;  113.525;    0.000
732.134; 5322.900;  106.525;    0.000
732.331; 5250.900;   82.525;    0.000
732.527; 5277.900;   80.525;    0.000
732.724; 5285.900;   97.525;    0.000
732.920; 5245.900;  127.525;    0.000
733.116; 5306.900;  115.525;    0.000
733.313; 5248.900;  153.525;    0.000
733.509; 5340.900;   76.525;    0.000
733.705; 5452.900;  159.525;    0.000
733.902; 5448.900;   82.525;    0.000
734.098; 5472.900;   70.525;    0.000
734.294; 5417.900;  105.525;    0.000
734.490; 5475.900;  110.525;    0.000
734.687; 5507.900;  102.525;    0.000
734.883; 5437.900;   77.525;    0.000
735.079; 5519.900;   93.525;    0.000
735.275; 5252.900;  109.525;    0.000
735.471; 5457.900;   99.525;    0.000
735.667; 5361.900;  107.525;    0.000
735.863; 5326.900;   89.525;    0.000
736.060; 5407.900;  105.525;    0.000
736.256; 5471.900;  113.525;    0.000
736.452; 5576.900;   90.525;    0.000
736.648; 5376.900;   88.525;    0.000
736.844; 5508.900;  129.525;    0.000
737.040; 5597.900;  139.525;    0.000
737.236; 5573.900;  129.525;    0.000
737.432; 5593.900;   67.525;    0.000
737.628; 5651.900;  104.525;    0.000
737.824; 5519.900;  111.525;    0.000
738.019; 5584.900;  116.525;    0.000
738.215; 5666.900;  135.525;    0.000
738.411; 5626.900;  118.525;    0.000
738.607; 5667.900;   58.525;    0.000
738.803; 5593.900;   32.525;    0.000
738.999; 5765.900;  120.525;    0.000
739.195; 5786.900;   76.525;    0.000
739.390; 5866.900;  119.525;    0.000
739.586; 5625.900;   83.525;    0.000
739.782; 5718.900;  134.525;    0.000
739.978; 5856.900;  122.525;    0.000
740.173; 5752.900;   96.525;    0.000
740.369; 5772.900;   86.525;    0.000
740.565; 5996.900;  122.525;    0.000
740.760; 5972.900;   99.525;    0.000
740.956; 5941.900;  137.525;    0.000
741.152; 6101.900;  108.525;    0.000
741.347; 5959.900;   65.525;    0.000
741.543; 6087.900;   73.525;    0.000
741.738; 6319.900;  142.525;    0.000
741.934; 6296.900;  131.525;    0.000
742.129; 6792.900;   66.525;    0.000
742.325; 7651.900;  143.525;    0.000
742.520; 8279.900;  119.525;    0.000
742.716; 7951.900;  109.525;    0.000
742.911; 7561.900;   62.525;    0.000
743.107; 7277.900;  119.525;    0.000
743.302; 7317.900;   78.525;    0.000
743.498; 7355.900;  130.525;    0.000
743.693; 7377.900;   75.525;    0.000
743.888; 7626.900;  135.525;    0.000
744.084; 8886.900;  106.525;    0.000
744.279;10668.900;  101.525;    0.000
744.474;10907.900;   91.525;    0.000
744.670; 9756.900;  144.525;    0.000
744.865; 9042.900;  128.525;    0.000
745.060; 8446.900;   63.525;    0.000
745.255; 8203.900;  155.525;    0.000
745.451; 8091.900;  110.525;    0.000
745.646; 7989.900;  150.525;    0.000
745.841; 7744.900;  128.525;    0.000
746.036; 7988.900;  110.525;    0.000
746.231; 8065.900;  126.525;    0.000
746.426; 8497.900;   83.525;    0.000
746.622; 9670.900;  157.525;    0.000
746.817;12585.900;  112.525;    0.000
747.012;14217.900;  115.525;    0.000
747.207;12664.900;  161.525;    0.000
747.402;11292.900;   88.525;    0.000
747.597;10452.900;  103.525;    0.000
747.792;10008.900;  152.525;    0.000
747.987; 9634.900;   80.525;    0.000
748.182; 9105.900;   89.525;    0.000
748.377; 8783.900;  104.525;    0.000
748.572; 8371.900;  138.525;    0.000
748.767; 8295.900;  100.525;    0.000
748.961; 7900.900;  106.525;    0.000
749.156; 7656.900;  113.525;    0.000
749.351; 7643.900;  116.525;    0.000
749.546; 7497.900;  107.525;    0.000
749.741; 7375.900;  102.525;    0.000
749.936; 7281.900;  105.525;    0.000
750.130; 7185.900;  111.525;    0.000
750.325; 7113.900;   72.525;    0.000
750.520; 6918.900;   96.525;    0.000
750.715; 6887.900;  135.525;    0.000
750.909; 6788.900;  107.525;    0.000
751.104; 6838.900;  106.525;    0.000
751.299; 6786.900;  144.525;    0.000
751.493; 6792.900;  116.525;    0.000
751.688; 6767.900;   96.525;    0.000
751.882; 6583.900;   92.525;    0.000
752.077; 6554.900;  109.525;    0.000
752.272; 6544.900;   96.525;    0.000
752.466; 6419.900;  110.525;    0.000
752.661; 6473.900;  120.525;    0.000
752.855; 6499.900;   70.525;    0.000
753.050; 6356.900;  129.525;    0.000
753.244; 6365.900;  126.525;    0.000
753.439; 6305.900;  115.525;    0.000
753.633; 6358.900;  120.525;    0.000
753.828; 6331.900;  129.525;    0.000
754.022; 6325.900;  139.525;    0.000
754.216; 6240.900;  121.525;    0.000
754.411; 6278.900;  108.525;    0.000
754.605; 6332.900;   94.525;    0.000
754.799; 6301.900;  125.525;    0.000
754.994; 6232.900;  160.525;    0.000
755.188; 6087.900;  151.525;    0.000
755.382; 6242.900;  102.525;    0.000
755.576; 6179.900;  103.525;    0.000
755.771; 6110.900;   99.525;    0.000
755.965; 6107.900;  158.525;    0.000
756.159; 6155.900;   96.525;    0.000
756.353; 6112.900;  157.525;    0.000
756.547; 6161.900;  132.525;    0.000
756.742; 6150.900;  106.525;    0.000
756.936; 6177.900;  113.525;    0.000
757.130; 6037.900;  114.525;    0.000
757.324; 6141.900;  111.525;    0.000
757.518; 6142.900;  142.525;    0.000
757.712; 6024.900;  137.525;    0.000
757.906; 6136.900;   93.525;    0.000
758.100; 6272.900;  119.525;    0.000
758.294; 6190.900;  132.525;    0.000
758.488; 6076.900;  153.525;    0.000
758.682; 6247.900;  101.525;    0.000
758.876; 6155.900;  129.525;    0.000
759.070; 6063.900;  168.525;    0.000
759.264; 6116.900;   96.525;    0.000
759.458; 5981.900;  117.525;    0.000
759.651; 5965.900;  135.525;    0.000
759.845; 6053.900;  127.525;    0.000
760.039; 6027.900;  120.525;    0.000
760.233; 5971.900;  124.525;    0.000
760.427; 6114.900;  115.525;    0.000
760.620; 5972.900;  130.525;    0.000
760.814; 6048.900;  102.525;    0.000
761.008; 6087.900;  174.525;    0.000
761.202; 6075.900;  132.525;    0.000
761.395; 6102.900;  126.525;    0.000
761.589; 6041.900;  133.525;    0.000
761.783; 6173.900;  147.525;    0.000
761.976; 6111.900;  147.525;    0.000
762.170; 6175.900;  174.525;    0.000
762.363; 6160.900;   97.525;    0.000
762.557; 6060.900;  141.525;    0.000
762.750; 5970.900;  112.525;    0.000
762.944; 6141.900;  110.525;    0.000
763.138; 6171.900;  125.525;    0.000
763.331; 6229.900;  101.525;    0.000
763.524; 6317.900;  101.525;    0.000
763.718; 6244.900;  156.525;    0.000
763.911; 6228.900;  143.525;    0.000
764.105; 6027.900;  139.525;    0.000
764.298; 6244.900;   89.525;    0.000
764.492; 6128.900;  111.525;    0.000
764.685; 6117.900;  136.525;    0.000
764.878; 6185.900;  146.525;    0.000
765.072; 6213.900;  110.525;    0.000
765.265; 6315.900;  141.525;    0.000
765.458; 6357.900;   82.525;    0.000
765.651; 6156.900;  144.525;    0.000
765.845; 6224.900;   79.525;    0.000
766.038; 6300.900;  123.525;    0.000
766.231; 7103.900;  125.525;    0.000
766.424;10496.900;  131.525;    0.000
766.617;10655.900;   62.525;    0.000
766.811; 6989.900;  142.525;    0.000
767.004; 6503.900;  134.525;    0.000
767.197; 6431.900;  147.525;    0.000
767.390; 6365.900;  100.525;    0.000
767.583; 6313.900;  121.525;    0.000
767.776; 6366.900;   91.525;    0.000
767.969; 6529.900;  113.525;    0.000
768.162; 6343.900;  170.525;    0.000
768.355; 6288.900;  134.525;    0.000
768.548; 6450.900;  177.525;    0.000
768.741; 6534.900;   96.525;    0.000
768.934; 6384.900;  143.525;    0.000
769.127; 6483.900;  147.525;    0.000
769.320; 6727.900;   93.525;    0.000
769.513; 6764.900;  137.525;    0.000
769.706; 7602.900;   96.525;    0.000
769.898;10463.900;  118.525;    0.000
770.091; 8397.900;  138.525;    0.000
770.284; 6935.900;  133.525;    0.000
770.477; 6801.900;  137.525;    0.000
770.670; 6846.900;  124.525;    0.000
770.862; 6733.900;  125.525;    0.000
771.055; 6988.900;  135.525;    0.000
771.248; 7001.900;  109.525;    0.000
771.441; 6986.900;  141.525;    0.000
771.633; 7018.900;  142.525;    0.000
771.826; 6960.900;  123.525;    0.000
772.018; 6951.900;  136.525;    0.000
772.211; 7158.900;  145.525;    0.000
772.404; 7160.900;  127.525;    0.000
772.596; 7340.900;  193.525;    0.000
772.789; 7493.900;   64.525;    0.000
772.981; 7471.900;  142.525;    0.000
773.174; 7354.900;  105.525;    0.000
773.366; 7499.900;  166.525;    0.000
773.559; 7627.900;  125.525;    0.000
773.751; 7926.900;  126.525;    0.000
773.944; 7875.900;  147.525;    0.000
774.136; 8062.900;  155.525;    0.000
774.329; 8311.900;  127.525;    0.000
774.521; 8591.900;  133.525;    0.000
774.713; 8644.900;  139.525;    0.000
774.906; 9085.900;  170.525;    0.000
775.098; 9428.900;  144.525;    0.000
775.290; 9779.900;  162.525;    0.000
775.483;10249.900;  137.525;    0.000
775.675;10869.900;  148.525;    0.000
775.867;11580.900;   81.525;    0.000
776.059;12635.900;  134.525;    0.000
776.251;13831.900;  137.525;    0.000
776.444;15534.900;  155.525;    0.000
776.636;18358.900;  148.525;    0.000
776.828;22841.900;  129.525;    0.000
777.020;31649.900;  133.525;    0.000
777.212;46365.898;  137.525;    0.000
777.404;51808.898;  124.525;    0.000
777.596;48092.898;  142.525;    0.000
777.788;36338.898;  155.525;    0.000
777.980;28002.900;  119.525;    0.000
778.172;23114.900;  129.525;    0.000
778.364;19755.900;  122.525;    0.000
778.556;17071.900;  129.525;    0.000
778.748;15586.900;  178.525;    0.000
778.940;14256.900;  128.525;    0.000
779.132;13112.900;  145.525;    0.000
779.324;11945.900;   89.525;    0.000
779.516;11337.900;  161.525;    0.000
779.708;10762.900;  183.525;    0.000
779.900;10095.900;  124.525;    0.000
780.091; 9713.900;  143.525;    0.000
780.283; 9416.900;  135.525;    0.000
780.475; 8920.900;  129.525;    0.000
780.667; 8852.900;  178.525;    0.000
780.859; 8611.900;  146.525;    0.000
781.050; 8316.900;  156.525;    0.000
781.242; 8137.900;  138.525;    0.000
781.434; 8073.900;  117.525;    0.000
781.625; 7783.900;  161.525;    0.000
781.817; 7727.900;  127.525;    0.000
782.008; 7457.900;  138.525;    0.000
782.200; 7496.900;  139.525;    0.000
782.392; 7448.900;  179.525;    0.000
782.583; 7291.900;  137.525;    0.000
782.775; 7103.900;  162.525;    0.000
782.966; 7046.900;  159.525;    0.000
783.158; 6973.900;  118.525;    0.000
783.349; 6825.900;  160.525;    0.000
783.541; 6825.900;  139.525;    0.000
783.732; 6707.900;  145.525;    0.000
783.924; 6768.900;  146.525;    0.000
784.115; 6616.900;  125.525;    0.000
784.306; 6638.900;  118.525;    0.000
784.498; 6576.900;  144.525;    0.000
784.689; 6481.900;  145.525;    0.000
784.880; 6503.900;  137.525;    0.000
785.072; 6381.900;  157.525;    0.000
785.263; 6430.900;  149.525;    0.000
785.454; 6343.900;  128.525;    0.000
785.645; 6388.900;  131.525;    0.000
785.837; 6417.900;  137.525;    0.000
786.028; 6316.900;  161.525;    0.000
786.219; 6294.900;  155.525;    0.000
786.410; 6233.900;  146.525;    0.000
786.601; 6305.900;  120.525;    0.000
786.792; 6204.900;  179.525;    0.000
786.984; 6437.900;  113.525;    0.000
787.175; 6140.900;  156.525;    0.000
787.366; 6172.900;  131.525;    0.000
787.557; 6136.900;  138.525;    0.000
787.748; 6165.900;  112.525;    0.000
787.939; 6292.900;  115.525;    0.000
788.130; 6355.900;  150.525;    0.000
788.321; 6219.900;  122.525;    0.000
788.512; 6331.900;  147.525;    0.000
788.703; 6266.900;  126.525;    0.000
788.894; 6363.900;   80.525;    0.000
789.084; 6207.900;  127.525;    0.000
789.275; 6415.900;  141.525;    0.000
789.466; 6437.900;  108.525;    0.000
789.657; 6346.900;  137.525;    0.000
789.848; 6395.900;  126.525;    0.000
790.039; 6417.900;  144.525;    0.000
790.229; 6401.900;  105.525;    0.000
790.420; 6308.900;   96.525;    0.000
790.611; 6294.900;  171.525;    0.000
790.801; 6323.900;   89.525;    0.000
790.992; 6380.900;  140.525;    0.000
791.183; 6362.900;  143.525;    0.000
791.373; 6411.900;  128.525;    0.000
791.564; 6294.900;   96.525;    0.000
791.755; 6511.900;  111.525;    0.000
791.945; 6243.900;  112.525;    0.000
792.136; 6366.900;  124.525;    0.000
792.326; 6257.900;   88.525;    0.000
792.517; 6468.900;  130.525;    0.000
792.707; 6525.900;  144.525;    0.000
792.898; 6543.900;  120.525;    0.000
793.088; 6518.900;  106.525;    0.000
793.279; 6574.900;  104.525;    0.000
793.469; 6619.900;  103.525;    0.000
793.660; 6808.900;  120.525;    0.000
793.850; 6879.900;  106.525;    0.000
794.040; 7158.900;  135.525;    0.000
794.231; 7586.900;   80.525;    0.000
794.421; 8169.900;  120.525;    0.000
794.611; 8969.900;  154.525;    0.000
794.802;10345.900;  103.525;    0.000
794.992;11004.900;  120.525;    0.000
795.182;11142.900;  156.525;    0.000
795.372;10426.900;  104.525;    0.000
795.563; 9510.900;  153.525;    0.000
795.753; 8720.900;  112.525;    0.000
795.943; 8247.900;  128.525;    0.000
796.133; 7842.900;  128.525;    0.000
796.323; 7502.900;  152.525;    0.000
796.513; 7268.900;  123.525;    0.000
796.703; 7037.900;  134.525;    0.000
796.893; 6925.900;  120.525;    0.000
797.083; 6684.900;  136.525;    0.000
797.273; 6652.900;  128.525;    0.000
797.463; 6637.900;  140.525;    0.000
797.653; 6314.900;   75.525;    0.000
797.843; 6288.900;  114.525;    0.000
798.033; 6271.900;   90.525;    0.000
798.223; 6191.900;  136.525;    0.000
798.413; 6172.900;  164.525;    0.000
798.603; 5908.900;  150.525;    0.000
798.793; 5989.900;  137.525;    0.000
798.983; 5905.900;  119.525;    0.000
799.172; 5879.900;  136.525;    0.000
799.362; 5849.900;  138.525;    0.000
799.552; 5717.900;  123.525;    0.000
799.742; 5796.900;  117.525;    0.000
799.932; 5656.900;  108.525;    0.000
800.121; 5767.900;  152.525;    0.000
800.311; 5638.900;  117.525;    0.000
800.501; 5680.900;  100.525;    0.000
800.690; 5665.900;  139.525;    0.000
800.880; 5697.900;  138.525;    0.000
801.070; 5633.900;  120.525;    0.000
801.259; 5570.900;  143.525;    0.000
801.449; 5523.900;  110.525;    0.000
801.638; 5586.900;  140.525;    0.000
801.828; 5508.900;  103.525;    0.000
802.017; 5566.900;   78.525;    0.000
802.207; 5528.900;  126.525;    0.000
802.396; 5499.900;  151.525;    0.000
802.586; 5386.900;  106.525;    0.000
802.775; 5521.900;  152.525;    0.000
802.965; 5392.900;  117.525;    0.000
803.154; 5435.900;  171.525;    0.000
803.343; 5505.900;  126.525;    0.000
803.533; 5502.900;  135.525;    0.000
803.722; 5410.900;  144.525;    0.000
803.911; 5429.900;  109.525;    0.000
804.101; 5379.900;  146.525;    0.000
804.290; 5240.900;  115.525;    0.000
804.479; 5432.900;  128.525;    0.000
804.668; 5450.900;  156.525;    0.000
804.857; 5368.900;  151.525;    0.000
805.047; 5365.900;  131.525;    0.000
805.236; 5447.900;  144.525;    0.000
805.425; 5361.900;  160.525;    0.000
805.614; 5424.900;  112.525;    0.000
805.803; 5521.900;  120.525;    0.000
805.992; 5360.900;  148.525;    0.000
806.181; 5503.900;  108.525;    0.000
806.370; 5500.900;  142.525;    0.000
806.559; 5509.900;  116.525;    0.000
806.748; 5426.900;  108.525;    0.000
806.937; 5295.900;  110.525;    0.000
807.126; 5497.900;  126.525;    0.000
807.315; 5335.900;  121.525;    0.000
807.504; 5390.900;  102.525;    0.000
807.693; 5444.900;  134.525;    0.000
807.882; 5523.900;  135.525;    0.000
808.071; 5542.900;  135.525;    0.000
808.260; 5467.900;   93.525;    0.000
808.448; 5544.900;  151.525;    0.000
808.637; 5575.900;  105.525;    0.000
808.826; 5623.900;  178.525;    0.000
809.015; 5614.900;  152.525;    0.000
809.203; 5599.900;  147.525;    0.000
809.392; 5495.900;  144.525;    0.000
809.581; 5723.900;  167.525;    0.000
809.770; 5643.900;  151.525;    0.000
809.958; 5656.900;  128.525;    0.000
810.147; 5779.900;  152.525;    0.000
810.335; 5813.900;  160.525;    0.000
810.524; 5827.900;  130.525;    0.000
810.713; 5899.900;  128.525;    0.000
810.901; 5863.900;  140.525;    0.000
811.090; 6101.900;  152.525;    0.000
811.278; 5974.900;  126.525;    0.000
811.467; 6175.900;  161.525;    0.000
811.655; 6367.900;  184.525;    0.000
811.844; 6343.900;  148.525;    0.000
812.032; 6262.900;  138.525;    0.000
812.220; 6338.900;  157.525;    0.000
812.409; 6365.900;  143.525;    0.000
812.597; 6417.900;  124.525;    0.000
812.785; 6399.900;  170.525;    0.000
812.974; 6374.900;  135.525;    0.000
813.162; 6524.900;  135.525;    0.000
813.350; 6558.900;  182.525;    0.000
813.539; 6506.900;  126.525;    0.000
813.727; 6703.900;  127.525;    0.000
813.915; 6758.900;  140.525;    0.000
814.103; 6665.900;  176.525;    0.000
814.291; 6842.900;  115.525;    0.000
814.479; 6980.900;  119.525;    0.000
814.668; 7053.900;  134.525;    0.000
814.856; 7306.900;  120.525;    0.000
815.044; 7256.900;  164.525;    0.000
815.232; 7472.900;  146.525;    0.000
815.420; 7675.900;  154.525;    0.000
815.608; 7866.900;  137.525;    0.000
815.796; 7900.900;  108.525;    0.000
815.984; 8087.900;  134.525;    0.000
816.172; 8379.900;  123.525;    0.000
816.360; 8819.900;  181.525;    0.000
816.548; 8980.900;  139.525;    0.000
816.736; 9589.900;  138.525;    0.000
816.924; 9951.900;  151.525;    0.000
817.111;10553.900;  156.525;    0.000
817.299;11171.900;  147.525;    0.000
817.487;12155.900;  188.525;    0.000
817.675;13566.900;  129.525;    0.000
817.863;15953.900;  128.525;    0.000
818.050;20902.900;  110.525;    0.000
818.238;33917.898;  166.525;    0.000
818.426;45439.898;  136.525;    0.000
818.613;34892.898;  143.525;    0.000
818.801;30118.900;  150.525;    0.000
818.989;28746.900;  179.525;    0.000
819.176;30294.900;  123.525;    0.000
819.364;41071.898;  148.525;    0.000
819.552;54311.898;   86.525;    0.000
819.739;42172.898;  169.525;    0.000
819.927;32494.900;  130.525;    0.000
820.114;27726.900;  144.525;    0.000
820.302;24815.900;  166.525;    0.000
820.489;22133.900;  145.525;    0.000
820.677;20601.900;  101.525;    0.000
820.864;19836.900;  149.525;    0.000
821.052;19602.900;  130.525;    0.000
821.239;19539.900;  147.525;    0.000
821.426;20176.900;  121.525;    0.000
821.614;22650.900;  187.525;    0.000
821.801;23505.900;  105.525;    0.000
821.988;20984.900;  167.525;    0.000
822.176;19923.900;  130.525;    0.000
822.363;20357.900;  143.525;    0.000
822.550;18796.900;  108.525;    0.000
822.737;16944.900;  109.525;    0.000
822.924;16021.900;  156.525;    0.000
823.112;14991.900;  123.525;    0.000
823.299;14104.900;  128.525;    0.000
823.486;13427.900;  138.525;    0.000
823.673;12755.900;  125.525;    0.000
823.860;12368.900;  138.525;    0.000
824.047;12487.900;  122.525;    0.000
824.234;13543.900;  134.525;    0.000
824.421;13621.900;   95.525;    0.000
824.608;12129.900;  151.525;    0.000
824.795;11057.900;  117.525;    0.000
824.982;10417.900;  143.525;    0.000
825.169; 9837.900;   83.525;    0.000
825.356; 9492.900;  126.525;    0.000
825.543; 8842.900;   92.525;    0.000
825.730; 8662.900;  113.525;    0.000
825.917; 8404.900;  142.525;    0.000
826.104; 8134.900;  182.525;    0.000
826.290; 7923.900;  137.525;    0.000
826.477; 7834.900;  126.525;    0.000
826.664; 7542.900;  135.525;    0.000
826.851; 7301.900;  139.525;    0.000
827.038; 7142.900;  135.525;    0.000
827.224; 7001.900;  143.525;    0.000
827.411; 6934.900;  153.525;    0.000
827.598; 6700.900;  122.525;    0.000
827.784; 6730.900;  138.525;    0.000
827.971; 6582.900;  134.525;    0.000
828.157; 6378.900;  152.525;    0.000
828.344; 6274.900;  135.525;    0.000
828.531; 6035.900;  137.525;    0.000
828.717; 6096.900;  117.525;    0.000
828.904; 5860.900;  127.525;    0.000
829.090; 5958.900;  172.525;    0.000
829.277; 5802.900;  144.525;    0.000
829.463; 5823.900;  159.525;    0.000
829.650; 5661.900;  187.525;    0.000
829.836; 5641.900;  138.525;    0.000
830.022; 5654.900;  196.525;    0.000
830.209; 5470.900;  118.525;    0.000
830.395; 5407.900;  148.525;    0.000
830.581; 5328.900;  108.525;    0.000
830.768; 5358.900;  137.525;    0.000
830.954; 5356.900;  162.525;    0.000
831.140; 5198.900;  117.525;    0.000
831.327; 5265.900;  176.525;    0.000
831.513; 5197.900;  162.525;    0.000
831.699; 5024.900;  157.525;    0.000
831.885; 5061.900;  153.525;    0.000
832.071; 4986.900;  123.525;    0.000
832.257; 4916.900;  142.525;    0.000
832.444; 4894.900;  165.525;    0.000
832.630; 4819.900;  159.525;    0.000
832.816; 4752.900;  145.525;    0.000
833.002; 4752.900;  120.525;    0.000
833.188; 4771.900;  145.525;    0.000
833.374; 4692.900;  137.525;    0.000
833.560; 4733.900;  152.525;    0.000
833.746; 4565.900;  139.525;    0.000
833.932; 4525.900;  170.525;    0.000
834.118; 4579.900;  111.525;    0.000
834.303; 4525.900;  141.525;    0.000
834.489; 4616.900;  146.525;    0.000
834.675; 4620.900;  156.525;    0.000
834.861; 4694.900;   87.525;    0.000
835.047; 4545.900;  134.525;    0.000
835.233; 4448.900;   89.525;    0.000
835.418; 4385.900;  145.525;    0.000
835.604; 4403.900;  136.525;    0.000
835.790; 4236.900;  132.525;    0.000
835.976; 4422.900;  161.525;    0.000
836.161; 4349.900;  157.525;    0.000
836.347; 4286.900;  147.525;    0.000
836.533; 4317.900;  116.525;    0.000
836.718; 4363.900;  168.525;    0.000
836.904; 4278.900;  199.525;    0.000
837.089; 4328.900;  165.525;    0.000
837.275; 4230.900;  166.525;    0.000
837.460; 4258.900;  144.525;    0.000
837.646; 4267.900;  164.525;    0.000
837.831; 4340.900;  122.525;    0.000
838.017; 4303.900;  163.525;    0.000
838.202; 4264.900;  139.525;    0.000
838.388; 4246.900;  174.525;    0.000
838.573; 4159.900;  140.525;    0.000
838.759; 4233.900;  167.525;    0.000
838.944; 4233.900;  142.525;    0.000
839.129; 4155.900;  164.525;    0.000
839.315; 4150.900;  129.525;    0.000
839.500; 4325.900;  150.525;    0.000
839.685; 4296.900;  118.525;    0.000
839.870; 4222.900;  177.525;    0.000
840.056; 4129.900;  144.525;    0.000
840.241; 4200.900;  121.525;    0.000
840.426; 4276.900;  131.525;    0.000
840.611; 4301.900;  177.525;    0.000
840.796; 4468.900;  173.525;    0.000
840.981; 4246.900;  156.525;    0.000
841.166; 4451.900;  145.525;    0.000
841.352; 4323.900;  150.525;    0.000
841.537; 4346.900;  143.525;    0.000
841.722; 4421.900;  165.525;    0.000
841.907; 4492.900;  184.525;    0.000
842.092; 4503.900;  171.525;    0.000
842.277; 4601.900;  155.525;    0.000
842.461; 4660.900;  152.525;    0.000
842.646; 4754.900;  107.525;    0.000
842.831; 4859.900;  160.525;    0.000
843.016; 4857.900;  160.525;    0.000
843.201; 5018.900;  164.525;    0.000
843.386; 5273.900;  134.525;    0.000
843.571; 5550.900;  132.525;    0.000
843.755; 5869.900;  158.525;    0.000
843.940; 6434.900;  152.525;    0.000
844.125; 7254.900;  154.525;    0.000
844.310; 8322.900;  147.525;    0.000
844.494;10700.900;  158.525;    0.000
844.679;14886.900;  173.525;    0.000
844.864;14334.900;  152.525;    0.000
845.048;11860.900;  139.525;    0.000
845.233;10056.900;  200.525;    0.000
845.418; 8669.900;  139.525;    0.000
845.602; 7670.900;  147.525;    0.000
845.787; 7048.900;  148.525;    0.000
845.971; 6641.900;  170.525;    0.000
846.156; 6051.900;  136.525;    0.000
846.340; 5794.900;  146.525;    0.000
846.525; 5454.900;  188.525;    0.000
846.709; 5347.900;  128.525;    0.000
846.893; 5100.900;  151.525;    0.000
847.078; 5007.900;  164.525;    0.000
847.262; 4802.900;  155.525;    0.000
847.447; 4584.900;  114.525;    0.000
847.631; 4501.900;  148.525;    0.000
847.815; 4373.900;  114.525;    0.000
848.000; 4249.900;  134.525;    0.000
848.184; 4250.900;  154.525;    0.000
848.368; 4097.900;  145.525;    0.000
848.552; 4176.900;  122.525;    0.000
848.736; 3962.900;  139.525;    0.000
848.921; 3954.900;  143.525;    0.000
849.105; 3970.900;  145.525;    0.000
849.289; 4012.900;  173.525;    0.000
849.473; 3873.900;  147.525;    0.000
849.657; 3832.900;  144.525;    0.000
849.841; 3842.900;  168.525;    0.000
850.025; 3706.900;  205.525;    0.000
850.209; 3747.900;  171.525;    0.000
850.393; 3628.900;  130.525;    0.000
850.577; 3641.900;  146.525;    0.000
850.761; 3646.900;  188.525;    0.000
850.945; 3644.900;  137.525;    0.000
851.129; 3611.900;  192.525;    0.000
851.313; 3555.900;  199.525;    0.000
851.497; 3506.900;  165.525;    0.000
851.680; 3596.900;  196.525;    0.000
851.864; 3497.900;  169.525;    0.000
852.048; 3627.900;  156.525;    0.000
852.232; 3605.900;  150.525;    0.000
852.416; 3586.900;  219.525;    0.000
852.599; 3495.900;  168.525;    0.000
852.783; 3486.900;  165.525;    0.000
852.967; 3549.900;  166.525;    0.000
853.150; 3488.900;  191.525;    0.000
853.334; 3376.900;  158.525;    0.000
853.518; 3501.900;  168.525;    0.000
853.701; 3448.900;  125.525;    0.000
853.885; 3452.900;  165.525;    0.000
854.068; 3441.900;  142.525;    0.000
854.252; 3397.900;  167.525;    0.000
854.435; 3344.900;  146.525;    0.000
854.619; 3445.900;  163.525;    0.000
854.802; 3451.900;  167.525;    0.000
854.986; 3486.900;  163.525;    0.000
855.169; 3444.900;  146.525;    0.000
855.353; 3499.900;  183.525;    0.000
855.536; 3436.900;  140.525;    0.000
855.719; 3505.900;  168.525;    0.000
855.903; 3536.900;  170.525;    0.000
856.086; 3479.900;  145.525;    0.000
856.269; 3563.900;  126.525;    0.000
856.452; 3633.900;  142.525;    0.000
856.636; 3730.900;  140.525;    0.000
856.819; 3981.900;  127.525;    0.000
857.002; 4125.900;  165.525;    0.000
857.185; 3973.900;  111.525;    0.000
857.368; 3776.900;  143.525;    0.000
857.552; 3814.900;  174.525;    0.000
857.735; 3762.900;  194.525;    0.000
857.918; 3690.900;  171.525;    0.000
858.101; 3630.900;  142.525;    0.000
858.284; 3795.900;  118.525;    0.000
858.467; 3770.900;  163.525;    0.000
858.650; 3826.900;  149.525;    0.000
858.833; 3748.900;  120.525;    0.000
859.016; 3940.900;  169.525;    0.000
859.199; 4227.900;  121.525;    0.000
859.382; 4518.900;  184.525;    0.000
859.564; 4896.900;  139.525;    0.000
859.747; 4795.900;  126.525;    0.000
859.930; 4449.900;  109.525;    0.000
860.113; 4381.900;  137.525;    0.000
860.296; 4300.900;  182.525;    0.000
860.478; 4271.900;  136.525;    0.000
860.661; 4163.900;  157.525;    0.000
860.844; 4164.900;  129.525;    0.000
861.027; 4102.900;  163.525;    0.000
861.209; 4125.900;  151.525;    0.000
861.392; 4007.900;  124.525;    0.000
861.575; 4013.900;  163.525;    0.000
861.757; 4041.900;  205.525;    0.000
861.940; 4204.900;  180.525;    0.000
862.122; 4190.900;  148.525;    0.000
862.305; 4375.900;  128.525;    0.000
862.487; 4490.900;  172.525;    0.000
862.670; 4930.900;  123.525;    0.000
862.852; 5645.900;  126.525;    0.000
863.035; 6816.900;  174.525;    0.000
863.217; 6751.900;  160.525;    0.000
863.400; 6108.900;  164.525;    0.000
863.582; 5790.900;  118.525;    0.000
863.764; 5506.900;  143.525;    0.000
863.947; 5173.900;  137.525;    0.000
864.129; 5083.900;  166.525;    0.000
864.311; 4845.900;  128.525;    0.000
864.493; 4756.900;  153.525;    0.000
864.676; 4772.900;  156.525;    0.000
864.858; 4714.900;  159.525;    0.000
865.040; 4731.900;  163.525;    0.000
865.222; 4612.900;  138.525;    0.000
865.404; 4785.900;  157.525;    0.000
865.587; 5065.900;  184.525;    0.000
865.769; 5202.900;  178.525;    0.000
865.951; 5225.900;  104.525;    0.000
866.133; 5025.900;  147.525;    0.000
866.315; 5156.900;  141.525;    0.000
866.497; 5236.900;  132.525;    0.000
866.679; 5402.900;  139.525;    0.000
866.861; 5620.900;  118.525;    0.000
867.043; 5860.900;  154.525;    0.000
867.225; 6171.900;  147.525;    0.000
867.407; 6759.900;  158.525;    0.000
867.589; 7812.900;  172.525;    0.000
867.770; 9239.900;  159.525;    0.000
867.952;12971.900;  149.525;    0.000
868.134;16715.900;  156.525;    0.000
868.316;16617.900;  171.525;    0.000
868.498;16087.900;  200.525;    0.000
868.679;13933.900;  174.525;    0.000
868.861;11709.900;  175.525;    0.000
869.043; 9965.900;  174.525;    0.000
869.224; 8698.900;  122.525;    0.000
869.406; 7925.900;  166.525;    0.000
869.588; 7292.900;  143.525;    0.000
869.769; 6960.900;  152.525;    0.000
869.951; 6706.900;  165.525;    0.000
870.132; 6758.900;  115.525;    0.000
870.314; 7484.900;  139.525;    0.000
870.495; 7671.900;  168.525;    0.000
870.677; 7189.900;  188.525;    0.000
870.858; 6730.900;  123.525;    0.000
871.040; 7194.900;  170.525;    0.000
871.221; 7915.900;  148.525;    0.000
871.403; 7505.900;  140.525;    0.000
871.584; 7010.900;  174.525;    0.000
871.765; 6922.900;  168.525;    0.000
871.947; 7498.900;  191.525;    0.000
872.128; 6865.900;  132.525;    0.000
872.309; 5992.900;  140.525;    0.000
872.491; 5462.900;  157.525;    0.000
872.672; 5088.900;  130.525;    0.000
872.853; 4974.900;  148.525;    0.000
873.034; 4968.900;  138.525;    0.000
873.215; 4541.900;  152.525;    0.000
873.396; 4438.900;  149.525;    0.000
873.578; 4091.900;  173.525;    0.000
873.759; 4056.900;  158.525;    0.000
873.940; 3845.900;  147.525;    0.000
874.121; 3868.900;  136.525;    0.000
874.302; 3834.900;  151.525;    0.000
874.483; 3683.900;  137.525;    0.000
874.664; 3705.900;  163.525;    0.000
874.845; 3612.900;  124.525;    0.000
875.026; 3607.900;  134.525;    0.000
875.207; 3492.900;  164.525;    0.000
875.388; 3509.900;  163.525;    0.000
875.568; 3370.900;  176.525;    0.000
875.749; 3291.900;  108.525;    0.000
875.930; 3305.900;  191.525;    0.000
876.111; 3265.900;  170.525;    0.000
876.292; 3192.900;  180.525;    0.000
876.472; 3202.900;  150.525;    0.000
876.653; 3167.900;  162.525;    0.000
876.834; 3128.900;  176.525;    0.000
877.015; 3128.900;  203.525;    0.000
877.195; 3067.900;  178.525;    0.000
877.376; 3134.900;  141.525;    0.000
877.556; 3009.900;  135.525;    0.000
877.737; 3051.900;  174.525;    0.000
877.918; 3005.900;  150.525;    0.000
878.098; 2917.900;  133.525;    0.000
878.279; 2964.900;  129.525;    0.000
878.459; 2916.900;  162.525;    0.000
878.640; 2963.900;  187.525;    0.000
878.820; 2952.900;  151.525;    0.000
879.000; 2810.900;  159.525;    0.000
879.181; 2791.900;  171.525;    0.000
879.361; 2899.900;  167.525;    0.000
879.542; 2903.900;  126.525;    0.000
879.722; 2837.900;  152.525;    0.000
879.902; 2898.900;  144.525;    0.000
880.083; 2881.900;  154.525;    0.000
880.263; 3009.900;  148.525;    0.000
880.443; 3013.900;  185.525;    0.000
880.623; 3332.900;  172.525;    0.000
880.803; 3714.900;  152.525;    0.000
880.984; 3348.900;  165.525;    0.000
881.164; 3246.900;  164.525;    0.000
881.344; 3104.900;  141.525;    0.000
881.524; 3099.900;  160.525;    0.000
881.704; 3130.900;  164.525;    0.000
881.884; 3213.900;  159.525;    0.000
882.064; 3370.900;  158.525;    0.000
882.244; 3477.900;  147.525;    0.000
882.424; 3339.900;  160.525;    0.000
882.604; 3220.900;  150.525;    0.000
882.784; 3062.900;  138.525;    0.000
882.964; 2984.900;  157.525;    0.000
883.144; 2950.900;  128.525;    0.000
883.324; 2961.900;  220.525;    0.000
883.504; 2903.900;  177.525;    0.000
883.683; 2772.900;  159.525;    0.000
883.863; 2767.900;  143.525;    0.000
884.043; 2780.900;  156.525;    0.000
884.223; 2714.900;  152.525;    0.000
884.402; 2697.900;  169.525;    0.000
884.582; 2691.900;  162.525;    0.000
884.762; 2741.900;  172.525;    0.000
884.941; 2799.900;  220.525;    0.000
885.121; 2700.900;  128.525;    0.000
885.301; 2812.900;  141.525;    0.000
885.480; 2693.900;  141.525;    0.000
885.660; 2702.900;  132.525;    0.000
885.839; 2675.900;  146.525;    0.000
886.019; 2639.900;  170.525;    0.000
886.198; 2593.900;  143.525;    0.000
886.378; 2536.900;  159.525;    0.000
886.557; 2608.900;  148.525;    0.000
886.737; 2497.900;  125.525;    0.000
886.916; 2581.900;  177.525;    0.000
887.095; 2512.900;  186.525;    0.000
887.275; 2589.900;  134.525;    0.000
887.454; 2525.900;  148.525;    0.000
887.633; 2496.900;  171.525;    0.000
887.813; 2492.900;  187.525;    0.000
887.992; 2597.900;  157.525;    0.000
888.171; 2540.900;  143.525;    0.000
888.350; 2572.900;  182.525;    0.000
888.530; 2569.900;  142.525;    0.000
888.709; 2517.900;  160.525;    0.000
888.888; 2580.900;  197.525;    0.000
889.067; 2549.900;  126.525;    0.000
889.246; 2567.900;  197.525;    0.000
889.425; 2580.900;  161.525;    0.000
889.604; 2544.900;  180.525;    0.000
889.783; 2477.900;  135.525;    0.000
889.962; 2440.900;  107.525;    0.000
890.141; 2561.900;  167.525;    0.000
890.320; 2525.900;  149.525;    0.000
890.499; 2513.900;  194.525;    0.000
890.678; 2438.900;  138.525;    0.000
890.857; 2399.900;  146.525;    0.000
891.036; 2502.900;  178.525;    0.000
891.214; 2490.900;  151.525;    0.000
891.393; 2482.900;  137.525;    0.000
891.572; 2394.900;  177.525;    0.000
891.751; 2479.900;  149.525;    0.000
891.930; 2530.900;  189.525;    0.000
892.108; 2494.900;  136.525;    0.000
892.287; 2462.900;  129.525;    0.000
892.466; 2550.900;  163.525;    0.000
892.644; 2483.900;  147.525;    0.000
892.823; 2406.900;  127.525;    0.000
893.001; 2402.900;  192.525;    0.000
893.180; 2428.900;  157.525;    0.000
893.359; 2478.900;  176.525;    0.000
893.537; 2431.900;  146.525;    0.000
893.716; 2460.900;  154.525;    0.000
893.894; 2394.900;  166.525;    0.000
894.073; 2451.900;  163.525;    0.000
894.251; 2442.900;  166.525;    0.000
894.429; 2383.900;  149.525;    0.000
894.608; 2529.900;  141.525;    0.000
894.786; 2532.900;  139.525;    0.000
894.964; 2453.900;  180.525;    0.000
895.143; 2430.900;  193.525;    0.000
895.321; 2455.900;  163.525;    0.000
895.499; 2426.900;  163.525;    0.000
895.677; 2447.900;  194.525;    0.000
895.856; 2498.900;  176.525;    0.000
896.034; 2462.900;  173.525;    0.000
896.212; 2531.900;  180.525;    0.000
896.390; 2498.900;  146.525;    0.000
896.568; 2487.900;  167.525;    0.000
896.746; 2454.900;  158.525;    0.000
896.924; 2526.900;  163.525;    0.000
897.102; 2529.900;  170.525;    0.000
897.280; 2474.900;  159.525;    0.000
897.458; 2523.900;  182.525;    0.000
897.636; 2602.900;  151.525;    0.000
897.814; 2494.900;  130.525;    0.000
897.992; 2634.900;  213.525;    0.000
898.170; 2456.900;  164.525;    0.000
898.348; 2507.900;  159.525;    0.000
898.526; 2488.900;  182.525;    0.000
898.704; 2636.900;  209.525;    0.000
898.882; 2552.900;  145.525;    0.000
899.059; 2521.900;  172.525;    0.000
899.237; 2469.900;  172.525;    0.000
899.415; 2561.900;  211.525;    0.000
899.593; 2551.900;  151.525;    0.000
899.770; 2607.900;  147.525;    0.000
899.948; 2570.900;  218.525;    0.000
900.125; 2550.900;  166.525;    0.000
900.303; 2574.900;  146.525;    0.000
900.481; 2583.900;  174.525;    0.000
900.658; 2639.900;  198.525;    0.000
900.836; 2694.900;  125.525;    0.000
901.013; 2652.900;  197.525;    0.000
901.191; 2650.900;  181.525;    0.000
901.368; 2803.900;  185.525;    0.000
901.546; 2797.900;  197.525;    0.000
901.723; 2786.900;  205.525;    0.000
901.901; 2959.900;  187.525;    0.000
902.078; 2916.900;  163.525;    0.000
902.255; 2963.900;  141.525;    0.000
902.433; 2996.900;  183.525;    0.000
902.610; 3022.900;  181.525;    0.000
902.787; 2981.900;  174.525;    0.000
902.964; 3131.900;  174.525;    0.000
903.142; 3043.900;  141.525;    0.000
903.319; 3195.900;  214.525;    0.000
903.496; 3192.900;  187.525;    0.000
903.673; 3352.900;  183.525;    0.000
903.850; 3293.900;  125.525;    0.000
904.027; 3363.900;  197.525;    0.000
904.204; 3623.900;  197.525;    0.000
904.381; 3831.900;  196.525;    0.000
904.558; 4623.900;  176.525;    0.000
904.735; 4934.900;  179.525;    0.000
904.912; 5149.900;  203.525;    0.000
905.089; 5159.900;  159.525;    0.000
905.266; 4751.900;  176.525;    0.000
905.443; 4435.900;  184.525;    0.000
905.620; 4066.900;  168.525;    0.000
905.797; 3990.900;  214.525;    0.000
905.974; 3791.900;  154.525;    0.000
906.151; 3763.900;  132.525;    0.000
906.327; 3705.900;  192.525;    0.000
906.504; 3620.900;  186.525;    0.000
906.681; 3472.900;  171.525;    0.000
906.858; 3393.900;  181.525;    0.000
907.034; 3299.900;  164.525;    0.000
907.211; 3300.900;  184.525;    0.000
907.388; 3285.900;  177.525;    0.000
907.564; 3141.900;  150.525;    0.000
907.741; 3068.900;  195.525;    0.000
907.917; 3125.900;  190.525;    0.000
908.094; 3105.900;  214.525;    0.000
908.271; 3000.900;  173.525;    0.000
908.447; 2978.900;  229.525;    0.000
908.623; 2863.900;  162.525;    0.000
908.800; 2948.900;  195.525;    0.000
908.976; 2946.900;  171.525;    0.000
909.153; 2835.900;  167.525;    0.000
909.329; 2896.900;  227.525;    0.000
909.505; 2907.900;  167.525;    0.000
909.682; 2735.900;  174.525;    0.000
909.858; 2834.900;  158.525;    0.000
910.034; 2723.900;  188.525;    0.000
910.211; 2725.900;  158.525;    0.000
910.387; 2781.900;  208.525;    0.000
910.563; 2749.900;  203.525;    0.000
910.739; 2714.900;  201.525;    0.000
910.915; 2725.900;  170.525;    0.000
911.091; 2678.900;  171.525;    0.000
911.268; 2694.900;  220.525;    0.000
911.444; 2716.900;  202.525;    0.000
911.620; 2622.900;  175.525;    0.000
911.796; 2630.900;  175.525;    0.000
911.972; 2674.900;  164.525;    0.000
912.148; 2642.900;  174.525;    0.000
912.324; 2621.900;  155.525;    0.000
912.500; 2664.900;  156.525;    0.000
912.676; 2634.900;  138.525;    0.000
912.851; 2702.900;  158.525;    0.000
913.027; 2694.900;  161.525;    0.000
913.203; 2602.900;  168.525;    0.000
913.379; 2567.900;  172.525;    0.000
913.555; 2634.900;  193.525;    0.000
913.730; 2600.900;  149.525;    0.000
913.906; 2538.900;  159.525;    0.000
914.082; 2620.900;  184.525;    0.000
914.258; 2569.900;  194.525;    0.000
914.433; 2580.900;  175.525;    0.000
914.609; 2561.900;  175.525;    0.000
914.784; 2518.900;  170.525;    0.000
914.960; 2597.900;  212.525;    0.000
915.136; 2590.900;  157.525;    0.000
915.311; 2631.900;  204.525;    0.000
915.487; 2606.900;  180.525;    0.000
915.662; 2702.900;  203.525;    0.000
915.838; 2596.900;  194.525;    0.000
916.013; 2730.900;  217.525;    0.000
916.189; 2685.900;  196.525;    0.000
916.364; 2692.900;  236.525;    0.000
916.539; 2678.900;  192.525;    0.000
916.715; 2661.900;  181.525;    0.000
916.890; 2592.900;  185.525;    0.000
917.065; 2618.900;  166.525;    0.000
917.240; 2599.900;  182.525;    0.000
917.416; 2590.900;  188.525;    0.000
917.591; 2612.900;  185.525;    0.000
917.766; 2595.900;  187.525;    0.000
917.941; 2616.900;  181.525;    0.000
918.116; 2639.900;  207.525;    0.000
918.292; 2616.900;  140.525;    0.000
918.467; 2647.900;  187.525;    0.000
918.642; 2713.900;  208.525;    0.000
918.817; 2679.900;  203.525;    0.000
918.992; 2633.900;  162.525;    0.000
919.167; 2639.900;  206.525;    0.000
919.342; 2693.900;  188.525;    0.000
919.517; 2758.900;  190.525;    0.000
919.692; 2733.900;  174.525;    0.000
919.867; 2714.900;  181.525;    0.000
920.041; 2761.900;  179.525;    0.000
920.216; 2922.900;  186.525;    0.000
920.391; 2842.900;  209.525;    0.000
920.566; 2830.900;  205.525;    0.000
920.741; 2922.900;  205.525;    0.000
920.915; 3074.900;  206.525;    0.000
921.090; 3240.900;  219.525;    0.000
921.265; 3736.900;  185.525;    0.000
921.439; 4300.900;  171.525;    0.000
921.614; 3922.900;  197.525;    0.000
921.789; 3572.900;  189.525;    0.000
921.963; 3377.900;  210.525;    0.000
922.138; 3225.900;  171.525;    0.000
922.312; 3277.900;  194.525;    0.000
922.487; 3276.900;  231.525;    0.000
922.661; 3333.900;  179.525;    0.000
922.836; 3760.900;  213.525;    0.000
923.010; 3860.900;  182.525;    0.000
923.185; 3640.900;  239.525;    0.000
923.359; 3393.900;  200.525;    0.000
923.534; 3340.900;  232.525;    0.000
923.708; 3557.900;  221.525;    0.000
923.882; 3789.900;  193.525;    0.000
924.057; 3485.900;  204.525;    0.000
924.231; 3378.900;  172.525;    0.000
924.405; 3357.900;  202.525;    0.000
924.579; 3314.900;  207.525;    0.000
924.753; 3190.900;  167.525;    0.000
924.928; 3088.900;  202.525;    0.000
925.102; 3144.900;  200.525;    0.000
925.276; 3192.900;  185.525;    0.000
925.450; 3216.900;  170.525;    0.000
925.624; 3326.900;  176.525;    0.000
925.798; 3455.900;  221.525;    0.000
925.972; 3425.900;  162.525;    0.000
926.146; 3691.900;  207.525;    0.000
926.320; 4039.900;  185.525;    0.000
926.494; 4214.900;  192.525;    0.000
926.668; 4435.900;  179.525;    0.000
926.842; 4594.900;  181.525;    0.000
927.016; 4583.900;  224.525;    0.000
927.190; 4527.900;  193.525;    0.000
927.363; 4398.900;  194.525;    0.000
927.537; 4275.900;  210.525;    0.000
927.711; 4122.900;  153.525;    0.000
927.885; 4071.900;  184.525;    0.000
928.058; 3957.900;  197.525;    0.000
928.232; 4026.900;  219.525;    0.000
928.406; 3801.900;  175.525;    0.000
928.579; 3694.900;  179.525;    0.000
928.753; 3771.900;  208.525;    0.000
928.927; 3616.900;  163.525;    0.000
929.100; 3588.900;  138.525;    0.000
929.274; 3530.900;  160.525;    0.000
929.447; 3404.900;  152.525;    0.000
929.621; 3341.900;  168.525;    0.000
929.794; 3375.900;  152.525;    0.000
929.968; 3219.900;  163.525;    0.000
930.141; 3266.900;  164.525;    0.000
930.315; 3157.900;  170.525;    0.000
930.488; 3166.900;  216.525;    0.000
930.661; 3191.900;  184.525;    0.000
930.835; 3107.900;  156.525;    0.000
931.008; 3090.900;  206.525;    0.000
931.181; 3074.900;  163.525;    0.000
931.354; 2926.900;  198.525;    0.000
931.528; 2895.900;  156.525;    0.000
931.701; 2903.900;  170.525;    0.000
931.874; 2884.900;  167.525;    0.000
932.047; 2842.900;  146.525;    0.000
932.220; 2836.900;  159.525;    0.000
932.393; 2789.900;  186.525;    0.000
932.566; 2691.900;  147.525;    0.000
932.739; 2679.900;  192.525;    0.000
932.912; 2764.900;  197.525;    0.000
933.085; 2831.900;  176.525;    0.000
933.258; 2722.900;  171.525;    0.000
933.431; 2699.900;  150.525;    0.000
933.604; 2691.900;  176.525;    0.000
933.777; 2653.900;  215.525;    0.000
933.950; 2677.900;  164.525;    0.000
934.123; 2672.900;  174.525;    0.000
934.296; 2691.900;  203.525;    0.000
934.468; 2519.900;  208.525;    0.000
934.641; 2616.900;  182.525;    0.000
934.814; 2622.900;  170.525;    0.000
934.987; 2599.900;  183.525;    0.000
935.159; 2555.900;  154.525;    0.000
935.332; 2555.900;  178.525;    0.000
935.505; 2579.900;  213.525;    0.000
935.677; 2588.900;  173.525;    0.000
935.850; 2599.900;  190.525;    0.000
936.022; 2609.900;  205.525;    0.000
936.195; 2683.900;  201.525;    0.000
936.367; 2507.900;  189.525;    0.000
936.540; 2613.900;  179.525;    0.000
936.712; 2639.900;  195.525;    0.000
936.885; 2754.900;  207.525;    0.000
937.057; 2631.900;  163.525;    0.000
937.229; 2765.900;  175.525;    0.000
937.402; 2754.900;  168.525;    0.000
937.574; 2753.900;  136.525;    0.000
937.746; 2808.900;  166.525;    0.000
937.919; 2981.900;  178.525;    0.000
938.091; 3144.900;  192.525;    0.000
938.263; 3252.900;  164.525;    0.000
938.435; 3470.900;  204.525;    0.000
938.608; 4083.900;  153.525;    0.000
938.780; 4626.900;  159.525;    0.000
938.952; 4817.900;  160.525;    0.000
939.124; 5023.900;  156.525;    0.000
939.296; 5434.900;  110.525;    0.000
939.468; 5873.900;  135.525;    0.000
939.640; 5090.900;  144.525;    0.000
939.812; 4620.900;  232.525;    0.000
939.984; 4193.900;  128.525;    0.000
940.156; 3890.900;  195.525;    0.000
940.328; 3622.900;  226.525;    0.000
940.500; 3474.900;  146.525;    0.000
940.672; 3311.900;  190.525;    0.000
940.843; 3184.900;  156.525;    0.000
941.015; 3128.900;  200.525;    0.000
941.187; 3030.900;  159.525;    0.000
941.359; 3016.900;  183.525;    0.000
941.531; 2971.900;  137.525;    0.000
941.702; 2941.900;  186.525;    0.000
941.874; 2875.900;  164.525;    0.000
942.046; 2774.900;  202.525;    0.000
942.217; 2773.900;  146.525;    0.000
942.389; 2781.900;  165.525;    0.000
942.560; 2676.900;  191.525;    0.000
942.732; 2637.900;  240.525;    0.000
942.904; 2626.900;  173.525;    0.000
943.075; 2498.900;  157.525;    0.000
943.247; 2466.900;  155.525;    0.000
943.418; 2407.900;  164.525;    0.000
943.589; 2484.900;  150.525;    0.000
943.761; 2502.900;  143.525;    0.000
943.932; 2486.900;  151.525;    0.000
944.104; 2460.900;  194.525;    0.000
944.275; 2405.900;  154.525;    0.000
944.446; 2399.900;  169.525;    0.000
944.617; 2336.900;  138.525;    0.000
944.789; 2312.900;  158.525;    0.000
944.960; 2327.900;  197.525;    0.000
945.131; 2362.900;  139.525;    0.000
945.302; 2333.900;  169.525;    0.000
945.473; 2305.900;  149.525;    0.000
945.645; 2305.900;  171.525;    0.000
945.816; 2303.900;  167.525;    0.000
945.987; 2446.900;  156.525;    0.000
946.158; 2472.900;  185.525;    0.000
946.329; 2420.900;  201.525;    0.000
946.500; 2450.900;  182.525;    0.000
946.671; 2377.900;  156.525;    0.000
946.842; 2280.900;  190.525;    0.000
947.013; 2273.900;  159.525;    0.000
947.183; 2323.900;  209.525;    0.000
947.354; 2280.900;  171.525;    0.000
947.525; 2254.900;  180.525;    0.000
947.696; 2275.900;  163.525;    0.000
947.867; 2222.900;  168.525;    0.000
948.037; 2245.900;  153.525;    0.000
948.208; 2283.900;  178.525;    0.000
948.379; 2254.900;  192.525;    0.000
948.550; 2227.900;  180.525;    0.000
948.720; 2090.900;  196.525;    0.000
948.891; 2252.900;  173.525;    0.000
949.061; 2215.900;  207.525;    0.000
949.232; 2128.900;  176.525;    0.000
949.403; 2125.900;  152.525;    0.000
949.573; 2048.900;  186.525;    0.000
949.744; 2117.900;  181.525;    0.000
949.914; 2099.900;  174.525;    0.000
950.085; 2177.900;  146.525;    0.000
950.255; 2142.900;  162.525;    0.000
950.425; 2143.900;  189.525;    0.000
950.596; 2174.900;  175.525;    0.000
950.766; 2113.900;  209.525;    0.000
950.936; 2164.900;  201.525;    0.000
951.107; 2098.900;  141.525;    0.000
951.277; 2201.900;  211.525;    0.000
951.447; 2118.900;  218.525;    0.000
951.617; 2080.900;  191.525;    0.000
951.788; 1985.900;  193.525;    0.000
951.958; 2102.900;  217.525;    0.000
952.128; 2078.900;  192.525;    0.000
952.298; 2052.900;  237.525;    0.000
952.468; 2167.900;  194.525;    0.000
952.638; 2060.900;  201.525;    0.000
952.808; 2090.900;  203.525;    0.000
952.978; 2088.900;  216.525;    0.000
953.148; 1971.900;  209.525;    0.000
953.318; 2109.900;  213.525;    0.000
953.488; 1967.900;  161.525;    0.000
953.658; 2032.900;  222.525;    0.000
953.828; 2035.900;  196.525;    0.000
953.998; 2053.900;  227.525;    0.000
954.167; 1990.900;  163.525;    0.000
954.337; 1997.900;  201.525;    0.000
954.507; 1993.900;  227.525;    0.000
954.677; 2037.900;  204.525;    0.000
954.846; 1998.900;  210.525;    0.000
955.016; 2006.900;  198.525;    0.000
955.186; 2032.900;  203.525;    0.000
955.355; 1988.900;  198.525;    0.000
955.525; 1910.900;  198.525;    0.000
955.695; 1934.900;  187.525;    0.000
955.864; 1876.900;  243.525;    0.000
956.034; 1903.900;  192.525;    0.000
956.203; 2003.900;  259.525;    0.000
956.373; 1900.900;  185.525;    0.000
956.542; 1900.900;  230.525;    0.000
956.711; 1937.900;  218.525;    0.000
956.881; 1905.900;  232.525;    0.000
957.050; 1933.900;  246.525;    0.000
957.220; 1901.900;  229.525;    0.000
957.389; 1873.900;  211.525;    0.000
957.558; 1844.900;  173.525;    0.000
957.727; 1836.900;  226.525;    0.000
957.897; 1744.900;  209.525;    0.000
958.066; 1788.900;  217.525;    0.000
958.235; 1894.900;  160.525;    0.000
958.404; 1801.900;  199.525;    0.000
958.573; 1885.900;  223.525;    0.000
958.743; 1769.900;  189.525;    0.000
958.912; 1835.900;  199.525;    0.000
959.081; 1804.900;  216.525;    0.000
959.250; 1818.900;  192.525;    0.000
959.419; 1860.900;  216.525;    0.000
959.588; 1826.900;  209.525;    0.000
959.757; 1835.900;  194.525;    0.000
959.926; 1771.900;  200.525;    0.000
960.094; 1722.900;  174.525;    0.000
960.263; 1749.900;  218.525;    0.000
960.432; 1808.900;  173.525;    0.000
960.601; 1831.900;  177.525;    0.000
960.770; 1715.900;  188.525;    0.000
960.939; 1854.900;  167.525;    0.000
961.107; 1750.900;  195.525;    0.000
961.276; 1739.900;  183.525;    0.000
961.445; 1791.900;  195.525;    0.000
961.613; 1711.900;  198.525;    0.000
961.782; 1750.900;  224.525;    0.000
961.951; 1712.900;  178.525;    0.000
962.119; 1767.900;  214.525;    0.000
962.288; 1723.900;  174.525;    0.000
962.456; 1693.900;  197.525;    0.000
962.625; 1820.900;  212.525;    0.000
962.793; 1771.900;  183.525;    0.000
962.962; 1801.900;  189.525;    0.000
963.130; 1769.900;  151.525;    0.000
963.298; 1716.900;  197.525;    0.000
963.467; 1807.900;  202.525;    0.000
963.635; 1733.900;  172.525;    0.000
963.803; 1778.900;  203.525;    0.000
963.972; 1760.900;  204.525;    0.000
964.140; 1705.900;  193.525;    0.000
964.308; 1743.900;  159.525;    0.000
964.477; 1756.900;  142.525;    0.000
964.645; 1780.900;  202.525;    0.000
964.813; 1767.900;  158.525;    0.000
964.981; 1786.900;  179.525;    0.000
965.149; 1707.900;  176.525;    0.000
965.317; 1731.900;  229.525;    0.000
965.485; 1787.900;  179.525;    0.000
965.653; 1841.900;  205.525;    0.000
965.821; 1738.900;  196.525;    0.000
965.989; 1671.900;  202.525;    0.000
966.157; 1663.900;  199.525;    0.000
966.325; 1821.900;  178.525;    0.000
966.493; 1718.900;  177.525;    0.000
966.661; 1738.900;  172.525;    0.000
966.829; 1751.900;  167.525;    0.000
966.996; 1677.900;  202.525;    0.000
967.164; 1708.900;  175.525;    0.000
967.332; 1786.900;  207.525;    0.000
967.500; 1740.900;  170.525;    0.000
967.667; 1701.900;  222.525;    0.000
967.835; 1754.900;  245.525;    0.000
968.003; 1815.900;  180.525;    0.000
968.170; 1802.900;  222.525;    0.000
968.338; 1711.900;  183.525;    0.000
968.505; 1786.900;  197.525;    0.000
968.673; 1740.900;  209.525;    0.000
968.841; 1701.900;  162.525;    0.000
969.008; 1710.900;  187.525;    0.000
969.175; 1679.900;  204.525;    0.000
969.343; 1740.900;  157.525;    0.000
969.510; 1759.900;  189.525;    0.000
969.678; 1754.900;  153.525;    0.000
969.845; 1784.900;  190.525;    0.000
970.012; 1693.900;  162.525;    0.000
970.180; 1783.900;  223.525;    0.000
970.347; 1779.900;  195.525;    0.000
970.514; 1692.900;  185.525;    0.000
970.681; 1701.900;  187.525;    0.000
970.849; 1636.900;  183.525;    0.000
971.016; 1703.900;  168.525;    0.000
971.183; 1731.900;  160.525;    0.000
971.350; 1731.900;  193.525;    0.000
971.517; 1746.900;  202.525;    0.000
971.684; 1765.900;  242.525;    0.000
971.851; 1745.900;  192.525;    0.000
972.018; 1727.900;  194.525;    0.000
972.185; 1691.900;  193.525;    0.000
972.352; 1748.900;  187.525;    0.000
972.519; 1740.900;  233.525;    0.000
972.686; 1674.900;  186.525;    0.000
972.853; 1637.900;  165.525;    0.000
973.020; 1615.900;  183.525;    0.000
973.186; 1699.900;  186.525;    0.000
973.353; 1675.900;  177.525;    0.000
973.520; 1718.900;  203.525;    0.000
973.687; 1728.900;  211.525;    0.000
973.853; 1715.900;  194.525;    0.000
974.020; 1721.900;  201.525;    0.000
974.187; 1615.900;  187.525;    0.000
974.353; 1732.900;  188.525;    0.000
974.520; 1641.900;  136.525;    0.000
974.687; 1681.900;  169.525;    0.000
974.853; 1644.900;  207.525;    0.000
975.020; 1629.900;  190.525;    0.000
975.186; 1643.900;  182.525;    0.000
975.353; 1768.900;  202.525;    0.000
975.519; 1632.900;  189.525;    0.000
975.685; 1743.900;  176.525;    0.000
975.852; 1636.900;  175.525;    0.000
976.018; 1711.900;  155.525;    0.000
976.184; 1705.900;  179.525;    0.000
976.351; 1679.900;  191.525;    0.000
976.517; 1767.900;  246.525;    0.000
976.683; 1701.900;  222.525;    0.000
976.849; 1643.900;  216.525;    0.000
977.016; 1640.900;  212.525;    0.000
977.182; 1599.900;  192.525;    0.000
977.348; 1649.900;  145.525;    0.000
977.514; 1666.900;  195.525;    0.000
977.680; 1713.900;  210.525;    0.000
977.846; 1665.900;  172.525;    0.000
978.012; 1561.900;  190.525;    0.000
978.178; 1626.900;  201.525;    0.000
978.344; 1668.900;  190.525;    0.000
978.510; 1582.900;  199.525;    0.000
978.676; 1578.900;  174.525;    0.000
978.842; 1628.900;  195.525;    0.000
979.008; 1698.900;  205.525;    0.000
979.174; 1647.900;  187.525;    0.000
979.340; 1638.900;  194.525;    0.000
979.505; 1678.900;  221.525;    0.000
979.671; 1657.900;  178.525;    0.000
979.837; 1664.900;  215.525;    0.000
980.003; 1581.900;  176.525;    0.000
980.168; 1662.900;  185.525;    0.000
980.334; 1578.900;  165.525;    0.000
980.499; 1646.900;  231.525;    0.000
980.665; 1629.900;  238.525;    0.000
980.831; 1576.900;  194.525;    0.000
980.996; 1604.900;  169.525;    0.000
981.162; 1684.900;  199.525;    0.000
981.327; 1544.900;  158.525;    0.000
981.493; 1606.900;  193.525;    0.000
981.658; 1569.900;  181.525;    0.000
981.823; 1645.900;  199.525;    0.000
981.989; 1715.900;  186.525;    0.000
982.154; 1681.900;  225.525;    0.000
982.319; 1638.900;  191.525;    0.000
982.485; 1706.900;  205.525;    0.000
982.650; 1762.900;  234.525;    0.000
982.815; 1647.900;  193.525;    0.000
982.980; 1656.900;  177.525;    0.000
983.146; 1686.900;  212.525;    0.000
983.311; 1632.900;  177.525;    0.000
983.476; 1644.900;  185.525;    0.000
983.641; 1589.900;  149.525;    0.000
983.806; 1641.900;  175.525;    0.000
983.971; 1700.900;  234.525;    0.000
984.136; 1633.900;  191.525;    0.000
984.301; 1665.900;  215.525;    0.000
984.466; 1636.900;  207.525;    0.000
984.631; 1704.900;  206.525;    0.000
984.796; 1679.900;  229.525;    0.000
984.961; 1638.900;  220.525;    0.000
985.126; 1696.900;  204.525;    0.000
985.291; 1627.900;  210.525;    0.000
985.455; 1575.900;  193.525;    0.000
985.620; 1651.900;  207.525;    0.000
985.785; 1650.900;  188.525;    0.000
985.950; 1661.900;  168.525;    0.000
986.114; 1615.900;  239.525;    0.000
986.279; 1633.900;  223.525;    0.000
986.444; 1647.900;  154.525;    0.000
986.608; 1672.900;  232.525;    0.000
986.773; 1730.900;  214.525;    0.000
986.937; 1725.900;  220.525;    0.000
987.102; 1706.900;  224.525;    0.000
987.266; 1657.900;  157.525;    0.000
987.431; 1735.900;  246.525;    0.000
987.595; 1718.900;  203.525;    0.000
987.760; 1710.900;  202.525;    0.000
987.924; 1690.900;  208.525;    0.000
988.088; 1726.900;  169.525;    0.000
988.253; 1631.900;  237.525;    0.000
988.417; 1632.900;  202.525;    0.000
988.581; 1624.900;  215.525;    0.000
988.746; 1654.900;  210.525;    0.000
988.910; 1646.900;  191.525;    0.000
989.074; 1587.900;  197.525;    0.000
989.238; 1609.900;  191.525;    0.000
989.402; 1647.900;  222.525;    0.000
989.566; 1620.900;  221.525;    0.000
989.731; 1578.900;  216.525;    0.000
989.895; 1585.900;  183.525;    0.000
990.059; 1584.900;  150.525;    0.000
990.223; 1549.900;  183.525;    0.000
990.387; 1693.900;  241.525;    0.000
990.551; 1600.900;  198.525;    0.000
990.714; 1600.900;  176.525;    0.000
990.878; 1661.900;  203.525;    0.000
991.042; 1636.900;  146.525;    0.000
991.206; 1610.900;  199.525;    0.000
991.370; 1605.900;  223.525;    0.000
991.534; 1623.900;  158.525;    0.000
991.697; 1630.900;  182.525;    0.000
991.861; 1623.900;  195.525;    0.000
992.025; 1624.900;  206.525;    0.000
992.188; 1496.900;  174.525;    0.000
992.352; 1551.900;  183.525;    0.000
992.516; 1544.900;  181.525;    0.000
992.679; 1625.900;  162.525;    0.000
992.843; 1533.900;  173.525;    0.000
993.006; 1527.900;  189.525;    0.000
993.170; 1641.900;  200.525;    0.000
993.333; 1537.900;  167.525;    0.000
993.497; 1584.900;  217.525;    0.000
993.660; 1594.900;  179.525;    0.000
993.824; 1597.900;  195.525;    0.000
993.987; 1566.900;  186.525;    0.000
994.150; 1586.900;  164.525;    0.000
994.314; 1551.900;  215.525;    0.000
994.477; 1566.900;  186.525;    0.000
994.640; 1562.900;  192.525;    0.000
994.803; 1512.900;  215.525;    0.000
994.967; 1578.900;  208.525;    0.000
995.130; 1489.900;  196.525;    0.000
995.293; 1590.900;  221.525;    0.000
995.456; 1532.900;  164.525;    0.000
995.619; 1557.900;  224.525;    0.000
995.782; 1584.900;  184.525;    0.000
995.945; 1546.900;  220.525;    0.000
996.108; 1542.900;  187.525;    0.000
996.271; 1523.900;  192.525;    0.000
996.434; 1548.900;  162.525;    0.000
996.597; 1513.900;  148.525;    0.000
996.760; 1590.900;  186.525;    0.000
996.923; 1582.900;  154.525;    0.000
997.086; 1517.900;  156.525;    0.000
997.248; 1593.900;  215.525;    0.000
997.411; 1530.900;  160.525;    0.000
997.574; 1508.900;  159.525;    0.000
997.737; 1514.900;  179.525;    0.000
997.899; 1576.900;  184.525;    0.000
998.062; 1502.900;  180.525;    0.000
998.225; 1598.900;  168.525;    0.000
998.387; 1493.900;  192.525;    0.000
998.550; 1542.900;  178.525;    0.000
998.712; 1521.900;  192.525;    0.000
998.875; 1544.900;  230.525;    0.000
999.037; 1536.900;  200.525;    0.000
999.200; 1502.900;  196.525;    0.000
999.362; 1524.900;  173.525;    0.000
999.525; 1460.900;  196.525;    0.000
999.687; 1489.900;  159.525;    0.000
999.849; 1557.900;  180.525;    0.000
1000.012; 1536.900;  210.525;    0.000
1000.174; 1549.900;  175.525;    0.000
1000.336; 1523.900;  174.525;    0.000
1000.499; 1540.900;  180.525;    0.000
1000.661; 1610.900;  204.525;    0.000
1000.823; 1545.900;  181.525;    0.000
1000.985; 1534.900;  178.525;    0.000
1001.147; 1595.900;  215.525;    0.000
1001.309; 1561.900;  212.525;    0.000
1001.471; 1672.900;  192.525;    0.000
1001.633; 1656.900;  207.525;    0.000
1001.796; 1614.900;  211.525;    0.000
1001.958; 1659.900;  200.525;    0.000
1002.119; 1658.900;  210.525;    0.000
1002.281; 1801.900;  204.525;    0.000
1002.443; 1763.900;  230.525;    0.000
1002.605; 1816.900;  178.525;    0.000
1002.767; 1857.900;  228.525;    0.000
1002.929; 1958.900;  199.525;    0.000
1003.091; 2038.900;  220.525;    0.000
1003.252; 2025.900;  219.525;    0.000
1003.414; 2207.900;  213.525;    0.000
1003.576; 2230.900;  202.525;    0.000
1003.738; 2290.900;  184.525;    0.000
1003.899; 2496.900;  218.525;    0.000
1004.061; 2582.900;  210.525;    0.000
1004.222; 2601.900;  179.525;    0.000
1004.384; 2716.900;  183.525;    0.000
1004.546; 2820.900;  206.525;    0.000
1004.707; 2815.900;  191.525;    0.000
1004.869; 2794.900;  197.525;    0.000
1005.030; 2768.900;  186.525;    0.000
1005.191; 2701.900;  188.525;    0.000
1005.353; 2589.900;  215.525;    0.000
1005.514; 2545.900;  184.525;    0.000
1005.675; 2372.900;  209.525;    0.000
1005.837; 2317.900;  239.525;    0.000
1005.998; 2326.900;  218.525;    0.000
1006.159; 2360.900;  212.525;    0.000
1006.321; 2342.900;  220.525;    0.000
1006.482; 2359.900;  201.525;    0.000
1006.643; 2548.900;  222.525;    0.000
1006.804; 2610.900;  191.525;    0.000
1006.965; 2707.900;  214.525;    0.000
1007.126; 2842.900;  214.525;    0.000
1007.287; 2745.900;  243.525;    0.000
1007.448; 2561.900;  251.525;    0.000
1007.609; 2598.900;  244.525;    0.000
1007.770; 2521.900;  211.525;    0.000
1007.931; 2558.900;  225.525;    0.000
1008.092; 2620.900;  188.525;    0.000
1008.253; 2628.900;  224.525;    0.000
1008.414; 2664.900;  198.525;    0.000
1008.575; 2786.900;  244.525;    0.000
1008.736; 2820.900;  219.525;    0.000
1008.896; 2669.900;  206.525;    0.000
1009.057; 2691.900;  258.525;    0.000
1009.218; 2591.900;  209.525;    0.000
1009.379; 2650.900;  204.525;    0.000
1009.539; 2765.900;  242.525;    0.000
1009.700; 2846.900;  205.525;    0.000
1009.860; 2813.900;  211.525;    0.000
1010.021; 2879.900;  219.525;    0.000
1010.182; 2802.900;  206.525;    0.000
1010.342; 2794.900;  219.525;    0.000
1010.503; 2842.900;  231.525;    0.000
1010.663; 3096.900;  260.525;    0.000
1010.823; 3081.900;  200.525;    0.000
1010.984; 3072.900;  189.525;    0.000
1011.144; 3150.900;  234.525;    0.000
1011.305; 3234.900;  212.525;    0.000
1011.465; 3369.900;  202.525;    0.000
1011.625; 3540.900;  236.525;    0.000
1011.785; 3483.900;  203.525;    0.000
1011.946; 3412.900;  195.525;    0.000
1012.106; 3580.900;  176.525;    0.000
1012.266; 3498.900;  211.525;    0.000
1012.426; 3435.900;  244.525;    0.000
1012.586; 3379.900;  202.525;    0.000
1012.746; 3409.900;  234.525;    0.000
1012.906; 3397.900;  246.525;    0.000
1013.066; 3428.900;  232.525;    0.000
1013.226; 3359.900;  248.525;    0.000
1013.386; 3337.900;  231.525;    0.000
1013.546; 3256.900;  233.525;    0.000
1013.706; 3270.900;  211.525;    0.000
1013.866; 3309.900;  240.525;    0.000
1014.026; 3279.900;  188.525;    0.000
1014.186; 3192.900;  186.525;    0.000
1014.346; 3317.900;  203.525;    0.000
1014.505; 3392.900;  238.525;    0.000
1014.665; 3404.900;  206.525;    0.000
1014.825; 3281.900;  200.525;    0.000
1014.985; 3235.900;  215.525;    0.000
1015.144; 3428.900;  250.525;    0.000
1015.304; 3719.900;  195.525;    0.000
1015.464; 3603.900;  237.525;    0.000
1015.623; 3470.900;  232.525;    0.000
1015.783; 3859.900;  220.525;    0.000
1015.942; 4165.900;  219.525;    0.000
1016.102; 3945.900;  202.525;    0.000
1016.261; 3745.900;  225.525;    0.000
1016.420; 4168.900;  246.525;    0.000
1016.580; 4657.900;  226.525;    0.000
1016.739; 4520.900;  214.525;    0.000
1016.899; 4206.900;  205.525;    0.000
1017.058; 4402.900;  217.525;    0.000
1017.217; 4859.900;  199.525;    0.000
1017.376; 4570.900;  219.525;    0.000
1017.536; 4021.900;  209.525;    0.000
1017.695; 4108.900;  213.525;    0.000
1017.854; 4262.900;  187.525;    0.000
1018.013; 4241.900;  222.525;    0.000
1018.172; 3866.900;  204.525;    0.000
1018.331; 3886.900;  195.525;    0.000
1018.490; 4221.900;  213.525;    0.000
1018.649; 4506.900;  216.525;    0.000
1018.808; 4492.900;  227.525;    0.000
1018.967; 4446.900;  206.525;    0.000
1019.126; 4384.900;  206.525;    0.000
1019.285; 4622.900;  219.525;    0.000
1019.444; 4528.900;  218.525;    0.000
1019.603; 4361.900;  206.525;    0.000
1019.762; 4156.900;  189.525;    0.000
1019.921; 4183.900;  217.525;    0.000
1020.079; 4466.900;  200.525;    0.000
1020.238; 4819.900;  219.525;    0.000
1020.397; 4696.900;  227.525;    0.000
1020.555; 4321.900;  207.525;    0.000
1020.714; 4389.900;  253.525;    0.000
1020.873; 4774.900;  230.525;    0.000
1021.031; 4865.900;  232.525;    0.000
1021.190; 4509.900;  226.525;    0.000
1021.348; 4390.900;  224.525;    0.000
1021.507; 4634.900;  215.525;    0.000
1021.665; 5044.900;  233.525;    0.000
1021.824; 4798.900;  196.525;    0.000
1021.982; 4390.900;  215.525;    0.000
1022.141; 4378.900;  200.525;    0.000
1022.299; 4924.900;  200.525;    0.000
1022.457; 5257.900;  179.525;    0.000
1022.616; 4868.900;  226.525;    0.000
1022.774; 4404.900;  216.525;    0.000
1022.932; 4596.900;  212.525;    0.000
1023.090; 5111.900;  220.525;    0.000
1023.249; 5244.900;  194.525;    0.000
1023.407; 4913.900;  227.525;    0.000
1023.565; 4389.900;  190.525;    0.000
1023.723; 4601.900;  190.525;    0.000
1023.881; 5217.900;  214.525;    0.000
1024.039; 5333.900;  179.525;    0.000
1024.197; 4884.900;  274.525;    0.000
1024.355; 4704.900;  269.525;    0.000
1024.513; 4758.900;  259.525;    0.000
1024.671; 5406.900;  211.525;    0.000
1024.829; 5434.900;  230.525;    0.000
1024.987; 4945.900;  239.525;    0.000
1025.145; 4635.900;  231.525;    0.000
1025.302; 4834.900;  212.525;    0.000
1025.460; 5090.900;  224.525;    0.000
1025.618; 5464.900;  217.525;    0.000
1025.776; 5176.900;  232.525;    0.000
1025.933; 4741.900;  212.525;    0.000
1026.091; 4924.900;  214.525;    0.000
1026.249; 5302.900;  224.525;    0.000
1026.406; 5659.900;  219.525;    0.000
1026.564; 5421.900;  262.525;    0.000
1026.721; 5042.900;  206.525;    0.000
1026.879; 4887.900;  227.525;    0.000
1027.036; 5232.900;  234.525;    0.000
1027.194; 5515.900;  256.525;    0.000
1027.351; 5790.900;  229.525;    0.000
1027.509; 5254.900;  253.525;    0.000
1027.666; 4871.900;  248.525;    0.000
1027.823; 5327.900;  215.525;    0.000
1027.981; 5609.900;  248.525;    0.000
1028.138; 5788.900;  257.525;    0.000
1028.295; 5432.900;  215.525;    0.000
1028.452; 5009.900;  236.525;    0.000
1028.609; 5011.900;  240.525;    0.000
1028.767; 5590.900;  258.525;    0.000
1028.924; 5813.900;  211.525;    0.000
1029.081; 5769.900;  226.525;    0.000
1029.238; 5648.900;  228.525;    0.000
1029.395; 5173.900;  264.525;    0.000
1029.552; 5330.900;  227.525;    0.000
1029.709; 5832.900;  232.525;    0.000
1029.866; 5968.900;  223.525;    0.000
1030.023; 5979.900;  220.525;    0.000
1030.180; 5182.900;  222.525;    0.000
1030.337; 5198.900;  224.525;    0.000
1030.494; 5591.900;  228.525;    0.000
1030.650; 5987.900;  242.525;    0.000
1030.807; 6167.900;  214.525;    0.000
1030.964; 5644.900;  207.525;    0.000
1031.121; 5546.900;  236.525;    0.000
1031.277; 5339.900;  206.525;    0.000
1031.434; 5509.900;  249.525;    0.000
1031.591; 6173.900;  253.525;    0.000
1031.747; 6205.900;  240.525;    0.000
1031.904; 6098.900;  212.525;    0.000
1032.060; 5845.900;  185.525;    0.000
1032.217; 5664.900;  201.525;    0.000
1032.373; 6162.900;  207.525;    0.000
1032.530; 6408.900;  226.525;    0.000
1032.686; 7084.900;  226.525;    0.000
1032.843; 7138.900;  203.525;    0.000
1032.999; 6497.900;  233.525;    0.000
1033.155; 6926.900;  232.525;    0.000
1033.312; 6635.900;  239.525;    0.000
1033.468; 7723.900;  207.525;    0.000
1033.624; 8172.900;  238.525;    0.000
1033.780; 8792.900;  255.525;    0.000
1033.937; 8686.900;  188.525;    0.000
1034.093; 8119.900;  244.525;    0.000
1034.249; 8219.900;  182.525;    0.000
1034.405; 8157.900;  251.525;    0.000
1034.561; 8531.900;  250.525;    0.000
1034.717; 9438.900;  208.525;    0.000
1034.873; 9007.900;  210.525;    0.000
1035.029; 9461.900;  245.525;    0.000
1035.185; 8852.900;  230.525;    0.000
1035.341; 8713.900;  209.525;    0.000
1035.497; 9490.900;  244.525;    0.000
1035.653; 9427.900;  229.525;    0.000
1035.809;10410.900;  275.525;    0.000
1035.964;10975.900;  203.525;    0.000
1036.120;10214.900;  215.525;    0.000
1036.276;10430.900;  228.525;    0.000
1036.432;10111.900;  183.525;    0.000
1036.587; 9528.900;  214.525;    0.000
1036.743;10231.900;  240.525;    0.000
1036.899;11052.900;  202.525;    0.000
1037.054;11000.900;  182.525;    0.000
1037.210;12537.900;  228.525;    0.000
1037.365;12295.900;  239.525;    0.000
1037.521;11537.900;  230.525;    0.000
1037.676;11493.900;  217.525;    0.000
1037.832;10861.900;  235.525;    0.000
1037.987;10742.900;  210.525;    0.000
1038.143;11267.900;  206.525;    0.000
1038.298;12392.900;  177.525;    0.000
1038.453;12180.900;  215.525;    0.000
1038.609;13528.900;  210.525;    0.000
1038.764;13908.900;  227.525;    0.000
1038.919;13149.900;  197.525;    0.000
1039.074;12785.900;  183.525;    0.000
1039.229;11729.900;  218.525;    0.000
1039.385;11619.900;  251.525;    0.000
1039.540;11991.900;  222.525;    0.000
1039.695;13390.900;  215.525;    0.000
1039.850;14022.900;  204.525;    0.000
1040.005;15208.900;  241.525;    0.000
1040.160;15847.900;  180.525;    0.000
1040.315;15345.900;  197.525;    0.000
1040.470;14926.900;  180.525;    0.000
1040.625;13840.900;  196.525;    0.000
1040.780;14097.900;  245.525;    0.000
1040.935;13427.900;  204.525;    0.000
1041.089;14278.900;  213.525;    0.000
1041.244;16396.900;  200.525;    0.000
1041.399;16773.900;  212.525;    0.000
1041.554;18576.900;  239.525;    0.000
1041.708;19911.900;  238.525;    0.000
1041.863;19392.900;  213.525;    0.000
1042.018;18485.900;  236.525;    0.000
1042.172;17942.900;  238.525;    0.000
1042.327;16879.900;  254.525;    0.000
1042.481;17811.900;  197.525;    0.000
1042.636;17595.900;  205.525;    0.000
1042.791;18068.900;  218.525;    0.000
1042.945;21404.900;  261.525;    0.000
1043.099;23501.900;  201.525;    0.000
1043.254;22755.900;  191.525;    0.000
1043.408;24249.900;  279.525;    0.000
1043.563;24971.900;  203.525;    0.000
1043.717;23941.900;  229.525;    0.000
1043.871;21904.900;  213.525;    0.000
1044.025;21285.900;  240.525;    0.000
1044.180;21170.900;  220.525;    0.000
1044.334;21387.900;  268.525;    0.000
1044.488;21824.900;  261.525;    0.000
1044.642;22875.900;  205.525;    0.000
1044.796;25704.900;  240.525;    0.000
1044.950;29368.900;  258.525;    0.000
1045.104;32705.900;  218.525;    0.000
1045.258;31535.900;  213.525;    0.000
1045.412;30411.900;  223.525;    0.000
1045.566;30075.900;  240.525;    0.000
1045.720;27993.900;  235.525;    0.000
1045.874;26260.900;  221.525;    0.000
1046.028;25503.900;  247.525;    0.000
1046.182;24409.900;  200.525;    0.000
1046.336;25997.900;  220.525;    0.000
1046.489;27320.900;  228.525;    0.000
1046.643;27681.900;  249.525;    0.000
1046.797;29883.900;  230.525;    0.000
1046.951;30632.900;  234.525;    0.000
1047.104;31276.900;  262.525;    0.000
1047.258;33751.898;  210.525;    0.000
1047.411;37100.898;  235.525;    0.000
1047.565;33957.898;  237.525;    0.000
1047.719;33013.898;  237.525;    0.000
1047.872;31271.900;  225.525;    0.000
1048.026;30099.900;  237.525;    0.000
1048.179;31193.900;  220.525;    0.000
1048.332;30538.900;  219.525;    0.000
1048.486;29312.900;  195.525;    0.000
1048.639;30013.900;  213.525;    0.000
1048.792;30885.900;  245.525;    0.000
1048.946;33804.898;  234.525;    0.000
1049.099;35436.898;  226.525;    0.000
1049.252;36705.898;  282.525;    0.000
1049.406;33062.898;  255.525;    0.000
1049.559;35318.898;  223.525;    0.000
1049.712;41143.898;  253.525;    0.000
1049.865;43277.898;  271.525;    0.000
1050.018;41426.898;  241.525;    0.000
1050.171;37860.898;  202.525;    0.000
1050.324;36902.898;  250.525;    0.000
1050.477;38387.898;  251.525;    0.000
1050.630;40378.898;  216.525;    0.000
1050.783;41030.898;  205.525;    0.000
1050.936;39387.898;  219.525;    0.000
1051.089;37328.898;  247.525;    0.000
1051.242;37673.898;  238.525;    0.000
1051.394;43356.898;  252.525;    0.000
1051.547;44954.898;  245.525;    0.000
1051.700;41075.898;  206.525;    0.000
1051.853;39861.898;  270.525;    0.000
1052.005;41806.898;  245.525;    0.000
1052.158;46169.898;  290.525;    0.000
1052.311;52050.898;  237.525;    0.000
1052.463;49291.898;  271.525;    0.000
1052.616;44078.898;  255.525;    0.000
1052.768;39908.898;  257.525;    0.000
1052.921;36800.898;  289.525;    0.000
1053.073;41136.898;  287.525;    0.000
1053.226;47793.898;  268.525;    0.000
1053.378;53522.898;  294.525;    0.000
1053.531;56233.898;  255.525;    0.000
1053.683;53993.898;  293.525;    0.000
1053.835;46283.898;  274.525;    0.000
1053.988;34840.898;  282.525;    0.000
1054.140; 6338.900;  291.525;    0.000
1054.292; 1566.900;  292.525;    0.000
1054.444; 1240.900;  299.525;    0.000
1054.596; 1049.900;  319.525;    0.000
1054.749;  981.900;  295.525;    0.000
1054.901;  944.900;  266.525;    0.000
1055.053;  884.900;  300.525;    0.000
1055.205;  819.900;  290.525;    0.000
1055.357;  814.900;  304.525;    0.000
1055.509;  788.900;  292.525;    0.000
1055.661;  773.900;  339.525;    0.000
1055.813;  739.900;  306.525;    0.000
1055.965;  685.900;  293.525;    0.000
1056.116;  724.900;  300.525;    0.000
1056.268;  681.900;  306.525;    0.000
1056.420;  740.900;  288.525;    0.000

