
Integration time [ms]:   0.300
Averaging Nr. [scans]: 1
Smoothing Nr. [pixels]: 0
Data measured with spectrometer [name]: UV1
Wave   ;Sample   ;Dark     ;Reference
[nm]   ;[counts] ;[counts] ;[counts] 

236.381;  135.575;  160.350;    0.000
236.451;  190.575;  198.350;    0.000
236.520;  160.575;  179.350;    0.000
236.590;  195.575;  205.350;    0.000
236.660;  170.575;  199.350;    0.000
236.730;  196.575;  178.350;    0.000
236.799;  196.575;  201.350;    0.000
236.869;  175.575;  197.350;    0.000
236.939;  162.575;  180.350;    0.000
237.009;  206.575;  165.350;    0.000
237.078;  179.575;  191.350;    0.000
237.148;  181.575;  146.350;    0.000
237.218;  158.575;  142.350;    0.000
237.287;  198.575;  190.350;    0.000
237.357;  140.575;  182.350;    0.000
237.427;  170.575;  139.350;    0.000
237.496; 1139.575;  221.350;    0.000
237.566; 1052.575;  183.350;    0.000
237.636; 1048.575;  157.350;    0.000
237.705; 1123.575;  189.350;    0.000
237.775; 1048.575;  169.350;    0.000
237.845; 1024.575;  156.350;    0.000
237.914; 1093.575;  185.350;    0.000
237.984; 1111.575;  194.350;    0.000
238.054; 1026.575;  138.350;    0.000
238.123; 1093.575;  166.350;    0.000
238.193; 1077.575;  174.350;    0.000
238.263; 1085.575;  158.350;    0.000
238.332; 1070.575;  167.350;    0.000
238.402; 1056.575;  173.350;    0.000
238.471;  979.575;  153.350;    0.000
238.541; 1071.575;  167.350;    0.000
238.611; 1109.575;  165.350;    0.000
238.680; 1014.575;  157.350;    0.000
238.750; 1069.575;  152.350;    0.000
238.819; 1084.575;  190.350;    0.000
238.889; 1020.575;  151.350;    0.000
238.958; 1081.575;  166.350;    0.000
239.028; 1064.575;  180.350;    0.000
239.097; 1061.575;  170.350;    0.000
239.167; 1099.575;  177.350;    0.000
239.237; 1085.575;  195.350;    0.000
239.306; 1049.575;  145.350;    0.000
239.376; 1005.575;  158.350;    0.000
239.445; 1107.575;  187.350;    0.000
239.515;  990.575;  160.350;    0.000
239.584; 1071.575;  173.350;    0.000
239.654; 1029.575;  184.350;    0.000
239.723; 1067.575;  195.350;    0.000
239.793;  970.575;  183.350;    0.000
239.862; 1074.575;  190.350;    0.000
239.932; 1012.575;  168.350;    0.000
240.001; 1043.575;  164.350;    0.000
240.070; 1016.575;  183.350;    0.000
240.140; 1048.575;  175.350;    0.000
240.209; 1032.575;  135.350;    0.000
240.279; 1079.575;  176.350;    0.000
240.348; 1060.575;  184.350;    0.000
240.418; 1023.575;  157.350;    0.000
240.487; 1009.575;  189.350;    0.000
240.556; 1013.575;  157.350;    0.000
240.626; 1064.575;  174.350;    0.000
240.695; 1027.575;  180.350;    0.000
240.765; 1044.575;  152.350;    0.000
240.834; 1061.575;  136.350;    0.000
240.903; 1071.575;  196.350;    0.000
240.973; 1011.575;  183.350;    0.000
241.042; 1018.575;  150.350;    0.000
241.112; 1019.575;  168.350;    0.000
241.181; 1055.575;  152.350;    0.000
241.250; 1008.575;  132.350;    0.000
241.320; 1012.575;  209.350;    0.000
241.389; 1058.575;  169.350;    0.000
241.458; 1058.575;  204.350;    0.000
241.528; 1012.575;  176.350;    0.000
241.597; 1027.575;  170.350;    0.000
241.666; 1025.575;  168.350;    0.000
241.736; 1014.575;  172.350;    0.000
241.805; 1026.575;  160.350;    0.000
241.874; 1013.575;  176.350;    0.000
241.943;  998.575;  165.350;    0.000
242.013; 1007.575;  206.350;    0.000
242.082; 1008.575;  162.350;    0.000
242.151;  958.575;  180.350;    0.000
242.221;  991.575;  154.350;    0.000
242.290; 1012.575;  122.350;    0.000
242.359;  980.575;  121.350;    0.000
242.428;  993.575;  187.350;    0.000
242.498;  982.575;  140.350;    0.000
242.567;  990.575;  173.350;    0.000
242.636; 1065.575;  155.350;    0.000
242.705; 1021.575;  108.350;    0.000
242.774;  995.575;  145.350;    0.000
242.844;  982.575;  162.350;    0.000
242.913; 1032.575;  178.350;    0.000
242.982;  987.575;  163.350;    0.000
243.051;  965.575;  138.350;    0.000
243.120; 1020.575;  172.350;    0.000
243.190;  966.575;  155.350;    0.000
243.259; 1019.575;  159.350;    0.000
243.328;  952.575;  173.350;    0.000
243.397;  969.575;  175.350;    0.000
243.466;  945.575;  170.350;    0.000
243.535;  980.575;  161.350;    0.000
243.605;  936.575;  149.350;    0.000
243.674;  949.575;  162.350;    0.000
243.743; 1057.575;  175.350;    0.000
243.812;  961.575;  159.350;    0.000
243.881;  975.575;  158.350;    0.000
243.950;  963.575;  154.350;    0.000
244.019;  975.575;  185.350;    0.000
244.088;  995.575;  175.350;    0.000
244.158; 1045.575;  167.350;    0.000
244.227;  958.575;  159.350;    0.000
244.296;  976.575;  143.350;    0.000
244.365; 1006.575;  182.350;    0.000
244.434;  936.575;  117.350;    0.000
244.503;  993.575;  109.350;    0.000
244.572;  946.575;  147.350;    0.000
244.641; 1001.575;  129.350;    0.000
244.710;  988.575;  159.350;    0.000
244.779;  935.575;  166.350;    0.000
244.848;  981.575;  122.350;    0.000
244.917;  994.575;  167.350;    0.000
244.986;  959.575;  158.350;    0.000
245.055;  989.575;  175.350;    0.000
245.124;  976.575;  153.350;    0.000
245.193;  933.575;  155.350;    0.000
245.262;  932.575;  137.350;    0.000
245.331;  880.575;  145.350;    0.000
245.400;  899.575;  107.350;    0.000
245.469;  911.575;  162.350;    0.000
245.538;  931.575;  165.350;    0.000
245.607;  889.575;  178.350;    0.000
245.676;  863.575;  166.350;    0.000
245.745;  900.575;  169.350;    0.000
245.814;  902.575;  155.350;    0.000
245.883;  914.575;  186.350;    0.000
245.952;  895.575;  165.350;    0.000
246.021;  872.575;  169.350;    0.000
246.090;  905.575;  170.350;    0.000
246.159;  856.575;  155.350;    0.000
246.227;  836.575;  161.350;    0.000
246.296;  844.575;  142.350;    0.000
246.365;  865.575;  160.350;    0.000
246.434;  935.575;  199.350;    0.000
246.503;  889.575;  155.350;    0.000
246.572;  881.575;  206.350;    0.000
246.641;  875.575;  177.350;    0.000
246.710;  883.575;  178.350;    0.000
246.779;  892.575;  193.350;    0.000
246.847;  853.575;  147.350;    0.000
246.916;  871.575;  131.350;    0.000
246.985;  866.575;  168.350;    0.000
247.054;  838.575;  143.350;    0.000
247.123;  807.575;  130.350;    0.000
247.192;  857.575;  175.350;    0.000
247.260;  910.575;  171.350;    0.000
247.329;  858.575;  162.350;    0.000
247.398;  852.575;  163.350;    0.000
247.467;  830.575;  155.350;    0.000
247.536;  867.575;  149.350;    0.000
247.604;  874.575;  191.350;    0.000
247.673;  858.575;  193.350;    0.000
247.742;  801.575;  159.350;    0.000
247.811;  800.575;  167.350;    0.000
247.879;  848.575;  176.350;    0.000
247.948;  826.575;  157.350;    0.000
248.017;  804.575;  150.350;    0.000
248.086;  853.575;  153.350;    0.000
248.154;  853.575;  157.350;    0.000
248.223;  843.575;  198.350;    0.000
248.292;  804.575;  188.350;    0.000
248.361;  851.575;  157.350;    0.000
248.429;  813.575;  138.350;    0.000
248.498;  851.575;  166.350;    0.000
248.567;  870.575;  179.350;    0.000
248.635;  837.575;  210.350;    0.000
248.704;  858.575;  168.350;    0.000
248.773;  829.575;  147.350;    0.000
248.841;  828.575;  155.350;    0.000
248.910;  832.575;  183.350;    0.000
248.979;  789.575;  171.350;    0.000
249.047;  784.575;  152.350;    0.000
249.116;  835.575;  155.350;    0.000
249.185;  853.575;  217.350;    0.000
249.253;  811.575;  149.350;    0.000
249.322;  779.575;  167.350;    0.000
249.390;  743.575;  182.350;    0.000
249.459;  834.575;  173.350;    0.000
249.528;  833.575;  162.350;    0.000
249.596;  792.575;  162.350;    0.000
249.665;  782.575;  163.350;    0.000
249.733;  806.575;  147.350;    0.000
249.802;  796.575;  170.350;    0.000
249.871;  771.575;  179.350;    0.000
249.939;  815.575;  179.350;    0.000
250.008;  814.575;  201.350;    0.000
250.076;  864.575;  189.350;    0.000
250.145;  785.575;  171.350;    0.000
250.213;  764.575;  161.350;    0.000
250.282;  766.575;  171.350;    0.000
250.350;  764.575;  138.350;    0.000
250.419;  791.575;  172.350;    0.000
250.487;  813.575;  207.350;    0.000
250.556;  793.575;  160.350;    0.000
250.624;  774.575;  187.350;    0.000
250.693;  765.575;  141.350;    0.000
250.761;  798.575;  182.350;    0.000
250.830;  833.575;  203.350;    0.000
250.898;  775.575;  160.350;    0.000
250.967;  792.575;  143.350;    0.000
251.035;  723.575;  142.350;    0.000
251.104;  762.575;  159.350;    0.000
251.172;  725.575;  189.350;    0.000
251.241;  738.575;  134.350;    0.000
251.309;  781.575;  179.350;    0.000
251.378;  780.575;  203.350;    0.000
251.446;  752.575;  151.350;    0.000
251.514;  759.575;  176.350;    0.000
251.583;  786.575;  173.350;    0.000
251.651;  691.575;  163.350;    0.000
251.720;  783.575;  151.350;    0.000
251.788;  787.575;  205.350;    0.000
251.856;  712.575;  126.350;    0.000
251.925;  706.575;  118.350;    0.000
251.993;  770.575;  139.350;    0.000
252.062;  768.575;  161.350;    0.000
252.130;  760.575;  180.350;    0.000
252.198;  745.575;  141.350;    0.000
252.267;  778.575;  145.350;    0.000
252.335;  738.575;  159.350;    0.000
252.403;  723.575;  158.350;    0.000
252.472;  695.575;  142.350;    0.000
252.540;  779.575;  162.350;    0.000
252.608;  752.575;  180.350;    0.000
252.677;  680.575;  137.350;    0.000
252.745;  672.575;  183.350;    0.000
252.813;  710.575;  151.350;    0.000
252.881;  712.575;  109.350;    0.000
252.950;  695.575;  174.350;    0.000
253.018;  711.575;  136.350;    0.000
253.086;  687.575;  149.350;    0.000
253.155;  638.575;  127.350;    0.000
253.223;  601.575;  156.350;    0.000
253.291;  664.575;  163.350;    0.000
253.359;  686.575;  174.350;    0.000
253.428;  624.575;  174.350;    0.000
253.496;  592.575;  161.350;    0.000
253.564;  561.575;  128.350;    0.000
253.632;  623.575;  153.350;    0.000
253.700;  610.575;  185.350;    0.000
253.769;  603.575;  163.350;    0.000
253.837;  575.575;  176.350;    0.000
253.905;  607.575;  164.350;    0.000
253.973;  564.575;  156.350;    0.000
254.041;  600.575;  154.350;    0.000
254.110;  602.575;  165.350;    0.000
254.178;  554.575;  148.350;    0.000
254.246;  550.575;  138.350;    0.000
254.314;  619.575;  164.350;    0.000
254.382;  629.575;  167.350;    0.000
254.450;  606.575;  134.350;    0.000
254.518;  600.575;  192.350;    0.000
254.587;  538.575;  139.350;    0.000
254.655;  572.575;  162.350;    0.000
254.723;  595.575;  131.350;    0.000
254.791;  650.575;  181.350;    0.000
254.859;  621.575;  146.350;    0.000
254.927;  592.575;  189.350;    0.000
254.995;  589.575;  141.350;    0.000
255.063;  598.575;  181.350;    0.000
255.131;  598.575;  156.350;    0.000
255.199;  607.575;  175.350;    0.000
255.267;  615.575;  120.350;    0.000
255.336;  617.575;  186.350;    0.000
255.404;  612.575;  134.350;    0.000
255.472;  614.575;  172.350;    0.000
255.540;  610.575;  157.350;    0.000
255.608;  636.575;  186.350;    0.000
255.676;  635.575;  155.350;    0.000
255.744;  631.575;  143.350;    0.000
255.812;  656.575;  134.350;    0.000
255.880;  686.575;  188.350;    0.000
255.948;  661.575;  163.350;    0.000
256.016;  634.575;  175.350;    0.000
256.084;  674.575;  191.350;    0.000
256.152;  647.575;  187.350;    0.000
256.220;  666.575;  152.350;    0.000
256.288;  673.575;  141.350;    0.000
256.356;  668.575;  139.350;    0.000
256.424;  662.575;  121.350;    0.000
256.491;  666.575;  139.350;    0.000
256.559;  686.575;  144.350;    0.000
256.627;  731.575;  158.350;    0.000
256.695;  647.575;  121.350;    0.000
256.763;  748.575;  150.350;    0.000
256.831;  762.575;  181.350;    0.000
256.899;  702.575;  146.350;    0.000
256.967;  680.575;   71.350;    0.000
257.035;  750.575;  164.350;    0.000
257.103;  761.575;  191.350;    0.000
257.171;  724.575;  140.350;    0.000
257.238;  744.575;  165.350;    0.000
257.306;  765.575;  127.350;    0.000
257.374;  728.575;  120.350;    0.000
257.442;  747.575;  139.350;    0.000
257.510;  791.575;  158.350;    0.000
257.578;  749.575;  164.350;    0.000
257.646;  807.575;  151.350;    0.000
257.713;  833.575;  136.350;    0.000
257.781;  822.575;  137.350;    0.000
257.849;  838.575;  151.350;    0.000
257.917;  841.575;  154.350;    0.000
257.985;  814.575;  113.350;    0.000
258.052;  851.575;  140.350;    0.000
258.120;  836.575;  176.350;    0.000
258.188;  828.575;  157.350;    0.000
258.256;  903.575;  153.350;    0.000
258.324;  932.575;  184.350;    0.000
258.391;  876.575;  144.350;    0.000
258.459;  929.575;  162.350;    0.000
258.527;  953.575;  154.350;    0.000
258.595;  878.575;  122.350;    0.000
258.662;  901.575;  164.350;    0.000
258.730;  991.575;  114.350;    0.000
258.798;  969.575;  131.350;    0.000
258.865;  973.575;  171.350;    0.000
258.933; 1022.575;  145.350;    0.000
259.001;  971.575;  150.350;    0.000
259.069; 1016.575;  123.350;    0.000
259.136; 1001.575;  139.350;    0.000
259.204; 1003.575;  165.350;    0.000
259.272; 1038.575;  114.350;    0.000
259.339; 1024.575;  179.350;    0.000
259.407; 1121.575;  153.350;    0.000
259.475; 1009.575;  143.350;    0.000
259.542; 1132.575;  136.350;    0.000
259.610; 1128.575;  133.350;    0.000
259.677; 1127.575;  159.350;    0.000
259.745; 1117.575;  130.350;    0.000
259.813; 1129.575;  175.350;    0.000
259.880; 1169.575;  158.350;    0.000
259.948; 1211.575;  124.350;    0.000
260.016; 1216.575;  105.350;    0.000
260.083; 1163.575;  169.350;    0.000
260.151; 1181.575;  133.350;    0.000
260.218; 1207.575;  143.350;    0.000
260.286; 1246.575;  134.350;    0.000
260.353; 1197.575;  160.350;    0.000
260.421; 1300.575;  128.350;    0.000
260.489; 1303.575;  150.350;    0.000
260.556; 1352.575;  179.350;    0.000
260.624; 1274.575;  113.350;    0.000
260.691; 1281.575;  128.350;    0.000
260.759; 1279.575;  146.350;    0.000
260.826; 1280.575;  111.350;    0.000
260.894; 1335.575;  115.350;    0.000
260.961; 1346.575;  138.350;    0.000
261.029; 1433.575;  152.350;    0.000
261.096; 1416.575;  175.350;    0.000
261.164; 1427.575;  131.350;    0.000
261.231; 1412.575;  141.350;    0.000
261.299; 1376.575;  125.350;    0.000
261.366; 1383.575;  142.350;    0.000
261.434; 1439.575;  133.350;    0.000
261.501; 1392.575;  137.350;    0.000
261.568; 1499.575;  184.350;    0.000
261.636; 1459.575;  138.350;    0.000
261.703; 1526.575;  161.350;    0.000
261.771; 1504.575;  160.350;    0.000
261.838; 1573.575;  178.350;    0.000
261.906; 1482.575;  128.350;    0.000
261.973; 1540.575;  139.350;    0.000
262.040; 1524.575;  148.350;    0.000
262.108; 1583.575;  130.350;    0.000
262.175; 1463.575;  117.350;    0.000
262.243; 1610.575;  174.350;    0.000
262.310; 1655.575;  145.350;    0.000
262.377; 1551.575;  108.350;    0.000
262.445; 1656.575;  147.350;    0.000
262.512; 1684.575;  124.350;    0.000
262.579; 1670.575;  127.350;    0.000
262.647; 1684.575;  166.350;    0.000
262.714; 1688.575;  150.350;    0.000
262.781; 1713.575;  121.350;    0.000
262.849; 1685.575;  126.350;    0.000
262.916; 1746.575;  119.350;    0.000
262.983; 1769.575;  155.350;    0.000
263.051; 1825.575;  137.350;    0.000
263.118; 1741.575;  160.350;    0.000
263.185; 1819.575;  151.350;    0.000
263.252; 1826.575;  167.350;    0.000
263.320; 1755.575;  123.350;    0.000
263.387; 1853.575;  134.350;    0.000
263.454; 1777.575;  144.350;    0.000
263.522; 1764.575;  153.350;    0.000
263.589; 1908.575;  161.350;    0.000
263.656; 1922.575;  117.350;    0.000
263.723; 1863.575;  101.350;    0.000
263.790; 1873.575;  128.350;    0.000
263.858; 1993.575;  142.350;    0.000
263.925; 1923.575;  182.350;    0.000
263.992; 1914.575;  146.350;    0.000
264.059; 1984.575;  132.350;    0.000
264.126; 1937.575;  154.350;    0.000
264.194; 1985.575;  153.350;    0.000
264.261; 1990.575;  157.350;    0.000
264.328; 2020.575;  171.350;    0.000
264.395; 1991.575;  166.350;    0.000
264.462; 2037.575;  165.350;    0.000
264.529; 2093.575;  124.350;    0.000
264.597; 2018.575;  120.350;    0.000
264.664; 2019.575;  159.350;    0.000
264.731; 2058.575;  145.350;    0.000
264.798; 2079.575;  100.350;    0.000
264.865; 2071.575;  166.350;    0.000
264.932; 2098.575;  132.350;    0.000
264.999; 2086.575;  137.350;    0.000
265.066; 2036.575;  124.350;    0.000
265.133; 2214.575;  162.350;    0.000
265.201; 2106.575;  163.350;    0.000
265.268; 2156.575;  174.350;    0.000
265.335; 2178.575;  132.350;    0.000
265.402; 2221.575;  116.350;    0.000
265.469; 2198.575;  121.350;    0.000
265.536; 2192.575;  157.350;    0.000
265.603; 2315.575;  151.350;    0.000
265.670; 2234.575;  164.350;    0.000
265.737; 2223.575;  142.350;    0.000
265.804; 2192.575;  146.350;    0.000
265.871; 2283.575;  168.350;    0.000
265.938; 2346.575;  131.350;    0.000
266.005; 2336.575;  208.350;    0.000
266.072; 2260.575;  125.350;    0.000
266.139; 2327.575;  161.350;    0.000
266.206; 2342.575;  134.350;    0.000
266.273; 2360.575;  155.350;    0.000
266.340; 2385.575;  122.350;    0.000
266.407; 2349.575;  134.350;    0.000
266.474; 2332.575;  126.350;    0.000
266.541; 2370.575;  153.350;    0.000
266.608; 2289.575;  129.350;    0.000
266.675; 2325.575;  185.350;    0.000
266.742; 2373.575;  153.350;    0.000
266.808; 2449.575;  169.350;    0.000
266.875; 2506.575;  156.350;    0.000
266.942; 2375.575;  172.350;    0.000
267.009; 2455.575;  150.350;    0.000
267.076; 2467.575;  184.350;    0.000
267.143; 2357.575;  170.350;    0.000
267.210; 2510.575;  132.350;    0.000
267.277; 2370.575;  146.350;    0.000
267.344; 2384.575;  159.350;    0.000
267.410; 2540.575;  174.350;    0.000
267.477; 2433.575;  169.350;    0.000
267.544; 2550.575;  130.350;    0.000
267.611; 2456.575;  169.350;    0.000
267.678; 2515.575;  197.350;    0.000
267.745; 2561.575;  185.350;    0.000
267.811; 2579.575;  160.350;    0.000
267.878; 2530.575;  143.350;    0.000
267.945; 2477.575;  126.350;    0.000
268.012; 2426.575;  172.350;    0.000
268.079; 2533.575;  156.350;    0.000
268.145; 2508.575;  128.350;    0.000
268.212; 2394.575;  107.350;    0.000
268.279; 2577.575;  135.350;    0.000
268.346; 2550.575;  166.350;    0.000
268.412; 2471.575;  150.350;    0.000
268.479; 2551.575;  176.350;    0.000
268.546; 2524.575;  119.350;    0.000
268.613; 2603.575;  201.350;    0.000
268.679; 2488.575;  141.350;    0.000
268.746; 2512.575;  177.350;    0.000
268.813; 2532.575;  134.350;    0.000
268.879; 2471.575;  141.350;    0.000
268.946; 2538.575;  172.350;    0.000
269.013; 2559.575;  150.350;    0.000
269.079; 2413.575;  124.350;    0.000
269.146; 2567.575;  135.350;    0.000
269.213; 2530.575;  200.350;    0.000
269.280; 2426.575;  142.350;    0.000
269.346; 2476.575;  153.350;    0.000
269.413; 2457.575;  140.350;    0.000
269.479; 2568.575;  171.350;    0.000
269.546; 2510.575;  156.350;    0.000
269.613; 2496.575;  145.350;    0.000
269.679; 2477.575;  168.350;    0.000
269.746; 2497.575;  136.350;    0.000
269.813; 2439.575;  153.350;    0.000
269.879; 2504.575;  162.350;    0.000
269.946; 2571.575;  156.350;    0.000
270.012; 2471.575;  178.350;    0.000
270.079; 2445.575;  132.350;    0.000
270.145; 2542.575;  146.350;    0.000
270.212; 2473.575;  145.350;    0.000
270.279; 2466.575;  184.350;    0.000
270.345; 2390.575;  143.350;    0.000
270.412; 2551.575;  158.350;    0.000
270.478; 2462.575;  143.350;    0.000
270.545; 2395.575;  150.350;    0.000
270.611; 2480.575;  156.350;    0.000
270.678; 2356.575;  121.350;    0.000
270.744; 2426.575;  161.350;    0.000
270.811; 2418.575;  173.350;    0.000
270.877; 2494.575;  115.350;    0.000
270.944; 2363.575;  114.350;    0.000
271.010; 2363.575;  122.350;    0.000
271.077; 2388.575;  142.350;    0.000
271.143; 2580.575;  152.350;    0.000
271.210; 2386.575;  135.350;    0.000
271.276; 2418.575;  107.350;    0.000
271.342; 2360.575;  173.350;    0.000
271.409; 2443.575;  171.350;    0.000
271.475; 2469.575;  136.350;    0.000
271.542; 2364.575;  121.350;    0.000
271.608; 2392.575;  133.350;    0.000
271.675; 2343.575;  136.350;    0.000
271.741; 2574.575;  151.350;    0.000
271.807; 2317.575;  130.350;    0.000
271.874; 2459.575;  168.350;    0.000
271.940; 2473.575;  156.350;    0.000
272.007; 2452.575;  122.350;    0.000
272.073; 2422.575;  121.350;    0.000
272.139; 2395.575;  137.350;    0.000
272.206; 2436.575;  152.350;    0.000
272.272; 2447.575;  162.350;    0.000
272.338; 2455.575;  197.350;    0.000
272.405; 2452.575;  144.350;    0.000
272.471; 2376.575;  160.350;    0.000
272.537; 2491.575;  142.350;    0.000
272.604; 2466.575;  141.350;    0.000
272.670; 2420.575;  182.350;    0.000
272.736; 2491.575;  126.350;    0.000
272.802; 2417.575;  146.350;    0.000
272.869; 2412.575;  163.350;    0.000
272.935; 2466.575;  132.350;    0.000
273.001; 2477.575;  119.350;    0.000
273.068; 2430.575;  137.350;    0.000
273.134; 2523.575;  155.350;    0.000
273.200; 2471.575;  165.350;    0.000
273.266; 2428.575;  156.350;    0.000
273.333; 2509.575;  143.350;    0.000
273.399; 2414.575;  128.350;    0.000
273.465; 2500.575;  167.350;    0.000
273.531; 2552.575;  122.350;    0.000
273.597; 2459.575;  182.350;    0.000
273.664; 2497.575;  177.350;    0.000
273.730; 2516.575;  124.350;    0.000
273.796; 2457.575;  143.350;    0.000
273.862; 2585.575;  155.350;    0.000
273.928; 2454.575;  137.350;    0.000
273.995; 2537.575;  188.350;    0.000
274.061; 2567.575;  154.350;    0.000
274.127; 2581.575;  161.350;    0.000
274.193; 2537.575;   95.350;    0.000
274.259; 2546.575;  128.350;    0.000
274.325; 2541.575;  146.350;    0.000
274.391; 2488.575;  113.350;    0.000
274.457; 2529.575;  150.350;    0.000
274.524; 2587.575;  165.350;    0.000
274.590; 2608.575;  140.350;    0.000
274.656; 2655.575;  165.350;    0.000
274.722; 2611.575;  118.350;    0.000
274.788; 2551.575;  143.350;    0.000
274.854; 2672.575;  150.350;    0.000
274.920; 2601.575;   88.350;    0.000
274.986; 2592.575;  178.350;    0.000
275.052; 2676.575;  145.350;    0.000
275.118; 2604.575;  105.350;    0.000
275.184; 2705.575;  129.350;    0.000
275.250; 2727.575;  138.350;    0.000
275.316; 2761.575;  173.350;    0.000
275.382; 2607.575;  106.350;    0.000
275.448; 2769.575;  160.350;    0.000
275.514; 2695.575;  162.350;    0.000
275.580; 2722.575;  135.350;    0.000
275.646; 2765.575;  120.350;    0.000
275.712; 2872.575;  157.350;    0.000
275.778; 2785.575;  128.350;    0.000
275.844; 2908.575;  117.350;    0.000
275.910; 2886.575;  121.350;    0.000
275.976; 2987.575;  172.350;    0.000
276.042; 2841.575;  114.350;    0.000
276.108; 2995.575;  200.350;    0.000
276.174; 2945.575;  132.350;    0.000
276.240; 2970.575;  128.350;    0.000
276.306; 3102.575;  124.350;    0.000
276.372; 3187.575;  133.350;    0.000
276.437; 3090.575;  146.350;    0.000
276.503; 3169.575;  136.350;    0.000
276.569; 3328.575;  162.350;    0.000
276.635; 3260.575;  128.350;    0.000
276.701; 3378.575;  148.350;    0.000
276.767; 3284.575;  155.350;    0.000
276.833; 3435.575;  128.350;    0.000
276.899; 3515.575;  145.350;    0.000
276.964; 3567.575;  124.350;    0.000
277.030; 3648.575;  130.350;    0.000
277.096; 3745.575;  139.350;    0.000
277.162; 3762.575;  164.350;    0.000
277.228; 3858.575;  108.350;    0.000
277.293; 3956.575;  138.350;    0.000
277.359; 4071.575;  123.350;    0.000
277.425; 4343.575;  183.350;    0.000
277.491; 4496.575;  144.350;    0.000
277.557; 5432.575;  130.350;    0.000
277.622; 6979.575;  151.350;    0.000
277.688; 6846.575;  169.350;    0.000
277.754; 7092.575;  199.350;    0.000
277.820; 7615.575;  170.350;    0.000
277.885; 8993.575;  173.350;    0.000
277.951;11002.575;  187.350;    0.000
278.017; 9490.575;  152.350;    0.000
278.083; 8471.575;  137.350;    0.000
278.148; 8030.575;  147.350;    0.000
278.214; 8229.575;  162.350;    0.000
278.280; 8830.575;  171.350;    0.000
278.345; 7824.575;  174.350;    0.000
278.411; 7166.575;  152.350;    0.000
278.477; 7582.575;  173.350;    0.000
278.542; 8023.575;  161.350;    0.000
278.608; 8720.575;  155.350;    0.000
278.674; 9391.575;  169.350;    0.000
278.739;10156.575;  142.350;    0.000
278.805;11776.575;  164.350;    0.000
278.871;13952.575;  160.350;    0.000
278.936;17405.574;  121.350;    0.000
279.002;26062.574;  166.350;    0.000
279.067;34521.574;  199.350;    0.000
279.133;33623.574;  150.350;    0.000
279.199;30313.574;  154.350;    0.000
279.264;30913.574;  154.350;    0.000
279.330;36370.574;  159.350;    0.000
279.395;47831.574;  143.350;    0.000
279.461;61192.574;  173.350;    0.000
279.527;65301.574;  163.350;    0.000
279.592;63001.574;  167.350;    0.000
279.658;53574.574;  189.350;    0.000
279.723;52388.574;  153.350;    0.000
279.789;54539.574;  174.350;    0.000
279.854;48578.574;  129.350;    0.000
279.920;39529.574;  165.350;    0.000
279.985;35314.574;  152.350;    0.000
280.051;36279.574;  164.350;    0.000
280.116;43224.574;  187.350;    0.000
280.182;57154.574;  160.350;    0.000
280.247;64157.574;  124.350;    0.000
280.313;54754.574;  154.350;    0.000
280.378;38580.574;  152.350;    0.000
280.444;28055.574;  165.350;    0.000
280.509;22016.574;  164.350;    0.000
280.574;18447.574;  160.350;    0.000
280.640;16018.575;  167.350;    0.000
280.705;14145.575;  190.350;    0.000
280.771;12836.575;  154.350;    0.000
280.836;11979.575;  158.350;    0.000
280.902;11176.575;  124.350;    0.000
280.967;10184.575;  179.350;    0.000
281.032; 9803.575;  187.350;    0.000
281.098; 9291.575;  155.350;    0.000
281.163; 8782.575;  133.350;    0.000
281.229; 8383.575;  170.350;    0.000
281.294; 8053.575;  175.350;    0.000
281.359; 7588.575;  163.350;    0.000
281.425; 7604.575;  161.350;    0.000
281.490; 7236.575;  162.350;    0.000
281.555; 6964.575;  137.350;    0.000
281.621; 6861.575;  163.350;    0.000
281.686; 6599.575;  155.350;    0.000
281.751; 6467.575;  158.350;    0.000
281.816; 6075.575;  139.350;    0.000
281.882; 6135.575;  150.350;    0.000
281.947; 5899.575;  165.350;    0.000
282.012; 5758.575;  171.350;    0.000
282.078; 5676.575;  177.350;    0.000
282.143; 5652.575;  149.350;    0.000
282.208; 5470.575;  181.350;    0.000
282.273; 5472.575;  166.350;    0.000
282.339; 5172.575;  165.350;    0.000
282.404; 5325.575;  166.350;    0.000
282.469; 5237.575;  150.350;    0.000
282.534; 5222.575;  176.350;    0.000
282.600; 5047.575;  117.350;    0.000
282.665; 4961.575;  134.350;    0.000
282.730; 4971.575;  155.350;    0.000
282.795; 4827.575;  193.350;    0.000
282.860; 4718.575;  160.350;    0.000
282.926; 4764.575;  174.350;    0.000
282.991; 4769.575;  161.350;    0.000
283.056; 4772.575;  157.350;    0.000
283.121; 4750.575;  178.350;    0.000
283.186; 4682.575;  152.350;    0.000
283.251; 4703.575;  167.350;    0.000
283.316; 4601.575;  186.350;    0.000
283.382; 4561.575;  148.350;    0.000
283.447; 4620.575;  191.350;    0.000
283.512; 4406.575;  132.350;    0.000
283.577; 4446.575;  179.350;    0.000
283.642; 4541.575;  185.350;    0.000
283.707; 4437.575;  136.350;    0.000
283.772; 4377.575;  119.350;    0.000
283.837; 4398.575;  136.350;    0.000
283.902; 4408.575;  135.350;    0.000
283.967; 4447.575;  146.350;    0.000
284.032; 4551.575;  140.350;    0.000
284.097; 4449.575;  199.350;    0.000
284.163; 4464.575;  144.350;    0.000
284.228; 4573.575;  183.350;    0.000
284.293; 4502.575;  141.350;    0.000
284.358; 4782.575;  146.350;    0.000
284.423; 4611.575;  127.350;    0.000
284.488; 4683.575;  186.350;    0.000
284.553; 4907.575;  155.350;    0.000
284.618; 4934.575;  118.350;    0.000
284.683; 5146.575;  145.350;    0.000
284.748; 5354.575;  139.350;    0.000
284.812; 5746.575;  147.350;    0.000
284.877; 6078.575;  123.350;    0.000
284.942; 6878.575;  153.350;    0.000
285.007; 8214.575;  168.350;    0.000
285.072;11056.575;  181.350;    0.000
285.137;16878.574;  147.350;    0.000
285.202;21594.574;  175.350;    0.000
285.267;18706.574;  182.350;    0.000
285.332;12888.575;  136.350;    0.000
285.397; 9727.575;  138.350;    0.000
285.462; 8196.575;  151.350;    0.000
285.527; 7048.575;  159.350;    0.000
285.591; 6346.575;  177.350;    0.000
285.656; 5839.575;  144.350;    0.000
285.721; 5686.575;  125.350;    0.000
285.786; 5399.575;  169.350;    0.000
285.851; 5235.575;  175.350;    0.000
285.916; 5064.575;  164.350;    0.000
285.981; 5000.575;  134.350;    0.000
286.045; 4892.575;  154.350;    0.000
286.110; 4720.575;  136.350;    0.000
286.175; 4696.575;  155.350;    0.000
286.240; 4633.575;  138.350;    0.000
286.305; 4593.575;  213.350;    0.000
286.369; 4517.575;  221.350;    0.000
286.434; 4509.575;  172.350;    0.000
286.499; 4495.575;  161.350;    0.000
286.564; 4429.575;  189.350;    0.000
286.628; 4445.575;  144.350;    0.000
286.693; 4435.575;  176.350;    0.000
286.758; 4363.575;  168.350;    0.000
286.823; 4188.575;  142.350;    0.000
286.887; 4211.575;  134.350;    0.000
286.952; 4297.575;  180.350;    0.000
287.017; 4180.575;  204.350;    0.000
287.082; 4146.575;  120.350;    0.000
287.146; 4299.575;  173.350;    0.000
287.211; 4236.575;  167.350;    0.000
287.276; 4161.575;  164.350;    0.000
287.340; 4123.575;  138.350;    0.000
287.405; 4114.575;  172.350;    0.000
287.470; 4170.575;  142.350;    0.000
287.534; 4137.575;  155.350;    0.000
287.599; 4197.575;  166.350;    0.000
287.663; 4152.575;  171.350;    0.000
287.728; 4204.575;  190.350;    0.000
287.793; 4176.575;  197.350;    0.000
287.857; 4141.575;  165.350;    0.000
287.922; 4055.575;  147.350;    0.000
287.987; 4085.575;  167.350;    0.000
288.051; 4037.575;  151.350;    0.000
288.116; 4141.575;  154.350;    0.000
288.180; 4099.575;  186.350;    0.000
288.245; 4056.575;  161.350;    0.000
288.309; 4057.575;  177.350;    0.000
288.374; 4031.575;  151.350;    0.000
288.439; 4061.575;  169.350;    0.000
288.503; 3984.575;  133.350;    0.000
288.568; 4031.575;  206.350;    0.000
288.632; 4073.575;  192.350;    0.000
288.697; 4006.575;  183.350;    0.000
288.761; 3965.575;  148.350;    0.000
288.826; 3903.575;  136.350;    0.000
288.890; 4038.575;  185.350;    0.000
288.955; 3803.575;  150.350;    0.000
289.019; 3910.575;  165.350;    0.000
289.084; 3935.575;  150.350;    0.000
289.148; 3936.575;  146.350;    0.000
289.212; 4028.575;  172.350;    0.000
289.277; 3952.575;  177.350;    0.000
289.341; 3838.575;  190.350;    0.000
289.406; 4028.575;  117.350;    0.000
289.470; 3957.575;  173.350;    0.000
289.535; 3919.575;  170.350;    0.000
289.599; 3915.575;  154.350;    0.000
289.663; 3832.575;  173.350;    0.000
289.728; 3837.575;  176.350;    0.000
289.792; 3877.575;  138.350;    0.000
289.857; 3968.575;  203.350;    0.000
289.921; 3960.575;  143.350;    0.000
289.985; 3845.575;  150.350;    0.000
290.050; 3857.575;  170.350;    0.000
290.114; 3923.575;  125.350;    0.000
290.178; 3931.575;  161.350;    0.000
290.243; 3875.575;  119.350;    0.000
290.307; 3913.575;  169.350;    0.000
290.371; 3991.575;  169.350;    0.000
290.436; 4048.575;  170.350;    0.000
290.500; 3884.575;  144.350;    0.000
290.564; 3982.575;  179.350;    0.000
290.629; 3931.575;  166.350;    0.000
290.693; 3970.575;  156.350;    0.000
290.757; 3999.575;  147.350;    0.000
290.821; 4013.575;  170.350;    0.000
290.886; 3920.575;  167.350;    0.000
290.950; 3876.575;  187.350;    0.000
291.014; 3954.575;  164.350;    0.000
291.078; 3952.575;  115.350;    0.000
291.143; 3999.575;  149.350;    0.000
291.207; 4007.575;  163.350;    0.000
291.271; 4005.575;  177.350;    0.000
291.335; 4152.575;  148.350;    0.000
291.399; 4041.575;  155.350;    0.000
291.464; 4244.575;  114.350;    0.000
291.528; 4394.575;  153.350;    0.000
291.592; 4419.575;  156.350;    0.000
291.656; 4291.575;  170.350;    0.000
291.720; 4263.575;  159.350;    0.000
291.784; 4217.575;  159.350;    0.000
291.849; 4346.575;  154.350;    0.000
291.913; 4200.575;  118.350;    0.000
291.977; 4128.575;  157.350;    0.000
292.041; 4086.575;  163.350;    0.000
292.105; 4267.575;  135.350;    0.000
292.169; 4168.575;  155.350;    0.000
292.233; 4263.575;  163.350;    0.000
292.297; 4259.575;  144.350;    0.000
292.361; 4262.575;  143.350;    0.000
292.425; 4410.575;  177.350;    0.000
292.490; 4541.575;  159.350;    0.000
292.554; 4642.575;  137.350;    0.000
292.618; 4740.575;  144.350;    0.000
292.682; 5180.575;  169.350;    0.000
292.746; 5722.575;  166.350;    0.000
292.810; 7279.575;  147.350;    0.000
292.874; 8860.575;  160.350;    0.000
292.938; 8939.575;  174.350;    0.000
293.002; 8051.575;  148.350;    0.000
293.066; 7266.575;  115.350;    0.000
293.130; 6832.575;  133.350;    0.000
293.194; 6575.575;  148.350;    0.000
293.258; 6488.575;  167.350;    0.000
293.322; 6350.575;  166.350;    0.000
293.386; 6476.575;  193.350;    0.000
293.450; 6741.575;  142.350;    0.000
293.514; 7426.575;  170.350;    0.000
293.577; 9653.575;  153.350;    0.000
293.641;12704.575;  171.350;    0.000
293.705;13669.575;  168.350;    0.000
293.769;12327.575;  155.350;    0.000
293.833;10532.575;  161.350;    0.000
293.897; 9399.575;  124.350;    0.000
293.961; 8413.575;  165.350;    0.000
294.025; 7567.575;  118.350;    0.000
294.089; 7164.575;  125.350;    0.000
294.152; 6649.575;  160.350;    0.000
294.216; 6206.575;  160.350;    0.000
294.280; 5933.575;  158.350;    0.000
294.344; 5696.575;  119.350;    0.000
294.408; 5609.575;  168.350;    0.000
294.472; 5323.575;  156.350;    0.000
294.536; 5222.575;  192.350;    0.000
294.599; 5069.575;  171.350;    0.000
294.663; 4883.575;  139.350;    0.000
294.727; 4843.575;  136.350;    0.000
294.791; 4754.575;  118.350;    0.000
294.855; 4644.575;  118.350;    0.000
294.918; 4605.575;  127.350;    0.000
294.982; 4536.575;  167.350;    0.000
295.046; 4384.575;  178.350;    0.000
295.110; 4442.575;  157.350;    0.000
295.173; 4379.575;  101.350;    0.000
295.237; 4345.575;  145.350;    0.000
295.301; 4387.575;  135.350;    0.000
295.364; 4315.575;  185.350;    0.000
295.428; 4126.575;  112.350;    0.000
295.492; 4138.575;  142.350;    0.000
295.556; 4189.575;  170.350;    0.000
295.619; 4180.575;  193.350;    0.000
295.683; 4128.575;  144.350;    0.000
295.747; 4124.575;  152.350;    0.000
295.810; 4074.575;  139.350;    0.000
295.874; 4031.575;  157.350;    0.000
295.938; 3927.575;  128.350;    0.000
296.001; 3985.575;  164.350;    0.000
296.065; 4009.575;  184.350;    0.000
296.128; 3900.575;  127.350;    0.000
296.192; 3894.575;  166.350;    0.000
296.256; 3766.575;  154.350;    0.000
296.319; 3739.575;  128.350;    0.000
296.383; 3867.575;  146.350;    0.000
296.447; 3841.575;  155.350;    0.000
296.510; 3814.575;  177.350;    0.000
296.574; 3886.575;  169.350;    0.000
296.637; 3808.575;  140.350;    0.000
296.701; 3752.575;  181.350;    0.000
296.764; 3677.575;  131.350;    0.000
296.828; 3810.575;  194.350;    0.000
296.891; 3696.575;  146.350;    0.000
296.955; 3631.575;  160.350;    0.000
297.018; 3611.575;  174.350;    0.000
297.082; 3747.575;  153.350;    0.000
297.145; 3580.575;  133.350;    0.000
297.209; 3659.575;  149.350;    0.000
297.272; 3618.575;  150.350;    0.000
297.336; 3662.575;  119.350;    0.000
297.399; 3622.575;  160.350;    0.000
297.463; 3699.575;  158.350;    0.000
297.526; 3674.575;  160.350;    0.000
297.590; 3650.575;  173.350;    0.000
297.653; 3566.575;  121.350;    0.000
297.717; 3570.575;  168.350;    0.000
297.780; 3552.575;  131.350;    0.000
297.843; 3554.575;  154.350;    0.000
297.907; 3496.575;  126.350;    0.000
297.970; 3544.575;  180.350;    0.000
298.034; 3568.575;  140.350;    0.000
298.097; 3611.575;  207.350;    0.000
298.160; 3542.575;  177.350;    0.000
298.224; 3571.575;  165.350;    0.000
298.287; 3401.575;  160.350;    0.000
298.350; 3567.575;  176.350;    0.000
298.414; 3512.575;  155.350;    0.000
298.477; 3458.575;  132.350;    0.000
298.540; 3418.575;  162.350;    0.000
298.604; 3409.575;  180.350;    0.000
298.667; 3460.575;  208.350;    0.000
298.730; 3475.575;  177.350;    0.000
298.794; 3444.575;  126.350;    0.000
298.857; 3372.575;  171.350;    0.000
298.920; 3365.575;  124.350;    0.000
298.984; 3425.575;  146.350;    0.000
299.047; 3328.575;  140.350;    0.000
299.110; 3397.575;  159.350;    0.000
299.173; 3299.575;  177.350;    0.000
299.237; 3421.575;  196.350;    0.000
299.300; 3323.575;  121.350;    0.000
299.363; 3337.575;  172.350;    0.000
299.426; 3323.575;  117.350;    0.000
299.489; 3198.575;  138.350;    0.000
299.553; 3367.575;  198.350;    0.000
299.616; 3266.575;  158.350;    0.000
299.679; 3199.575;  148.350;    0.000
299.742; 3216.575;  138.350;    0.000
299.805; 3226.575;  157.350;    0.000
299.868; 3166.575;  183.350;    0.000
299.932; 3280.575;  137.350;    0.000
299.995; 3296.575;  152.350;    0.000
300.058; 3211.575;  171.350;    0.000
300.121; 3220.575;  172.350;    0.000
300.184; 3216.575;  161.350;    0.000
300.247; 3213.575;  156.350;    0.000
300.310; 3139.575;  154.350;    0.000
300.374; 3200.575;  147.350;    0.000
300.437; 3249.575;  144.350;    0.000
300.500; 3237.575;  152.350;    0.000
300.563; 3227.575;  160.350;    0.000
300.626; 3264.575;  167.350;    0.000
300.689; 3111.575;  193.350;    0.000
300.752; 3127.575;  134.350;    0.000
300.815; 3127.575;  194.350;    0.000
300.878; 3184.575;  156.350;    0.000
300.941; 3135.575;  177.350;    0.000
301.004; 3296.575;  160.350;    0.000
301.067; 3168.575;  153.350;    0.000
301.130; 3138.575;  167.350;    0.000
301.193; 3109.575;  156.350;    0.000
301.256; 3132.575;  176.350;    0.000
301.319; 3089.575;  172.350;    0.000
301.382; 3111.575;  150.350;    0.000
301.445; 3144.575;  183.350;    0.000
301.508; 3049.575;  118.350;    0.000
301.571; 3045.575;  142.350;    0.000
301.634; 3043.575;  164.350;    0.000
301.697; 3190.575;  169.350;    0.000
301.760; 3141.575;  197.350;    0.000
301.823; 2945.575;  155.350;    0.000
301.885; 2975.575;  165.350;    0.000
301.948; 3114.575;  168.350;    0.000
302.011; 2984.575;  172.350;    0.000
302.074; 3059.575;  182.350;    0.000
302.137; 3093.575;  161.350;    0.000
302.200; 3054.575;  174.350;    0.000
302.263; 3142.575;  158.350;    0.000
302.326; 2965.575;  168.350;    0.000
302.388; 3026.575;  165.350;    0.000
302.451; 3029.575;  158.350;    0.000
302.514; 3092.575;  181.350;    0.000
302.577; 3060.575;  147.350;    0.000
302.640; 3025.575;  178.350;    0.000
302.703; 3010.575;  164.350;    0.000
302.765; 3035.575;  149.350;    0.000
302.828; 3005.575;  192.350;    0.000
302.891; 3109.575;  201.350;    0.000
302.954; 2963.575;  135.350;    0.000
303.016; 3026.575;  180.350;    0.000
303.079; 3002.575;  192.350;    0.000
303.142; 2965.575;  176.350;    0.000
303.205; 2987.575;  176.350;    0.000
303.267; 3076.575;  163.350;    0.000
303.330; 2938.575;  162.350;    0.000
303.393; 3040.575;  164.350;    0.000
303.456; 2969.575;  180.350;    0.000
303.518; 2978.575;  162.350;    0.000
303.581; 2987.575;  137.350;    0.000
303.644; 3052.575;  135.350;    0.000
303.706; 2973.575;  170.350;    0.000
303.769; 3101.575;  216.350;    0.000
303.832; 3070.575;  143.350;    0.000
303.894; 3004.575;  162.350;    0.000
303.957; 2991.575;  149.350;    0.000
304.020; 3073.575;  111.350;    0.000
304.082; 3019.575;  158.350;    0.000
304.145; 3066.575;  149.350;    0.000
304.207; 2925.575;  169.350;    0.000
304.270; 2942.575;  170.350;    0.000
304.333; 2941.575;  185.350;    0.000
304.395; 3102.575;  179.350;    0.000
304.458; 2986.575;  174.350;    0.000
304.520; 3031.575;  160.350;    0.000
304.583; 3004.575;  175.350;    0.000
304.646; 3031.575;  160.350;    0.000
304.708; 2914.575;  173.350;    0.000
304.771; 3002.575;  115.350;    0.000
304.833; 2960.575;  172.350;    0.000
304.896; 2981.575;  187.350;    0.000
304.958; 3098.575;  142.350;    0.000
305.021; 3020.575;  164.350;    0.000
305.083; 3050.575;  139.350;    0.000
305.146; 3075.575;  162.350;    0.000
305.208; 3031.575;  135.350;    0.000
305.271; 2996.575;  159.350;    0.000
305.333; 3099.575;  210.350;    0.000
305.396; 3038.575;  151.350;    0.000
305.458; 3118.575;  195.350;    0.000
305.520; 3052.575;  179.350;    0.000
305.583; 3081.575;  157.350;    0.000
305.645; 3040.575;  187.350;    0.000
305.708; 3162.575;  159.350;    0.000
305.770; 3118.575;  189.350;    0.000
305.833; 3105.575;  147.350;    0.000
305.895; 3091.575;  154.350;    0.000
305.957; 3059.575;  143.350;    0.000
306.020; 3036.575;  133.350;    0.000
306.082; 3080.575;  146.350;    0.000
306.144; 3155.575;  171.350;    0.000
306.207; 3094.575;  151.350;    0.000
306.269; 3074.575;  169.350;    0.000
306.331; 2977.575;  162.350;    0.000
306.394; 3109.575;  171.350;    0.000
306.456; 3050.575;  155.350;    0.000
306.518; 3172.575;  183.350;    0.000
306.581; 3066.575;  180.350;    0.000
306.643; 3063.575;  199.350;    0.000
306.705; 3085.575;  163.350;    0.000
306.768; 3048.575;  183.350;    0.000
306.830; 3203.575;  183.350;    0.000
306.892; 3098.575;  190.350;    0.000
306.954; 3174.575;  161.350;    0.000
307.017; 2987.575;  151.350;    0.000
307.079; 3115.575;  147.350;    0.000
307.141; 3126.575;  179.350;    0.000
307.203; 3212.575;  143.350;    0.000
307.266; 3216.575;  142.350;    0.000
307.328; 3140.575;  161.350;    0.000
307.390; 3196.575;  189.350;    0.000
307.452; 3166.575;  155.350;    0.000
307.514; 3293.575;  211.350;    0.000
307.577; 3243.575;  201.350;    0.000
307.639; 3259.575;  192.350;    0.000
307.701; 3195.575;  162.350;    0.000
307.763; 3282.575;  155.350;    0.000
307.825; 3225.575;  193.350;    0.000
307.887; 3224.575;  214.350;    0.000
307.949; 3186.575;  208.350;    0.000
308.012; 3204.575;  175.350;    0.000
308.074; 3208.575;  155.350;    0.000
308.136; 3179.575;  172.350;    0.000
308.198; 3345.575;  171.350;    0.000
308.260; 3282.575;  182.350;    0.000
308.322; 3227.575;  177.350;    0.000
308.384; 3313.575;  207.350;    0.000
308.446; 3308.575;  170.350;    0.000
308.508; 3345.575;  177.350;    0.000
308.570; 3370.575;  195.350;    0.000
308.632; 3254.575;  190.350;    0.000
308.694; 3251.575;  161.350;    0.000
308.756; 3329.575;  173.350;    0.000
308.818; 3343.575;  190.350;    0.000
308.880; 3292.575;  197.350;    0.000
308.942; 3466.575;  223.350;    0.000
309.004; 3536.575;  176.350;    0.000
309.066; 3527.575;  182.350;    0.000
309.128; 3584.575;  185.350;    0.000
309.190; 3635.575;  166.350;    0.000
309.252; 3738.575;  191.350;    0.000
309.314; 3761.575;  208.350;    0.000
309.376; 3820.575;  205.350;    0.000
309.438; 3589.575;  166.350;    0.000
309.500; 3628.575;  195.350;    0.000
309.562; 3768.575;  163.350;    0.000
309.624; 3763.575;  162.350;    0.000
309.686; 3705.575;  194.350;    0.000
309.747; 3717.575;  179.350;    0.000
309.809; 3671.575;  211.350;    0.000
309.871; 3571.575;  191.350;    0.000
309.933; 3618.575;  151.350;    0.000
309.995; 3547.575;  179.350;    0.000
310.057; 3491.575;  175.350;    0.000
310.119; 3494.575;  161.350;    0.000
310.180; 3368.575;  167.350;    0.000
310.242; 3418.575;  171.350;    0.000
310.304; 3402.575;  209.350;    0.000
310.366; 3442.575;  229.350;    0.000
310.428; 3386.575;  132.350;    0.000
310.489; 3339.575;  165.350;    0.000
310.551; 3426.575;  193.350;    0.000
310.613; 3264.575;  182.350;    0.000
310.675; 3488.575;  186.350;    0.000
310.737; 3434.575;  192.350;    0.000
310.798; 3390.575;  194.350;    0.000
310.860; 3452.575;  220.350;    0.000
310.922; 3357.575;  161.350;    0.000
310.983; 3279.575;  203.350;    0.000
311.045; 3392.575;  198.350;    0.000
311.107; 3360.575;  179.350;    0.000
311.169; 3281.575;  154.350;    0.000
311.230; 3323.575;  134.350;    0.000
311.292; 3266.575;  215.350;    0.000
311.354; 3257.575;  171.350;    0.000
311.415; 3393.575;  195.350;    0.000
311.477; 3321.575;  185.350;    0.000
311.539; 3294.575;  183.350;    0.000
311.600; 3264.575;  183.350;    0.000
311.662; 3369.575;  207.350;    0.000
311.724; 3375.575;  193.350;    0.000
311.785; 3377.575;  180.350;    0.000
311.847; 3292.575;  155.350;    0.000
311.908; 3249.575;  179.350;    0.000
311.970; 3287.575;  193.350;    0.000
312.032; 3306.575;  188.350;    0.000
312.093; 3301.575;  166.350;    0.000
312.155; 3411.575;  147.350;    0.000
312.216; 3361.575;  177.350;    0.000
312.278; 3278.575;  162.350;    0.000
312.339; 3348.575;  158.350;    0.000
312.401; 3369.575;  181.350;    0.000
312.462; 3260.575;  153.350;    0.000
312.524; 3367.575;  186.350;    0.000
312.585; 3338.575;  191.350;    0.000
312.647; 3307.575;  131.350;    0.000
312.708; 3477.575;  170.350;    0.000
312.770; 3415.575;  194.350;    0.000
312.831; 3482.575;  161.350;    0.000
312.893; 3498.575;  179.350;    0.000
312.954; 3436.575;  183.350;    0.000
313.016; 3449.575;  189.350;    0.000
313.077; 3360.575;  169.350;    0.000
313.139; 3324.575;  148.350;    0.000
313.200; 3272.575;  155.350;    0.000
313.261; 3399.575;  213.350;    0.000
313.323; 3427.575;  162.350;    0.000
313.384; 3395.575;  160.350;    0.000
313.446; 3405.575;  202.350;    0.000
313.507; 3373.575;  149.350;    0.000
313.568; 3466.575;  194.350;    0.000
313.630; 3390.575;  163.350;    0.000
313.691; 3322.575;  158.350;    0.000
313.752; 3385.575;  179.350;    0.000
313.814; 3363.575;  180.350;    0.000
313.875; 3434.575;  191.350;    0.000
313.936; 3330.575;  169.350;    0.000
313.998; 3362.575;  165.350;    0.000
314.059; 3447.575;  211.350;    0.000
314.120; 3424.575;  190.350;    0.000
314.182; 3340.575;  185.350;    0.000
314.243; 3422.575;  186.350;    0.000
314.304; 3446.575;  178.350;    0.000
314.365; 3474.575;  187.350;    0.000
314.427; 3331.575;  145.350;    0.000
314.488; 3345.575;  184.350;    0.000
314.549; 3456.575;  181.350;    0.000
314.610; 3434.575;  151.350;    0.000
314.672; 3350.575;  153.350;    0.000
314.733; 3366.575;  148.350;    0.000
314.794; 3399.575;  156.350;    0.000
314.855; 3331.575;  196.350;    0.000
314.917; 3460.575;  157.350;    0.000
314.978; 3394.575;  174.350;    0.000
315.039; 3306.575;  168.350;    0.000
315.100; 3374.575;  154.350;    0.000
315.161; 3464.575;  176.350;    0.000
315.222; 3453.575;  198.350;    0.000
315.283; 3302.575;  169.350;    0.000
315.345; 3364.575;  162.350;    0.000
315.406; 3320.575;  199.350;    0.000
315.467; 3267.575;  180.350;    0.000
315.528; 3363.575;  179.350;    0.000
315.589; 3296.575;  166.350;    0.000
315.650; 3391.575;  179.350;    0.000
315.711; 3387.575;  177.350;    0.000
315.772; 3288.575;  180.350;    0.000
315.833; 3302.575;  157.350;    0.000
315.894; 3271.575;  133.350;    0.000
315.955; 3344.575;  205.350;    0.000
316.016; 3314.575;  190.350;    0.000
316.078; 3339.575;  174.350;    0.000
316.139; 3392.575;  208.350;    0.000
316.200; 3356.575;  166.350;    0.000
316.261; 3315.575;  186.350;    0.000
316.322; 3248.575;  185.350;    0.000
316.383; 3336.575;  179.350;    0.000
316.444; 3307.575;  172.350;    0.000
316.504; 3347.575;  181.350;    0.000
316.565; 3258.575;  197.350;    0.000
316.626; 3221.575;  196.350;    0.000
316.687; 3337.575;  173.350;    0.000
316.748; 3204.575;  178.350;    0.000
316.809; 3304.575;  178.350;    0.000
316.870; 3322.575;  134.350;    0.000
316.931; 3265.575;  166.350;    0.000
316.992; 3309.575;  200.350;    0.000
317.053; 3225.575;  169.350;    0.000
317.114; 3313.575;  185.350;    0.000
317.175; 3252.575;  213.350;    0.000
317.235; 3369.575;  199.350;    0.000
317.296; 3301.575;  190.350;    0.000
317.357; 3273.575;  152.350;    0.000
317.418; 3345.575;  192.350;    0.000
317.479; 3229.575;  170.350;    0.000
317.540; 3255.575;  179.350;    0.000
317.601; 3313.575;  155.350;    0.000
317.661; 3253.575;  154.350;    0.000
317.722; 3357.575;  190.350;    0.000
317.783; 3225.575;  149.350;    0.000
317.844; 3282.575;  207.350;    0.000
317.904; 3291.575;  153.350;    0.000
317.965; 3267.575;  179.350;    0.000
318.026; 3383.575;  235.350;    0.000
318.087; 3415.575;  184.350;    0.000
318.148; 3192.575;  201.350;    0.000
318.208; 3290.575;  220.350;    0.000
318.269; 3292.575;  175.350;    0.000
318.330; 3184.575;  185.350;    0.000
318.390; 3314.575;  180.350;    0.000
318.451; 3241.575;  164.350;    0.000
318.512; 3196.575;  150.350;    0.000
318.572; 3325.575;  205.350;    0.000
318.633; 3281.575;  224.350;    0.000
318.694; 3204.575;  202.350;    0.000
318.754; 3353.575;  196.350;    0.000
318.815; 3229.575;  187.350;    0.000
318.876; 3339.575;  200.350;    0.000
318.936; 3277.575;  232.350;    0.000
318.997; 3233.575;  211.350;    0.000
319.058; 3187.575;  194.350;    0.000
319.118; 3257.575;  197.350;    0.000
319.179; 3250.575;  162.350;    0.000
319.239; 3315.575;  188.350;    0.000
319.300; 3227.575;  205.350;    0.000
319.361; 3192.575;  179.350;    0.000
319.421; 3237.575;  182.350;    0.000
319.482; 3126.575;  189.350;    0.000
319.542; 3224.575;  180.350;    0.000
319.603; 3170.575;  204.350;    0.000
319.663; 3265.575;  195.350;    0.000
319.724; 3161.575;  135.350;    0.000
319.784; 3300.575;  184.350;    0.000
319.845; 3177.575;  160.350;    0.000
319.905; 3234.575;  206.350;    0.000
319.966; 3213.575;  203.350;    0.000
320.026; 3217.575;  203.350;    0.000
320.087; 3101.575;  206.350;    0.000
320.147; 3245.575;  180.350;    0.000
320.208; 3234.575;  189.350;    0.000
320.268; 3225.575;  179.350;    0.000
320.329; 3193.575;  215.350;    0.000
320.389; 3165.575;  193.350;    0.000
320.449; 3197.575;  210.350;    0.000
320.510; 3290.575;  206.350;    0.000
320.570; 3285.575;  221.350;    0.000
320.631; 3219.575;  203.350;    0.000
320.691; 3207.575;  190.350;    0.000
320.751; 3147.575;  205.350;    0.000
320.812; 3244.575;  191.350;    0.000
320.872; 3249.575;  216.350;    0.000
320.932; 3254.575;  209.350;    0.000
320.993; 3226.575;  189.350;    0.000
321.053; 3224.575;  228.350;    0.000
321.113; 3147.575;  163.350;    0.000
321.174; 3229.575;  204.350;    0.000
321.234; 3286.575;  214.350;    0.000
321.294; 3220.575;  184.350;    0.000
321.355; 3233.575;  216.350;    0.000
321.415; 3374.575;  187.350;    0.000
321.475; 3157.575;  216.350;    0.000
321.535; 3114.575;  189.350;    0.000
321.596; 3225.575;  186.350;    0.000
321.656; 3201.575;  204.350;    0.000
321.716; 3210.575;  183.350;    0.000
321.776; 3225.575;  194.350;    0.000
321.837; 3218.575;  190.350;    0.000
321.897; 3133.575;  219.350;    0.000
321.957; 3119.575;  222.350;    0.000
322.017; 3144.575;  183.350;    0.000
322.077; 3219.575;  239.350;    0.000
322.138; 3250.575;  219.350;    0.000
322.198; 3159.575;  185.350;    0.000
322.258; 3192.575;  231.350;    0.000
322.318; 3131.575;  197.350;    0.000
322.378; 3196.575;  179.350;    0.000
322.438; 3200.575;  217.350;    0.000
322.499; 3090.575;  238.350;    0.000
322.559; 3059.575;  197.350;    0.000
322.619; 3098.575;  204.350;    0.000
322.679; 3089.575;  199.350;    0.000
322.739; 3085.575;  194.350;    0.000
322.799; 3104.575;  203.350;    0.000
322.859; 3186.575;  234.350;    0.000
322.919; 3106.575;  194.350;    0.000
322.979; 3177.575;  219.350;    0.000
323.039; 3201.575;  193.350;    0.000
323.099; 3081.575;  207.350;    0.000
323.159; 3106.575;  213.350;    0.000
323.219; 3158.575;  171.350;    0.000
323.279; 3131.575;  215.350;    0.000
323.339; 3019.575;  170.350;    0.000
323.399; 3211.575;  195.350;    0.000
323.459; 3216.575;  234.350;    0.000
323.519; 3182.575;  201.350;    0.000
323.579; 3202.575;  167.350;    0.000
323.639; 3112.575;  209.350;    0.000
323.699; 3094.575;  217.350;    0.000
323.759; 3137.575;  213.350;    0.000
323.819; 3112.575;  216.350;    0.000
323.879; 3146.575;  193.350;    0.000
323.939; 3191.575;  182.350;    0.000
323.999; 3070.575;  206.350;    0.000
324.059; 3091.575;  196.350;    0.000
324.119; 3123.575;  240.350;    0.000
324.178; 3098.575;  186.350;    0.000
324.238; 3098.575;  179.350;    0.000
324.298; 3132.575;  195.350;    0.000
324.358; 3178.575;  208.350;    0.000
324.418; 3074.575;  190.350;    0.000
324.478; 3098.575;  197.350;    0.000
324.538; 3098.575;  157.350;    0.000
324.597; 3055.575;  219.350;    0.000
324.657; 2984.575;  176.350;    0.000
324.717; 3088.575;  179.350;    0.000
324.777; 3038.575;  190.350;    0.000
324.837; 3128.575;  172.350;    0.000
324.896; 3048.575;  199.350;    0.000
324.956; 3133.575;  216.350;    0.000
325.016; 3061.575;  191.350;    0.000
325.076; 3150.575;  185.350;    0.000
325.135; 3161.575;  174.350;    0.000
325.195; 3089.575;  175.350;    0.000
325.255; 3055.575;  144.350;    0.000
325.315; 2995.575;  201.350;    0.000
325.374; 3044.575;  198.350;    0.000
325.434; 3105.575;  181.350;    0.000
325.494; 3101.575;  183.350;    0.000
325.553; 3104.575;  172.350;    0.000
325.613; 3146.575;  200.350;    0.000
325.673; 3053.575;  177.350;    0.000
325.732; 3089.575;  174.350;    0.000
325.792; 3059.575;  181.350;    0.000
325.852; 3133.575;  214.350;    0.000
325.911; 3180.575;  230.350;    0.000
325.971; 3171.575;  198.350;    0.000
326.031; 3167.575;  201.350;    0.000
326.090; 3184.575;  214.350;    0.000
326.150; 3153.575;  163.350;    0.000
326.209; 3185.575;  207.350;    0.000
326.269; 3094.575;  201.350;    0.000
326.328; 3088.575;  208.350;    0.000
326.388; 3083.575;  169.350;    0.000
326.448; 3185.575;  229.350;    0.000
326.507; 3101.575;  243.350;    0.000
326.567; 3088.575;  162.350;    0.000
326.626; 3067.575;  200.350;    0.000
326.686; 2992.575;  166.350;    0.000
326.745; 2975.575;  178.350;    0.000
326.805; 3007.575;  185.350;    0.000
326.864; 3093.575;  209.350;    0.000
326.924; 3010.575;  234.350;    0.000
326.983; 3021.575;  197.350;    0.000
327.043; 3116.575;  217.350;    0.000
327.102; 3072.575;  174.350;    0.000
327.161; 2981.575;  172.350;    0.000
327.221; 2912.575;  183.350;    0.000
327.280; 3013.575;  200.350;    0.000
327.340; 2999.575;  200.350;    0.000
327.399; 2965.575;  219.350;    0.000
327.459; 2999.575;  246.350;    0.000
327.518; 2939.575;  217.350;    0.000
327.577; 3099.575;  212.350;    0.000
327.637; 2984.575;  188.350;    0.000
327.696; 2999.575;  201.350;    0.000
327.755; 3114.575;  199.350;    0.000
327.815; 2976.575;  224.350;    0.000
327.874; 2982.575;  236.350;    0.000
327.933; 2955.575;  182.350;    0.000
327.993; 2976.575;  206.350;    0.000
328.052; 3062.575;  191.350;    0.000
328.111; 2981.575;  222.350;    0.000
328.171; 3072.575;  200.350;    0.000
328.230; 2964.575;  203.350;    0.000
328.289; 3055.575;  219.350;    0.000
328.349; 3020.575;  231.350;    0.000
328.408; 3051.575;  223.350;    0.000
328.467; 3025.575;  226.350;    0.000
328.526; 2969.575;  197.350;    0.000
328.586; 3084.575;  221.350;    0.000
328.645; 3059.575;  199.350;    0.000
328.704; 3028.575;  227.350;    0.000
328.763; 2959.575;  201.350;    0.000
328.822; 3049.575;  230.350;    0.000
328.882; 2967.575;  244.350;    0.000
328.941; 3010.575;  221.350;    0.000
329.000; 2949.575;  207.350;    0.000
329.059; 2912.575;  208.350;    0.000
329.118; 3001.575;  203.350;    0.000
329.177; 2972.575;  198.350;    0.000
329.237; 3116.575;  218.350;    0.000
329.296; 2945.575;  213.350;    0.000
329.355; 3053.575;  208.350;    0.000
329.414; 3039.575;  231.350;    0.000
329.473; 3041.575;  221.350;    0.000
329.532; 3087.575;  243.350;    0.000
329.591; 3007.575;  210.350;    0.000
329.650; 2997.575;  232.350;    0.000
329.709; 3094.575;  211.350;    0.000
329.768; 3195.575;  194.350;    0.000
329.827; 3232.575;  237.350;    0.000
329.886; 3258.575;  213.350;    0.000
329.945; 3307.575;  190.350;    0.000
330.004; 3488.575;  233.350;    0.000
330.063; 3614.575;  191.350;    0.000
330.122; 4079.575;  234.350;    0.000
330.181; 4614.575;  220.350;    0.000
330.240; 4680.575;  191.350;    0.000
330.299; 4189.575;  210.350;    0.000
330.358; 3594.575;  191.350;    0.000
330.417; 3334.575;  225.350;    0.000
330.476; 3208.575;  226.350;    0.000
330.535; 3161.575;  217.350;    0.000
330.594; 3013.575;  205.350;    0.000
330.653; 3120.575;  193.350;    0.000
330.712; 3138.575;  206.350;    0.000
330.771; 2917.575;  175.350;    0.000
330.830; 2935.575;  204.350;    0.000
330.889; 2993.575;  198.350;    0.000
330.948; 2913.575;  198.350;    0.000
331.006; 2964.575;  207.350;    0.000
331.065; 2933.575;  203.350;    0.000
331.124; 2924.575;  210.350;    0.000
331.183; 2901.575;  165.350;    0.000
331.242; 2997.575;  195.350;    0.000
331.301; 2909.575;  191.350;    0.000
331.359; 2885.575;  205.350;    0.000
331.418; 2885.575;  183.350;    0.000
331.477; 2927.575;  198.350;    0.000
331.536; 2879.575;  211.350;    0.000
331.595; 2887.575;  191.350;    0.000
331.653; 2881.575;  232.350;    0.000
331.712; 2863.575;  225.350;    0.000
331.771; 2772.575;  199.350;    0.000
331.830; 2854.575;  189.350;    0.000
331.888; 2874.575;  219.350;    0.000
331.947; 2941.575;  188.350;    0.000
332.006; 2874.575;  180.350;    0.000
332.065; 2829.575;  177.350;    0.000
332.123; 2906.575;  214.350;    0.000
332.182; 2938.575;  223.350;    0.000
332.241; 2833.575;  202.350;    0.000
332.299; 2818.575;  180.350;    0.000
332.358; 2865.575;  206.350;    0.000
332.417; 2936.575;  195.350;    0.000
332.475; 2948.575;  221.350;    0.000
332.534; 2853.575;  207.350;    0.000
332.592; 2904.575;  190.350;    0.000
332.651; 2933.575;  203.350;    0.000
332.710; 2957.575;  219.350;    0.000
332.768; 2883.575;  210.350;    0.000
332.827; 2939.575;  173.350;    0.000
332.885; 2907.575;  239.350;    0.000
332.944; 2859.575;  145.350;    0.000
333.003; 2969.575;  197.350;    0.000
333.061; 2986.575;  179.350;    0.000
333.120; 3010.575;  198.350;    0.000
333.178; 3064.575;  185.350;    0.000
333.237; 3040.575;  204.350;    0.000
333.295; 3101.575;  266.350;    0.000
333.354; 3038.575;  181.350;    0.000
333.412; 2958.575;  189.350;    0.000
333.471; 2993.575;  216.350;    0.000
333.529; 3113.575;  220.350;    0.000
333.588; 3177.575;  193.350;    0.000
333.646; 3098.575;  186.350;    0.000
333.705; 3204.575;  210.350;    0.000
333.763; 3223.575;  222.350;    0.000
333.822; 3013.575;  222.350;    0.000
333.880; 3049.575;  202.350;    0.000
333.938; 3116.575;  205.350;    0.000
333.997; 2989.575;  199.350;    0.000
334.055; 3042.575;  199.350;    0.000
334.114; 3063.575;  237.350;    0.000
334.172; 2943.575;  155.350;    0.000
334.230; 3005.575;  208.350;    0.000
334.289; 2979.575;  191.350;    0.000
334.347; 2924.575;  211.350;    0.000
334.405; 3012.575;  212.350;    0.000
334.464; 2976.575;  179.350;    0.000
334.522; 2951.575;  160.350;    0.000
334.580; 3030.575;  195.350;    0.000
334.639; 2971.575;  191.350;    0.000
334.697; 2939.575;  194.350;    0.000
334.755; 2961.575;  185.350;    0.000
334.814; 2918.575;  214.350;    0.000
334.872; 2854.575;  179.350;    0.000
334.930; 2886.575;  169.350;    0.000
334.988; 3016.575;  201.350;    0.000
335.047; 3039.575;  188.350;    0.000
335.105; 2990.575;  175.350;    0.000
335.163; 2932.575;  191.350;    0.000
335.221; 3002.575;  196.350;    0.000
335.280; 2921.575;  182.350;    0.000
335.338; 2974.575;  202.350;    0.000
335.396; 2938.575;  219.350;    0.000
335.454; 2923.575;  187.350;    0.000
335.512; 2946.575;  236.350;    0.000
335.570; 2913.575;  209.350;    0.000
335.629; 2962.575;  247.350;    0.000
335.687; 3016.575;  219.350;    0.000
335.745; 2890.575;  203.350;    0.000
335.803; 2958.575;  220.350;    0.000
335.861; 2979.575;  208.350;    0.000
335.919; 3034.575;  223.350;    0.000
335.977; 2973.575;  201.350;    0.000
336.035; 2990.575;  193.350;    0.000
336.094; 2924.575;  178.350;    0.000
336.152; 2984.575;  182.350;    0.000
336.210; 2990.575;  199.350;    0.000
336.268; 3003.575;  216.350;    0.000
336.326; 2984.575;  216.350;    0.000
336.384; 2953.575;  201.350;    0.000
336.442; 3005.575;  197.350;    0.000
336.500; 2972.575;  203.350;    0.000
336.558; 2902.575;  198.350;    0.000
336.616; 3031.575;  210.350;    0.000
336.674; 2937.575;  192.350;    0.000
336.732; 2911.575;  182.350;    0.000
336.790; 2949.575;  189.350;    0.000
336.848; 2918.575;  233.350;    0.000
336.906; 2904.575;  235.350;    0.000
336.964; 2955.575;  208.350;    0.000
337.022; 2958.575;  249.350;    0.000
337.080; 2957.575;  204.350;    0.000
337.138; 2998.575;  176.350;    0.000
337.195; 2869.575;  207.350;    0.000
337.253; 2994.575;  214.350;    0.000
337.311; 2900.575;  210.350;    0.000
337.369; 2855.575;  222.350;    0.000
337.427; 2888.575;  236.350;    0.000
337.485; 2833.575;  241.350;    0.000
337.543; 2802.575;  217.350;    0.000
337.601; 2885.575;  221.350;    0.000
337.658; 2918.575;  205.350;    0.000
337.716; 2883.575;  210.350;    0.000
337.774; 2785.575;  196.350;    0.000
337.832; 2938.575;  200.350;    0.000
337.890; 2775.575;  192.350;    0.000
337.947; 2856.575;  192.350;    0.000
338.005; 2764.575;  211.350;    0.000
338.063; 2823.575;  176.350;    0.000
338.121; 2846.575;  222.350;    0.000
338.178; 2798.575;  198.350;    0.000
338.236; 2891.575;  210.350;    0.000
338.294; 2941.575;  211.350;    0.000
338.352; 2868.575;  212.350;    0.000
338.409; 2780.575;  199.350;    0.000
338.467; 2830.575;  205.350;    0.000
338.525; 2818.575;  217.350;    0.000
338.583; 2851.575;  197.350;    0.000
338.640; 2815.575;  226.350;    0.000
338.698; 2719.575;  201.350;    0.000
338.756; 2700.575;  192.350;    0.000
338.813; 2784.575;  220.350;    0.000
338.871; 2796.575;  258.350;    0.000
338.928; 2838.575;  223.350;    0.000
338.986; 2816.575;  200.350;    0.000
339.044; 2913.575;  206.350;    0.000
339.101; 2741.575;  250.350;    0.000
339.159; 2777.575;  245.350;    0.000
339.216; 2788.575;  227.350;    0.000
339.274; 2847.575;  260.350;    0.000
339.332; 2781.575;  223.350;    0.000
339.389; 2835.575;  233.350;    0.000
339.447; 2783.575;  206.350;    0.000
339.504; 2789.575;  229.350;    0.000
339.562; 2822.575;  194.350;    0.000
339.619; 2767.575;  245.350;    0.000
339.677; 2770.575;  238.350;    0.000
339.734; 2698.575;  197.350;    0.000
339.792; 2763.575;  210.350;    0.000
339.849; 2814.575;  201.350;    0.000
339.907; 2820.575;  252.350;    0.000
339.964; 2848.575;  191.350;    0.000
340.022; 2734.575;  246.350;    0.000
340.079; 2746.575;  213.350;    0.000
340.137; 2770.575;  240.350;    0.000
340.194; 2743.575;  208.350;    0.000
340.252; 2741.575;  215.350;    0.000
340.309; 2704.575;  203.350;    0.000
340.366; 2670.575;  194.350;    0.000
340.424; 2744.575;  226.350;    0.000
340.481; 2776.575;  234.350;    0.000
340.538; 2787.575;  205.350;    0.000
340.596; 2697.575;  197.350;    0.000
340.653; 2802.575;  233.350;    0.000
340.711; 2841.575;  273.350;    0.000
340.768; 2825.575;  237.350;    0.000
340.825; 2756.575;  224.350;    0.000
340.883; 2817.575;  240.350;    0.000
340.940; 2722.575;  216.350;    0.000
340.997; 2805.575;  228.350;    0.000
341.054; 2789.575;  200.350;    0.000
341.112; 2741.575;  220.350;    0.000
341.169; 2735.575;  226.350;    0.000
341.226; 2830.575;  206.350;    0.000
341.284; 2753.575;  204.350;    0.000
341.341; 2795.575;  214.350;    0.000
341.398; 2715.575;  160.350;    0.000
341.455; 2796.575;  209.350;    0.000
341.512; 2854.575;  233.350;    0.000
341.570; 2823.575;  240.350;    0.000
341.627; 2776.575;  209.350;    0.000
341.684; 2720.575;  178.350;    0.000
341.741; 2905.575;  254.350;    0.000
341.798; 2876.575;  232.350;    0.000
341.856; 2816.575;  196.350;    0.000
341.913; 2799.575;  244.350;    0.000
341.970; 2755.575;  203.350;    0.000
342.027; 2889.575;  235.350;    0.000
342.084; 2775.575;  214.350;    0.000
342.141; 2873.575;  194.350;    0.000
342.198; 2846.575;  194.350;    0.000
342.255; 2916.575;  219.350;    0.000
342.313; 2737.575;  195.350;    0.000
342.370; 2770.575;  207.350;    0.000
342.427; 2803.575;  217.350;    0.000
342.484; 2742.575;  213.350;    0.000
342.541; 2725.575;  215.350;    0.000
342.598; 2805.575;  247.350;    0.000
342.655; 2772.575;  205.350;    0.000
342.712; 2700.575;  226.350;    0.000
342.769; 2748.575;  212.350;    0.000
342.826; 2873.575;  203.350;    0.000
342.883; 2777.575;  207.350;    0.000
342.940; 2811.575;  204.350;    0.000
342.997; 2855.575;  237.350;    0.000
343.054; 2805.575;  210.350;    0.000
343.111; 2801.575;  209.350;    0.000
343.168; 2831.575;  201.350;    0.000
343.225; 2746.575;  208.350;    0.000
343.282; 2876.575;  216.350;    0.000
343.339; 2949.575;  237.350;    0.000
343.395; 2879.575;  218.350;    0.000
343.452; 2990.575;  234.350;    0.000
343.509; 2942.575;  214.350;    0.000
343.566; 2965.575;  222.350;    0.000
343.623; 2941.575;  226.350;    0.000
343.680; 3022.575;  245.350;    0.000
343.737; 2970.575;  209.350;    0.000
343.794; 3046.575;  227.350;    0.000
343.850; 3027.575;  197.350;    0.000
343.907; 3159.575;  211.350;    0.000
343.964; 3100.575;  190.350;    0.000
344.021; 3040.575;  252.350;    0.000
344.078; 3120.575;  261.350;    0.000
344.134; 3048.575;  206.350;    0.000
344.191; 3070.575;  231.350;    0.000
344.248; 2999.575;  225.350;    0.000
344.305; 3037.575;  210.350;    0.000
344.361; 2943.575;  194.350;    0.000
344.418; 3029.575;  219.350;    0.000
344.475; 3090.575;  245.350;    0.000
344.532; 3116.575;  238.350;    0.000
344.588; 3035.575;  235.350;    0.000
344.645; 3036.575;  229.350;    0.000
344.702; 2943.575;  145.350;    0.000
344.758; 3038.575;  240.350;    0.000
344.815; 2971.575;  215.350;    0.000
344.872; 2970.575;  203.350;    0.000
344.928; 2965.575;  208.350;    0.000
344.985; 2930.575;  216.350;    0.000
345.042; 3058.575;  234.350;    0.000
345.098; 2928.575;  183.350;    0.000
345.155; 2924.575;  241.350;    0.000
345.212; 3023.575;  222.350;    0.000
345.268; 2942.575;  234.350;    0.000
345.325; 3002.575;  181.350;    0.000
345.381; 2949.575;  251.350;    0.000
345.438; 2971.575;  256.350;    0.000
345.495; 3030.575;  247.350;    0.000
345.551; 2996.575;  231.350;    0.000
345.608; 2908.575;  206.350;    0.000
345.664; 3055.575;  201.350;    0.000
345.721; 3010.575;  216.350;    0.000
345.777; 2874.575;  195.350;    0.000
345.834; 2899.575;  195.350;    0.000
345.890; 2935.575;  227.350;    0.000
345.947; 2898.575;  240.350;    0.000
346.003; 2996.575;  248.350;    0.000
346.060; 2934.575;  213.350;    0.000
346.116; 2984.575;  225.350;    0.000
346.173; 2930.575;  199.350;    0.000
346.229; 2940.575;  264.350;    0.000
346.285; 2849.575;  246.350;    0.000
346.342; 2888.575;  240.350;    0.000
346.398; 2955.575;  222.350;    0.000
346.455; 2964.575;  231.350;    0.000
346.511; 3019.575;  214.350;    0.000
346.567; 3035.575;  231.350;    0.000
346.624; 2963.575;  222.350;    0.000
346.680; 3036.575;  197.350;    0.000
346.737; 3045.575;  225.350;    0.000
346.793; 3092.575;  255.350;    0.000
346.849; 3106.575;  245.350;    0.000
346.906; 3060.575;  221.350;    0.000
346.962; 3043.575;  260.350;    0.000
347.018; 3047.575;  238.350;    0.000
347.074; 3157.575;  257.350;    0.000
347.131; 2996.575;  200.350;    0.000
347.187; 3077.575;  232.350;    0.000
347.243; 2942.575;  240.350;    0.000
347.300; 3040.575;  249.350;    0.000
347.356; 2995.575;  250.350;    0.000
347.412; 3011.575;  252.350;    0.000
347.468; 3007.575;  254.350;    0.000
347.524; 2952.575;  280.350;    0.000
347.581; 3035.575;  228.350;    0.000
347.637; 3050.575;  261.350;    0.000
347.693; 3048.575;  238.350;    0.000
347.749; 3078.575;  261.350;    0.000
347.805; 3013.575;  238.350;    0.000
347.862; 3070.575;  246.350;    0.000
347.918; 2998.575;  256.350;    0.000
347.974; 3039.575;  277.350;    0.000
348.030; 3034.575;  242.350;    0.000
348.086; 3111.575;  223.350;    0.000
348.142; 3076.575;  215.350;    0.000
348.198; 3006.575;  272.350;    0.000
348.254; 3012.575;  292.350;    0.000
348.311; 3128.575;  235.350;    0.000
348.367; 3010.575;  263.350;    0.000
348.423; 3051.575;  193.350;    0.000
348.479; 3066.575;  266.350;    0.000
348.535; 3121.575;  238.350;    0.000
348.591; 3103.575;  237.350;    0.000
348.647; 3008.575;  239.350;    0.000
348.703; 3094.575;  240.350;    0.000
348.759; 3090.575;  253.350;    0.000
348.815; 3093.575;  255.350;    0.000
348.871; 3076.575;  256.350;    0.000
348.927; 3173.575;  261.350;    0.000
348.983; 2968.575;  258.350;    0.000
349.039; 3074.575;  204.350;    0.000
349.095; 3111.575;  215.350;    0.000
349.151; 3093.575;  230.350;    0.000
349.207; 3083.575;  216.350;    0.000
349.263; 2997.575;  235.350;    0.000
349.319; 3100.575;  244.350;    0.000
349.374; 3106.575;  213.350;    0.000
349.430; 3165.575;  241.350;    0.000
349.486; 3234.575;  248.350;    0.000
349.542; 3101.575;  259.350;    0.000
349.598; 3181.575;  208.350;    0.000
349.654; 3118.575;  242.350;    0.000
349.710; 3127.575;  246.350;    0.000
349.766; 3178.575;  226.350;    0.000
349.821; 3045.575;  227.350;    0.000
349.877; 3187.575;  226.350;    0.000
349.933; 3146.575;  249.350;    0.000
349.989; 3196.575;  263.350;    0.000
350.045; 3020.575;  267.350;    0.000
350.100; 3127.575;  219.350;    0.000
350.156; 3154.575;  207.350;    0.000
350.212; 3168.575;  230.350;    0.000
350.268; 3075.575;  223.350;    0.000
350.323; 3091.575;  217.350;    0.000
350.379; 3228.575;  227.350;    0.000
350.435; 3076.575;  219.350;    0.000
350.491; 3075.575;  195.350;    0.000
350.546; 3140.575;  229.350;    0.000
350.602; 3140.575;  222.350;    0.000
350.658; 3041.575;  225.350;    0.000
350.713; 3115.575;  231.350;    0.000
350.769; 3090.575;  193.350;    0.000
350.825; 3157.575;  182.350;    0.000
350.880; 3077.575;  193.350;    0.000
350.936; 3163.575;  222.350;    0.000
350.992; 2982.575;  217.350;    0.000
351.047; 3098.575;  226.350;    0.000
351.103; 3117.575;  187.350;    0.000
351.158; 3149.575;  212.350;    0.000
351.214; 3168.575;  207.350;    0.000
351.270; 3122.575;  194.350;    0.000
351.325; 3148.575;  213.350;    0.000
351.381; 3147.575;  223.350;    0.000
351.436; 3089.575;  222.350;    0.000
351.492; 3229.575;  219.350;    0.000
351.547; 3196.575;  205.350;    0.000
351.603; 3117.575;  218.350;    0.000
351.658; 3214.575;  199.350;    0.000
351.714; 3209.575;  201.350;    0.000
351.769; 3229.575;  209.350;    0.000
351.825; 3209.575;  226.350;    0.000
351.880; 3143.575;  189.350;    0.000
351.936; 3202.575;  201.350;    0.000
351.991; 3163.575;  220.350;    0.000
352.047; 3061.575;  232.350;    0.000
352.102; 3127.575;  185.350;    0.000
352.158; 3096.575;  228.350;    0.000
352.213; 3066.575;  204.350;    0.000
352.268; 3046.575;  220.350;    0.000
352.324; 3055.575;  206.350;    0.000
352.379; 3078.575;  182.350;    0.000
352.434; 3151.575;  214.350;    0.000
352.490; 3198.575;  250.350;    0.000
352.545; 3096.575;  290.350;    0.000
352.601; 3214.575;  247.350;    0.000
352.656; 3158.575;  203.350;    0.000
352.711; 3188.575;  197.350;    0.000
352.767; 3190.575;  169.350;    0.000
352.822; 3141.575;  191.350;    0.000
352.877; 3206.575;  235.350;    0.000
352.932; 3272.575;  231.350;    0.000
352.988; 3141.575;  224.350;    0.000
353.043; 3214.575;  226.350;    0.000
353.098; 3171.575;  227.350;    0.000
353.153; 3102.575;  239.350;    0.000
353.209; 3239.575;  217.350;    0.000
353.264; 3235.575;  198.350;    0.000
353.319; 3148.575;  247.350;    0.000
353.374; 3118.575;  199.350;    0.000
353.430; 3210.575;  247.350;    0.000
353.485; 3180.575;  242.350;    0.000
353.540; 3050.575;  237.350;    0.000
353.595; 3221.575;  233.350;    0.000
353.650; 3188.575;  221.350;    0.000
353.705; 3216.575;  259.350;    0.000
353.761; 3179.575;  223.350;    0.000
353.816; 3128.575;  234.350;    0.000
353.871; 3137.575;  226.350;    0.000
353.926; 3193.575;  232.350;    0.000
353.981; 3257.575;  245.350;    0.000
354.036; 3094.575;  247.350;    0.000
354.091; 3083.575;  233.350;    0.000
354.146; 3243.575;  253.350;    0.000
354.201; 3201.575;  236.350;    0.000
354.256; 3121.575;  210.350;    0.000
354.311; 3206.575;  279.350;    0.000
354.367; 3226.575;  208.350;    0.000
354.422; 3252.575;  228.350;    0.000
354.477; 3265.575;  202.350;    0.000
354.532; 3143.575;  215.350;    0.000
354.587; 3232.575;  249.350;    0.000
354.642; 3148.575;  206.350;    0.000
354.697; 3197.575;  226.350;    0.000
354.751; 3269.575;  241.350;    0.000
354.806; 3162.575;  249.350;    0.000
354.861; 3229.575;  216.350;    0.000
354.916; 3207.575;  249.350;    0.000
354.971; 3119.575;  217.350;    0.000
355.026; 3077.575;  236.350;    0.000
355.081; 3216.575;  242.350;    0.000
355.136; 3247.575;  216.350;    0.000
355.191; 3176.575;  216.350;    0.000
355.246; 3134.575;  258.350;    0.000
355.301; 3187.575;  250.350;    0.000
355.355; 3231.575;  251.350;    0.000
355.410; 3230.575;  216.350;    0.000
355.465; 3239.575;  224.350;    0.000
355.520; 3188.575;  221.350;    0.000
355.575; 3238.575;  255.350;    0.000
355.630; 3236.575;  225.350;    0.000
355.684; 3274.575;  210.350;    0.000
355.739; 3196.575;  232.350;    0.000
355.794; 3217.575;  202.350;    0.000
355.849; 3236.575;  211.350;    0.000
355.904; 3191.575;  226.350;    0.000
355.958; 3160.575;  191.350;    0.000
356.013; 3179.575;  208.350;    0.000
356.068; 3297.575;  229.350;    0.000
356.123; 3211.575;  243.350;    0.000
356.177; 3180.575;  227.350;    0.000
356.232; 3189.575;  243.350;    0.000
356.287; 3370.575;  216.350;    0.000
356.341; 3129.575;  242.350;    0.000
356.396; 3184.575;  175.350;    0.000
356.451; 3315.575;  271.350;    0.000
356.505; 3313.575;  225.350;    0.000
356.560; 3286.575;  260.350;    0.000
356.615; 3185.575;  213.350;    0.000
356.669; 3245.575;  213.350;    0.000
356.724; 3242.575;  221.350;    0.000
356.778; 3265.575;  232.350;    0.000
356.833; 3162.575;  178.350;    0.000
356.888; 3255.575;  236.350;    0.000
356.942; 3259.575;  224.350;    0.000
356.997; 3220.575;  228.350;    0.000
357.051; 3231.575;  226.350;    0.000
357.106; 3226.575;  185.350;    0.000
357.160; 3044.575;  202.350;    0.000
357.215; 3218.575;  232.350;    0.000
357.269; 3223.575;  224.350;    0.000
357.324; 3210.575;  219.350;    0.000
357.378; 3274.575;  196.350;    0.000
357.433; 3189.575;  241.350;    0.000
357.487; 3268.575;  244.350;    0.000
357.542; 3256.575;  210.350;    0.000
357.596; 3384.575;  231.350;    0.000
357.651; 3236.575;  248.350;    0.000
357.705; 3209.575;  232.350;    0.000
357.760; 3263.575;  224.350;    0.000
357.814; 3199.575;  221.350;    0.000
357.868; 3241.575;  207.350;    0.000
357.923; 3249.575;  234.350;    0.000
357.977; 3201.575;  218.350;    0.000
358.032; 3226.575;  244.350;    0.000
358.086; 3252.575;  246.350;    0.000
358.140; 3223.575;  235.350;    0.000
358.195; 3211.575;  237.350;    0.000
358.249; 3209.575;  233.350;    0.000
358.303; 3220.575;  254.350;    0.000
358.358; 3137.575;  217.350;    0.000
358.412; 3232.575;  245.350;    0.000
358.466; 3172.575;  230.350;    0.000
358.521; 3183.575;  214.350;    0.000
358.575; 3257.575;  243.350;    0.000
358.629; 3183.575;  230.350;    0.000
358.683; 3243.575;  232.350;    0.000
358.738; 3207.575;  249.350;    0.000
358.792; 3140.575;  249.350;    0.000
358.846; 3185.575;  271.350;    0.000
358.900; 3268.575;  265.350;    0.000
358.954; 3270.575;  236.350;    0.000
359.009; 3218.575;  254.350;    0.000
359.063; 3197.575;  216.350;    0.000
359.117; 3279.575;  245.350;    0.000
359.171; 3223.575;  252.350;    0.000
359.225; 3258.575;  240.350;    0.000
359.280; 3180.575;  239.350;    0.000
359.334; 3215.575;  234.350;    0.000
359.388; 3332.575;  258.350;    0.000
359.442; 3196.575;  220.350;    0.000
359.496; 3298.575;  206.350;    0.000
359.550; 3259.575;  279.350;    0.000
359.604; 3276.575;  263.350;    0.000
359.658; 3209.575;  251.350;    0.000
359.712; 3231.575;  244.350;    0.000
359.766; 3196.575;  217.350;    0.000
359.820; 3254.575;  235.350;    0.000
359.875; 3165.575;  249.350;    0.000
359.929; 3211.575;  269.350;    0.000
359.983; 3182.575;  240.350;    0.000
360.037; 3195.575;  252.350;    0.000
360.091; 3222.575;  271.350;    0.000
360.145; 3119.575;  222.350;    0.000
360.199; 3230.575;  302.350;    0.000
360.253; 3172.575;  234.350;    0.000
360.306; 3236.575;  258.350;    0.000
360.360; 3276.575;  249.350;    0.000
360.414; 3226.575;  231.350;    0.000
360.468; 3214.575;  261.350;    0.000
360.522; 3205.575;  277.350;    0.000
360.576; 3271.575;  273.350;    0.000
360.630; 3245.575;  264.350;    0.000
360.684; 3240.575;  223.350;    0.000
360.738; 3182.575;  266.350;    0.000
360.792; 3293.575;  252.350;    0.000
360.846; 3206.575;  234.350;    0.000
360.899; 3197.575;  296.350;    0.000
360.953; 3165.575;  273.350;    0.000
361.007; 3218.575;  251.350;    0.000
361.061; 3215.575;  250.350;    0.000
361.115; 3182.575;  267.350;    0.000
361.168; 3113.575;  308.350;    0.000
361.222; 3199.575;  246.350;    0.000
361.276; 3168.575;  261.350;    0.000
361.330; 3248.575;  233.350;    0.000
361.384; 3228.575;  269.350;    0.000
361.437; 3271.575;  270.350;    0.000
361.491; 3246.575;  263.350;    0.000
361.545; 3279.575;  288.350;    0.000
361.599; 3239.575;  270.350;    0.000
361.652; 3251.575;  256.350;    0.000
361.706; 3268.575;  263.350;    0.000
361.760; 3300.575;  237.350;    0.000
361.813; 3266.575;  278.350;    0.000
361.867; 3284.575;  317.350;    0.000
361.921; 3300.575;  260.350;    0.000
361.974; 3157.575;  239.350;    0.000
362.028; 3195.575;  266.350;    0.000
362.082; 3226.575;  269.350;    0.000
362.135; 3169.575;  262.350;    0.000
362.189; 3229.575;  258.350;    0.000
362.242; 3191.575;  273.350;    0.000
362.296; 3146.575;  261.350;    0.000
362.350; 3194.575;  272.350;    0.000
362.403; 3221.575;  291.350;    0.000
362.457; 3171.575;  253.350;    0.000
362.510; 3204.575;  266.350;    0.000
362.564; 3194.575;  260.350;    0.000
362.617; 3202.575;  280.350;    0.000
362.671; 3195.575;  281.350;    0.000
362.724; 3146.575;  234.350;    0.000
362.778; 3297.575;  311.350;    0.000
362.831; 3272.575;  276.350;    0.000
362.885; 3210.575;  288.350;    0.000
362.938; 3154.575;  284.350;    0.000
362.992;  340.575;  245.350;    0.000
363.045;  293.575;  277.350;    0.000
363.099;  293.575;  246.350;    0.000
363.152;  294.575;  290.350;    0.000
363.205;  294.575;  256.350;    0.000
363.259;  267.575;  238.350;    0.000
363.312;  305.575;  290.350;    0.000
363.366;  283.575;  287.350;    0.000
363.419;  304.575;  279.350;    0.000
363.472;  322.575;  304.350;    0.000
363.526;  306.575;  305.350;    0.000
363.579;  283.575;  281.350;    0.000
363.632;  288.575;  279.350;    0.000
363.686;  271.575;  277.350;    0.000
363.739;  242.575;  268.350;    0.000
363.792;  268.575;  274.350;    0.000

