
Integration time [ms]:   0.300
Averaging Nr. [scans]: 1
Smoothing Nr. [pixels]: 0
Data measured with spectrometer [name]: UV2
Wave   ;Sample   ;Dark     ;Reference
[nm]   ;[counts] ;[counts] ;[counts] 

353.533;  223.025;  178.050;    0.000
353.597;  249.025;  251.050;    0.000
353.660;  211.025;  213.050;    0.000
353.723;  208.025;  185.050;    0.000
353.786;  202.025;  191.050;    0.000
353.850;  233.025;  238.050;    0.000
353.913;  202.025;  181.050;    0.000
353.976;  211.025;  190.050;    0.000
354.039;  182.025;  184.050;    0.000
354.102;  227.025;  231.050;    0.000
354.166;  200.025;  188.050;    0.000
354.229;  209.025;  224.050;    0.000
354.292;  165.025;  186.050;    0.000
354.355;  195.025;  175.050;    0.000
354.418;  183.025;  191.050;    0.000
354.481;  188.025;  181.050;    0.000
354.545;  800.025;  193.050;    0.000
354.608;  858.025;  210.050;    0.000
354.671;  801.025;  183.050;    0.000
354.734;  857.025;  189.050;    0.000
354.797;  848.025;  168.050;    0.000
354.860;  952.025;  178.050;    0.000
354.923;  931.025;  236.050;    0.000
354.986;  906.025;  181.050;    0.000
355.050;  908.025;  168.050;    0.000
355.113;  908.025;  201.050;    0.000
355.176;  940.025;  206.050;    0.000
355.239; 1017.025;  213.050;    0.000
355.302;  985.025;  198.050;    0.000
355.365; 1030.025;  199.050;    0.000
355.428;  976.025;  200.050;    0.000
355.491; 1058.025;  232.050;    0.000
355.554;  964.025;  184.050;    0.000
355.617; 1036.025;  214.050;    0.000
355.680; 1057.025;  191.050;    0.000
355.743; 1044.025;  161.050;    0.000
355.806; 1057.025;  153.050;    0.000
355.869; 1158.025;  221.050;    0.000
355.932; 1072.025;  152.050;    0.000
355.995; 1162.025;  195.050;    0.000
356.058; 1114.025;  172.050;    0.000
356.121; 1174.025;  186.050;    0.000
356.184; 1185.025;  196.050;    0.000
356.247; 1186.025;  183.050;    0.000
356.310; 1117.025;  159.050;    0.000
356.373; 1173.025;  183.050;    0.000
356.436; 1259.025;  176.050;    0.000
356.498; 1168.025;  191.050;    0.000
356.561; 1157.025;  145.050;    0.000
356.624; 1146.025;  187.050;    0.000
356.687; 1238.025;  181.050;    0.000
356.750; 1201.025;  227.050;    0.000
356.813; 1170.025;  147.050;    0.000
356.876; 1228.025;  184.050;    0.000
356.939; 1157.025;  141.050;    0.000
357.001; 1255.025;  188.050;    0.000
357.064; 1208.025;  173.050;    0.000
357.127; 1255.025;  159.050;    0.000
357.190; 1198.025;  185.050;    0.000
357.253; 1272.025;  180.050;    0.000
357.316; 1179.025;  199.050;    0.000
357.378; 1252.025;  196.050;    0.000
357.441; 1191.025;  175.050;    0.000
357.504; 1201.025;  164.050;    0.000
357.567; 1240.025;  145.050;    0.000
357.629; 1227.025;  205.050;    0.000
357.692; 1192.025;  175.050;    0.000
357.755; 1339.025;  205.050;    0.000
357.818; 1218.025;  141.050;    0.000
357.880; 1254.025;  170.050;    0.000
357.943; 1227.025;  152.050;    0.000
358.006; 1222.025;  145.050;    0.000
358.069; 1209.025;  164.050;    0.000
358.131; 1263.025;  148.050;    0.000
358.194; 1223.025;  122.050;    0.000
358.257; 1249.025;  147.050;    0.000
358.319; 1271.025;  156.050;    0.000
358.382; 1262.025;  193.050;    0.000
358.445; 1267.025;  155.050;    0.000
358.507; 1337.025;  160.050;    0.000
358.570; 1218.025;  159.050;    0.000
358.633; 1295.025;  163.050;    0.000
358.695; 1351.025;  174.050;    0.000
358.758; 1337.025;  127.050;    0.000
358.821; 1268.025;  165.050;    0.000
358.883; 1337.025;  145.050;    0.000
358.946; 1307.025;  127.050;    0.000
359.008; 1379.025;  180.050;    0.000
359.071; 1334.025;  173.050;    0.000
359.134; 1264.025;  150.050;    0.000
359.196; 1346.025;  158.050;    0.000
359.259; 1305.025;  159.050;    0.000
359.321; 1311.025;  159.050;    0.000
359.384; 1319.025;  182.050;    0.000
359.446; 1316.025;  140.050;    0.000
359.509; 1311.025;  146.050;    0.000
359.571; 1430.025;  133.050;    0.000
359.634; 1347.025;   93.050;    0.000
359.696; 1367.025;  142.050;    0.000
359.759; 1322.025;  161.050;    0.000
359.821; 1345.025;  110.050;    0.000
359.884; 1373.025;  114.050;    0.000
359.946; 1395.025;  180.050;    0.000
360.009; 1379.025;  158.050;    0.000
360.071; 1417.025;  116.050;    0.000
360.134; 1404.025;  170.050;    0.000
360.196; 1392.025;  128.050;    0.000
360.259; 1401.025;  157.050;    0.000
360.321; 1413.025;  122.050;    0.000
360.384; 1380.025;  119.050;    0.000
360.446; 1340.025;  122.050;    0.000
360.508; 1432.025;  195.050;    0.000
360.571; 1422.025;  128.050;    0.000
360.633; 1432.025;  172.050;    0.000
360.696; 1424.025;  115.050;    0.000
360.758; 1434.025;  162.050;    0.000
360.820; 1450.025;  149.050;    0.000
360.883; 1427.025;  151.050;    0.000
360.945; 1434.025;  149.050;    0.000
361.007; 1464.025;  135.050;    0.000
361.070; 1419.025;  162.050;    0.000
361.132; 1495.025;  198.050;    0.000
361.194; 1449.025;  141.050;    0.000
361.257; 1401.025;  154.050;    0.000
361.319; 1394.025;  147.050;    0.000
361.381; 1397.025;  154.050;    0.000
361.443; 1363.025;  144.050;    0.000
361.506; 1484.025;  164.050;    0.000
361.568; 1440.025;  148.050;    0.000
361.630; 1455.025;  127.050;    0.000
361.693; 1442.025;  158.050;    0.000
361.755; 1407.025;  161.050;    0.000
361.817; 1578.025;  173.050;    0.000
361.879; 1506.025;  159.050;    0.000
361.941; 1413.025;  153.050;    0.000
362.004; 1527.025;  148.050;    0.000
362.066; 1471.025;  150.050;    0.000
362.128; 1423.025;  132.050;    0.000
362.190; 1505.025;  207.050;    0.000
362.252; 1500.025;  142.050;    0.000
362.315; 1503.025;  153.050;    0.000
362.377; 1453.025;  164.050;    0.000
362.439; 1447.025;  155.050;    0.000
362.501; 1494.025;  157.050;    0.000
362.563; 1466.025;  188.050;    0.000
362.625; 1493.025;  194.050;    0.000
362.688; 1482.025;  159.050;    0.000
362.750; 1515.025;  205.050;    0.000
362.812; 1529.025;  148.050;    0.000
362.874; 1497.025;  173.050;    0.000
362.936; 1526.025;  152.050;    0.000
362.998; 1495.025;  145.050;    0.000
363.060; 1585.025;  184.050;    0.000
363.122; 1560.025;  147.050;    0.000
363.184; 1558.025;  136.050;    0.000
363.246; 1503.025;  171.050;    0.000
363.308; 1549.025;  154.050;    0.000
363.370; 1530.025;  175.050;    0.000
363.432; 1502.025;  139.050;    0.000
363.494; 1529.025;  163.050;    0.000
363.556; 1593.025;  117.050;    0.000
363.618; 1512.025;  126.050;    0.000
363.680; 1583.025;  147.050;    0.000
363.742; 1535.025;  161.050;    0.000
363.804; 1548.025;  159.050;    0.000
363.866; 1562.025;  170.050;    0.000
363.928; 1500.025;  122.050;    0.000
363.990; 1537.025;  167.050;    0.000
364.052; 1543.025;  180.050;    0.000
364.114; 1474.025;  119.050;    0.000
364.176; 1611.025;  184.050;    0.000
364.238; 1524.025;  180.050;    0.000
364.300; 1666.025;  159.050;    0.000
364.362; 1573.025;  163.050;    0.000
364.424; 1515.025;  139.050;    0.000
364.486; 1653.025;  189.050;    0.000
364.548; 1518.025;  167.050;    0.000
364.609; 1621.025;  165.050;    0.000
364.671; 1646.025;  171.050;    0.000
364.733; 1555.025;  165.050;    0.000
364.795; 1578.025;  122.050;    0.000
364.857; 1527.025;  147.050;    0.000
364.919; 1560.025;  104.050;    0.000
364.981; 1541.025;  143.050;    0.000
365.042; 1649.025;  166.050;    0.000
365.104; 1525.025;  162.050;    0.000
365.166; 1551.025;  155.050;    0.000
365.228; 1582.025;  179.050;    0.000
365.290; 1604.025;  133.050;    0.000
365.351; 1542.025;  142.050;    0.000
365.413; 1602.025;  144.050;    0.000
365.475; 1525.025;  139.050;    0.000
365.537; 1561.025;  181.050;    0.000
365.598; 1636.025;  166.050;    0.000
365.660; 1587.025;  130.050;    0.000
365.722; 1665.025;  177.050;    0.000
365.784; 1536.025;  149.050;    0.000
365.845; 1588.025;  156.050;    0.000
365.907; 1640.025;  122.050;    0.000
365.969; 1701.025;  140.050;    0.000
366.030; 1620.025;  156.050;    0.000
366.092; 1642.025;  140.050;    0.000
366.154; 1624.025;  169.050;    0.000
366.215; 1626.025;  170.050;    0.000
366.277; 1596.025;  143.050;    0.000
366.339; 1584.025;  139.050;    0.000
366.400; 1545.025;  139.050;    0.000
366.462; 1622.025;  140.050;    0.000
366.524; 1637.025;  150.050;    0.000
366.585; 1592.025;  163.050;    0.000
366.647; 1574.025;  193.050;    0.000
366.708; 1558.025;  135.050;    0.000
366.770; 1679.025;  165.050;    0.000
366.832; 1654.025;  168.050;    0.000
366.893; 1608.025;  157.050;    0.000
366.955; 1625.025;  132.050;    0.000
367.016; 1601.025;  127.050;    0.000
367.078; 1599.025;  146.050;    0.000
367.139; 1587.025;  129.050;    0.000
367.201; 1624.025;  148.050;    0.000
367.262; 1622.025;  165.050;    0.000
367.324; 1662.025;  171.050;    0.000
367.385; 1607.025;  118.050;    0.000
367.447; 1733.025;  144.050;    0.000
367.508; 1650.025;  135.050;    0.000
367.570; 1633.025;  160.050;    0.000
367.631; 1681.025;  157.050;    0.000
367.693; 1667.025;  168.050;    0.000
367.754; 1680.025;  139.050;    0.000
367.816; 1621.025;  141.050;    0.000
367.877; 1678.025;  195.050;    0.000
367.939; 1678.025;  166.050;    0.000
368.000; 1603.025;  127.050;    0.000
368.062; 1640.025;  143.050;    0.000
368.123; 1692.025;  156.050;    0.000
368.184; 1651.025;  179.050;    0.000
368.246; 1689.025;  168.050;    0.000
368.307; 1713.025;  203.050;    0.000
368.369; 1604.025;  149.050;    0.000
368.430; 1744.025;  121.050;    0.000
368.491; 1625.025;  131.050;    0.000
368.553; 1694.025;  161.050;    0.000
368.614; 1698.025;  157.050;    0.000
368.675; 1666.025;  152.050;    0.000
368.737; 1640.025;  168.050;    0.000
368.798; 1716.025;  147.050;    0.000
368.859; 1707.025;  174.050;    0.000
368.921; 1645.025;  168.050;    0.000
368.982; 1699.025;  151.050;    0.000
369.043; 1610.025;  169.050;    0.000
369.104; 1682.025;  149.050;    0.000
369.166; 1799.025;  178.050;    0.000
369.227; 1682.025;  149.050;    0.000
369.288; 1633.025;  131.050;    0.000
369.349; 1689.025;  128.050;    0.000
369.411; 1733.025;  198.050;    0.000
369.472; 1697.025;  156.050;    0.000
369.533; 1743.025;  142.050;    0.000
369.594; 1686.025;  125.050;    0.000
369.656; 1734.025;  153.050;    0.000
369.717; 1688.025;  124.050;    0.000
369.778; 1774.025;  163.050;    0.000
369.839; 1791.025;  130.050;    0.000
369.900; 1705.025;  170.050;    0.000
369.961; 1733.025;  142.050;    0.000
370.023; 1844.025;  197.050;    0.000
370.084; 1741.025;  151.050;    0.000
370.145; 1737.025;  128.050;    0.000
370.206; 1734.025;  152.050;    0.000
370.267; 1726.025;  154.050;    0.000
370.328; 1656.025;  154.050;    0.000
370.389; 1722.025;  173.050;    0.000
370.451; 1784.025;  191.050;    0.000
370.512; 1823.025;  155.050;    0.000
370.573; 1747.025;  134.050;    0.000
370.634; 1752.025;  160.050;    0.000
370.695; 1805.025;  124.050;    0.000
370.756; 1780.025;  169.050;    0.000
370.817; 1791.025;  169.050;    0.000
370.878; 1805.025;  200.050;    0.000
370.939; 1740.025;  157.050;    0.000
371.000; 1796.025;  131.050;    0.000
371.061; 1712.025;  136.050;    0.000
371.122; 1735.025;  176.050;    0.000
371.183; 1742.025;   81.050;    0.000
371.244; 1798.025;  156.050;    0.000
371.305; 1760.025;  131.050;    0.000
371.366; 1820.025;  161.050;    0.000
371.427; 1803.025;  127.050;    0.000
371.488; 1831.025;  184.050;    0.000
371.549; 1789.025;  159.050;    0.000
371.610; 1820.025;  147.050;    0.000
371.671; 1718.025;  132.050;    0.000
371.732; 1823.025;  163.050;    0.000
371.793; 1797.025;  179.050;    0.000
371.853; 1792.025;  179.050;    0.000
371.914; 1794.025;  149.050;    0.000
371.975; 1851.025;  117.050;    0.000
372.036; 1753.025;  141.050;    0.000
372.097; 1740.025;  101.050;    0.000
372.158; 1800.025;  115.050;    0.000
372.219; 1839.025;  174.050;    0.000
372.280; 1779.025;  134.050;    0.000
372.340; 1840.025;  180.050;    0.000
372.401; 1874.025;  166.050;    0.000
372.462; 1840.025;  171.050;    0.000
372.523; 1793.025;  132.050;    0.000
372.584; 1765.025;  182.050;    0.000
372.645; 1760.025;  149.050;    0.000
372.705; 1837.025;  182.050;    0.000
372.766; 1862.025;  145.050;    0.000
372.827; 1824.025;  161.050;    0.000
372.888; 1842.025;  156.050;    0.000
372.948; 1840.025;  158.050;    0.000
373.009; 1838.025;  178.050;    0.000
373.070; 1833.025;  166.050;    0.000
373.131; 1906.025;  154.050;    0.000
373.191; 1933.025;  193.050;    0.000
373.252; 1810.025;  148.050;    0.000
373.313; 1785.025;  152.050;    0.000
373.373; 1882.025;  156.050;    0.000
373.434; 1821.025;  166.050;    0.000
373.495; 1832.025;  152.050;    0.000
373.555; 1897.025;  145.050;    0.000
373.616; 1872.025;  141.050;    0.000
373.677; 1855.025;  169.050;    0.000
373.737; 1834.025;  166.050;    0.000
373.798; 1800.025;  151.050;    0.000
373.859; 1922.025;  170.050;    0.000
373.919; 1876.025;  206.050;    0.000
373.980; 1943.025;  140.050;    0.000
374.041; 1823.025;  148.050;    0.000
374.101; 1848.025;  165.050;    0.000
374.162; 1911.025;  166.050;    0.000
374.222; 1928.025;  156.050;    0.000
374.283; 1925.025;  161.050;    0.000
374.343; 1857.025;  185.050;    0.000
374.404; 1868.025;  148.050;    0.000
374.465; 1925.025;  162.050;    0.000
374.525; 1884.025;  177.050;    0.000
374.586; 1908.025;  164.050;    0.000
374.646; 1952.025;  180.050;    0.000
374.707; 1960.025;  203.050;    0.000
374.767; 1940.025;  148.050;    0.000
374.828; 1882.025;  142.050;    0.000
374.888; 1976.025;  187.050;    0.000
374.949; 1954.025;  137.050;    0.000
375.009; 1872.025;  155.050;    0.000
375.070; 1940.025;  165.050;    0.000
375.130; 1991.025;  168.050;    0.000
375.190; 2006.025;  157.050;    0.000
375.251; 1985.025;  206.050;    0.000
375.311; 1984.025;  141.050;    0.000
375.372; 1958.025;  144.050;    0.000
375.432; 1927.025;  153.050;    0.000
375.493; 1943.025;  168.050;    0.000
375.553; 1996.025;  146.050;    0.000
375.613; 1906.025;  142.050;    0.000
375.674; 1985.025;  153.050;    0.000
375.734; 1943.025;  166.050;    0.000
375.794; 1899.025;  145.050;    0.000
375.855; 1962.025;  162.050;    0.000
375.915; 1903.025;  162.050;    0.000
375.975; 1966.025;  144.050;    0.000
376.036; 1875.025;  128.050;    0.000
376.096; 1971.025;  122.050;    0.000
376.156; 1949.025;  140.050;    0.000
376.217; 1947.025;  158.050;    0.000
376.277; 1889.025;  163.050;    0.000
376.337; 1961.025;  139.050;    0.000
376.398; 1911.025;  176.050;    0.000
376.458; 1874.025;  143.050;    0.000
376.518; 1889.025;  136.050;    0.000
376.578; 1942.025;  177.050;    0.000
376.639; 1928.025;  163.050;    0.000
376.699; 1911.025;  183.050;    0.000
376.759; 1889.025;  169.050;    0.000
376.819; 2004.025;  147.050;    0.000
376.880; 2013.025;  188.050;    0.000
376.940; 2010.025;  185.050;    0.000
377.000; 1953.025;  131.050;    0.000
377.060; 1940.025;  182.050;    0.000
377.120; 1994.025;  165.050;    0.000
377.180; 1968.025;  169.050;    0.000
377.241; 1931.025;  146.050;    0.000
377.301; 1934.025;  183.050;    0.000
377.361; 1950.025;  124.050;    0.000
377.421; 1955.025;  186.050;    0.000
377.481; 1968.025;  178.050;    0.000
377.541; 2027.025;  140.050;    0.000
377.601; 1969.025;  175.050;    0.000
377.661; 2031.025;  169.050;    0.000
377.722; 1947.025;  144.050;    0.000
377.782; 1988.025;  182.050;    0.000
377.842; 1987.025;  161.050;    0.000
377.902; 1994.025;  151.050;    0.000
377.962; 1957.025;  134.050;    0.000
378.022; 2065.025;  153.050;    0.000
378.082; 2040.025;  178.050;    0.000
378.142; 2027.025;  118.050;    0.000
378.202; 2025.025;  153.050;    0.000
378.262; 2044.025;  166.050;    0.000
378.322; 2070.025;  174.050;    0.000
378.382; 2034.025;  148.050;    0.000
378.442; 2059.025;  190.050;    0.000
378.502; 1982.025;  136.050;    0.000
378.562; 2004.025;  130.050;    0.000
378.622; 2015.025;  188.050;    0.000
378.682; 2077.025;  163.050;    0.000
378.742; 2127.025;  150.050;    0.000
378.802; 2005.025;  127.050;    0.000
378.862; 2098.025;  186.050;    0.000
378.921; 2053.025;  203.050;    0.000
378.981; 2096.025;  177.050;    0.000
379.041; 2011.025;  134.050;    0.000
379.101; 2098.025;  167.050;    0.000
379.161; 2079.025;  130.050;    0.000
379.221; 2066.025;  169.050;    0.000
379.281; 2098.025;  162.050;    0.000
379.341; 2213.025;  134.050;    0.000
379.401; 1997.025;  151.050;    0.000
379.460; 2033.025;  190.050;    0.000
379.520; 2103.025;  158.050;    0.000
379.580; 2099.025;  162.050;    0.000
379.640; 2094.025;  146.050;    0.000
379.700; 2076.025;  167.050;    0.000
379.759; 2132.025;  194.050;    0.000
379.819; 2103.025;  176.050;    0.000
379.879; 2149.025;  140.050;    0.000
379.939; 2187.025;  184.050;    0.000
379.999; 2096.025;  165.050;    0.000
380.058; 2152.025;  194.050;    0.000
380.118; 2165.025;  137.050;    0.000
380.178; 2180.025;  139.050;    0.000
380.237; 2201.025;  139.050;    0.000
380.297; 2218.025;  160.050;    0.000
380.357; 2150.025;  194.050;    0.000
380.417; 2188.025;  174.050;    0.000
380.476; 2204.025;  153.050;    0.000
380.536; 2202.025;  169.050;    0.000
380.596; 2183.025;  159.050;    0.000
380.655; 2253.025;  178.050;    0.000
380.715; 2240.025;  196.050;    0.000
380.775; 2276.025;  202.050;    0.000
380.834; 2157.025;  186.050;    0.000
380.894; 2217.025;  167.050;    0.000
380.954; 2248.025;  150.050;    0.000
381.013; 2268.025;  187.050;    0.000
381.073; 2208.025;  114.050;    0.000
381.132; 2342.025;  176.050;    0.000
381.192; 2266.025;  197.050;    0.000
381.252; 2248.025;  172.050;    0.000
381.311; 2344.025;  155.050;    0.000
381.371; 2306.025;  172.050;    0.000
381.430; 2369.025;  143.050;    0.000
381.490; 2331.025;  136.050;    0.000
381.549; 2326.025;  131.050;    0.000
381.609; 2308.025;  203.050;    0.000
381.668; 2281.025;  135.050;    0.000
381.728; 2394.025;  163.050;    0.000
381.787; 2405.025;  195.050;    0.000
381.847; 2415.025;  185.050;    0.000
381.906; 2380.025;  187.050;    0.000
381.966; 2410.025;  153.050;    0.000
382.025; 2465.025;  175.050;    0.000
382.085; 2468.025;  195.050;    0.000
382.144; 2571.025;  210.050;    0.000
382.204; 2486.025;  201.050;    0.000
382.263; 2431.025;  178.050;    0.000
382.323; 2614.025;  151.050;    0.000
382.382; 2562.025;  147.050;    0.000
382.441; 2633.025;  144.050;    0.000
382.501; 2697.025;  156.050;    0.000
382.560; 2747.025;  160.050;    0.000
382.619; 2777.025;  173.050;    0.000
382.679; 2891.025;  167.050;    0.000
382.738; 3030.025;  189.050;    0.000
382.798; 3068.025;  181.050;    0.000
382.857; 3307.025;  161.050;    0.000
382.916; 3546.025;  162.050;    0.000
382.976; 3521.025;  169.050;    0.000
383.035; 3575.025;  174.050;    0.000
383.094; 3618.025;  178.050;    0.000
383.154; 3925.025;  188.050;    0.000
383.213; 4409.025;  162.050;    0.000
383.272; 4264.025;  144.050;    0.000
383.331; 3657.025;  144.050;    0.000
383.391; 3427.025;  198.050;    0.000
383.450; 3326.025;  185.050;    0.000
383.509; 3396.025;  132.050;    0.000
383.568; 3440.025;  171.050;    0.000
383.628; 3746.025;  171.050;    0.000
383.687; 3919.025;  172.050;    0.000
383.746; 4153.025;  144.050;    0.000
383.805; 5008.025;  177.050;    0.000
383.864; 4950.025;  145.050;    0.000
383.924; 3975.025;  203.050;    0.000
383.983; 3521.025;  153.050;    0.000
384.042; 3218.025;  171.050;    0.000
384.101; 3118.025;  186.050;    0.000
384.160; 2867.025;  132.050;    0.000
384.219; 2867.025;  157.050;    0.000
384.279; 2782.025;  166.050;    0.000
384.338; 2787.025;  141.050;    0.000
384.397; 2695.025;  142.050;    0.000
384.456; 2687.025;  155.050;    0.000
384.515; 2589.025;  158.050;    0.000
384.574; 2677.025;  208.050;    0.000
384.633; 2611.025;  158.050;    0.000
384.692; 2645.025;  162.050;    0.000
384.751; 2601.025;  179.050;    0.000
384.810; 2642.025;  150.050;    0.000
384.869; 2560.025;  147.050;    0.000
384.929; 2587.025;  132.050;    0.000
384.988; 2552.025;  166.050;    0.000
385.047; 2534.025;  161.050;    0.000
385.106; 2597.025;  180.050;    0.000
385.165; 2546.025;  123.050;    0.000
385.224; 2581.025;  153.050;    0.000
385.283; 2562.025;  158.050;    0.000
385.342; 2563.025;  184.050;    0.000
385.401; 2534.025;  191.050;    0.000
385.459; 2577.025;  143.050;    0.000
385.518; 2526.025;  152.050;    0.000
385.577; 2555.025;  134.050;    0.000
385.636; 2515.025;  187.050;    0.000
385.695; 2603.025;  141.050;    0.000
385.754; 2570.025;  143.050;    0.000
385.813; 2577.025;  145.050;    0.000
385.872; 2565.025;  116.050;    0.000
385.931; 2611.025;  147.050;    0.000
385.990; 2595.025;  170.050;    0.000
386.049; 2635.025;  189.050;    0.000
386.107; 2474.025;  122.050;    0.000
386.166; 2558.025;  155.050;    0.000
386.225; 2589.025;  173.050;    0.000
386.284; 2657.025;  138.050;    0.000
386.343; 2573.025;  216.050;    0.000
386.402; 2657.025;  162.050;    0.000
386.460; 2549.025;  131.050;    0.000
386.519; 2600.025;  122.050;    0.000
386.578; 2616.025;  140.050;    0.000
386.637; 2634.025;  169.050;    0.000
386.696; 2700.025;  176.050;    0.000
386.754; 2568.025;  127.050;    0.000
386.813; 2594.025;  138.050;    0.000
386.872; 2590.025;  135.050;    0.000
386.931; 2609.025;  170.050;    0.000
386.989; 2542.025;  167.050;    0.000
387.048; 2606.025;  131.050;    0.000
387.107; 2609.025;  176.050;    0.000
387.165; 2549.025;  139.050;    0.000
387.224; 2614.025;  150.050;    0.000
387.283; 2577.025;  169.050;    0.000
387.342; 2641.025;  191.050;    0.000
387.400; 2582.025;  131.050;    0.000
387.459; 2482.025;  139.050;    0.000
387.517; 2541.025;  214.050;    0.000
387.576; 2600.025;  146.050;    0.000
387.635; 2504.025;  161.050;    0.000
387.693; 2551.025;  197.050;    0.000
387.752; 2623.025;  159.050;    0.000
387.811; 2510.025;  144.050;    0.000
387.869; 2634.025;  172.050;    0.000
387.928; 2524.025;  160.050;    0.000
387.986; 2487.025;  192.050;    0.000
388.045; 2475.025;  121.050;    0.000
388.103; 2487.025;  129.050;    0.000
388.162; 2565.025;  169.050;    0.000
388.221; 2610.025;  171.050;    0.000
388.279; 2539.025;  135.050;    0.000
388.338; 2683.025;  222.050;    0.000
388.396; 2595.025;  168.050;    0.000
388.455; 2580.025;  178.050;    0.000
388.513; 2523.025;  151.050;    0.000
388.572; 2591.025;  147.050;    0.000
388.630; 2595.025;  158.050;    0.000
388.689; 2631.025;  163.050;    0.000
388.747; 2540.025;  180.050;    0.000
388.806; 2515.025;  119.050;    0.000
388.864; 2593.025;  159.050;    0.000
388.922; 2525.025;  152.050;    0.000
388.981; 2585.025;  125.050;    0.000
389.039; 2504.025;  151.050;    0.000
389.098; 2585.025;  151.050;    0.000
389.156; 2586.025;  175.050;    0.000
389.214; 2576.025;  133.050;    0.000
389.273; 2558.025;  142.050;    0.000
389.331; 2582.025;  179.050;    0.000
389.390; 2548.025;  179.050;    0.000
389.448; 2577.025;  159.050;    0.000
389.506; 2634.025;  140.050;    0.000
389.565; 2635.025;  160.050;    0.000
389.623; 2597.025;  181.050;    0.000
389.681; 2590.025;  181.050;    0.000
389.740; 2624.025;  187.050;    0.000
389.798; 2671.025;  163.050;    0.000
389.856; 2627.025;  185.050;    0.000
389.914; 2540.025;  170.050;    0.000
389.973; 2583.025;  150.050;    0.000
390.031; 2676.025;  149.050;    0.000
390.089; 2611.025;  191.050;    0.000
390.147; 2473.025;  126.050;    0.000
390.206; 2606.025;  174.050;    0.000
390.264; 2585.025;  164.050;    0.000
390.322; 2594.025;  150.050;    0.000
390.380; 2539.025;  137.050;    0.000
390.439; 2572.025;  176.050;    0.000
390.497; 2619.025;  188.050;    0.000
390.555; 2632.025;  143.050;    0.000
390.613; 2615.025;  174.050;    0.000
390.671; 2635.025;  208.050;    0.000
390.729; 2684.025;  135.050;    0.000
390.788; 2651.025;  169.050;    0.000
390.846; 2660.025;  173.050;    0.000
390.904; 2635.025;  176.050;    0.000
390.962; 2587.025;  179.050;    0.000
391.020; 2680.025;  201.050;    0.000
391.078; 2693.025;  192.050;    0.000
391.136; 2686.025;  170.050;    0.000
391.194; 2639.025;  163.050;    0.000
391.253; 2671.025;  203.050;    0.000
391.311; 2684.025;  170.050;    0.000
391.369; 2768.025;  191.050;    0.000
391.427; 2725.025;  226.050;    0.000
391.485; 2733.025;  181.050;    0.000
391.543; 2809.025;  177.050;    0.000
391.601; 2772.025;  150.050;    0.000
391.659; 2822.025;  201.050;    0.000
391.717; 2734.025;  166.050;    0.000
391.775; 2750.025;  200.050;    0.000
391.833; 2792.025;  180.050;    0.000
391.891; 2660.025;  172.050;    0.000
391.949; 2755.025;  174.050;    0.000
392.007; 2791.025;  194.050;    0.000
392.065; 2843.025;  161.050;    0.000
392.123; 2784.025;  159.050;    0.000
392.180; 2868.025;  193.050;    0.000
392.238; 2827.025;  188.050;    0.000
392.296; 2783.025;  206.050;    0.000
392.354; 2745.025;  170.050;    0.000
392.412; 2786.025;  207.050;    0.000
392.470; 2792.025;  168.050;    0.000
392.528; 2789.025;  185.050;    0.000
392.586; 2801.025;  154.050;    0.000
392.644; 2744.025;  190.050;    0.000
392.701; 2737.025;  195.050;    0.000
392.759; 2886.025;  229.050;    0.000
392.817; 2842.025;  176.050;    0.000
392.875; 2854.025;  198.050;    0.000
392.933; 2832.025;  174.050;    0.000
392.991; 2848.025;  237.050;    0.000
393.048; 2973.025;  212.050;    0.000
393.106; 2893.025;  191.050;    0.000
393.164; 2981.025;  136.050;    0.000
393.222; 3154.025;  164.050;    0.000
393.279; 3388.025;  208.050;    0.000
393.337; 4080.025;  203.050;    0.000
393.395; 4156.025;  191.050;    0.000
393.453; 3388.025;  153.050;    0.000
393.510; 3047.025;  171.050;    0.000
393.568; 2956.025;  203.050;    0.000
393.626; 3006.025;  169.050;    0.000
393.684; 2974.025;  201.050;    0.000
393.741; 2936.025;  172.050;    0.000
393.799; 2927.025;  149.050;    0.000
393.857; 2812.025;  151.050;    0.000
393.914; 2883.025;  192.050;    0.000
393.972; 2943.025;  176.050;    0.000
394.030; 2852.025;  165.050;    0.000
394.087; 2973.025;  192.050;    0.000
394.145; 2912.025;  183.050;    0.000
394.202; 2929.025;  161.050;    0.000
394.260; 2921.025;  135.050;    0.000
394.318; 2932.025;  188.050;    0.000
394.375; 2926.025;  163.050;    0.000
394.433; 2982.025;  151.050;    0.000
394.490; 2852.025;  190.050;    0.000
394.548; 2966.025;  157.050;    0.000
394.605; 3010.025;  205.050;    0.000
394.663; 3053.025;  173.050;    0.000
394.720; 3015.025;  171.050;    0.000
394.778; 2920.025;  190.050;    0.000
394.836; 3043.025;  134.050;    0.000
394.893; 2913.025;  142.050;    0.000
394.951; 3070.025;  192.050;    0.000
395.008; 3075.025;  149.050;    0.000
395.065; 2942.025;  194.050;    0.000
395.123; 3005.025;  160.050;    0.000
395.180; 3028.025;  178.050;    0.000
395.238; 2975.025;  191.050;    0.000
395.295; 3003.025;  160.050;    0.000
395.353; 3109.025;  162.050;    0.000
395.410; 3032.025;  165.050;    0.000
395.468; 3050.025;  190.050;    0.000
395.525; 3079.025;  173.050;    0.000
395.582; 3107.025;  161.050;    0.000
395.640; 3056.025;  200.050;    0.000
395.697; 3060.025;  198.050;    0.000
395.754; 3095.025;  136.050;    0.000
395.812; 3103.025;  172.050;    0.000
395.869; 3199.025;  172.050;    0.000
395.927; 3118.025;  145.050;    0.000
395.984; 3194.025;  220.050;    0.000
396.041; 3105.025;  137.050;    0.000
396.098; 3105.025;  161.050;    0.000
396.156; 3089.025;  159.050;    0.000
396.213; 3113.025;  200.050;    0.000
396.270; 3239.025;  209.050;    0.000
396.328; 3088.025;  162.050;    0.000
396.385; 2980.025;  186.050;    0.000
396.442; 3096.025;  177.050;    0.000
396.499; 3130.025;  183.050;    0.000
396.557; 3125.025;  182.050;    0.000
396.614; 3222.025;  186.050;    0.000
396.671; 3196.025;  144.050;    0.000
396.728; 3454.025;  176.050;    0.000
396.785; 3457.025;  169.050;    0.000
396.843; 3892.025;  134.050;    0.000
396.900; 3657.025;  184.050;    0.000
396.957; 3412.025;  197.050;    0.000
397.014; 3267.025;  187.050;    0.000
397.071; 3244.025;  186.050;    0.000
397.128; 3316.025;  200.050;    0.000
397.186; 3250.025;  175.050;    0.000
397.243; 3338.025;  154.050;    0.000
397.300; 3293.025;  191.050;    0.000
397.357; 3300.025;  238.050;    0.000
397.414; 3224.025;  161.050;    0.000
397.471; 3215.025;  135.050;    0.000
397.528; 3337.025;  158.050;    0.000
397.585; 3238.025;  159.050;    0.000
397.642; 3218.025;  180.050;    0.000
397.699; 3332.025;  170.050;    0.000
397.756; 3209.025;  175.050;    0.000
397.814; 3258.025;  182.050;    0.000
397.871; 3173.025;  173.050;    0.000
397.928; 3397.025;  173.050;    0.000
397.985; 3236.025;  176.050;    0.000
398.042; 3232.025;  189.050;    0.000
398.099; 3291.025;  160.050;    0.000
398.156; 3352.025;  218.050;    0.000
398.212; 3286.025;  194.050;    0.000
398.269; 3344.025;  199.050;    0.000
398.326; 3298.025;  188.050;    0.000
398.383; 3311.025;  187.050;    0.000
398.440; 3430.025;  174.050;    0.000
398.497; 3441.025;  214.050;    0.000
398.554; 3414.025;  181.050;    0.000
398.611; 3501.025;  195.050;    0.000
398.668; 3541.025;  145.050;    0.000
398.725; 3469.025;  178.050;    0.000
398.782; 3566.025;  210.050;    0.000
398.839; 3621.025;  216.050;    0.000
398.895; 3506.025;  189.050;    0.000
398.952; 3474.025;  206.050;    0.000
399.009; 3660.025;  142.050;    0.000
399.066; 3663.025;  192.050;    0.000
399.123; 3734.025;  181.050;    0.000
399.180; 3747.025;  200.050;    0.000
399.236; 3637.025;  156.050;    0.000
399.293; 3826.025;  194.050;    0.000
399.350; 3825.025;  167.050;    0.000
399.407; 4035.025;  192.050;    0.000
399.463; 3905.025;  161.050;    0.000
399.520; 4132.025;  149.050;    0.000
399.577; 4041.025;  156.050;    0.000
399.634; 4158.025;  195.050;    0.000
399.690; 4233.025;  163.050;    0.000
399.747; 4148.025;  192.050;    0.000
399.804; 4130.025;  212.050;    0.000
399.861; 4132.025;  203.050;    0.000
399.917; 3999.025;  221.050;    0.000
399.974; 4024.025;  221.050;    0.000
400.031; 3976.025;  195.050;    0.000
400.087; 3915.025;  159.050;    0.000
400.144; 3868.025;  201.050;    0.000
400.201; 3971.025;  206.050;    0.000
400.257; 3794.025;  168.050;    0.000
400.314; 3762.025;  183.050;    0.000
400.370; 3819.025;  209.050;    0.000
400.427; 3748.025;  192.050;    0.000
400.484; 3737.025;  150.050;    0.000
400.540; 3767.025;  213.050;    0.000
400.597; 3677.025;  161.050;    0.000
400.653; 3729.025;  170.050;    0.000
400.710; 3660.025;  173.050;    0.000
400.766; 3698.025;  204.050;    0.000
400.823; 3637.025;  194.050;    0.000
400.879; 3760.025;  188.050;    0.000
400.936; 3670.025;  172.050;    0.000
400.993; 3610.025;  154.050;    0.000
401.049; 3631.025;  157.050;    0.000
401.105; 3702.025;  214.050;    0.000
401.162; 3636.025;  195.050;    0.000
401.218; 3621.025;  195.050;    0.000
401.275; 3627.025;  182.050;    0.000
401.331; 3723.025;  188.050;    0.000
401.388; 3731.025;  194.050;    0.000
401.444; 3608.025;  175.050;    0.000
401.501; 3658.025;  169.050;    0.000
401.557; 3537.025;  176.050;    0.000
401.614; 3607.025;  153.050;    0.000
401.670; 3649.025;  178.050;    0.000
401.726; 3708.025;  179.050;    0.000
401.783; 3699.025;  198.050;    0.000
401.839; 3598.025;  179.050;    0.000
401.895; 3571.025;  154.050;    0.000
401.952; 3656.025;  138.050;    0.000
402.008; 3676.025;  135.050;    0.000
402.064; 3727.025;  154.050;    0.000
402.121; 3691.025;  199.050;    0.000
402.177; 3647.025;  126.050;    0.000
402.233; 3676.025;  190.050;    0.000
402.290; 3640.025;  175.050;    0.000
402.346; 3691.025;  200.050;    0.000
402.402; 3609.025;  191.050;    0.000
402.458; 3693.025;  172.050;    0.000
402.515; 3750.025;  186.050;    0.000
402.571; 3724.025;  189.050;    0.000
402.627; 3697.025;  151.050;    0.000
402.683; 3724.025;  187.050;    0.000
402.740; 3626.025;  147.050;    0.000
402.796; 3697.025;  176.050;    0.000
402.852; 3824.025;  200.050;    0.000
402.908; 3736.025;  201.050;    0.000
402.964; 3778.025;  153.050;    0.000
403.021; 3795.025;  165.050;    0.000
403.077; 3804.025;  195.050;    0.000
403.133; 3776.025;  139.050;    0.000
403.189; 3856.025;  166.050;    0.000
403.245; 3917.025;  194.050;    0.000
403.301; 3843.025;  210.050;    0.000
403.357; 3856.025;  187.050;    0.000
403.414; 3868.025;  195.050;    0.000
403.470; 3840.025;  150.050;    0.000
403.526; 3848.025;  158.050;    0.000
403.582; 3939.025;  184.050;    0.000
403.638; 3962.025;  171.050;    0.000
403.694; 3950.025;  197.050;    0.000
403.750; 3966.025;  196.050;    0.000
403.806; 3866.025;  192.050;    0.000
403.862; 3903.025;  169.050;    0.000
403.918; 3917.025;  199.050;    0.000
403.974; 3913.025;  156.050;    0.000
404.030; 3867.025;  193.050;    0.000
404.086; 3963.025;  161.050;    0.000
404.142; 3937.025;  172.050;    0.000
404.198; 3928.025;  195.050;    0.000
404.254; 3904.025;  167.050;    0.000
404.310; 4039.025;  156.050;    0.000
404.366; 3945.025;  144.050;    0.000
404.422; 3940.025;  161.050;    0.000
404.478; 3942.025;  179.050;    0.000
404.534; 3916.025;  163.050;    0.000
404.590; 3979.025;  183.050;    0.000
404.646; 3966.025;  155.050;    0.000
404.701; 3956.025;  142.050;    0.000
404.757; 3979.025;  175.050;    0.000
404.813; 3808.025;  153.050;    0.000
404.869; 3969.025;  199.050;    0.000
404.925; 3933.025;  153.050;    0.000
404.981; 4018.025;  174.050;    0.000
405.037; 4015.025;  185.050;    0.000
405.092; 3962.025;  166.050;    0.000
405.148; 4016.025;  161.050;    0.000
405.204; 3960.025;  170.050;    0.000
405.260; 3995.025;  154.050;    0.000
405.316; 4049.025;  128.050;    0.000
405.371; 3955.025;  142.050;    0.000
405.427; 3860.025;  196.050;    0.000
405.483; 3956.025;  172.050;    0.000
405.539; 4053.025;  182.050;    0.000
405.594; 3946.025;  153.050;    0.000
405.650; 3947.025;  124.050;    0.000
405.706; 4010.025;  189.050;    0.000
405.761; 4102.025;  165.050;    0.000
405.817; 4112.025;  152.050;    0.000
405.873; 4075.025;  174.050;    0.000
405.928; 4071.025;  167.050;    0.000
405.984; 4027.025;  210.050;    0.000
406.040; 4069.025;  160.050;    0.000
406.095; 3990.025;  163.050;    0.000
406.151; 4061.025;  208.050;    0.000
406.207; 4013.025;  177.050;    0.000
406.262; 4053.025;  176.050;    0.000
406.318; 4176.025;  157.050;    0.000
406.374; 4037.025;  141.050;    0.000
406.429; 4004.025;  189.050;    0.000
406.485; 4190.025;  190.050;    0.000
406.540; 4158.025;  155.050;    0.000
406.596; 4180.025;  182.050;    0.000
406.651; 4056.025;  200.050;    0.000
406.707; 4118.025;  130.050;    0.000
406.763; 4209.025;  174.050;    0.000
406.818; 4221.025;  151.050;    0.000
406.874; 4232.025;  122.050;    0.000
406.929; 4364.025;  153.050;    0.000
406.985; 4435.025;  198.050;    0.000
407.040; 4420.025;  174.050;    0.000
407.095; 4406.025;  161.050;    0.000
407.151; 4474.025;  184.050;    0.000
407.206; 4476.025;  188.050;    0.000
407.262; 4525.025;  180.050;    0.000
407.317; 4566.025;  186.050;    0.000
407.373; 4525.025;  200.050;    0.000
407.428; 4631.025;  211.050;    0.000
407.484; 4624.025;  193.050;    0.000
407.539; 4538.025;  167.050;    0.000
407.594; 4703.025;  178.050;    0.000
407.650; 4602.025;  171.050;    0.000
407.705; 4517.025;  153.050;    0.000
407.760; 4520.025;  196.050;    0.000
407.816; 4543.025;  205.050;    0.000
407.871; 4521.025;  232.050;    0.000
407.926; 4515.025;  215.050;    0.000
407.982; 4438.025;  154.050;    0.000
408.037; 4470.025;  217.050;    0.000
408.092; 4521.025;  190.050;    0.000
408.148; 4494.025;  181.050;    0.000
408.203; 4421.025;  203.050;    0.000
408.258; 4327.025;  154.050;    0.000
408.314; 4501.025;  198.050;    0.000
408.369; 4498.025;  156.050;    0.000
408.424; 4379.025;  216.050;    0.000
408.479; 4368.025;  191.050;    0.000
408.534; 4375.025;  200.050;    0.000
408.590; 4354.025;  182.050;    0.000
408.645; 4333.025;  141.050;    0.000
408.700; 4369.025;  209.050;    0.000
408.755; 4324.025;  205.050;    0.000
408.810; 4295.025;  171.050;    0.000
408.866; 4421.025;  200.050;    0.000
408.921; 4340.025;  188.050;    0.000
408.976; 4384.025;  156.050;    0.000
409.031; 4290.025;  164.050;    0.000
409.086; 4339.025;  155.050;    0.000
409.141; 4252.025;  205.050;    0.000
409.196; 4294.025;  173.050;    0.000
409.252; 4344.025;  179.050;    0.000
409.307; 4309.025;  131.050;    0.000
409.362; 4283.025;  173.050;    0.000
409.417; 4336.025;  120.050;    0.000
409.472; 4389.025;  198.050;    0.000
409.527; 4340.025;  153.050;    0.000
409.582; 4328.025;  177.050;    0.000
409.637; 4399.025;  184.050;    0.000
409.692; 4286.025;  203.050;    0.000
409.747; 4390.025;  158.050;    0.000
409.802; 4222.025;  212.050;    0.000
409.857; 4266.025;  192.050;    0.000
409.912; 4285.025;  179.050;    0.000
409.967; 4313.025;  177.050;    0.000
410.022; 4313.025;  204.050;    0.000
410.077; 4243.025;  175.050;    0.000
410.132; 4339.025;  207.050;    0.000
410.187; 4312.025;  169.050;    0.000
410.242; 4316.025;  186.050;    0.000
410.297; 4216.025;  185.050;    0.000
410.351; 4315.025;  191.050;    0.000
410.406; 4351.025;  215.050;    0.000
410.461; 4276.025;  190.050;    0.000
410.516; 4378.025;  172.050;    0.000
410.571; 4278.025;  190.050;    0.000
410.626; 4295.025;  189.050;    0.000
410.681; 4259.025;  191.050;    0.000
410.736; 4224.025;  166.050;    0.000
410.790; 4291.025;  179.050;    0.000
410.845; 4345.025;  196.050;    0.000
410.900; 4345.025;  168.050;    0.000
410.955; 4373.025;  173.050;    0.000
411.010; 4230.025;  162.050;    0.000
411.064; 4319.025;  205.050;    0.000
411.119; 4376.025;  203.050;    0.000
411.174; 4224.025;  207.050;    0.000
411.229; 4212.025;  218.050;    0.000
411.283; 4249.025;  218.050;    0.000
411.338; 4309.025;  180.050;    0.000
411.393; 4282.025;  191.050;    0.000
411.447; 4400.025;  207.050;    0.000
411.502; 4408.025;  204.050;    0.000
411.557; 4264.025;  208.050;    0.000
411.612; 4284.025;  191.050;    0.000
411.666; 4403.025;  233.050;    0.000
411.721; 4326.025;  193.050;    0.000
411.776; 4302.025;  195.050;    0.000
411.830; 4252.025;  229.050;    0.000
411.885; 4282.025;  181.050;    0.000
411.939; 4369.025;  214.050;    0.000
411.994; 4387.025;  140.050;    0.000
412.049; 4425.025;  205.050;    0.000
412.103; 4366.025;  232.050;    0.000
412.158; 4401.025;  228.050;    0.000
412.212; 4452.025;  204.050;    0.000
412.267; 4393.025;  203.050;    0.000
412.322; 4378.025;  212.050;    0.000
412.376; 4281.025;  195.050;    0.000
412.431; 4396.025;  197.050;    0.000
412.485; 4462.025;  235.050;    0.000
412.540; 4286.025;  197.050;    0.000
412.594; 4309.025;  199.050;    0.000
412.649; 4330.025;  195.050;    0.000
412.703; 4222.025;  214.050;    0.000
412.758; 4189.025;  213.050;    0.000
412.812; 4259.025;  154.050;    0.000
412.866; 4260.025;  159.050;    0.000
412.921; 4357.025;  207.050;    0.000
412.975; 4233.025;  194.050;    0.000
413.030; 4348.025;  214.050;    0.000
413.084; 4263.025;  174.050;    0.000
413.139; 4184.025;  211.050;    0.000
413.193; 4172.025;  223.050;    0.000
413.247; 4300.025;  198.050;    0.000
413.302; 4316.025;  184.050;    0.000
413.356; 4169.025;  194.050;    0.000
413.410; 4154.025;  219.050;    0.000
413.465; 4284.025;  209.050;    0.000
413.519; 4172.025;  178.050;    0.000
413.573; 4298.025;  189.050;    0.000
413.628; 4250.025;  184.050;    0.000
413.682; 4247.025;  189.050;    0.000
413.736; 4280.025;  196.050;    0.000
413.791; 4270.025;  208.050;    0.000
413.845; 4179.025;  206.050;    0.000
413.899; 4215.025;  193.050;    0.000
413.953; 4279.025;  176.050;    0.000
414.008; 4210.025;  163.050;    0.000
414.062; 4329.025;  195.050;    0.000
414.116; 4295.025;  176.050;    0.000
414.170; 4225.025;  218.050;    0.000
414.225; 4139.025;  183.050;    0.000
414.279; 4297.025;  191.050;    0.000
414.333; 4334.025;  215.050;    0.000
414.387; 4267.025;  187.050;    0.000
414.441; 4252.025;  182.050;    0.000
414.496; 4299.025;  205.050;    0.000
414.550; 4190.025;  203.050;    0.000
414.604; 4277.025;  223.050;    0.000
414.658; 4323.025;  159.050;    0.000
414.712; 4178.025;  194.050;    0.000
414.766; 4279.025;  232.050;    0.000
414.820; 4385.025;  235.050;    0.000
414.874; 4304.025;  169.050;    0.000
414.928; 4329.025;  207.050;    0.000
414.982; 4339.025;  174.050;    0.000
415.037; 4255.025;  173.050;    0.000
415.091; 4196.025;  219.050;    0.000
415.145; 4214.025;  174.050;    0.000
415.199; 4270.025;  207.050;    0.000
415.253; 4249.025;  228.050;    0.000
415.307; 4383.025;  182.050;    0.000
415.361; 4384.025;  219.050;    0.000
415.415; 4253.025;  218.050;    0.000
415.469; 4329.025;  233.050;    0.000
415.523; 4276.025;  203.050;    0.000
415.577; 4331.025;  186.050;    0.000
415.631; 4402.025;  215.050;    0.000
415.684; 4326.025;  212.050;    0.000
415.738; 4210.025;  206.050;    0.000
415.792; 4334.025;  219.050;    0.000
415.846; 4219.025;  208.050;    0.000
415.900; 4203.025;  203.050;    0.000
415.954; 4221.025;  237.050;    0.000
416.008; 4297.025;  242.050;    0.000
416.062; 4193.025;  197.050;    0.000
416.116; 4177.025;  189.050;    0.000
416.169; 4217.025;  199.050;    0.000
416.223; 4164.025;  230.050;    0.000
416.277; 4242.025;  226.050;    0.000
416.331; 4206.025;  254.050;    0.000
416.385; 4142.025;  204.050;    0.000
416.439; 4254.025;  201.050;    0.000
416.492; 4342.025;  238.050;    0.000
416.546; 4389.025;  234.050;    0.000
416.600; 4243.025;  244.050;    0.000
416.654; 4241.025;  233.050;    0.000
416.707; 4223.025;  214.050;    0.000
416.761; 4133.025;  214.050;    0.000
416.815; 4264.025;  192.050;    0.000
416.869; 4273.025;  225.050;    0.000
416.922; 4214.025;  214.050;    0.000
416.976; 4219.025;  206.050;    0.000
417.030; 4270.025;  226.050;    0.000
417.083; 4202.025;  207.050;    0.000
417.137; 4240.025;  236.050;    0.000
417.191; 4229.025;  208.050;    0.000
417.244; 4213.025;  260.050;    0.000
417.298; 4147.025;  222.050;    0.000
417.352; 4211.025;  191.050;    0.000
417.405; 4274.025;  229.050;    0.000
417.459; 4236.025;  249.050;    0.000
417.512; 4240.025;  259.050;    0.000
417.566; 4105.025;  220.050;    0.000
417.620; 4187.025;  229.050;    0.000
417.673; 4171.025;  190.050;    0.000
417.727; 4300.025;  204.050;    0.000
417.780; 4146.025;  223.050;    0.000
417.834; 4212.025;  213.050;    0.000
417.887; 4157.025;  238.050;    0.000
417.941; 4369.025;  244.050;    0.000
417.994; 4202.025;  247.050;    0.000
418.048; 4317.025;  225.050;    0.000
418.101; 4124.025;  210.050;    0.000
418.155; 4220.025;  224.050;    0.000
418.208; 4292.025;  229.050;    0.000
418.262; 4275.025;  255.050;    0.000
418.315; 4208.025;  248.050;    0.000
418.369; 4264.025;  212.050;    0.000
418.422; 4148.025;  241.050;    0.000
418.476; 4196.025;  220.050;    0.000
418.529; 4193.025;  257.050;    0.000
418.582; 4164.025;  203.050;    0.000
418.636; 4316.025;  221.050;    0.000
418.689; 4292.025;  202.050;    0.000
418.743; 4280.025;  227.050;    0.000
418.796; 4112.025;  226.050;    0.000
418.849; 4268.025;  199.050;    0.000
418.903; 4146.025;  234.050;    0.000
418.956; 4322.025;  236.050;    0.000
419.009; 4180.025;  305.050;    0.000
419.063; 4306.025;  216.050;    0.000
419.116; 4272.025;  245.050;    0.000
419.169; 4265.025;  208.050;    0.000
419.222; 4195.025;  233.050;    0.000
419.276; 4310.025;  244.050;    0.000
419.329; 4161.025;  197.050;    0.000
419.382; 4214.025;  222.050;    0.000
419.435; 4168.025;  199.050;    0.000
419.489; 4203.025;  226.050;    0.000
419.542; 4275.025;  223.050;    0.000
419.595; 4104.025;  204.050;    0.000
419.648; 4251.025;  234.050;    0.000
419.701; 4190.025;  211.050;    0.000
419.755; 4111.025;  184.050;    0.000
419.808; 4175.025;  223.050;    0.000
419.861; 4166.025;  197.050;    0.000
419.914; 4071.025;  258.050;    0.000
419.967; 4083.025;  205.050;    0.000
420.020; 4039.025;  195.050;    0.000
420.073; 4173.025;  191.050;    0.000
420.127; 4133.025;  256.050;    0.000
420.180; 4111.025;  232.050;    0.000
420.233; 4051.025;  200.050;    0.000
420.286; 4033.025;  207.050;    0.000
420.339; 4062.025;  223.050;    0.000
420.392; 4074.025;  243.050;    0.000
420.445; 4093.025;  195.050;    0.000
420.498; 3987.025;  239.050;    0.000
420.551; 4058.025;  201.050;    0.000
420.604; 3965.025;  245.050;    0.000
420.657; 4029.025;  221.050;    0.000
420.710; 4050.025;  223.050;    0.000
420.763; 3947.025;  241.050;    0.000
420.816; 4059.025;  198.050;    0.000
420.869; 4050.025;  210.050;    0.000
420.922; 4028.025;  206.050;    0.000
420.975; 4019.025;  239.050;    0.000
421.028; 4063.025;  248.050;    0.000
421.081; 3979.025;  236.050;    0.000
421.134; 3903.025;  208.050;    0.000
421.187; 4042.025;  216.050;    0.000
421.239; 3869.025;  199.050;    0.000
421.292; 4073.025;  255.050;    0.000
421.345; 3991.025;  241.050;    0.000
421.398; 4021.025;  221.050;    0.000
421.451; 4079.025;  237.050;    0.000
421.504; 3946.025;  225.050;    0.000
421.557; 4006.025;  213.050;    0.000
421.609; 3927.025;  178.050;    0.000
421.662; 4006.025;  206.050;    0.000
421.715; 4031.025;  212.050;    0.000
421.768; 3907.025;  236.050;    0.000
421.821; 3953.025;  228.050;    0.000
421.873; 4035.025;  200.050;    0.000
421.926; 3805.025;  226.050;    0.000
421.979; 3925.025;  221.050;    0.000
422.032; 3979.025;  219.050;    0.000
422.084; 4084.025;  253.050;    0.000
422.137; 3867.025;  195.050;    0.000
422.190; 3934.025;  192.050;    0.000
422.243; 4028.025;  236.050;    0.000
422.295; 3907.025;  205.050;    0.000
422.348; 3862.025;  198.050;    0.000
422.401; 3941.025;  245.050;    0.000
422.453; 3977.025;  241.050;    0.000
422.506; 3898.025;  255.050;    0.000
422.559; 3827.025;  188.050;    0.000
422.611; 4177.025;  236.050;    0.000
422.664; 4070.025;  218.050;    0.000
422.716; 4332.025;  210.050;    0.000
422.769; 4071.025;  209.050;    0.000
422.822; 3967.025;  213.050;    0.000
422.874; 3894.025;  227.050;    0.000
422.927; 3963.025;  272.050;    0.000
422.979; 3840.025;  204.050;    0.000
423.032; 3947.025;  210.050;    0.000
423.084; 3969.025;  236.050;    0.000
423.137; 3887.025;  223.050;    0.000
423.189; 3851.025;  253.050;    0.000
423.242; 3842.025;  185.050;    0.000
423.294; 3901.025;  232.050;    0.000
423.347; 3874.025;  213.050;    0.000
423.399; 3975.025;  227.050;    0.000
423.452; 3879.025;  236.050;    0.000
423.504; 3863.025;  232.050;    0.000
423.557; 3854.025;  195.050;    0.000
423.609; 3877.025;  238.050;    0.000
423.662; 3839.025;  207.050;    0.000
423.714; 4053.025;  231.050;    0.000
423.766; 3923.025;  211.050;    0.000
423.819; 3931.025;  207.050;    0.000
423.871; 3828.025;  228.050;    0.000
423.923; 3825.025;  223.050;    0.000
423.976; 3874.025;  217.050;    0.000
424.028; 3713.025;  231.050;    0.000
424.081; 3831.025;  219.050;    0.000
424.133; 3816.025;  255.050;    0.000
424.185; 3730.025;  199.050;    0.000
424.238; 3857.025;  238.050;    0.000
424.290; 3788.025;  209.050;    0.000
424.342; 3883.025;  213.050;    0.000
424.394; 3852.025;  215.050;    0.000
424.447; 3865.025;  265.050;    0.000
424.499; 3814.025;  238.050;    0.000
424.551; 3762.025;  256.050;    0.000
424.603; 3885.025;  222.050;    0.000
424.656; 3762.025;  227.050;    0.000
424.708; 3802.025;  250.050;    0.000
424.760; 3845.025;  228.050;    0.000
424.812; 3799.025;  249.050;    0.000
424.864; 3780.025;  222.050;    0.000
424.917; 3761.025;  235.050;    0.000
424.969; 3807.025;  266.050;    0.000
425.021; 3730.025;  233.050;    0.000
425.073; 3733.025;  194.050;    0.000
425.125; 3854.025;  256.050;    0.000
425.177; 3766.025;  225.050;    0.000
425.229; 3729.025;  242.050;    0.000
425.282; 3721.025;  236.050;    0.000
425.334; 3736.025;  250.050;    0.000
425.386; 3649.025;  231.050;    0.000
425.438; 3843.025;  216.050;    0.000
425.490; 3762.025;  240.050;    0.000
425.542; 3730.025;  231.050;    0.000
425.594; 3718.025;  206.050;    0.000
425.646; 3690.025;  201.050;    0.000
425.698; 3729.025;  193.050;    0.000
425.750; 3739.025;  241.050;    0.000
425.802; 3775.025;  199.050;    0.000
425.854; 3595.025;  216.050;    0.000
425.906; 3643.025;  220.050;    0.000
425.958; 3606.025;  200.050;    0.000
426.010; 3629.025;  214.050;    0.000
426.062; 3715.025;  245.050;    0.000
426.114; 3667.025;  241.050;    0.000
426.166; 3621.025;  241.050;    0.000
426.218; 3563.025;  255.050;    0.000
426.270; 3622.025;  228.050;    0.000
426.321; 3671.025;  222.050;    0.000
426.373; 3539.025;  218.050;    0.000
426.425; 3636.025;  258.050;    0.000
426.477; 3661.025;  225.050;    0.000
426.529; 3647.025;  223.050;    0.000
426.581; 3537.025;  198.050;    0.000
426.633; 3637.025;  228.050;    0.000
426.684; 3652.025;  210.050;    0.000
426.736; 3658.025;  208.050;    0.000
426.788; 3699.025;  231.050;    0.000
426.840; 3516.025;  212.050;    0.000
426.892; 3554.025;  221.050;    0.000
426.943; 3562.025;  240.050;    0.000
426.995; 3601.025;  243.050;    0.000
427.047; 3531.025;  231.050;    0.000
427.099; 3486.025;  189.050;    0.000
427.150; 3569.025;  212.050;    0.000
427.202; 3591.025;  219.050;    0.000
427.254; 3402.025;  203.050;    0.000
427.306; 3463.025;  217.050;    0.000
427.357; 3503.025;  232.050;    0.000
427.409; 3518.025;  251.050;    0.000
427.461; 3537.025;  185.050;    0.000
427.512; 3499.025;  239.050;    0.000
427.564; 3553.025;  208.050;    0.000
427.616; 3541.025;  233.050;    0.000
427.667; 3479.025;  223.050;    0.000
427.719; 3458.025;  206.050;    0.000
427.770; 3347.025;  195.050;    0.000
427.822; 3436.025;  223.050;    0.000
427.874; 3448.025;  232.050;    0.000
427.925; 3537.025;  209.050;    0.000
427.977; 3471.025;  208.050;    0.000
428.028; 3439.025;  187.050;    0.000
428.080; 3426.025;  209.050;    0.000
428.131; 3454.025;  237.050;    0.000
428.183; 3498.025;  200.050;    0.000
428.234; 3403.025;  215.050;    0.000
428.286; 3495.025;  229.050;    0.000
428.337; 3439.025;  206.050;    0.000
428.389; 3455.025;  216.050;    0.000
428.440; 3397.025;  287.050;    0.000
428.492; 3427.025;  269.050;    0.000
428.543; 3467.025;  234.050;    0.000
428.595; 3481.025;  214.050;    0.000
428.646; 3391.025;  229.050;    0.000
428.697; 3460.025;  249.050;    0.000
428.749; 3399.025;  250.050;    0.000
428.800; 3335.025;  242.050;    0.000
428.852; 3432.025;  232.050;    0.000
428.903; 3369.025;  196.050;    0.000
428.954; 3368.025;  226.050;    0.000
429.006; 3373.025;  232.050;    0.000
429.057; 3341.025;  188.050;    0.000
429.108; 3372.025;  237.050;    0.000
429.160; 3360.025;  221.050;    0.000
429.211; 3372.025;  222.050;    0.000
429.262; 3246.025;  215.050;    0.000
429.314; 3410.025;  225.050;    0.000
429.365; 3306.025;  220.050;    0.000
429.416; 3370.025;  242.050;    0.000
429.467; 3406.025;  220.050;    0.000
429.519; 3343.025;  217.050;    0.000
429.570; 3313.025;  248.050;    0.000
429.621; 3359.025;  233.050;    0.000
429.672; 3371.025;  220.050;    0.000
429.724; 3319.025;  179.050;    0.000
429.775; 3343.025;  218.050;    0.000
429.826; 3288.025;  197.050;    0.000
429.877; 3221.025;  206.050;    0.000
429.928; 3299.025;  229.050;    0.000
429.980; 3283.025;  207.050;    0.000
430.031; 3293.025;  264.050;    0.000
430.082; 3276.025;  210.050;    0.000
430.133; 3330.025;  218.050;    0.000
430.184; 3315.025;  246.050;    0.000
430.235; 3231.025;  201.050;    0.000
430.286; 3314.025;  207.050;    0.000
430.337; 3342.025;  224.050;    0.000
430.388; 3365.025;  216.050;    0.000
430.439; 3309.025;  210.050;    0.000
430.490; 3269.025;  208.050;    0.000
430.542; 3267.025;  211.050;    0.000
430.593; 3323.025;  203.050;    0.000
430.644; 3274.025;  235.050;    0.000
430.695; 3280.025;  200.050;    0.000
430.746; 3338.025;  215.050;    0.000
430.797; 3219.025;  235.050;    0.000
430.848; 3229.025;  197.050;    0.000
430.898; 3247.025;  209.050;    0.000
430.949; 3200.025;  231.050;    0.000
431.000; 3289.025;  227.050;    0.000
431.051; 3251.025;  225.050;    0.000
431.102; 3184.025;  180.050;    0.000
431.153; 3255.025;  248.050;    0.000
431.204; 3184.025;  185.050;    0.000
431.255; 3162.025;  199.050;    0.000
431.306; 3269.025;  228.050;    0.000
431.357; 3364.025;  237.050;    0.000
431.408; 3227.025;  223.050;    0.000
431.458; 3250.025;  240.050;    0.000
431.509; 3333.025;  207.050;    0.000
431.560; 3308.025;  219.050;    0.000
431.611; 3228.025;  206.050;    0.000
431.662; 3397.025;  253.050;    0.000
431.713; 3313.025;  199.050;    0.000
431.763; 3416.025;  197.050;    0.000
431.814; 3356.025;  205.050;    0.000
431.865; 3210.025;  218.050;    0.000
431.916; 3322.025;  202.050;    0.000
431.966; 3198.025;  203.050;    0.000
432.017; 3322.025;  244.050;    0.000
432.068; 3308.025;  246.050;    0.000
432.118; 3335.025;  212.050;    0.000
432.169; 3359.025;  214.050;    0.000
432.220; 3283.025;  241.050;    0.000
432.271; 3329.025;  237.050;    0.000
432.321; 3212.025;  246.050;    0.000
432.372; 3249.025;  257.050;    0.000
432.423; 3257.025;  198.050;    0.000
432.473; 3223.025;  202.050;    0.000
432.524; 3238.025;  242.050;    0.000
432.574; 3180.025;  202.050;    0.000
432.625; 3198.025;  212.050;    0.000
432.676; 3216.025;  242.050;    0.000
432.726; 3293.025;  268.050;    0.000
432.777; 3215.025;  228.050;    0.000
432.827; 3366.025;  230.050;    0.000
432.878; 3271.025;  221.050;    0.000
432.928; 3154.025;  218.050;    0.000
432.979; 3224.025;  243.050;    0.000
433.029; 3201.025;  217.050;    0.000
433.080; 3229.025;  208.050;    0.000
433.130; 3195.025;  236.050;    0.000
433.181; 3241.025;  282.050;    0.000
433.231; 3238.025;  257.050;    0.000
433.282; 3246.025;  268.050;    0.000
433.332; 3304.025;  241.050;    0.000
433.383; 3233.025;  271.050;    0.000
433.433; 3212.025;  262.050;    0.000
433.484; 3273.025;  266.050;    0.000
433.534; 3155.025;  217.050;    0.000
433.585; 3284.025;  230.050;    0.000
433.635; 3296.025;  245.050;    0.000
433.685; 3234.025;  250.050;    0.000
433.736; 3290.025;  308.050;    0.000
433.786; 3181.025;  242.050;    0.000
433.836; 3282.025;  256.050;    0.000
433.887; 3254.025;  250.050;    0.000
433.937; 3269.025;  250.050;    0.000
433.987; 3189.025;  219.050;    0.000
434.038; 3210.025;  248.050;    0.000
434.088; 3249.025;  231.050;    0.000
434.138; 3229.025;  266.050;    0.000
434.189; 3288.025;  240.050;    0.000
434.239; 3268.025;  245.050;    0.000
434.289; 3383.025;  285.050;    0.000
434.339; 3384.025;  255.050;    0.000
434.389; 3314.025;  242.050;    0.000
434.440; 3318.025;  273.050;    0.000
434.490; 3308.025;  272.050;    0.000
434.540; 3245.025;  264.050;    0.000
434.590; 3370.025;  233.050;    0.000
434.640; 3293.025;  244.050;    0.000
434.691; 3371.025;  226.050;    0.000
434.741; 3314.025;  253.050;    0.000
434.791; 3390.025;  269.050;    0.000
434.841; 3433.025;  252.050;    0.000
434.891; 3518.025;  281.050;    0.000
434.941; 3395.025;  296.050;    0.000
434.991; 3323.025;  264.050;    0.000
435.042; 3355.025;  262.050;    0.000
435.092; 3332.025;  237.050;    0.000
435.142; 3407.025;  232.050;    0.000
435.192; 3239.025;  251.050;    0.000
435.242; 3371.025;  251.050;    0.000
435.292; 3185.025;  246.050;    0.000
435.342; 3262.025;  236.050;    0.000
435.392; 3253.025;  273.050;    0.000
435.442; 3247.025;  273.050;    0.000
435.492; 3229.025;  273.050;    0.000
435.542; 3262.025;  242.050;    0.000
435.592; 3251.025;  213.050;    0.000
435.642; 3216.025;  248.050;    0.000
435.692; 3175.025;  242.050;    0.000
435.742; 3190.025;  222.050;    0.000
435.792; 3109.025;  260.050;    0.000
435.842; 3179.025;  266.050;    0.000
435.891; 3172.025;  227.050;    0.000
435.941; 3053.025;  228.050;    0.000
435.991; 3175.025;  282.050;    0.000
436.041; 3066.025;  231.050;    0.000
436.091; 2981.025;  250.050;    0.000
436.141; 2946.025;  221.050;    0.000
436.191; 3076.025;  223.050;    0.000
436.241; 3075.025;  250.050;    0.000
436.290; 3067.025;  243.050;    0.000
436.340; 3064.025;  236.050;    0.000
436.390; 3077.025;  260.050;    0.000
436.440; 3058.025;  253.050;    0.000
436.490; 3029.025;  236.050;    0.000
436.539; 3093.025;  249.050;    0.000
436.589; 3064.025;  231.050;    0.000
436.639; 3044.025;  237.050;    0.000
436.689; 2999.025;  222.050;    0.000
436.738; 3150.025;  263.050;    0.000
436.788; 2982.025;  230.050;    0.000
436.838; 3086.025;  281.050;    0.000
436.887; 3082.025;  230.050;    0.000
436.937; 3039.025;  250.050;    0.000
436.987; 2905.025;  251.050;    0.000
437.036; 2879.025;  238.050;    0.000
437.086; 2987.025;  234.050;    0.000
437.136; 3073.025;  250.050;    0.000
437.185; 2987.025;  228.050;    0.000
437.235; 2970.025;  309.050;    0.000
437.285; 3037.025;  246.050;    0.000
437.334; 3057.025;  262.050;    0.000
437.384; 2998.025;  228.050;    0.000
437.433; 2955.025;  241.050;    0.000
437.483; 3005.025;  220.050;    0.000
437.532; 3006.025;  252.050;    0.000
437.582; 3058.025;  270.050;    0.000
437.631; 2895.025;  251.050;    0.000
437.681; 2913.025;  284.050;    0.000
437.730; 2854.025;  239.050;    0.000
437.780; 2873.025;  221.050;    0.000
437.829; 2885.025;  254.050;    0.000
437.879; 2893.025;  221.050;    0.000
437.928; 2930.025;  205.050;    0.000
437.978; 2911.025;  223.050;    0.000
438.027; 3038.025;  262.050;    0.000
438.077; 2944.025;  280.050;    0.000
438.126; 2958.025;  254.050;    0.000
438.176; 2943.025;  230.050;    0.000
438.225; 2871.025;  227.050;    0.000
438.274; 2983.025;  264.050;    0.000
438.324; 2906.025;  233.050;    0.000
438.373; 2947.025;  238.050;    0.000
438.422; 2901.025;  260.050;    0.000
438.472; 2843.025;  223.050;    0.000
438.521; 2937.025;  213.050;    0.000
438.570; 2899.025;  236.050;    0.000
438.620; 2915.025;  282.050;    0.000
438.669; 2826.025;  209.050;    0.000
438.718; 2937.025;  245.050;    0.000
438.768; 2928.025;  238.050;    0.000
438.817; 2883.025;  259.050;    0.000
438.866; 2809.025;  232.050;    0.000
438.915; 2931.025;  288.050;    0.000
438.965; 2820.025;  228.050;    0.000
439.014; 2844.025;  246.050;    0.000
439.063; 2889.025;  287.050;    0.000
439.112; 2828.025;  217.050;    0.000
439.162; 3005.025;  275.050;    0.000
439.211; 2930.025;  287.050;    0.000
439.260; 2862.025;  238.050;    0.000
439.309; 2924.025;  225.050;    0.000
439.358; 2934.025;  248.050;    0.000
439.407; 2922.025;  237.050;    0.000
439.456; 2903.025;  223.050;    0.000
439.506; 2945.025;  266.050;    0.000
439.555; 3046.025;  260.050;    0.000
439.604; 2905.025;  233.050;    0.000
439.653; 2941.025;  242.050;    0.000
439.702; 2951.025;  255.050;    0.000
439.751; 2824.025;  202.050;    0.000
439.800; 2953.025;  247.050;    0.000
439.849; 2912.025;  250.050;    0.000
439.898; 2874.025;  216.050;    0.000
439.947; 2823.025;  231.050;    0.000
439.996; 2888.025;  272.050;    0.000
440.045; 2948.025;  217.050;    0.000
440.094; 2934.025;  220.050;    0.000
440.143; 2973.025;  245.050;    0.000
440.192; 3043.025;  267.050;    0.000
440.241; 2934.025;  263.050;    0.000
440.290; 2980.025;  246.050;    0.000
440.339; 2937.025;  225.050;    0.000
440.388; 2842.025;  256.050;    0.000
440.437; 2999.025;  253.050;    0.000
440.486; 2967.025;  249.050;    0.000
440.535; 2944.025;  232.050;    0.000
440.583; 2980.025;  220.050;    0.000
440.632; 2919.025;  239.050;    0.000
440.681; 3025.025;  236.050;    0.000
440.730; 3067.025;  282.050;    0.000
440.779; 3010.025;  245.050;    0.000
440.828; 2986.025;  213.050;    0.000
440.876; 2987.025;  231.050;    0.000
440.925; 3000.025;  271.050;    0.000
440.974; 2961.025;  240.050;    0.000
441.023; 3005.025;  214.050;    0.000
441.072; 3091.025;  236.050;    0.000
441.120; 3001.025;  271.050;    0.000
441.169; 3002.025;  281.050;    0.000
441.218; 2994.025;  255.050;    0.000
441.267; 3160.025;  272.050;    0.000
441.315; 2991.025;  229.050;    0.000
441.364; 3126.025;  241.050;    0.000
441.413; 2989.025;  224.050;    0.000
441.461; 3171.025;  241.050;    0.000
441.510; 3228.025;  289.050;    0.000
441.559; 3061.025;  222.050;    0.000
441.607; 3161.025;  242.050;    0.000
441.656; 3084.025;  255.050;    0.000
441.705; 3051.025;  260.050;    0.000
441.753; 3154.025;  290.050;    0.000
441.802; 3180.025;  264.050;    0.000
441.850; 3078.025;  224.050;    0.000
441.899; 3096.025;  275.050;    0.000
441.948; 3095.025;  227.050;    0.000
441.996; 3133.025;  216.050;    0.000
442.045; 3104.025;  271.050;    0.000
442.093; 3025.025;  227.050;    0.000
442.142; 2980.025;  273.050;    0.000
442.190; 3071.025;  257.050;    0.000
442.239; 3048.025;  269.050;    0.000
442.287; 3114.025;  257.050;    0.000
442.336; 3010.025;  237.050;    0.000
442.384; 3002.025;  214.050;    0.000
442.433; 3055.025;  272.050;    0.000
442.481; 3030.025;  258.050;    0.000
442.529; 2999.025;  242.050;    0.000
442.578; 3113.025;  278.050;    0.000
442.626; 3039.025;  264.050;    0.000
442.675; 3041.025;  293.050;    0.000
442.723; 3023.025;  244.050;    0.000
442.771; 2945.025;  232.050;    0.000
442.820; 3004.025;  266.050;    0.000
442.868; 2959.025;  253.050;    0.000
442.917; 2994.025;  250.050;    0.000
442.965; 3061.025;  279.050;    0.000
443.013; 3104.025;  253.050;    0.000
443.062; 3048.025;  282.050;    0.000
443.110; 2983.025;  258.050;    0.000
443.158; 2989.025;  246.050;    0.000
443.206; 3034.025;  255.050;    0.000
443.255; 3052.025;  296.050;    0.000
443.303; 3038.025;  272.050;    0.000
443.351; 2945.025;  270.050;    0.000
443.399; 2958.025;  258.050;    0.000
443.448; 3009.025;  265.050;    0.000
443.496; 3014.025;  219.050;    0.000
443.544; 2979.025;  205.050;    0.000
443.592; 3122.025;  266.050;    0.000
443.640; 3109.025;  260.050;    0.000
443.689; 3082.025;  232.050;    0.000
443.737; 3161.025;  281.050;    0.000
443.785; 3069.025;  248.050;    0.000
443.833; 3125.025;  286.050;    0.000
443.881; 3126.025;  225.050;    0.000
443.929; 3099.025;  255.050;    0.000
443.977; 3216.025;  248.050;    0.000
444.025; 3066.025;  255.050;    0.000
444.074; 3168.025;  266.050;    0.000
444.122; 3197.025;  266.050;    0.000
444.170; 3081.025;  207.050;    0.000
444.218; 3114.025;  253.050;    0.000
444.266; 3237.025;  263.050;    0.000
444.314; 3176.025;  272.050;    0.000
444.362; 3212.025;  272.050;    0.000
444.410; 3264.025;  255.050;    0.000
444.458; 3277.025;  288.050;    0.000
444.506; 3300.025;  263.050;    0.000
444.554; 3256.025;  243.050;    0.000
444.602; 3394.025;  285.050;    0.000
444.650; 3368.025;  273.050;    0.000
444.698; 3252.025;  221.050;    0.000
444.746; 3338.025;  243.050;    0.000
444.793; 3284.025;  217.050;    0.000
444.841; 3279.025;  262.050;    0.000
444.889; 3304.025;  264.050;    0.000
444.937; 3344.025;  226.050;    0.000
444.985; 3353.025;  257.050;    0.000
445.033; 3230.025;  264.050;    0.000
445.081; 3295.025;  264.050;    0.000
445.129; 3200.025;  187.050;    0.000
445.176; 3178.025;  212.050;    0.000
445.224; 3224.025;  198.050;    0.000
445.272; 3173.025;  265.050;    0.000
445.320; 3315.025;  239.050;    0.000
445.368; 3222.025;  245.050;    0.000
445.415; 3201.025;  215.050;    0.000
445.463; 3130.025;  202.050;    0.000
445.511; 3138.025;  234.050;    0.000
445.559; 3231.025;  269.050;    0.000
445.606; 3175.025;  214.050;    0.000
445.654; 3220.025;  227.050;    0.000
445.702; 3047.025;  276.050;    0.000
445.749; 3203.025;  256.050;    0.000
445.797; 3235.025;  236.050;    0.000
445.845; 3063.025;  230.050;    0.000
445.892; 3200.025;  233.050;    0.000
445.940; 3057.025;  257.050;    0.000
445.988; 3079.025;  253.050;    0.000
446.035; 3249.025;  265.050;    0.000
446.083; 3109.025;  254.050;    0.000
446.130; 3192.025;  228.050;    0.000
446.178; 3170.025;  256.050;    0.000
446.226; 3243.025;  238.050;    0.000
446.273; 3136.025;  228.050;    0.000
446.321; 3034.025;  220.050;    0.000
446.368; 3186.025;  249.050;    0.000
446.416; 3121.025;  221.050;    0.000
446.463; 3211.025;  232.050;    0.000
446.511; 3218.025;  243.050;    0.000
446.558; 3199.025;  217.050;    0.000
446.606; 3229.025;  256.050;    0.000
446.653; 3162.025;  238.050;    0.000
446.701; 3193.025;  259.050;    0.000
446.748; 3211.025;  227.050;    0.000
446.796; 3115.025;  236.050;    0.000
446.843; 3256.025;  241.050;    0.000
446.891; 3207.025;  292.050;    0.000
446.938; 3196.025;  219.050;    0.000
446.985; 3233.025;  255.050;    0.000
447.033; 3255.025;  237.050;    0.000
447.080; 3258.025;  278.050;    0.000
447.128; 3271.025;  237.050;    0.000
447.175; 3228.025;  247.050;    0.000
447.222; 3248.025;  235.050;    0.000
447.270; 3421.025;  274.050;    0.000
447.317; 3371.025;  222.050;    0.000
447.364; 3303.025;  230.050;    0.000
447.411; 3410.025;  297.050;    0.000
447.459; 3454.025;  243.050;    0.000
447.506; 3442.025;  202.050;    0.000
447.553; 3611.025;  232.050;    0.000
447.601; 3541.025;  262.050;    0.000
447.648; 3429.025;  254.050;    0.000
447.695; 3619.025;  287.050;    0.000
447.742; 3569.025;  232.050;    0.000
447.789; 3581.025;  257.050;    0.000
447.837; 3682.025;  260.050;    0.000
447.884; 3710.025;  272.050;    0.000
447.931; 3835.025;  241.050;    0.000
447.978; 3740.025;  241.050;    0.000
448.025; 3818.025;  264.050;    0.000
448.072; 3799.025;  279.050;    0.000
448.120; 3925.025;  263.050;    0.000
448.167; 3881.025;  284.050;    0.000
448.214; 3848.025;  252.050;    0.000
448.261; 3693.025;  247.050;    0.000
448.308; 3581.025;  249.050;    0.000
448.355; 3608.025;  263.050;    0.000
448.402; 3536.025;  251.050;    0.000
448.449; 3488.025;  257.050;    0.000
448.496; 3430.025;  243.050;    0.000
448.543; 3438.025;  274.050;    0.000
448.590; 3522.025;  299.050;    0.000
448.637; 3432.025;  259.050;    0.000
448.684; 3380.025;  266.050;    0.000
448.731; 3331.025;  261.050;    0.000
448.778; 3335.025;  292.050;    0.000
448.825; 3283.025;  253.050;    0.000
448.872; 3242.025;  253.050;    0.000
448.919; 3264.025;  218.050;    0.000
448.966; 3137.025;  254.050;    0.000
449.013; 3217.025;  263.050;    0.000
449.060; 3163.025;  282.050;    0.000
449.107; 3195.025;  244.050;    0.000
449.154; 3154.025;  236.050;    0.000
449.200; 3168.025;  226.050;    0.000
449.247; 3108.025;  273.050;    0.000
449.294; 3071.025;  270.050;    0.000
449.341; 3051.025;  283.050;    0.000
449.388; 3055.025;  261.050;    0.000
449.435; 3030.025;  254.050;    0.000
449.481; 3010.025;  318.050;    0.000
449.528; 2985.025;  274.050;    0.000
449.575; 3021.025;  251.050;    0.000
449.622; 3013.025;  276.050;    0.000
449.668; 2953.025;  242.050;    0.000
449.715; 3005.025;  286.050;    0.000
449.762; 2946.025;  268.050;    0.000
449.809; 3020.025;  285.050;    0.000
449.855; 2964.025;  277.050;    0.000
449.902; 2934.025;  246.050;    0.000
449.949; 2976.025;  268.050;    0.000
449.995; 2949.025;  289.050;    0.000
450.042; 2972.025;  256.050;    0.000
450.089; 3020.025;  290.050;    0.000
450.135; 2913.025;  300.050;    0.000
450.182; 2844.025;  317.050;    0.000
450.229; 2940.025;  282.050;    0.000
450.275; 2876.025;  307.050;    0.000
450.322; 2926.025;  260.050;    0.000
450.368; 2888.025;  315.050;    0.000
450.415; 2972.025;  306.050;    0.000
450.462; 2906.025;  314.050;    0.000
450.508; 2858.025;  303.050;    0.000
450.555; 2785.025;  281.050;    0.000
450.601; 2936.025;  291.050;    0.000
450.648; 2904.025;  288.050;    0.000
450.694; 2911.025;  290.050;    0.000
450.741; 2843.025;  303.050;    0.000
450.787; 2828.025;  298.050;    0.000
450.834; 2818.025;  265.050;    0.000
450.880; 2766.025;  273.050;    0.000
450.927; 2883.025;  312.050;    0.000
450.973; 2875.025;  303.050;    0.000
451.019; 2742.025;  222.050;    0.000
451.066; 2797.025;  284.050;    0.000
451.112; 2831.025;  296.050;    0.000
451.159; 2859.025;  299.050;    0.000
451.205; 2847.025;  311.050;    0.000
451.251; 2771.025;  306.050;    0.000
451.298; 2798.025;  281.050;    0.000
451.344; 2873.025;  311.050;    0.000
451.390; 2795.025;  331.050;    0.000
451.437; 2835.025;  303.050;    0.000
451.483; 2859.025;  284.050;    0.000
451.529; 2881.025;  310.050;    0.000
451.576; 2746.025;  301.050;    0.000
451.622; 2693.025;  275.050;    0.000
451.668; 2753.025;  269.050;    0.000
451.714; 2769.025;  277.050;    0.000
451.761; 2848.025;  298.050;    0.000
451.807; 2791.025;  316.050;    0.000
451.853; 2762.025;  301.050;    0.000
451.899; 2786.025;  292.050;    0.000
451.945; 2712.025;  324.050;    0.000
451.992; 2758.025;  292.050;    0.000
452.038; 2803.025;  261.050;    0.000
452.084; 2789.025;  286.050;    0.000
452.130; 2699.025;  301.050;    0.000
452.176; 2778.025;  287.050;    0.000
452.222; 2725.025;  265.050;    0.000
452.268; 2851.025;  268.050;    0.000
452.315; 2822.025;  272.050;    0.000
452.361; 2773.025;  258.050;    0.000
452.407; 2731.025;  279.050;    0.000
452.453; 2762.025;  252.050;    0.000
452.499; 2781.025;  305.050;    0.000
452.545; 2701.025;  263.050;    0.000
452.591; 2758.025;  284.050;    0.000
452.637; 2757.025;  289.050;    0.000
452.683; 2675.025;  249.050;    0.000
452.729; 2676.025;  290.050;    0.000
452.775; 2838.025;  315.050;    0.000
452.821; 2741.025;  271.050;    0.000
452.867; 2728.025;  258.050;    0.000
452.913; 2805.025;  256.050;    0.000
452.959; 2692.025;  266.050;    0.000
453.005; 2627.025;  299.050;    0.000
453.051; 2794.025;  299.050;    0.000
453.097; 2698.025;  268.050;    0.000
453.142; 2686.025;  251.050;    0.000
453.188; 2674.025;  284.050;    0.000
453.234; 2667.025;  285.050;    0.000
453.280; 2683.025;  263.050;    0.000
453.326; 2719.025;  273.050;    0.000
453.372; 2667.025;  253.050;    0.000
453.418; 2651.025;  269.050;    0.000
453.463; 2671.025;  250.050;    0.000
453.509; 2695.025;  289.050;    0.000
453.555; 2669.025;  262.050;    0.000
453.601; 2647.025;  274.050;    0.000
453.647; 2719.025;  306.050;    0.000
453.692; 2677.025;  264.050;    0.000
453.738; 2705.025;  312.050;    0.000
453.784; 2672.025;  300.050;    0.000
453.829; 2617.025;  284.050;    0.000
453.875; 2631.025;  270.050;    0.000
453.921; 2596.025;  237.050;    0.000
453.967; 2630.025;  263.050;    0.000
454.012; 2684.025;  295.050;    0.000
454.058; 2692.025;  293.050;    0.000
454.104; 2641.025;  264.050;    0.000
454.149; 2642.025;  282.050;    0.000
454.195; 2663.025;  277.050;    0.000
454.240; 2678.025;  307.050;    0.000
454.286; 2630.025;  282.050;    0.000
454.332; 2678.025;  291.050;    0.000
454.377; 2651.025;  302.050;    0.000
454.423; 2599.025;  276.050;    0.000
454.468; 2731.025;  281.050;    0.000
454.514; 2659.025;  290.050;    0.000
454.559; 2697.025;  289.050;    0.000
454.605; 2655.025;  258.050;    0.000
454.650; 2671.025;  281.050;    0.000
454.696; 2651.025;  308.050;    0.000
454.741; 2705.025;  288.050;    0.000
454.787; 2708.025;  284.050;    0.000
454.832; 2639.025;  306.050;    0.000
454.878; 2649.025;  288.050;    0.000
454.923; 2571.025;  287.050;    0.000
454.969; 2644.025;  325.050;    0.000
455.014; 2632.025;  323.050;    0.000
455.060; 2651.025;  290.050;    0.000
455.105; 2616.025;  285.050;    0.000
455.150; 2617.025;  303.050;    0.000
455.196; 2596.025;  282.050;    0.000
455.241; 2600.025;  281.050;    0.000
455.286; 2639.025;  290.050;    0.000
455.332; 2722.025;  280.050;    0.000
455.377; 2810.025;  243.050;    0.000
455.422; 2630.025;  308.050;    0.000
455.468; 2686.025;  308.050;    0.000
455.513; 2587.025;  290.050;    0.000
455.558; 2585.025;  211.050;    0.000
455.604; 2619.025;  289.050;    0.000
455.649; 2579.025;  297.050;    0.000
455.694; 2685.025;  287.050;    0.000
455.739; 2601.025;  296.050;    0.000
455.785; 2668.025;  315.050;    0.000
455.830; 2679.025;  328.050;    0.000
455.875; 2691.025;  310.050;    0.000
455.920; 2636.025;  261.050;    0.000
455.965; 2584.025;  277.050;    0.000
456.010; 2718.025;  317.050;    0.000
456.056; 2547.025;  299.050;    0.000
456.101; 2575.025;  262.050;    0.000
456.146; 2638.025;  318.050;    0.000
456.191; 2756.025;  274.050;    0.000
456.236; 2671.025;  274.050;    0.000
456.281; 2573.025;  275.050;    0.000
456.326; 2581.025;  256.050;    0.000
456.371; 2737.025;  260.050;    0.000
456.416; 2618.025;  304.050;    0.000
456.461; 2683.025;  278.050;    0.000
456.507; 2706.025;  299.050;    0.000
456.552; 2688.025;  305.050;    0.000
456.597; 2626.025;  271.050;    0.000
456.642; 2587.025;  273.050;    0.000
456.687; 2671.025;  290.050;    0.000
456.732; 2653.025;  327.050;    0.000
456.776; 2628.025;  284.050;    0.000
456.821; 2673.025;  321.050;    0.000
456.866; 2765.025;  272.050;    0.000
456.911; 2647.025;  232.050;    0.000
456.956; 2652.025;  263.050;    0.000
457.001; 2666.025;  277.050;    0.000
457.046; 2656.025;  284.050;    0.000
457.091; 2664.025;  269.050;    0.000
457.136; 2599.025;  269.050;    0.000
457.181; 2672.025;  275.050;    0.000
457.225; 2631.025;  310.050;    0.000
457.270; 2680.025;  295.050;    0.000
457.315; 2646.025;  284.050;    0.000
457.360; 2677.025;  264.050;    0.000
457.405; 2624.025;  273.050;    0.000
457.450; 2661.025;  284.050;    0.000
457.494; 2712.025;  273.050;    0.000
457.539; 2685.025;  287.050;    0.000
457.584; 2778.025;  279.050;    0.000
457.629; 2650.025;  288.050;    0.000
457.673; 2592.025;  297.050;    0.000
457.718; 2676.025;  270.050;    0.000
457.763; 2860.025;  295.050;    0.000
457.807; 2649.025;  321.050;    0.000
457.852; 2675.025;  293.050;    0.000
457.897; 2676.025;  282.050;    0.000
457.941; 2818.025;  320.050;    0.000
457.986; 2724.025;  295.050;    0.000
458.031; 2716.025;  314.050;    0.000
458.075; 2831.025;  280.050;    0.000
458.120; 2734.025;  314.050;    0.000
458.165; 2735.025;  289.050;    0.000
458.209; 2648.025;  289.050;    0.000
458.254; 2684.025;  272.050;    0.000
458.298; 2781.025;  305.050;    0.000
458.343; 2801.025;  284.050;    0.000
458.387; 2727.025;  340.050;    0.000
458.432; 2724.025;  306.050;    0.000
458.476; 2766.025;  311.050;    0.000
458.521; 2790.025;  304.050;    0.000
458.565; 2844.025;  329.050;    0.000
458.610; 2793.025;  287.050;    0.000
458.654; 2790.025;  300.050;    0.000
458.699; 2781.025;  295.050;    0.000
458.743; 2893.025;  269.050;    0.000
458.788; 2926.025;  294.050;    0.000
458.832; 2868.025;  301.050;    0.000
458.877; 2959.025;  303.050;    0.000
458.921; 2824.025;  259.050;    0.000
458.965; 2920.025;  308.050;    0.000
459.010; 3011.025;  330.050;    0.000
459.054; 2990.025;  298.050;    0.000
459.099; 2997.025;  303.050;    0.000
459.143; 2900.025;  333.050;    0.000
459.187; 2956.025;  291.050;    0.000
459.231; 3029.025;  316.050;    0.000
459.276; 2961.025;  294.050;    0.000
459.320; 3050.025;  291.050;    0.000
459.364; 3080.025;  318.050;    0.000
459.409; 2910.025;  325.050;    0.000
459.453; 2968.025;  293.050;    0.000
459.497; 3050.025;  354.050;    0.000
459.541; 3067.025;  313.050;    0.000
459.586; 2940.025;  282.050;    0.000
459.630; 3079.025;  286.050;    0.000
459.674; 3022.025;  292.050;    0.000
459.718; 2983.025;  280.050;    0.000
459.762; 3107.025;  304.050;    0.000
459.807; 3050.025;  352.050;    0.000
459.851; 3041.025;  300.050;    0.000
459.895; 3009.025;  311.050;    0.000
459.939; 3107.025;  303.050;    0.000
459.983; 3143.025;  299.050;    0.000
460.027; 3085.025;  307.050;    0.000
460.071; 3090.025;  313.050;    0.000
460.115; 3172.025;  325.050;    0.000
460.159; 3237.025;  331.050;    0.000
460.204; 3151.025;  301.050;    0.000
460.248; 3086.025;  329.050;    0.000
460.292; 3189.025;  310.050;    0.000
460.336; 3206.025;  304.050;    0.000
460.380; 3140.025;  313.050;    0.000
460.424; 3161.025;  300.050;    0.000
460.468; 3205.025;  338.050;    0.000
460.512; 3318.025;  310.050;    0.000
460.556; 3183.025;  337.050;    0.000
460.599; 3242.025;  310.050;    0.000
460.643; 3050.025;  303.050;    0.000
460.687; 3288.025;  316.050;    0.000
460.731; 3135.025;  292.050;    0.000
460.775; 3163.025;  294.050;    0.000
460.819; 3229.025;  310.050;    0.000
460.863; 3193.025;  349.050;    0.000
460.907; 3146.025;  265.050;    0.000
460.951; 3181.025;  325.050;    0.000
460.995; 3275.025;  338.050;    0.000
461.038; 3150.025;  304.050;    0.000
461.082; 3128.025;  312.050;    0.000
461.126; 3159.025;  358.050;    0.000
461.170; 3110.025;  306.050;    0.000
461.214; 3117.025;  330.050;    0.000
461.257; 3179.025;  311.050;    0.000
461.301; 3274.025;  303.050;    0.000
461.345; 3313.025;  310.050;    0.000
461.389; 3235.025;  296.050;    0.000
461.432; 3240.025;  304.050;    0.000
461.476; 3241.025;  305.050;    0.000
461.520; 3261.025;  319.050;    0.000
461.563; 3216.025;  294.050;    0.000
461.607; 3243.025;  295.050;    0.000
461.651; 3120.025;  335.050;    0.000
461.694; 3190.025;  276.050;    0.000
461.738; 3174.025;  327.050;    0.000
461.782; 3178.025;  288.050;    0.000
461.825; 3257.025;  319.050;    0.000
461.869; 3238.025;  305.050;    0.000
461.913; 3335.025;  281.050;    0.000
461.956; 3241.025;  281.050;    0.000
462.000; 3259.025;  339.050;    0.000
462.043; 3274.025;  347.050;    0.000
462.087; 3323.025;  314.050;    0.000
462.130; 3403.025;  332.050;    0.000
462.174; 3330.025;  332.050;    0.000
462.217; 3403.025;  299.050;    0.000
462.261; 3439.025;  323.050;    0.000
462.304; 3331.025;  286.050;    0.000
462.348; 3379.025;  305.050;    0.000
462.391; 3337.025;  293.050;    0.000
462.435; 3451.025;  365.050;    0.000
462.478; 3325.025;  329.050;    0.000
462.522; 3447.025;  316.050;    0.000
462.565; 3461.025;  328.050;    0.000
462.608; 3470.025;  350.050;    0.000
462.652; 3501.025;  328.050;    0.000
462.695; 3630.025;  358.050;    0.000
462.739; 3589.025;  317.050;    0.000
462.782; 3684.025;  329.050;    0.000
462.825; 3599.025;  368.050;    0.000
462.869; 3578.025;  343.050;    0.000
462.912; 3695.025;  404.050;    0.000
462.955; 3686.025;  328.050;    0.000
462.998; 3650.025;  340.050;    0.000
463.042; 3721.025;  361.050;    0.000
463.085; 3807.025;  337.050;    0.000
463.128; 3715.025;  373.050;    0.000
463.172; 3727.025;  347.050;    0.000
463.215;  371.025;  305.050;    0.000
463.258;  330.025;  324.050;    0.000
463.301;  307.025;  296.050;    0.000
463.344;  301.025;  332.050;    0.000
463.388;  307.025;  309.050;    0.000
463.431;  309.025;  298.050;    0.000
463.474;  321.025;  351.050;    0.000
463.517;  313.025;  319.050;    0.000
463.560;  316.025;  325.050;    0.000
463.603;  297.025;  330.050;    0.000
463.646;  344.025;  332.050;    0.000
463.690;  320.025;  325.050;    0.000
463.733;  342.025;  323.050;    0.000
463.776;  294.025;  276.050;    0.000
463.819;  292.025;  320.050;    0.000
463.862;  292.025;  275.050;    0.000

