
Integration time [ms]:   0.300
Averaging Nr. [scans]: 1
Smoothing Nr. [pixels]: 0
Data measured with spectrometer [name]: VIS
Wave   ;Sample   ;Dark     ;Reference
[nm]   ;[counts] ;[counts] ;[counts] 

450.961;  215.325;  204.125;    0.000
451.100;  222.325;  219.125;    0.000
451.239;  190.325;  196.125;    0.000
451.377;  213.325;  252.125;    0.000
451.516;  205.325;  215.125;    0.000
451.655;  216.325;  214.125;    0.000
451.794;  212.325;  241.125;    0.000
451.932;  236.325;  242.125;    0.000
452.071;  209.325;  204.125;    0.000
452.210;  251.325;  243.125;    0.000
452.348;  229.325;  241.125;    0.000
452.487;  225.325;  246.125;    0.000
452.626;  201.325;  235.125;    0.000
452.764;  227.325;  230.125;    0.000
452.903;  204.325;  199.125;    0.000
453.042;  273.325;  178.125;    0.000
453.180; 3755.325;  291.125;    0.000
453.319; 3741.325;  335.125;    0.000
453.458; 3740.325;  245.125;    0.000
453.596; 3855.325;  325.125;    0.000
453.735; 3945.325;  291.125;    0.000
453.873; 3878.325;  295.125;    0.000
454.012; 3853.325;  291.125;    0.000
454.150; 3943.325;  292.125;    0.000
454.289; 4186.325;  328.125;    0.000
454.427; 4031.325;  295.125;    0.000
454.566; 4178.325;  295.125;    0.000
454.704; 4131.325;  301.125;    0.000
454.843; 4128.325;  278.125;    0.000
454.981; 4280.325;  306.125;    0.000
455.120; 4248.325;  237.125;    0.000
455.258; 4310.325;  325.125;    0.000
455.397; 4296.325;  276.125;    0.000
455.535; 4405.325;  269.125;    0.000
455.674; 4359.325;  259.125;    0.000
455.812; 4443.325;  264.125;    0.000
455.951; 4500.325;  286.125;    0.000
456.089; 4537.325;  302.125;    0.000
456.227; 4517.325;  230.125;    0.000
456.366; 4584.325;  303.125;    0.000
456.504; 4740.325;  316.125;    0.000
456.642; 4705.325;  309.125;    0.000
456.781; 4737.325;  299.125;    0.000
456.919; 4699.325;  281.125;    0.000
457.057; 4879.325;  253.125;    0.000
457.196; 4919.325;  268.125;    0.000
457.334; 4941.325;  292.125;    0.000
457.472; 5079.325;  287.125;    0.000
457.610; 5192.325;  300.125;    0.000
457.749; 5096.325;  342.125;    0.000
457.887; 5274.325;  310.125;    0.000
458.025; 5163.325;  310.125;    0.000
458.163; 5422.325;  323.125;    0.000
458.301; 5451.325;  336.125;    0.000
458.440; 5477.325;  297.125;    0.000
458.578; 5672.325;  295.125;    0.000
458.716; 5604.325;  309.125;    0.000
458.854; 5758.325;  335.125;    0.000
458.992; 5756.325;  244.125;    0.000
459.130; 5839.325;  370.125;    0.000
459.269; 5947.325;  313.125;    0.000
459.407; 5933.325;  370.125;    0.000
459.545; 5992.325;  341.125;    0.000
459.683; 6169.325;  336.125;    0.000
459.821; 6164.325;  311.125;    0.000
459.959; 6246.325;  330.125;    0.000
460.097; 6379.325;  355.125;    0.000
460.235; 6455.325;  348.125;    0.000
460.373; 6563.325;  338.125;    0.000
460.511; 6485.325;  361.125;    0.000
460.649; 6618.325;  295.125;    0.000
460.787; 6604.325;  325.125;    0.000
460.925; 6636.325;  266.125;    0.000
461.063; 6658.325;  365.125;    0.000
461.201; 6615.325;  334.125;    0.000
461.339; 6676.325;  341.125;    0.000
461.477; 6743.325;  304.125;    0.000
461.615; 6843.325;  311.125;    0.000
461.753; 6874.325;  342.125;    0.000
461.891; 6986.325;  333.125;    0.000
462.029; 7073.325;  336.125;    0.000
462.166; 7150.325;  272.125;    0.000
462.304; 7308.325;  313.125;    0.000
462.442; 7416.325;  313.125;    0.000
462.580; 7526.325;  328.125;    0.000
462.718; 7459.325;  358.125;    0.000
462.856; 7556.325;  302.125;    0.000
462.993; 7551.325;  360.125;    0.000
463.131; 7487.325;  280.125;    0.000
463.269; 7478.325;  312.125;    0.000
463.407; 7384.325;  263.125;    0.000
463.545; 7107.325;  253.125;    0.000
463.682; 7248.325;  296.125;    0.000
463.820; 7506.325;  308.125;    0.000
463.958; 7880.325;  300.125;    0.000
464.095; 7945.325;  289.125;    0.000
464.233; 7966.325;  340.125;    0.000
464.371; 7989.325;  300.125;    0.000
464.509; 7940.325;  266.125;    0.000
464.646; 7889.325;  294.125;    0.000
464.784; 7975.325;  284.125;    0.000
464.921; 7852.325;  350.125;    0.000
465.059; 7615.325;  256.125;    0.000
465.197; 7585.325;  289.125;    0.000
465.334; 7391.325;  287.125;    0.000
465.472; 7232.325;  322.125;    0.000
465.609; 7105.325;  311.125;    0.000
465.747; 7174.325;  336.125;    0.000
465.885; 7089.325;  308.125;    0.000
466.022; 7036.325;  299.125;    0.000
466.160; 7101.325;  293.125;    0.000
466.297; 7035.325;  317.125;    0.000
466.435; 7106.325;  336.125;    0.000
466.572; 6977.325;  282.125;    0.000
466.710; 7031.325;  299.125;    0.000
466.847; 6991.325;  288.125;    0.000
466.985; 6938.325;  274.125;    0.000
467.122; 7028.325;  302.125;    0.000
467.260; 6917.325;  271.125;    0.000
467.397; 6940.325;  263.125;    0.000
467.534; 7140.325;  320.125;    0.000
467.672; 6978.325;  309.125;    0.000
467.809; 7043.325;  275.125;    0.000
467.947; 6945.325;  319.125;    0.000
468.084; 6927.325;  309.125;    0.000
468.221; 6919.325;  302.125;    0.000
468.359; 6930.325;  286.125;    0.000
468.496; 7062.325;  293.125;    0.000
468.633; 6885.325;  273.125;    0.000
468.771; 6840.325;  296.125;    0.000
468.908; 6920.325;  277.125;    0.000
469.045; 6916.325;  303.125;    0.000
469.183; 7066.325;  314.125;    0.000
469.320; 7111.325;  278.125;    0.000
469.457; 7139.325;  308.125;    0.000
469.594; 7093.325;  272.125;    0.000
469.732; 7237.325;  321.125;    0.000
469.869; 7324.325;  299.125;    0.000
470.006; 7382.325;  267.125;    0.000
470.143; 7322.325;  298.125;    0.000
470.280; 7583.325;  272.125;    0.000
470.417; 7671.325;  314.125;    0.000
470.555; 7481.325;  305.125;    0.000
470.692; 7450.325;  309.125;    0.000
470.829; 7554.325;  311.125;    0.000
470.966; 7412.325;  260.125;    0.000
471.103; 7268.325;  267.125;    0.000
471.240; 7389.325;  290.125;    0.000
471.377; 7378.325;  290.125;    0.000
471.514; 7292.325;  295.125;    0.000
471.651; 7183.325;  300.125;    0.000
471.789; 7239.325;  281.125;    0.000
471.926; 7291.325;  291.125;    0.000
472.063; 7112.325;  305.125;    0.000
472.200; 7019.325;  285.125;    0.000
472.337; 7118.325;  288.125;    0.000
472.474; 7026.325;  276.125;    0.000
472.611; 7130.325;  309.125;    0.000
472.748; 7099.325;  280.125;    0.000
472.884; 7070.325;  300.125;    0.000
473.021; 7046.325;  280.125;    0.000
473.158; 7046.325;  304.125;    0.000
473.295; 6962.325;  308.125;    0.000
473.432; 6960.325;  294.125;    0.000
473.569; 7002.325;  288.125;    0.000
473.706; 7036.325;  254.125;    0.000
473.843; 7008.325;  282.125;    0.000
473.980; 7040.325;  286.125;    0.000
474.117; 7011.325;  257.125;    0.000
474.253; 6978.325;  298.125;    0.000
474.390; 6919.325;  253.125;    0.000
474.527; 6993.325;  271.125;    0.000
474.664; 7115.325;  257.125;    0.000
474.801; 7120.325;  296.125;    0.000
474.937; 7170.325;  263.125;    0.000
475.074; 7014.325;  262.125;    0.000
475.211; 7209.325;  299.125;    0.000
475.348; 7172.325;  308.125;    0.000
475.484; 7251.325;  278.125;    0.000
475.621; 7220.325;  287.125;    0.000
475.758; 7152.325;  231.125;    0.000
475.894; 7205.325;  295.125;    0.000
476.031; 7189.325;  290.125;    0.000
476.168; 7160.325;  287.125;    0.000
476.304; 7193.325;  331.125;    0.000
476.441; 7207.325;  301.125;    0.000
476.578; 7197.325;  263.125;    0.000
476.714; 7171.325;  261.125;    0.000
476.851; 7397.325;  247.125;    0.000
476.987; 7383.325;  297.125;    0.000
477.124; 7398.325;  296.125;    0.000
477.261; 7407.325;  299.125;    0.000
477.397; 7502.325;  292.125;    0.000
477.534; 7551.325;  289.125;    0.000
477.670; 7428.325;  268.125;    0.000
477.807; 7658.325;  234.125;    0.000
477.943; 7742.325;  279.125;    0.000
478.080; 7660.325;  276.125;    0.000
478.216; 7756.325;  248.125;    0.000
478.353; 7775.325;  296.125;    0.000
478.489; 7792.325;  267.125;    0.000
478.626; 7832.325;  243.125;    0.000
478.762; 7853.325;  252.125;    0.000
478.898; 7943.325;  266.125;    0.000
479.035; 7992.325;  290.125;    0.000
479.171; 7953.325;  247.125;    0.000
479.308; 7909.325;  283.125;    0.000
479.444; 7955.325;  244.125;    0.000
479.580; 7940.325;  259.125;    0.000
479.717; 8083.325;  301.125;    0.000
479.853; 8079.325;  257.125;    0.000
479.989; 8075.325;  249.125;    0.000
480.126; 8124.325;  218.125;    0.000
480.262; 8239.325;  275.125;    0.000
480.398; 8224.325;  246.125;    0.000
480.535; 8180.325;  246.125;    0.000
480.671; 8254.325;  272.125;    0.000
480.807; 8069.325;  281.125;    0.000
480.943; 8220.325;  233.125;    0.000
481.080; 8049.325;  303.125;    0.000
481.216; 8075.325;  229.125;    0.000
481.352; 7944.325;  240.125;    0.000
481.488; 7997.325;  284.125;    0.000
481.624; 8013.325;  236.125;    0.000
481.760; 7999.325;  255.125;    0.000
481.897; 7926.325;  206.125;    0.000
482.033; 7993.325;  254.125;    0.000
482.169; 7981.325;  268.125;    0.000
482.305; 7755.325;  214.125;    0.000
482.441; 7774.325;  225.125;    0.000
482.577; 7880.325;  251.125;    0.000
482.713; 8011.325;  221.125;    0.000
482.849; 7929.325;  218.125;    0.000
482.985; 7846.325;  245.125;    0.000
483.121; 7834.325;  224.125;    0.000
483.258; 7865.325;  249.125;    0.000
483.394; 7826.325;  224.125;    0.000
483.530; 7857.325;  247.125;    0.000
483.665; 7900.325;  256.125;    0.000
483.801; 7836.325;  220.125;    0.000
483.937; 7685.325;  200.125;    0.000
484.073; 7914.325;  272.125;    0.000
484.209; 7963.325;  243.125;    0.000
484.345; 7969.325;  274.125;    0.000
484.481; 8077.325;  264.125;    0.000
484.617; 8063.325;  270.125;    0.000
484.753; 8126.325;  244.125;    0.000
484.889; 8110.325;  293.125;    0.000
485.025; 7913.325;  257.125;    0.000
485.161; 8127.325;  264.125;    0.000
485.296; 8116.325;  247.125;    0.000
485.432; 8010.325;  240.125;    0.000
485.568; 8192.325;  240.125;    0.000
485.704; 8161.325;  232.125;    0.000
485.840; 8254.325;  280.125;    0.000
485.975; 8059.325;  253.125;    0.000
486.111; 8012.325;  250.125;    0.000
486.247; 8241.325;  272.125;    0.000
486.383; 8165.325;  258.125;    0.000
486.518; 8250.325;  256.125;    0.000
486.654; 8168.325;  250.125;    0.000
486.790; 8175.325;  259.125;    0.000
486.926; 8201.325;  256.125;    0.000
487.061; 8163.325;  267.125;    0.000
487.197; 8114.325;  224.125;    0.000
487.333; 8113.325;  265.125;    0.000
487.468; 8138.325;  223.125;    0.000
487.604; 8133.325;  298.125;    0.000
487.740; 8058.325;  261.125;    0.000
487.875; 8274.325;  278.125;    0.000
488.011; 8243.325;  292.125;    0.000
488.146; 8132.325;  239.125;    0.000
488.282; 8147.325;  265.125;    0.000
488.417; 8110.325;  286.125;    0.000
488.553; 8078.325;  271.125;    0.000
488.688; 8252.325;  252.125;    0.000
488.824; 8145.325;  239.125;    0.000
488.960; 8254.325;  266.125;    0.000
489.095; 8092.325;  229.125;    0.000
489.230; 8326.325;  247.125;    0.000
489.366; 8299.325;  260.125;    0.000
489.501; 8235.325;  257.125;    0.000
489.637; 8260.325;  233.125;    0.000
489.772; 8159.325;  254.125;    0.000
489.908; 8342.325;  235.125;    0.000
490.043; 8422.325;  266.125;    0.000
490.178; 8472.325;  228.125;    0.000
490.314; 8353.325;  310.125;    0.000
490.449; 8188.325;  251.125;    0.000
490.585; 8142.325;  221.125;    0.000
490.720; 8254.325;  203.125;    0.000
490.855; 8221.325;  266.125;    0.000
490.991; 8147.325;  249.125;    0.000
491.126; 8303.325;  313.125;    0.000
491.261; 8324.325;  284.125;    0.000
491.396; 8280.325;  225.125;    0.000
491.532; 8387.325;  227.125;    0.000
491.667; 8354.325;  210.125;    0.000
491.802; 8402.325;  214.125;    0.000
491.937; 8365.325;  246.125;    0.000
492.073; 8457.325;  250.125;    0.000
492.208; 8502.325;  267.125;    0.000
492.343; 8448.325;  245.125;    0.000
492.478; 8830.325;  271.125;    0.000
492.613; 8567.325;  253.125;    0.000
492.749; 8597.325;  249.125;    0.000
492.884; 8540.325;  217.125;    0.000
493.019; 8595.325;  244.125;    0.000
493.154; 8530.325;  265.125;    0.000
493.289; 8430.325;  266.125;    0.000
493.424; 8479.325;  226.125;    0.000
493.559; 8435.325;  222.125;    0.000
493.694; 8338.325;  218.125;    0.000
493.829; 8492.325;  246.125;    0.000
493.964; 8300.325;  243.125;    0.000
494.099; 8684.325;  269.125;    0.000
494.234; 8496.325;  249.125;    0.000
494.369; 8590.325;  279.125;    0.000
494.504; 8561.325;  261.125;    0.000
494.639; 8427.325;  289.125;    0.000
494.774; 8307.325;  252.125;    0.000
494.909; 8447.325;  250.125;    0.000
495.044; 8378.325;  207.125;    0.000
495.179; 8381.325;  266.125;    0.000
495.314; 8624.325;  228.125;    0.000
495.449; 8606.325;  262.125;    0.000
495.584; 8512.325;  281.125;    0.000
495.719; 8656.325;  251.125;    0.000
495.854; 8383.325;  237.125;    0.000
495.988; 8529.325;  238.125;    0.000
496.123; 8566.325;  255.125;    0.000
496.258; 8611.325;  264.125;    0.000
496.393; 8741.325;  253.125;    0.000
496.528; 8640.325;  244.125;    0.000
496.663; 8785.325;  267.125;    0.000
496.797; 8906.325;  271.125;    0.000
496.932; 8858.325;  262.125;    0.000
497.067; 9271.325;  260.125;    0.000
497.202; 9285.325;  264.125;    0.000
497.336; 9247.325;  243.125;    0.000
497.471; 9260.325;  251.125;    0.000
497.606; 9702.325;  219.125;    0.000
497.740; 9788.325;  264.125;    0.000
497.875;10151.325;  252.125;    0.000
498.010;10364.325;  241.125;    0.000
498.144;10587.325;  261.125;    0.000
498.279;10778.325;  221.125;    0.000
498.414;10869.325;  246.125;    0.000
498.548;11144.325;  212.125;    0.000
498.683;10917.325;  260.125;    0.000
498.817;11160.325;  244.125;    0.000
498.952;11332.325;  252.125;    0.000
499.087;11683.325;  251.125;    0.000
499.221;12101.325;  282.125;    0.000
499.356;12161.325;  264.125;    0.000
499.490;12495.325;  280.125;    0.000
499.625;12783.325;  256.125;    0.000
499.759;13162.325;  253.125;    0.000
499.894;13583.325;  261.125;    0.000
500.028;13879.325;  304.125;    0.000
500.162;14494.325;  272.125;    0.000
500.297;14504.325;  274.125;    0.000
500.431;14598.325;  320.125;    0.000
500.566;14606.325;  268.125;    0.000
500.700;14534.325;  280.125;    0.000
500.835;14166.325;  288.125;    0.000
500.969;13767.325;  253.125;    0.000
501.103;13418.325;  234.125;    0.000
501.238;12884.325;  302.125;    0.000
501.372;12632.325;  292.125;    0.000
501.506;12002.325;  222.125;    0.000
501.641;11690.325;  274.125;    0.000
501.775;11256.325;  245.125;    0.000
501.909;10937.325;  283.125;    0.000
502.043;10795.325;  252.125;    0.000
502.178;10660.325;  293.125;    0.000
502.312;10144.325;  223.125;    0.000
502.446;10233.325;  292.125;    0.000
502.580;10047.325;  253.125;    0.000
502.715; 9826.325;  282.125;    0.000
502.849; 9753.325;  258.125;    0.000
502.983; 9569.325;  267.125;    0.000
503.117; 9577.325;  226.125;    0.000
503.251; 9378.325;  260.125;    0.000
503.385; 9216.325;  291.125;    0.000
503.520; 9093.325;  279.125;    0.000
503.654; 8883.325;  229.125;    0.000
503.788; 8901.325;  259.125;    0.000
503.922; 8768.325;  246.125;    0.000
504.056; 8685.325;  269.125;    0.000
504.190; 8647.325;  265.125;    0.000
504.324; 8662.325;  298.125;    0.000
504.458; 8489.325;  235.125;    0.000
504.592; 8555.325;  275.125;    0.000
504.726; 8253.325;  226.125;    0.000
504.860; 8186.325;  298.125;    0.000
504.994; 8024.325;  253.125;    0.000
505.128; 7969.325;  283.125;    0.000
505.262; 7864.325;  255.125;    0.000
505.396; 7703.325;  219.125;    0.000
505.530; 7618.325;  279.125;    0.000
505.664; 7531.325;  306.125;    0.000
505.798; 7421.325;  297.125;    0.000
505.932; 7391.325;  273.125;    0.000
506.066; 7438.325;  271.125;    0.000
506.199; 7278.325;  273.125;    0.000
506.333; 7108.325;  227.125;    0.000
506.467; 7153.325;  302.125;    0.000
506.601; 7120.325;  254.125;    0.000
506.735; 7036.325;  299.125;    0.000
506.869; 7040.325;  278.125;    0.000
507.002; 6775.325;  259.125;    0.000
507.136; 6851.325;  285.125;    0.000
507.270; 6951.325;  255.125;    0.000
507.404; 6801.325;  273.125;    0.000
507.537; 6837.325;  245.125;    0.000
507.671; 6726.325;  251.125;    0.000
507.805; 6602.325;  286.125;    0.000
507.939; 6666.325;  261.125;    0.000
508.072; 6661.325;  298.125;    0.000
508.206; 6535.325;  238.125;    0.000
508.340; 6666.325;  289.125;    0.000
508.473; 6694.325;  255.125;    0.000
508.607; 6578.325;  266.125;    0.000
508.740; 6547.325;  253.125;    0.000
508.874; 6580.325;  233.125;    0.000
509.008; 6448.325;  274.125;    0.000
509.141; 6450.325;  235.125;    0.000
509.275; 6570.325;  225.125;    0.000
509.408; 6490.325;  254.125;    0.000
509.542; 6419.325;  244.125;    0.000
509.675; 6449.325;  263.125;    0.000
509.809; 6356.325;  271.125;    0.000
509.942; 6306.325;  246.125;    0.000
510.076; 6294.325;  221.125;    0.000
510.209; 6462.325;  270.125;    0.000
510.343; 6291.325;  265.125;    0.000
510.476; 6395.325;  291.125;    0.000
510.610; 6156.325;  251.125;    0.000
510.743; 6282.325;  304.125;    0.000
510.877; 6222.325;  259.125;    0.000
511.010; 6130.325;  274.125;    0.000
511.143; 6272.325;  255.125;    0.000
511.277; 6213.325;  267.125;    0.000
511.410; 6222.325;  270.125;    0.000
511.543; 6212.325;  231.125;    0.000
511.677; 6100.325;  275.125;    0.000
511.810; 6147.325;  265.125;    0.000
511.943; 6239.325;  231.125;    0.000
512.077; 6168.325;  225.125;    0.000
512.210; 6159.325;  235.125;    0.000
512.343; 6079.325;  251.125;    0.000
512.476; 6152.325;  260.125;    0.000
512.610; 6218.325;  289.125;    0.000
512.743; 6103.325;  270.125;    0.000
512.876; 6224.325;  289.125;    0.000
513.009; 6090.325;  293.125;    0.000
513.142; 6183.325;  282.125;    0.000
513.276; 6168.325;  244.125;    0.000
513.409; 6136.325;  277.125;    0.000
513.542; 6175.325;  254.125;    0.000
513.675; 6096.325;  258.125;    0.000
513.808; 6184.325;  243.125;    0.000
513.941; 6007.325;  274.125;    0.000
514.074; 6091.325;  296.125;    0.000
514.207; 6046.325;  267.125;    0.000
514.340; 6033.325;  283.125;    0.000
514.474; 6221.325;  255.125;    0.000
514.607; 6068.325;  291.125;    0.000
514.740; 6268.325;  296.125;    0.000
514.873; 6230.325;  275.125;    0.000
515.006; 6517.325;  313.125;    0.000
515.139; 6429.325;  253.125;    0.000
515.272; 6445.325;  263.125;    0.000
515.404; 6693.325;  258.125;    0.000
515.537; 6772.325;  285.125;    0.000
515.670; 6537.325;  286.125;    0.000
515.803; 6553.325;  266.125;    0.000
515.936; 6609.325;  251.125;    0.000
516.069; 6681.325;  231.125;    0.000
516.202; 6685.325;  278.125;    0.000
516.335; 6735.325;  295.125;    0.000
516.468; 7177.325;  239.125;    0.000
516.600; 8073.325;  229.125;    0.000
516.733; 9689.325;  301.125;    0.000
516.866; 9857.325;  287.125;    0.000
516.999; 8954.325;  265.125;    0.000
517.132;10651.325;  291.125;    0.000
517.264;14615.325;  262.125;    0.000
517.397;14647.325;  292.125;    0.000
517.530;11263.325;  299.125;    0.000
517.663; 9472.325;  268.125;    0.000
517.795; 8966.325;  323.125;    0.000
517.928; 8676.325;  281.125;    0.000
518.061; 8712.325;  242.125;    0.000
518.193;10846.325;  279.125;    0.000
518.326;17073.324;  288.125;    0.000
518.459;18468.324;  251.125;    0.000
518.591;14009.325;  314.125;    0.000
518.724;10361.325;  279.125;    0.000
518.857; 9076.325;  245.125;    0.000
518.989; 8545.325;  290.125;    0.000
519.122; 7849.325;  319.125;    0.000
519.254; 7583.325;  295.125;    0.000
519.387; 7193.325;  271.125;    0.000
519.519; 7113.325;  312.125;    0.000
519.652; 6939.325;  289.125;    0.000
519.784; 6821.325;  311.125;    0.000
519.917; 6670.325;  283.125;    0.000
520.049; 6635.325;  281.125;    0.000
520.182; 6583.325;  242.125;    0.000
520.314; 6360.325;  310.125;    0.000
520.447; 6337.325;  215.125;    0.000
520.579; 6226.325;  277.125;    0.000
520.712; 6276.325;  224.125;    0.000
520.844; 6230.325;  293.125;    0.000
520.976; 6049.325;  281.125;    0.000
521.109; 5961.325;  279.125;    0.000
521.241; 6028.325;  318.125;    0.000
521.373; 5821.325;  242.125;    0.000
521.506; 5978.325;  246.125;    0.000
521.638; 5825.325;  312.125;    0.000
521.770; 5861.325;  257.125;    0.000
521.903; 5817.325;  295.125;    0.000
522.035; 5781.325;  283.125;    0.000
522.167; 5590.325;  281.125;    0.000
522.300; 5497.325;  262.125;    0.000
522.432; 5597.325;  272.125;    0.000
522.564; 5429.325;  277.125;    0.000
522.696; 5497.325;  295.125;    0.000
522.828; 5410.325;  284.125;    0.000
522.961; 5469.325;  295.125;    0.000
523.093; 5423.325;  282.125;    0.000
523.225; 5519.325;  270.125;    0.000
523.357; 5427.325;  285.125;    0.000
523.489; 5380.325;  292.125;    0.000
523.621; 5329.325;  285.125;    0.000
523.753; 5350.325;  273.125;    0.000
523.885; 5286.325;  271.125;    0.000
524.018; 5280.325;  276.125;    0.000
524.150; 5367.325;  320.125;    0.000
524.282; 5341.325;  304.125;    0.000
524.414; 5278.325;  302.125;    0.000
524.546; 5228.325;  305.125;    0.000
524.678; 5221.325;  264.125;    0.000
524.810; 5126.325;  258.125;    0.000
524.942; 5157.325;  252.125;    0.000
525.074; 5090.325;  275.125;    0.000
525.206; 4989.325;  286.125;    0.000
525.338; 5041.325;  280.125;    0.000
525.469; 5134.325;  267.125;    0.000
525.601; 5053.325;  266.125;    0.000
525.733; 5058.325;  283.125;    0.000
525.865; 5101.325;  273.125;    0.000
525.997; 4931.325;  286.125;    0.000
526.129; 5012.325;  249.125;    0.000
526.261; 4991.325;  233.125;    0.000
526.393; 4994.325;  257.125;    0.000
526.524; 5011.325;  184.125;    0.000
526.656; 4904.325;  259.125;    0.000
526.788; 4939.325;  268.125;    0.000
526.920; 4872.325;  262.125;    0.000
527.052; 4976.325;  250.125;    0.000
527.183; 4926.325;  264.125;    0.000
527.315; 4875.325;  301.125;    0.000
527.447; 5018.325;  262.125;    0.000
527.578; 4937.325;  267.125;    0.000
527.710; 4889.325;  299.125;    0.000
527.842; 4808.325;  266.125;    0.000
527.973; 4998.325;  240.125;    0.000
528.105; 4874.325;  275.125;    0.000
528.237; 4997.325;  239.125;    0.000
528.368; 4945.325;  275.125;    0.000
528.500; 5089.325;  271.125;    0.000
528.632; 4830.325;  252.125;    0.000
528.763; 4854.325;  253.125;    0.000
528.895; 4887.325;  259.125;    0.000
529.026; 4955.325;  209.125;    0.000
529.158; 4739.325;  291.125;    0.000
529.289; 5040.325;  280.125;    0.000
529.421; 4914.325;  274.125;    0.000
529.552; 4886.325;  253.125;    0.000
529.684; 4936.325;  310.125;    0.000
529.815; 4938.325;  305.125;    0.000
529.947; 4777.325;  234.125;    0.000
530.078; 4924.325;  259.125;    0.000
530.210; 4890.325;  264.125;    0.000
530.341; 4883.325;  267.125;    0.000
530.472; 4882.325;  232.125;    0.000
530.604; 4799.325;  293.125;    0.000
530.735; 5011.325;  275.125;    0.000
530.867; 4918.325;  280.125;    0.000
530.998; 4990.325;  295.125;    0.000
531.129; 5076.325;  274.125;    0.000
531.260; 5014.325;  272.125;    0.000
531.392; 5030.325;  275.125;    0.000
531.523; 4994.325;  244.125;    0.000
531.654; 5134.325;  289.125;    0.000
531.786; 5079.325;  259.125;    0.000
531.917; 5248.325;  286.125;    0.000
532.048; 5092.325;  293.125;    0.000
532.179; 5066.325;  288.125;    0.000
532.311; 5048.325;  296.125;    0.000
532.442; 5020.325;  277.125;    0.000
532.573; 5005.325;  273.125;    0.000
532.704; 4957.325;  308.125;    0.000
532.835; 4890.325;  308.125;    0.000
532.966; 5089.325;  274.125;    0.000
533.097; 4965.325;  310.125;    0.000
533.229; 4959.325;  294.125;    0.000
533.360; 4983.325;  324.125;    0.000
533.491; 4844.325;  278.125;    0.000
533.622; 4941.325;  319.125;    0.000
533.753; 4973.325;  303.125;    0.000
533.884; 5052.325;  269.125;    0.000
534.015; 4994.325;  266.125;    0.000
534.146; 5013.325;  283.125;    0.000
534.277; 5101.325;  299.125;    0.000
534.408; 5019.325;  265.125;    0.000
534.539; 4989.325;  310.125;    0.000
534.670; 4992.325;  319.125;    0.000
534.801; 4919.325;  281.125;    0.000
534.932; 4855.325;  239.125;    0.000
535.063; 4784.325;  276.125;    0.000
535.194; 4885.325;  361.125;    0.000
535.324; 4921.325;  283.125;    0.000
535.455; 4882.325;  282.125;    0.000
535.586; 4976.325;  331.125;    0.000
535.717; 4783.325;  262.125;    0.000
535.848; 4773.325;  308.125;    0.000
535.979; 4769.325;  273.125;    0.000
536.109; 4776.325;  277.125;    0.000
536.240; 4807.325;  293.125;    0.000
536.371; 4756.325;  295.125;    0.000
536.502; 4683.325;  330.125;    0.000
536.632; 4823.325;  280.125;    0.000
536.763; 4757.325;  332.125;    0.000
536.894; 4682.325;  334.125;    0.000
537.025; 4669.325;  295.125;    0.000
537.155; 4688.325;  321.125;    0.000
537.286; 4648.325;  292.125;    0.000
537.417; 4865.325;  314.125;    0.000
537.547; 4660.325;  287.125;    0.000
537.678; 4761.325;  287.125;    0.000
537.808; 4707.325;  278.125;    0.000
537.939; 4773.325;  304.125;    0.000
538.070; 4739.325;  303.125;    0.000
538.200; 4667.325;  279.125;    0.000
538.331; 4639.325;  321.125;    0.000
538.461; 4588.325;  313.125;    0.000
538.592; 4707.325;  290.125;    0.000
538.722; 4662.325;  285.125;    0.000
538.853; 4644.325;  261.125;    0.000
538.983; 4706.325;  280.125;    0.000
539.114; 4623.325;  310.125;    0.000
539.244; 4688.325;  281.125;    0.000
539.375; 4686.325;  292.125;    0.000
539.505; 4669.325;  286.125;    0.000
539.636; 4684.325;  276.125;    0.000
539.766; 4620.325;  287.125;    0.000
539.896; 4627.325;  292.125;    0.000
540.027; 4656.325;  262.125;    0.000
540.157; 4727.325;  269.125;    0.000
540.287; 4681.325;  282.125;    0.000
540.418; 4713.325;  269.125;    0.000
540.548; 4756.325;  328.125;    0.000
540.678; 4635.325;  271.125;    0.000
540.809; 4784.325;  272.125;    0.000
540.939; 4863.325;  299.125;    0.000
541.069; 4749.325;  266.125;    0.000
541.200; 4683.325;  242.125;    0.000
541.330; 4754.325;  257.125;    0.000
541.460; 4761.325;  270.125;    0.000
541.590; 4804.325;  287.125;    0.000
541.720; 4777.325;  255.125;    0.000
541.851; 4908.325;  273.125;    0.000
541.981; 4756.325;  244.125;    0.000
542.111; 4941.325;  263.125;    0.000
542.241; 4809.325;  271.125;    0.000
542.371; 4871.325;  263.125;    0.000
542.501; 4969.325;  274.125;    0.000
542.631; 5051.325;  288.125;    0.000
542.761; 5051.325;  261.125;    0.000
542.891; 5221.325;  253.125;    0.000
543.021; 5166.325;  249.125;    0.000
543.151; 5259.325;  261.125;    0.000
543.281; 5160.325;  256.125;    0.000
543.411; 5162.325;  290.125;    0.000
543.542; 5027.325;  278.125;    0.000
543.671; 5068.325;  238.125;    0.000
543.801; 4974.325;  256.125;    0.000
543.931; 5119.325;  254.125;    0.000
544.061; 5110.325;  237.125;    0.000
544.191; 5044.325;  245.125;    0.000
544.321; 5045.325;  267.125;    0.000
544.451; 4994.325;  262.125;    0.000
544.581; 5118.325;  221.125;    0.000
544.711; 5192.325;  252.125;    0.000
544.841; 5181.325;  264.125;    0.000
544.970; 5337.325;  315.125;    0.000
545.100; 5240.325;  245.125;    0.000
545.230; 5450.325;  276.125;    0.000
545.360; 5457.325;  278.125;    0.000
545.490; 5411.325;  268.125;    0.000
545.619; 5369.325;  237.125;    0.000
545.749; 5197.325;  228.125;    0.000
545.879; 5032.325;  234.125;    0.000
546.009; 5137.325;  287.125;    0.000
546.138; 5020.325;  222.125;    0.000
546.268; 4957.325;  228.125;    0.000
546.398; 5137.325;  244.125;    0.000
546.527; 5073.325;  233.125;    0.000
546.657; 5017.325;  189.125;    0.000
546.786; 5021.325;  247.125;    0.000
546.916; 5055.325;  244.125;    0.000
547.046; 5099.325;  214.125;    0.000
547.175; 4935.325;  242.125;    0.000
547.305; 4993.325;  252.125;    0.000
547.434; 5023.325;  191.125;    0.000
547.564; 5020.325;  208.125;    0.000
547.693; 4866.325;  213.125;    0.000
547.823; 4910.325;  209.125;    0.000
547.953; 4921.325;  250.125;    0.000
548.082; 4970.325;  231.125;    0.000
548.211; 4985.325;  226.125;    0.000
548.341; 4938.325;  254.125;    0.000
548.470; 5086.325;  266.125;    0.000
548.600; 4965.325;  229.125;    0.000
548.729; 5106.325;  225.125;    0.000
548.859; 4933.325;  185.125;    0.000
548.988; 5008.325;  225.125;    0.000
549.117; 4952.325;  241.125;    0.000
549.247; 4997.325;  236.125;    0.000
549.376; 4976.325;  220.125;    0.000
549.505; 5021.325;  254.125;    0.000
549.635; 5181.325;  268.125;    0.000
549.764; 5031.325;  194.125;    0.000
549.893; 5111.325;  232.125;    0.000
550.023; 5011.325;  222.125;    0.000
550.152; 5151.325;  223.125;    0.000
550.281; 5177.325;  210.125;    0.000
550.410; 5174.325;  197.125;    0.000
550.539; 5098.325;  222.125;    0.000
550.669; 5068.325;  245.125;    0.000
550.798; 5216.325;  265.125;    0.000
550.927; 5273.325;  249.125;    0.000
551.056; 5114.325;  184.125;    0.000
551.185; 5166.325;  247.125;    0.000
551.314; 5133.325;  258.125;    0.000
551.443; 5157.325;  224.125;    0.000
551.573; 5205.325;  204.125;    0.000
551.702; 5262.325;  220.125;    0.000
551.831; 5228.325;  287.125;    0.000
551.960; 5255.325;  259.125;    0.000
552.089; 5301.325;  222.125;    0.000
552.218; 5301.325;  254.125;    0.000
552.347; 5280.325;  260.125;    0.000
552.476; 5433.325;  251.125;    0.000
552.605; 5374.325;  229.125;    0.000
552.734; 5483.325;  261.125;    0.000
552.863; 5615.325;  225.125;    0.000
552.992; 5617.325;  202.125;    0.000
553.121; 5543.325;  193.125;    0.000
553.249; 5620.325;  224.125;    0.000
553.378; 5508.325;  274.125;    0.000
553.507; 5508.325;  248.125;    0.000
553.636; 5287.325;  203.125;    0.000
553.765; 5466.325;  224.125;    0.000
553.894; 5379.325;  246.125;    0.000
554.023; 5307.325;  229.125;    0.000
554.151; 5349.325;  216.125;    0.000
554.280; 5342.325;  223.125;    0.000
554.409; 5294.325;  240.125;    0.000
554.538; 5166.325;  277.125;    0.000
554.666; 5220.325;  244.125;    0.000
554.795; 5183.325;  240.125;    0.000
554.924; 5170.325;  257.125;    0.000
555.052; 5284.325;  266.125;    0.000
555.181; 5178.325;  244.125;    0.000
555.310; 5201.325;  262.125;    0.000
555.439; 5158.325;  260.125;    0.000
555.567; 5146.325;  234.125;    0.000
555.696; 5123.325;  237.125;    0.000
555.824; 5102.325;  232.125;    0.000
555.953; 5005.325;  279.125;    0.000
556.082; 5226.325;  234.125;    0.000
556.210; 5124.325;  235.125;    0.000
556.339; 5074.325;  198.125;    0.000
556.467; 5066.325;  216.125;    0.000
556.596; 5107.325;  273.125;    0.000
556.724; 4938.325;  245.125;    0.000
556.853; 5081.325;  241.125;    0.000
556.981; 4998.325;  219.125;    0.000
557.110; 5152.325;  242.125;    0.000
557.238; 4976.325;  202.125;    0.000
557.367; 5038.325;  254.125;    0.000
557.495; 4943.325;  260.125;    0.000
557.623; 4888.325;  207.125;    0.000
557.752; 5057.325;  219.125;    0.000
557.880; 4945.325;  209.125;    0.000
558.008; 5020.325;  243.125;    0.000
558.137; 5142.325;  244.125;    0.000
558.265; 5027.325;  221.125;    0.000
558.393; 5025.325;  297.125;    0.000
558.522; 4987.325;  232.125;    0.000
558.650; 5053.325;  299.125;    0.000
558.778; 5158.325;  210.125;    0.000
558.906; 5064.325;  240.125;    0.000
559.035; 4979.325;  252.125;    0.000
559.163; 5030.325;  246.125;    0.000
559.291; 5041.325;  213.125;    0.000
559.419; 5106.325;  221.125;    0.000
559.548; 5045.325;  208.125;    0.000
559.676; 5090.325;  254.125;    0.000
559.804; 5108.325;  213.125;    0.000
559.932; 5107.325;  208.125;    0.000
560.060; 5120.325;  276.125;    0.000
560.188; 5233.325;  278.125;    0.000
560.316; 5250.325;  217.125;    0.000
560.444; 5213.325;  254.125;    0.000
560.572; 5302.325;  226.125;    0.000
560.700; 5383.325;  282.125;    0.000
560.828; 5509.325;  211.125;    0.000
560.956; 5402.325;  264.125;    0.000
561.085; 5379.325;  295.125;    0.000
561.212; 5412.325;  229.125;    0.000
561.340; 5432.325;  259.125;    0.000
561.468; 5423.325;  253.125;    0.000
561.596; 5274.325;  240.125;    0.000
561.724; 5302.325;  259.125;    0.000
561.852; 5239.325;  224.125;    0.000
561.980; 5453.325;  251.125;    0.000
562.108; 5472.325;  214.125;    0.000
562.236; 5504.325;  258.125;    0.000
562.364; 5462.325;  237.125;    0.000
562.492; 5546.325;  228.125;    0.000
562.619; 5495.325;  223.125;    0.000
562.747; 5519.325;  263.125;    0.000
562.875; 5615.325;  257.125;    0.000
563.003; 5632.325;  216.125;    0.000
563.130; 5672.325;  190.125;    0.000
563.258; 5628.325;  225.125;    0.000
563.386; 5846.325;  259.125;    0.000
563.514; 5912.325;  264.125;    0.000
563.641; 5905.325;  230.125;    0.000
563.769; 6005.325;  257.125;    0.000
563.897; 6185.325;  210.125;    0.000
564.024; 6156.325;  221.125;    0.000
564.152; 6367.325;  256.125;    0.000
564.280; 6397.325;  225.125;    0.000
564.407; 6303.325;  262.125;    0.000
564.535; 6391.325;  235.125;    0.000
564.662; 6377.325;  238.125;    0.000
564.790; 6362.325;  248.125;    0.000
564.917; 6315.325;  214.125;    0.000
565.045; 6574.325;  253.125;    0.000
565.173; 6490.325;  225.125;    0.000
565.300; 6611.325;  261.125;    0.000
565.428; 6694.325;  218.125;    0.000
565.555; 6744.325;  245.125;    0.000
565.682; 6828.325;  242.125;    0.000
565.810; 6990.325;  228.125;    0.000
565.937; 7246.325;  230.125;    0.000
566.065; 7322.325;  251.125;    0.000
566.192; 7479.325;  196.125;    0.000
566.320; 7653.325;  217.125;    0.000
566.447; 7832.325;  224.125;    0.000
566.574; 8018.325;  221.125;    0.000
566.702; 8196.325;  221.125;    0.000
566.829; 8252.325;  252.125;    0.000
566.956; 8287.325;  214.125;    0.000
567.083; 8297.325;  204.125;    0.000
567.211; 8494.325;  216.125;    0.000
567.338; 8581.325;  228.125;    0.000
567.465; 8613.325;  208.125;    0.000
567.593; 8592.325;  205.125;    0.000
567.720; 8681.325;  194.125;    0.000
567.847; 8746.325;  268.125;    0.000
567.974; 8925.325;  198.125;    0.000
568.101; 9233.325;  224.125;    0.000
568.228;10617.325;  236.125;    0.000
568.356;11127.325;  207.125;    0.000
568.483;10794.325;  220.125;    0.000
568.610;10809.325;  181.125;    0.000
568.737;12203.325;  216.125;    0.000
568.864;14123.325;  258.125;    0.000
568.991;13228.325;  203.125;    0.000
569.118;11542.325;  232.125;    0.000
569.245;10359.325;  192.125;    0.000
569.372; 9720.325;  226.125;    0.000
569.499; 9148.325;  211.125;    0.000
569.626; 8613.325;  247.125;    0.000
569.753; 8360.325;  248.125;    0.000
569.880; 7988.325;  226.125;    0.000
570.007; 7907.325;  215.125;    0.000
570.134; 7603.325;  205.125;    0.000
570.261; 7569.325;  187.125;    0.000
570.388; 7231.325;  258.125;    0.000
570.515; 7229.325;  241.125;    0.000
570.642; 7050.325;  211.125;    0.000
570.768; 6968.325;  228.125;    0.000
570.895; 6821.325;  229.125;    0.000
571.022; 6818.325;  203.125;    0.000
571.149; 6783.325;  206.125;    0.000
571.276; 6570.325;  191.125;    0.000
571.402; 6509.325;  218.125;    0.000
571.529; 6605.325;  192.125;    0.000
571.656; 6368.325;  209.125;    0.000
571.783; 6452.325;  181.125;    0.000
571.909; 6344.325;  251.125;    0.000
572.036; 6153.325;  225.125;    0.000
572.163; 6261.325;  214.125;    0.000
572.289; 6163.325;  252.125;    0.000
572.416; 6131.325;  220.125;    0.000
572.543; 6157.325;  225.125;    0.000
572.669; 6025.325;  226.125;    0.000
572.796; 6051.325;  231.125;    0.000
572.922; 5958.325;  258.125;    0.000
573.049; 6012.325;  202.125;    0.000
573.176; 5829.325;  254.125;    0.000
573.302; 5859.325;  215.125;    0.000
573.429; 5866.325;  251.125;    0.000
573.555; 5862.325;  221.125;    0.000
573.682; 5753.325;  227.125;    0.000
573.808; 5801.325;  259.125;    0.000
573.935; 5742.325;  233.125;    0.000
574.061; 5790.325;  241.125;    0.000
574.188; 5706.325;  238.125;    0.000
574.314; 5655.325;  221.125;    0.000
574.440; 5739.325;  221.125;    0.000
574.567; 5700.325;  216.125;    0.000
574.693; 5784.325;  224.125;    0.000
574.820; 5652.325;  199.125;    0.000
574.946; 5676.325;  248.125;    0.000
575.072; 5742.325;  220.125;    0.000
575.198; 5751.325;  262.125;    0.000
575.325; 5677.325;  232.125;    0.000
575.451; 5627.325;  225.125;    0.000
575.577; 5601.325;  216.125;    0.000
575.704; 5722.325;  248.125;    0.000
575.830; 5624.325;  227.125;    0.000
575.956; 5667.325;  206.125;    0.000
576.082; 5720.325;  222.125;    0.000
576.208; 5603.325;  206.125;    0.000
576.335; 5618.325;  256.125;    0.000
576.461; 5543.325;  247.125;    0.000
576.587; 5590.325;  219.125;    0.000
576.713; 5649.325;  215.125;    0.000
576.839; 5710.325;  225.125;    0.000
576.965; 5526.325;  230.125;    0.000
577.091; 5592.325;  235.125;    0.000
577.217; 5728.325;  235.125;    0.000
577.343; 5691.325;  233.125;    0.000
577.469; 5570.325;  242.125;    0.000
577.596; 5574.325;  241.125;    0.000
577.722; 5609.325;  255.125;    0.000
577.848; 5555.325;  235.125;    0.000
577.974; 5610.325;  210.125;    0.000
578.099; 5676.325;  239.125;    0.000
578.225; 5780.325;  258.125;    0.000
578.351; 5667.325;  209.125;    0.000
578.477; 5638.325;  255.125;    0.000
578.603; 5734.325;  213.125;    0.000
578.729; 5675.325;  221.125;    0.000
578.855; 5707.325;  209.125;    0.000
578.981; 5630.325;  206.125;    0.000
579.107; 5728.325;  221.125;    0.000
579.232; 5754.325;  206.125;    0.000
579.358; 5736.325;  226.125;    0.000
579.484; 5774.325;  244.125;    0.000
579.610; 5820.325;  261.125;    0.000
579.735; 5737.325;  270.125;    0.000
579.861; 5804.325;  255.125;    0.000
579.987; 5931.325;  249.125;    0.000
580.113; 5800.325;  260.125;    0.000
580.238; 5819.325;  206.125;    0.000
580.364; 5819.325;  249.125;    0.000
580.490; 5955.325;  225.125;    0.000
580.615; 5908.325;  266.125;    0.000
580.741; 5885.325;  224.125;    0.000
580.867; 6044.325;  251.125;    0.000
580.992; 6054.325;  270.125;    0.000
581.118; 6160.325;  248.125;    0.000
581.243; 6023.325;  251.125;    0.000
581.369; 6235.325;  192.125;    0.000
581.494; 6049.325;  259.125;    0.000
581.620; 6140.325;  245.125;    0.000
581.745; 6001.325;  232.125;    0.000
581.871; 6194.325;  243.125;    0.000
581.996; 6340.325;  216.125;    0.000
582.122; 6279.325;  263.125;    0.000
582.247; 6335.325;  254.125;    0.000
582.373; 6471.325;  232.125;    0.000
582.498; 6396.325;  275.125;    0.000
582.624; 6567.325;  260.125;    0.000
582.749; 6594.325;  251.125;    0.000
582.874; 6612.325;  245.125;    0.000
583.000; 6726.325;  278.125;    0.000
583.125; 6749.325;  211.125;    0.000
583.250; 6906.325;  246.125;    0.000
583.376; 6922.325;  259.125;    0.000
583.501; 7015.325;  254.125;    0.000
583.626; 6998.325;  209.125;    0.000
583.751; 7175.325;  239.125;    0.000
583.877; 7252.325;  255.125;    0.000
584.002; 7330.325;  263.125;    0.000
584.127; 7428.325;  205.125;    0.000
584.252; 7488.325;  196.125;    0.000
584.377; 7654.325;  249.125;    0.000
584.503; 7747.325;  219.125;    0.000
584.628; 7906.325;  243.125;    0.000
584.753; 7889.325;  250.125;    0.000
584.878; 7971.325;  208.125;    0.000
585.003; 8336.325;  234.125;    0.000
585.128; 8474.325;  207.125;    0.000
585.253; 8698.325;  219.125;    0.000
585.378; 8837.325;  205.125;    0.000
585.503; 8984.325;  256.125;    0.000
585.628; 9161.325;  217.125;    0.000
585.753; 9384.325;  213.125;    0.000
585.878; 9598.325;  147.125;    0.000
586.003;10071.325;  256.125;    0.000
586.128;10345.325;  214.125;    0.000
586.253;10719.325;  254.125;    0.000
586.378;10973.325;  252.125;    0.000
586.503;11484.325;  219.125;    0.000
586.628;12006.325;  226.125;    0.000
586.753;12433.325;  237.125;    0.000
586.878;13126.325;  185.125;    0.000
587.003;13817.325;  248.125;    0.000
587.127;14457.325;  237.125;    0.000
587.252;15022.325;  221.125;    0.000
587.377;16023.325;  244.125;    0.000
587.502;17390.324;  260.125;    0.000
587.627;18661.324;  232.125;    0.000
587.751;19967.324;  250.125;    0.000
587.876;21998.324;  234.125;    0.000
588.001;23992.324;  248.125;    0.000
588.125;26624.324;  236.125;    0.000
588.250;30135.324;  192.125;    0.000
588.375;34538.324;  265.125;    0.000
588.499;39148.324;  235.125;    0.000
588.624;45887.324;  212.125;    0.000
588.749;53955.324;  214.125;    0.000
588.873;61084.324;  236.125;    0.000
588.998;65261.324;  230.125;    0.000
589.122;65261.324;  231.125;    0.000
589.247;65261.324;  250.125;    0.000
589.372;63448.324;  247.125;    0.000
589.496;63829.324;  230.125;    0.000
589.621;65261.324;  237.125;    0.000
589.745;64538.324;  277.125;    0.000
589.870;56949.324;  283.125;    0.000
589.994;48605.324;  263.125;    0.000
590.118;41591.324;  239.125;    0.000
590.243;35926.324;  218.125;    0.000
590.367;31762.324;  226.125;    0.000
590.492;28285.324;  269.125;    0.000
590.616;25833.324;  205.125;    0.000
590.740;23424.324;  243.125;    0.000
590.865;21522.324;  281.125;    0.000
590.989;20168.324;  233.125;    0.000
591.114;18527.324;  222.125;    0.000
591.238;17609.324;  204.125;    0.000
591.362;16725.324;  283.125;    0.000
591.486;15684.325;  236.125;    0.000
591.611;15081.325;  228.125;    0.000
591.735;14582.325;  249.125;    0.000
591.859;13901.325;  202.125;    0.000
591.983;13425.325;  257.125;    0.000
592.107;12945.325;  230.125;    0.000
592.232;12415.325;  266.125;    0.000
592.356;11906.325;  232.125;    0.000
592.480;11739.325;  245.125;    0.000
592.604;11417.325;  254.125;    0.000
592.728;10987.325;  233.125;    0.000
592.852;10860.325;  213.125;    0.000
592.976;10666.325;  234.125;    0.000
593.100;10494.325;  246.125;    0.000
593.224;10011.325;  305.125;    0.000
593.349;10002.325;  240.125;    0.000
593.473; 9703.325;  206.125;    0.000
593.597; 9734.325;  243.125;    0.000
593.721; 9464.325;  247.125;    0.000
593.844; 9202.325;  230.125;    0.000
593.968; 9166.325;  226.125;    0.000
594.092; 9012.325;  193.125;    0.000
594.216; 8782.325;  237.125;    0.000
594.340; 8541.325;  235.125;    0.000
594.464; 8534.325;  225.125;    0.000
594.588; 8400.325;  269.125;    0.000
594.712; 8137.325;  242.125;    0.000
594.836; 8034.325;  240.125;    0.000
594.959; 7879.325;  255.125;    0.000
595.083; 7630.325;  258.125;    0.000
595.207; 7819.325;  264.125;    0.000
595.331; 7467.325;  215.125;    0.000
595.455; 7416.325;  234.125;    0.000
595.578; 7362.325;  215.125;    0.000
595.702; 7142.325;  259.125;    0.000
595.826; 7196.325;  232.125;    0.000
595.949; 7002.325;  251.125;    0.000
596.073; 6993.325;  197.125;    0.000
596.197; 6852.325;  239.125;    0.000
596.320; 6856.325;  229.125;    0.000
596.444; 6659.325;  264.125;    0.000
596.568; 6604.325;  207.125;    0.000
596.691; 6509.325;  234.125;    0.000
596.815; 6409.325;  241.125;    0.000
596.938; 6353.325;  244.125;    0.000
597.062; 6234.325;  210.125;    0.000
597.186; 6387.325;  247.125;    0.000
597.309; 6151.325;  215.125;    0.000
597.433; 6265.325;  266.125;    0.000
597.556; 6101.325;  234.125;    0.000
597.680; 6062.325;  261.125;    0.000
597.803; 5866.325;  239.125;    0.000
597.926; 5916.325;  251.125;    0.000
598.050; 5913.325;  227.125;    0.000
598.173; 5911.325;  247.125;    0.000
598.297; 5816.325;  244.125;    0.000
598.420; 5784.325;  243.125;    0.000
598.543; 5809.325;  237.125;    0.000
598.667; 5685.325;  239.125;    0.000
598.790; 5682.325;  217.125;    0.000
598.913; 5717.325;  244.125;    0.000
599.037; 5743.325;  249.125;    0.000
599.160; 5595.325;  222.125;    0.000
599.283; 5501.325;  235.125;    0.000
599.406; 5476.325;  228.125;    0.000
599.530; 5651.325;  234.125;    0.000
599.653; 5468.325;  228.125;    0.000
599.776; 5406.325;  263.125;    0.000
599.899; 5527.325;  197.125;    0.000
600.022; 5283.325;  224.125;    0.000
600.145; 5330.325;  211.125;    0.000
600.269; 5467.325;  246.125;    0.000
600.392; 5316.325;  233.125;    0.000
600.515; 5306.325;  266.125;    0.000
600.638; 5372.325;  246.125;    0.000
600.761; 5310.325;  213.125;    0.000
600.884; 5280.325;  279.125;    0.000
601.007; 5181.325;  268.125;    0.000
601.130; 5200.325;  203.125;    0.000
601.253; 5219.325;  241.125;    0.000
601.376; 5168.325;  248.125;    0.000
601.499; 5215.325;  241.125;    0.000
601.622; 5173.325;  266.125;    0.000
601.745; 5071.325;  237.125;    0.000
601.868; 5228.325;  256.125;    0.000
601.991; 5053.325;  260.125;    0.000
602.113; 5090.325;  246.125;    0.000
602.236; 4993.325;  243.125;    0.000
602.359; 5088.325;  220.125;    0.000
602.482; 4959.325;  236.125;    0.000
602.605; 4837.325;  216.125;    0.000
602.728; 4982.325;  247.125;    0.000
602.850; 4949.325;  255.125;    0.000
602.973; 4977.325;  224.125;    0.000
603.096; 4986.325;  258.125;    0.000
603.219; 4989.325;  222.125;    0.000
603.341; 4934.325;  235.125;    0.000
603.464; 4763.325;  223.125;    0.000
603.587; 4883.325;  250.125;    0.000
603.709; 4840.325;  229.125;    0.000
603.832; 4819.325;  285.125;    0.000
603.955; 4770.325;  225.125;    0.000
604.077; 4736.325;  235.125;    0.000
604.200; 4902.325;  209.125;    0.000
604.323; 4827.325;  240.125;    0.000
604.445; 4654.325;  198.125;    0.000
604.568; 4814.325;  230.125;    0.000
604.690; 4705.325;  225.125;    0.000
604.813; 4836.325;  248.125;    0.000
604.935; 4704.325;  204.125;    0.000
605.058; 4688.325;  191.125;    0.000
605.180; 4736.325;  237.125;    0.000
605.303; 4693.325;  224.125;    0.000
605.425; 4703.325;  244.125;    0.000
605.547; 4779.325;  268.125;    0.000
605.670; 4669.325;  211.125;    0.000
605.792; 4565.325;  266.125;    0.000
605.915; 4661.325;  202.125;    0.000
606.037; 4634.325;  236.125;    0.000
606.159; 4648.325;  234.125;    0.000
606.282; 4611.325;  223.125;    0.000
606.404; 4611.325;  217.125;    0.000
606.526; 4577.325;  221.125;    0.000
606.648; 4624.325;  204.125;    0.000
606.771; 4617.325;  265.125;    0.000
606.893; 4392.325;  211.125;    0.000
607.015; 4624.325;  206.125;    0.000
607.137; 4663.325;  222.125;    0.000
607.260; 4577.325;  228.125;    0.000
607.382; 4591.325;  202.125;    0.000
607.504; 4575.325;  257.125;    0.000
607.626; 4535.325;  249.125;    0.000
607.748; 4612.325;  233.125;    0.000
607.870; 4545.325;  222.125;    0.000
607.992; 4348.325;  227.125;    0.000
608.114; 4466.325;  228.125;    0.000
608.237; 4542.325;  254.125;    0.000
608.359; 4469.325;  216.125;    0.000
608.481; 4483.325;  197.125;    0.000
608.603; 4423.325;  209.125;    0.000
608.725; 4418.325;  220.125;    0.000
608.847; 4472.325;  259.125;    0.000
608.969; 4475.325;  242.125;    0.000
609.090; 4532.325;  218.125;    0.000
609.212; 4400.325;  200.125;    0.000
609.334; 4582.325;  212.125;    0.000
609.456; 4551.325;  231.125;    0.000
609.578; 4420.325;  249.125;    0.000
609.700; 4193.325;  185.125;    0.000
609.822; 4343.325;  200.125;    0.000
609.944; 4328.325;  236.125;    0.000
610.065; 4454.325;  255.125;    0.000
610.187; 4281.325;  208.125;    0.000
610.309; 4411.325;  202.125;    0.000
610.431; 4346.325;  232.125;    0.000
610.552; 4395.325;  232.125;    0.000
610.674; 4262.325;  217.125;    0.000
610.796; 4387.325;  186.125;    0.000
610.918; 4354.325;  211.125;    0.000
611.039; 4488.325;  244.125;    0.000
611.161; 4432.325;  202.125;    0.000
611.282; 4324.325;  212.125;    0.000
611.404; 4374.325;  235.125;    0.000
611.526; 4358.325;  213.125;    0.000
611.647; 4409.325;  248.125;    0.000
611.769; 4379.325;  205.125;    0.000
611.890; 4401.325;  224.125;    0.000
612.012; 4328.325;  189.125;    0.000
612.133; 4326.325;  186.125;    0.000
612.255; 4201.325;  246.125;    0.000
612.377; 4238.325;  230.125;    0.000
612.498; 4345.325;  196.125;    0.000
612.619; 4301.325;  234.125;    0.000
612.741; 4378.325;  221.125;    0.000
612.862; 4387.325;  227.125;    0.000
612.984; 4330.325;  189.125;    0.000
613.105; 4325.325;  232.125;    0.000
613.226; 4239.325;  199.125;    0.000
613.348; 4368.325;  260.125;    0.000
613.469; 4228.325;  217.125;    0.000
613.590; 4288.325;  236.125;    0.000
613.712; 4391.325;  226.125;    0.000
613.833; 4258.325;  231.125;    0.000
613.954; 4183.325;  236.125;    0.000
614.076; 4355.325;  236.125;    0.000
614.197; 4295.325;  228.125;    0.000
614.318; 4348.325;  207.125;    0.000
614.439; 4280.325;  237.125;    0.000
614.560; 4274.325;  202.125;    0.000
614.682; 4288.325;  230.125;    0.000
614.803; 4252.325;  236.125;    0.000
614.924; 4329.325;  257.125;    0.000
615.045; 4407.325;  228.125;    0.000
615.166; 4442.325;  221.125;    0.000
615.287; 4721.325;  199.125;    0.000
615.408; 5429.325;  228.125;    0.000
615.529; 5459.325;  200.125;    0.000
615.650; 5106.325;  224.125;    0.000
615.771; 4902.325;  202.125;    0.000
615.892; 5085.325;  215.125;    0.000
616.013; 6231.325;  246.125;    0.000
616.134; 6920.325;  210.125;    0.000
616.255; 6342.325;  232.125;    0.000
616.376; 5522.325;  241.125;    0.000
616.497; 5151.325;  213.125;    0.000
616.618; 4826.325;  171.125;    0.000
616.739; 4817.325;  221.125;    0.000
616.860; 4632.325;  244.125;    0.000
616.981; 4558.325;  240.125;    0.000
617.102; 4514.325;  234.125;    0.000
617.222; 4552.325;  265.125;    0.000
617.343; 4477.325;  206.125;    0.000
617.464; 4505.325;  246.125;    0.000
617.585; 4458.325;  256.125;    0.000
617.705; 4454.325;  249.125;    0.000
617.826; 4383.325;  218.125;    0.000
617.947; 4381.325;  225.125;    0.000
618.068; 4347.325;  199.125;    0.000
618.188; 4324.325;  202.125;    0.000
618.309; 4422.325;  220.125;    0.000
618.430; 4294.325;  229.125;    0.000
618.550; 4383.325;  252.125;    0.000
618.671; 4228.325;  233.125;    0.000
618.791; 4215.325;  227.125;    0.000
618.912; 4258.325;  236.125;    0.000
619.033; 4196.325;  220.125;    0.000
619.153; 4214.325;  228.125;    0.000
619.274; 4041.325;  208.125;    0.000
619.394; 4198.325;  255.125;    0.000
619.515; 4002.325;  206.125;    0.000
619.635; 4185.325;  204.125;    0.000
619.756; 4182.325;  252.125;    0.000
619.876; 4137.325;  238.125;    0.000
619.996; 4306.325;  249.125;    0.000
620.117; 4178.325;  223.125;    0.000
620.237; 4131.325;  210.125;    0.000
620.358; 4218.325;  264.125;    0.000
620.478; 4039.325;  263.125;    0.000
620.598; 4178.325;  238.125;    0.000
620.719; 4072.325;  225.125;    0.000
620.839; 4062.325;  259.125;    0.000
620.959; 4066.325;  218.125;    0.000
621.079; 4072.325;  253.125;    0.000
621.200; 4026.325;  245.125;    0.000
621.320; 4035.325;  254.125;    0.000
621.440; 4052.325;  233.125;    0.000
621.560; 3984.325;  235.125;    0.000
621.681; 4005.325;  234.125;    0.000
621.801; 3948.325;  240.125;    0.000
621.921; 3958.325;  239.125;    0.000
622.041; 4079.325;  288.125;    0.000
622.161; 3989.325;  229.125;    0.000
622.281; 3833.325;  223.125;    0.000
622.401; 3829.325;  240.125;    0.000
622.521; 3866.325;  267.125;    0.000
622.641; 4010.325;  226.125;    0.000
622.761; 3985.325;  252.125;    0.000
622.882; 3943.325;  207.125;    0.000
623.002; 3905.325;  226.125;    0.000
623.121; 3896.325;  207.125;    0.000
623.241; 3960.325;  215.125;    0.000
623.361; 3875.325;  222.125;    0.000
623.481; 3768.325;  187.125;    0.000
623.601; 3969.325;  283.125;    0.000
623.721; 3945.325;  283.125;    0.000
623.841; 3993.325;  233.125;    0.000
623.961; 3828.325;  215.125;    0.000
624.081; 3813.325;  219.125;    0.000
624.201; 3975.325;  221.125;    0.000
624.320; 3819.325;  215.125;    0.000
624.440; 3865.325;  222.125;    0.000
624.560; 3827.325;  231.125;    0.000
624.680; 3807.325;  225.125;    0.000
624.799; 3860.325;  230.125;    0.000
624.919; 3894.325;  243.125;    0.000
625.039; 3843.325;  203.125;    0.000
625.159; 3854.325;  257.125;    0.000
625.278; 3786.325;  230.125;    0.000
625.398; 3869.325;  195.125;    0.000
625.518; 3760.325;  211.125;    0.000
625.637; 3858.325;  267.125;    0.000
625.757; 3800.325;  228.125;    0.000
625.876; 3650.325;  231.125;    0.000
625.996; 3811.325;  219.125;    0.000
626.115; 3797.325;  235.125;    0.000
626.235; 3788.325;  199.125;    0.000
626.354; 3795.325;  226.125;    0.000
626.474; 3796.325;  225.125;    0.000
626.594; 3784.325;  223.125;    0.000
626.713; 3725.325;  231.125;    0.000
626.832; 3779.325;  287.125;    0.000
626.952; 3758.325;  251.125;    0.000
627.071; 3705.325;  254.125;    0.000
627.191; 3761.325;  193.125;    0.000
627.310; 3729.325;  213.125;    0.000
627.429; 3804.325;  259.125;    0.000
627.549; 3792.325;  243.125;    0.000
627.668; 3805.325;  181.125;    0.000
627.787; 3751.325;  232.125;    0.000
627.907; 3713.325;  222.125;    0.000
628.026; 3795.325;  219.125;    0.000
628.145; 3751.325;  201.125;    0.000
628.264; 3781.325;  198.125;    0.000
628.384; 3720.325;  208.125;    0.000
628.503; 3743.325;  251.125;    0.000
628.622; 3856.325;  195.125;    0.000
628.741; 3792.325;  180.125;    0.000
628.860; 3783.325;  235.125;    0.000
628.980; 3729.325;  222.125;    0.000
629.099; 3748.325;  237.125;    0.000
629.218; 3661.325;  175.125;    0.000
629.337; 3823.325;  194.125;    0.000
629.456; 3746.325;  225.125;    0.000
629.575; 3835.325;  239.125;    0.000
629.694; 3741.325;  230.125;    0.000
629.813; 3643.325;  197.125;    0.000
629.932; 3654.325;  225.125;    0.000
630.051; 3732.325;  238.125;    0.000
630.170; 3700.325;  233.125;    0.000
630.289; 3625.325;  231.125;    0.000
630.408; 3622.325;  204.125;    0.000
630.527; 3768.325;  262.125;    0.000
630.646; 3711.325;  181.125;    0.000
630.764; 3705.325;  218.125;    0.000
630.883; 3605.325;  215.125;    0.000
631.002; 3594.325;  224.125;    0.000
631.121; 3625.325;  209.125;    0.000
631.240; 3636.325;  230.125;    0.000
631.359; 3769.325;  235.125;    0.000
631.477; 3685.325;  223.125;    0.000
631.596; 3748.325;  218.125;    0.000
631.715; 3745.325;  234.125;    0.000
631.834; 3599.325;  215.125;    0.000
631.952; 3699.325;  243.125;    0.000
632.071; 3591.325;  219.125;    0.000
632.190; 3631.325;  235.125;    0.000
632.308; 3751.325;  239.125;    0.000
632.427; 3676.325;  211.125;    0.000
632.546; 3704.325;  233.125;    0.000
632.664; 3496.325;  219.125;    0.000
632.783; 3638.325;  203.125;    0.000
632.901; 3562.325;  221.125;    0.000
633.020; 3587.325;  197.125;    0.000
633.138; 3585.325;  244.125;    0.000
633.257; 3543.325;  205.125;    0.000
633.375; 3590.325;  245.125;    0.000
633.494; 3584.325;  218.125;    0.000
633.612; 3536.325;  222.125;    0.000
633.731; 3581.325;  212.125;    0.000
633.849; 3616.325;  218.125;    0.000
633.968; 3462.325;  236.125;    0.000
634.086; 3597.325;  233.125;    0.000
634.204; 3565.325;  215.125;    0.000
634.323; 3469.325;  230.125;    0.000
634.441; 3523.325;  235.125;    0.000
634.559; 3486.325;  202.125;    0.000
634.678; 3491.325;  218.125;    0.000
634.796; 3609.325;  203.125;    0.000
634.914; 3497.325;  227.125;    0.000
635.032; 3570.325;  279.125;    0.000
635.151; 3474.325;  221.125;    0.000
635.269; 3494.325;  207.125;    0.000
635.387; 3547.325;  195.125;    0.000
635.505; 3399.325;  243.125;    0.000
635.623; 3578.325;  269.125;    0.000
635.742; 3450.325;  232.125;    0.000
635.860; 3528.325;  243.125;    0.000
635.978; 3516.325;  215.125;    0.000
636.096; 3532.325;  225.125;    0.000
636.214; 3558.325;  244.125;    0.000
636.332; 3498.325;  226.125;    0.000
636.450; 3581.325;  227.125;    0.000
636.568; 3447.325;  225.125;    0.000
636.686; 3381.325;  194.125;    0.000
636.804; 3504.325;  234.125;    0.000
636.922; 3434.325;  177.125;    0.000
637.040; 3491.325;  225.125;    0.000
637.158; 3490.325;  194.125;    0.000
637.276; 3443.325;  219.125;    0.000
637.394; 3539.325;  219.125;    0.000
637.512; 3378.325;  210.125;    0.000
637.629; 3496.325;  242.125;    0.000
637.747; 3486.325;  193.125;    0.000
637.865; 3386.325;  219.125;    0.000
637.983; 3464.325;  251.125;    0.000
638.101; 3512.325;  221.125;    0.000
638.218; 3441.325;  193.125;    0.000
638.336; 3416.325;  224.125;    0.000
638.454; 3446.325;  227.125;    0.000
638.572; 3431.325;  245.125;    0.000
638.689; 3411.325;  222.125;    0.000
638.807; 3447.325;  244.125;    0.000
638.925; 3415.325;  238.125;    0.000
639.042; 3376.325;  213.125;    0.000
639.160; 3368.325;  186.125;    0.000
639.278; 3354.325;  203.125;    0.000
639.395; 3452.325;  270.125;    0.000
639.513; 3468.325;  227.125;    0.000
639.630; 3387.325;  200.125;    0.000
639.748; 3355.325;  199.125;    0.000
639.865; 3444.325;  233.125;    0.000
639.983; 3445.325;  181.125;    0.000
640.100; 3317.325;  219.125;    0.000
640.218; 3418.325;  234.125;    0.000
640.335; 3400.325;  233.125;    0.000
640.453; 3501.325;  202.125;    0.000
640.570; 3341.325;  214.125;    0.000
640.688; 3443.325;  215.125;    0.000
640.805; 3358.325;  229.125;    0.000
640.922; 3445.325;  244.125;    0.000
641.040; 3495.325;  233.125;    0.000
641.157; 3335.325;  199.125;    0.000
641.274; 3358.325;  205.125;    0.000
641.391; 3440.325;  244.125;    0.000
641.509; 3397.325;  184.125;    0.000
641.626; 3406.325;  244.125;    0.000
641.743; 3358.325;  221.125;    0.000
641.860; 3412.325;  206.125;    0.000
641.978; 3421.325;  272.125;    0.000
642.095; 3465.325;  218.125;    0.000
642.212; 3380.325;  208.125;    0.000
642.329; 3378.325;  218.125;    0.000
642.446; 3333.325;  197.125;    0.000
642.563; 3351.325;  214.125;    0.000
642.681; 3363.325;  203.125;    0.000
642.798; 3331.325;  236.125;    0.000
642.915; 3440.325;  191.125;    0.000
643.032; 3381.325;  226.125;    0.000
643.149; 3366.325;  231.125;    0.000
643.266; 3378.325;  213.125;    0.000
643.383; 3386.325;  240.125;    0.000
643.500; 3289.325;  185.125;    0.000
643.617; 3469.325;  229.125;    0.000
643.734; 3388.325;  205.125;    0.000
643.850; 3390.325;  222.125;    0.000
643.967; 3366.325;  202.125;    0.000
644.084; 3395.325;  264.125;    0.000
644.201; 3425.325;  214.125;    0.000
644.318; 3327.325;  206.125;    0.000
644.435; 3312.325;  225.125;    0.000
644.552; 3390.325;  203.125;    0.000
644.668; 3402.325;  252.125;    0.000
644.785; 3421.325;  213.125;    0.000
644.902; 3446.325;  233.125;    0.000
645.019; 3429.325;  220.125;    0.000
645.135; 3414.325;  225.125;    0.000
645.252; 3488.325;  218.125;    0.000
645.369; 3347.325;  214.125;    0.000
645.485; 3478.325;  210.125;    0.000
645.602; 3475.325;  198.125;    0.000
645.719; 3440.325;  228.125;    0.000
645.835; 3559.325;  209.125;    0.000
645.952; 3454.325;  213.125;    0.000
646.068; 3450.325;  241.125;    0.000
646.185; 3530.325;  219.125;    0.000
646.302; 3511.325;  246.125;    0.000
646.418; 3414.325;  228.125;    0.000
646.535; 3522.325;  256.125;    0.000
646.651; 3510.325;  222.125;    0.000
646.768; 3586.325;  203.125;    0.000
646.884; 3540.325;  199.125;    0.000
647.000; 3558.325;  194.125;    0.000
647.117; 3550.325;  214.125;    0.000
647.233; 3536.325;  209.125;    0.000
647.350; 3588.325;  235.125;    0.000
647.466; 3633.325;  237.125;    0.000
647.582; 3638.325;  231.125;    0.000
647.699; 3618.325;  219.125;    0.000
647.815; 3663.325;  200.125;    0.000
647.931; 3635.325;  173.125;    0.000
648.047; 3649.325;  184.125;    0.000
648.164; 3670.325;  199.125;    0.000
648.280; 3702.325;  209.125;    0.000
648.396; 3704.325;  220.125;    0.000
648.512; 3660.325;  212.125;    0.000
648.629; 3675.325;  214.125;    0.000
648.745; 3624.325;  197.125;    0.000
648.861; 3632.325;  228.125;    0.000
648.977; 3593.325;  238.125;    0.000
649.093; 3709.325;  208.125;    0.000
649.209; 3600.325;  179.125;    0.000
649.325; 3777.325;  256.125;    0.000
649.441; 3651.325;  224.125;    0.000
649.557; 3749.325;  247.125;    0.000
649.673; 3665.325;  214.125;    0.000
649.789; 3653.325;  213.125;    0.000
649.905; 3631.325;  170.125;    0.000
650.021; 3710.325;  236.125;    0.000
650.137; 3679.325;  229.125;    0.000
650.253; 3715.325;  207.125;    0.000
650.369; 3707.325;  198.125;    0.000
650.485; 3604.325;  225.125;    0.000
650.601; 3722.325;  260.125;    0.000
650.717; 3860.325;  196.125;    0.000
650.833; 3788.325;  219.125;    0.000
650.948; 3784.325;  203.125;    0.000
651.064; 3763.325;  232.125;    0.000
651.180; 3820.325;  252.125;    0.000
651.296; 3737.325;  190.125;    0.000
651.411; 3817.325;  235.125;    0.000
651.527; 3827.325;  227.125;    0.000
651.643; 3904.325;  238.125;    0.000
651.759; 3921.325;  260.125;    0.000
651.874; 3841.325;  217.125;    0.000
651.990; 3859.325;  239.125;    0.000
652.105; 3896.325;  215.125;    0.000
652.221; 3921.325;  237.125;    0.000
652.337; 3963.325;  238.125;    0.000
652.452; 3959.325;  230.125;    0.000
652.568; 3962.325;  201.125;    0.000
652.683; 4079.325;  243.125;    0.000
652.799; 4029.325;  218.125;    0.000
652.914; 4036.325;  189.125;    0.000
653.030; 4178.325;  191.125;    0.000
653.145; 4272.325;  240.125;    0.000
653.261; 4258.325;  225.125;    0.000
653.376; 4229.325;  241.125;    0.000
653.492; 4219.325;  188.125;    0.000
653.607; 4222.325;  219.125;    0.000
653.722; 4437.325;  268.125;    0.000
653.838; 4392.325;  262.125;    0.000
653.953; 4495.325;  188.125;    0.000
654.068; 4526.325;  244.125;    0.000
654.184; 4580.325;  247.125;    0.000
654.299; 4745.325;  228.125;    0.000
654.414; 4707.325;  181.125;    0.000
654.530; 4750.325;  210.125;    0.000
654.645; 4832.325;  240.125;    0.000
654.760; 4897.325;  219.125;    0.000
654.875; 5089.325;  178.125;    0.000
654.990; 5314.325;  222.125;    0.000
655.106; 5382.325;  227.125;    0.000
655.221; 5497.325;  270.125;    0.000
655.336; 5539.325;  199.125;    0.000
655.451; 5747.325;  235.125;    0.000
655.566; 5920.325;  251.125;    0.000
655.681; 6192.325;  253.125;    0.000
655.796; 6479.325;  207.125;    0.000
655.911; 6622.325;  213.125;    0.000
656.026; 6886.325;  247.125;    0.000
656.141; 7253.325;  209.125;    0.000
656.256; 7533.325;  226.125;    0.000
656.371; 7570.325;  201.125;    0.000
656.486; 7548.325;  196.125;    0.000
656.601; 7334.325;  239.125;    0.000
656.716; 7157.325;  234.125;    0.000
656.831; 6963.325;  223.125;    0.000
656.946; 6796.325;  246.125;    0.000
657.060; 6599.325;  230.125;    0.000
657.175; 6364.325;  207.125;    0.000
657.290; 6155.325;  213.125;    0.000
657.405; 6126.325;  319.125;    0.000
657.520; 5963.325;  241.125;    0.000
657.634; 5950.325;  235.125;    0.000
657.749; 5637.325;  275.125;    0.000
657.864; 5616.325;  210.125;    0.000
657.979; 5384.325;  227.125;    0.000
658.093; 5404.325;  206.125;    0.000
658.208; 5154.325;  217.125;    0.000
658.323; 5149.325;  227.125;    0.000
658.437; 5135.325;  217.125;    0.000
658.552; 4987.325;  237.125;    0.000
658.666; 4951.325;  233.125;    0.000
658.781; 4986.325;  248.125;    0.000
658.895; 4821.325;  233.125;    0.000
659.010; 4764.325;  238.125;    0.000
659.125; 4662.325;  206.125;    0.000
659.239; 4506.325;  220.125;    0.000
659.353; 4402.325;  236.125;    0.000
659.468; 4487.325;  238.125;    0.000
659.582; 4411.325;  275.125;    0.000
659.697; 4386.325;  239.125;    0.000
659.811; 4466.325;  232.125;    0.000
659.926; 4288.325;  230.125;    0.000
660.040; 4150.325;  257.125;    0.000
660.154; 4244.325;  221.125;    0.000
660.269; 4154.325;  219.125;    0.000
660.383; 4098.325;  228.125;    0.000
660.497; 4119.325;  243.125;    0.000
660.612; 4108.325;  238.125;    0.000
660.726; 4159.325;  260.125;    0.000
660.840; 3964.325;  239.125;    0.000
660.954; 3942.325;  236.125;    0.000
661.068; 3948.325;  239.125;    0.000
661.183; 3951.325;  245.125;    0.000
661.297; 3796.325;  198.125;    0.000
661.411; 3831.325;  203.125;    0.000
661.525; 3854.325;  244.125;    0.000
661.639; 3741.325;  229.125;    0.000
661.753; 3786.325;  238.125;    0.000
661.867; 3711.325;  237.125;    0.000
661.981; 3704.325;  219.125;    0.000
662.095; 3708.325;  232.125;    0.000
662.209; 3685.325;  236.125;    0.000
662.323; 3572.325;  209.125;    0.000
662.437; 3486.325;  206.125;    0.000
662.551; 3553.325;  217.125;    0.000
662.665; 3503.325;  262.125;    0.000
662.779; 3531.325;  234.125;    0.000
662.893; 3481.325;  222.125;    0.000
663.007; 3546.325;  189.125;    0.000
663.121; 3507.325;  258.125;    0.000
663.235; 3440.325;  191.125;    0.000
663.349; 3414.325;  259.125;    0.000
663.462; 3387.325;  209.125;    0.000
663.576; 3382.325;  244.125;    0.000
663.690; 3318.325;  237.125;    0.000
663.804; 3239.325;  205.125;    0.000
663.917; 3250.325;  207.125;    0.000
664.031; 3260.325;  234.125;    0.000
664.145; 3232.325;  216.125;    0.000
664.258; 3196.325;  202.125;    0.000
664.372; 3260.325;  198.125;    0.000
664.486; 3080.325;  181.125;    0.000
664.599; 3227.325;  229.125;    0.000
664.713; 3339.325;  266.125;    0.000
664.827; 3177.325;  185.125;    0.000
664.940; 3067.325;  225.125;    0.000
665.054; 3077.325;  198.125;    0.000
665.167; 3062.325;  208.125;    0.000
665.281; 3176.325;  231.125;    0.000
665.394; 3185.325;  228.125;    0.000
665.508; 2988.325;  204.125;    0.000
665.621; 3125.325;  263.125;    0.000
665.735; 3116.325;  222.125;    0.000
665.848; 3089.325;  237.125;    0.000
665.961; 3097.325;  180.125;    0.000
666.075; 3003.325;  212.125;    0.000
666.188; 3121.325;  229.125;    0.000
666.301; 3073.325;  247.125;    0.000
666.415; 2993.325;  212.125;    0.000
666.528; 3151.325;  268.125;    0.000
666.641; 2994.325;  210.125;    0.000
666.755; 2927.325;  178.125;    0.000
666.868; 2977.325;  227.125;    0.000
666.981; 3013.325;  250.125;    0.000
667.094; 3010.325;  228.125;    0.000
667.207; 2966.325;  235.125;    0.000
667.321; 2856.325;  171.125;    0.000
667.434; 2953.325;  191.125;    0.000
667.547; 2931.325;  279.125;    0.000
667.660; 2914.325;  210.125;    0.000
667.773; 2890.325;  217.125;    0.000
667.886; 2925.325;  209.125;    0.000
667.999; 2963.325;  239.125;    0.000
668.112; 2924.325;  227.125;    0.000
668.225; 2892.325;  185.125;    0.000
668.338; 2892.325;  222.125;    0.000
668.451; 2841.325;  200.125;    0.000
668.564; 2846.325;  237.125;    0.000
668.677; 2885.325;  207.125;    0.000
668.790; 2881.325;  208.125;    0.000
668.903; 2851.325;  243.125;    0.000
669.016; 2735.325;  190.125;    0.000
669.129; 2826.325;  234.125;    0.000
669.242; 2691.325;  185.125;    0.000
669.354; 2723.325;  224.125;    0.000
669.467; 2846.325;  219.125;    0.000
669.580; 2824.325;  249.125;    0.000
669.693; 2690.325;  187.125;    0.000
669.806; 2768.325;  206.125;    0.000
669.918; 2766.325;  192.125;    0.000
670.031; 2788.325;  235.125;    0.000
670.144; 2783.325;  238.125;    0.000
670.256; 2742.325;  237.125;    0.000
670.369; 2735.325;  237.125;    0.000
670.482; 2752.325;  250.125;    0.000
670.594; 2683.325;  273.125;    0.000
670.707; 2744.325;  223.125;    0.000
670.820; 2682.325;  238.125;    0.000
670.932; 2748.325;  224.125;    0.000
671.045; 2775.325;  219.125;    0.000
671.157; 2704.325;  242.125;    0.000
671.270; 2717.325;  235.125;    0.000
671.382; 2680.325;  213.125;    0.000
671.495; 2715.325;  254.125;    0.000
671.607; 2654.325;  253.125;    0.000
671.720; 2709.325;  169.125;    0.000
671.832; 2657.325;  201.125;    0.000
671.944; 2737.325;  250.125;    0.000
672.057; 2650.325;  187.125;    0.000
672.169; 2688.325;  224.125;    0.000
672.281; 2767.325;  238.125;    0.000
672.394; 2643.325;  250.125;    0.000
672.506; 2739.325;  227.125;    0.000
672.618; 2626.325;  223.125;    0.000
672.731; 2617.325;  210.125;    0.000
672.843; 2654.325;  245.125;    0.000
672.955; 2682.325;  263.125;    0.000
673.067; 2600.325;  239.125;    0.000
673.180; 2674.325;  253.125;    0.000
673.292; 2655.325;  243.125;    0.000
673.404; 2602.325;  226.125;    0.000
673.516; 2686.325;  223.125;    0.000
673.628; 2575.325;  223.125;    0.000
673.740; 2604.325;  216.125;    0.000
673.852; 2654.325;  277.125;    0.000
673.964; 2682.325;  211.125;    0.000
674.076; 2618.325;  241.125;    0.000
674.188; 2648.325;  251.125;    0.000
674.300; 2643.325;  268.125;    0.000
674.412; 2670.325;  260.125;    0.000
674.524; 2654.325;  257.125;    0.000
674.636; 2592.325;  222.125;    0.000
674.748; 2603.325;  227.125;    0.000
674.860; 2604.325;  250.125;    0.000
674.972; 2546.325;  240.125;    0.000
675.084; 2628.325;  262.125;    0.000
675.196; 2691.325;  287.125;    0.000
675.307; 2620.325;  257.125;    0.000
675.419; 2605.325;  231.125;    0.000
675.531; 2588.325;  274.125;    0.000
675.643; 2525.325;  235.125;    0.000
675.755; 2560.325;  275.125;    0.000
675.866; 2523.325;  238.125;    0.000
675.978; 2549.325;  209.125;    0.000
676.090; 2465.325;  239.125;    0.000
676.201; 2511.325;  249.125;    0.000
676.313; 2477.325;  237.125;    0.000
676.425; 2548.325;  263.125;    0.000
676.536; 2487.325;  178.125;    0.000
676.648; 2527.325;  245.125;    0.000
676.759; 2524.325;  244.125;    0.000
676.871; 2501.325;  242.125;    0.000
676.983; 2555.325;  245.125;    0.000
677.094; 2482.325;  209.125;    0.000
677.206; 2492.325;  248.125;    0.000
677.317; 2503.325;  260.125;    0.000
677.429; 2443.325;  237.125;    0.000
677.540; 2434.325;  226.125;    0.000
677.651; 2494.325;  226.125;    0.000
677.763; 2435.325;  194.125;    0.000
677.874; 2456.325;  230.125;    0.000
677.986; 2458.325;  202.125;    0.000
678.097; 2400.325;  229.125;    0.000
678.208; 2464.325;  263.125;    0.000
678.320; 2458.325;  243.125;    0.000
678.431; 2477.325;  229.125;    0.000
678.542; 2388.325;  231.125;    0.000
678.653; 2469.325;  224.125;    0.000
678.765; 2485.325;  255.125;    0.000
678.876; 2456.325;  175.125;    0.000
678.987; 2361.325;  204.125;    0.000
679.098; 2375.325;  227.125;    0.000
679.209; 2409.325;  228.125;    0.000
679.320; 2443.325;  223.125;    0.000
679.432; 2461.325;  219.125;    0.000
679.543; 2435.325;  210.125;    0.000
679.654; 2420.325;  249.125;    0.000
679.765; 2389.325;  222.125;    0.000
679.876; 2348.325;  219.125;    0.000
679.987; 2379.325;  213.125;    0.000
680.098; 2428.325;  237.125;    0.000
680.209; 2357.325;  188.125;    0.000
680.320; 2451.325;  243.125;    0.000
680.431; 2485.325;  227.125;    0.000
680.542; 2422.325;  212.125;    0.000
680.653; 2417.325;  266.125;    0.000
680.763; 2277.325;  198.125;    0.000
680.874; 2328.325;  211.125;    0.000
680.985; 2325.325;  207.125;    0.000
681.096; 2318.325;  244.125;    0.000
681.207; 2353.325;  209.125;    0.000
681.318; 2389.325;  215.125;    0.000
681.428; 2245.325;  199.125;    0.000
681.539; 2375.325;  175.125;    0.000
681.650; 2364.325;  224.125;    0.000
681.760; 2403.325;  216.125;    0.000
681.871; 2339.325;  187.125;    0.000
681.982; 2243.325;  237.125;    0.000
682.093; 2334.325;  213.125;    0.000
682.203; 2361.325;  190.125;    0.000
682.314; 2370.325;  230.125;    0.000
682.424; 2358.325;  223.125;    0.000
682.535; 2328.325;  172.125;    0.000
682.646; 2428.325;  268.125;    0.000
682.756; 2353.325;  249.125;    0.000
682.867; 2296.325;  225.125;    0.000
682.977; 2318.325;  211.125;    0.000
683.088; 2343.325;  238.125;    0.000
683.198; 2313.325;  202.125;    0.000
683.308; 2287.325;  196.125;    0.000
683.419; 2365.325;  230.125;    0.000
683.529; 2362.325;  213.125;    0.000
683.640; 2288.325;  225.125;    0.000
683.750; 2325.325;  203.125;    0.000
683.860; 2330.325;  200.125;    0.000
683.971; 2371.325;  269.125;    0.000
684.081; 2288.325;  204.125;    0.000
684.191; 2343.325;  228.125;    0.000
684.301; 2357.325;  219.125;    0.000
684.412; 2322.325;  222.125;    0.000
684.522; 2308.325;  242.125;    0.000
684.632; 2367.325;  234.125;    0.000
684.742; 2376.325;  240.125;    0.000
684.852; 2249.325;  229.125;    0.000
684.963; 2380.325;  237.125;    0.000
685.073; 2295.325;  205.125;    0.000
685.183; 2314.325;  241.125;    0.000
685.293; 2353.325;  202.125;    0.000
685.403; 2339.325;  232.125;    0.000
685.513; 2375.325;  244.125;    0.000
685.623; 2244.325;  224.125;    0.000
685.733; 2348.325;  236.125;    0.000
685.843; 2343.325;  235.125;    0.000
685.953; 2298.325;  216.125;    0.000
686.063; 2314.325;  214.125;    0.000
686.173; 2269.325;  198.125;    0.000
686.283; 2381.325;  250.125;    0.000
686.393; 2326.325;  227.125;    0.000
686.503; 2344.325;  244.125;    0.000
686.612; 2332.325;  247.125;    0.000
686.722; 2283.325;  265.125;    0.000
686.832; 2315.325;  213.125;    0.000
686.942; 2362.325;  241.125;    0.000
687.052; 2323.325;  238.125;    0.000
687.161; 2359.325;  233.125;    0.000
687.271; 2196.325;  232.125;    0.000
687.381; 2314.325;  220.125;    0.000
687.491; 2394.325;  206.125;    0.000
687.600; 2354.325;  283.125;    0.000
687.710; 2268.325;  212.125;    0.000
687.820; 2329.325;  226.125;    0.000
687.929; 2252.325;  202.125;    0.000
688.039; 2280.325;  225.125;    0.000
688.148; 2366.325;  235.125;    0.000
688.258; 2265.325;  224.125;    0.000
688.367; 2203.325;  239.125;    0.000
688.477; 2303.325;  193.125;    0.000
688.586; 2223.325;  226.125;    0.000
688.696; 2322.325;  185.125;    0.000
688.805; 2357.325;  190.125;    0.000
688.915; 2316.325;  209.125;    0.000
689.024; 2276.325;  214.125;    0.000
689.134; 2316.325;  205.125;    0.000
689.243; 2234.325;  190.125;    0.000
689.352; 2351.325;  233.125;    0.000
689.462; 2321.325;  196.125;    0.000
689.571; 2185.325;  227.125;    0.000
689.680; 2243.325;  206.125;    0.000
689.790; 2236.325;  193.125;    0.000
689.899; 2296.325;  204.125;    0.000
690.008; 2247.325;  228.125;    0.000
690.117; 2315.325;  207.125;    0.000
690.227; 2286.325;  231.125;    0.000
690.336; 2203.325;  222.125;    0.000
690.445; 2205.325;  198.125;    0.000
690.554; 2298.325;  202.125;    0.000
690.663; 2272.325;  217.125;    0.000
690.772; 2330.325;  213.125;    0.000
690.881; 2236.325;  225.125;    0.000
690.990; 2247.325;  217.125;    0.000
691.099; 2276.325;  205.125;    0.000
691.209; 2187.325;  220.125;    0.000
691.318; 2226.325;  216.125;    0.000
691.427; 2159.325;  188.125;    0.000
691.536; 2200.325;  224.125;    0.000
691.644; 2155.325;  212.125;    0.000
691.753; 2238.325;  216.125;    0.000
691.862; 2208.325;  250.125;    0.000
691.971; 2210.325;  210.125;    0.000
692.080; 2289.325;  232.125;    0.000
692.189; 2264.325;  218.125;    0.000
692.298; 2284.325;  220.125;    0.000
692.406; 2249.325;  261.125;    0.000
692.515; 2214.325;  253.125;    0.000
692.624; 2219.325;  224.125;    0.000
692.733; 2157.325;  209.125;    0.000
692.842; 2255.325;  214.125;    0.000
692.950; 2165.325;  206.125;    0.000
693.059; 2218.325;  180.125;    0.000
693.168; 2318.325;  220.125;    0.000
693.276; 2243.325;  196.125;    0.000
693.385; 2182.325;  203.125;    0.000
693.494; 2279.325;  263.125;    0.000
693.602; 2190.325;  222.125;    0.000
693.711; 2216.325;  178.125;    0.000
693.819; 2250.325;  230.125;    0.000
693.928; 2278.325;  187.125;    0.000
694.036; 2288.325;  219.125;    0.000
694.145; 2208.325;  223.125;    0.000
694.253; 2217.325;  241.125;    0.000
694.362; 2148.325;  229.125;    0.000
694.470; 2206.325;  223.125;    0.000
694.579; 2253.325;  195.125;    0.000
694.687; 2319.325;  257.125;    0.000
694.795; 2273.325;  230.125;    0.000
694.904; 2171.325;  196.125;    0.000
695.012; 2234.325;  247.125;    0.000
695.120; 2241.325;  215.125;    0.000
695.229; 2264.325;  244.125;    0.000
695.337; 2223.325;  197.125;    0.000
695.445; 2206.325;  270.125;    0.000
695.553; 2208.325;  241.125;    0.000
695.662; 2199.325;  249.125;    0.000
695.770; 2237.325;  244.125;    0.000
695.878; 2260.325;  236.125;    0.000
695.986; 2268.325;  253.125;    0.000
696.094; 2207.325;  242.125;    0.000
696.202; 2220.325;  174.125;    0.000
696.310; 2249.325;  230.125;    0.000
696.419; 2241.325;  218.125;    0.000
696.527; 2247.325;  226.125;    0.000
696.635; 2302.325;  217.125;    0.000
696.743; 2257.325;  221.125;    0.000
696.851; 2263.325;  259.125;    0.000
696.959; 2261.325;  245.125;    0.000
697.067; 2174.325;  235.125;    0.000
697.174; 2222.325;  238.125;    0.000
697.282; 2143.325;  208.125;    0.000
697.390; 2288.325;  265.125;    0.000
697.498; 2173.325;  202.125;    0.000
697.606; 2254.325;  219.125;    0.000
697.714; 2200.325;  245.125;    0.000
697.822; 2166.325;  222.125;    0.000
697.929; 2161.325;  194.125;    0.000
698.037; 2173.325;  223.125;    0.000
698.145; 2222.325;  213.125;    0.000
698.253; 2149.325;  234.125;    0.000
698.360; 2214.325;  211.125;    0.000
698.468; 2151.325;  241.125;    0.000
698.576; 2201.325;  249.125;    0.000
698.683; 2272.325;  268.125;    0.000
698.791; 2291.325;  223.125;    0.000
698.899; 2174.325;  251.125;    0.000
699.006; 2202.325;  216.125;    0.000
699.114; 2169.325;  256.125;    0.000
699.221; 2181.325;  226.125;    0.000
699.329; 2258.325;  255.125;    0.000
699.436; 2170.325;  213.125;    0.000
699.544; 2216.325;  258.125;    0.000
699.651; 2171.325;  214.125;    0.000
699.759; 2131.325;  229.125;    0.000
699.866; 2214.325;  239.125;    0.000
699.974; 2172.325;  224.125;    0.000
700.081; 2173.325;  227.125;    0.000
700.188; 2258.325;  267.125;    0.000
700.296; 2194.325;  222.125;    0.000
700.403; 2184.325;  225.125;    0.000
700.510; 2161.325;  248.125;    0.000
700.618; 2133.325;  223.125;    0.000
700.725; 2150.325;  243.125;    0.000
700.832; 2216.325;  239.125;    0.000
700.940; 2149.325;  284.125;    0.000
701.047; 2115.325;  216.125;    0.000
701.154; 2149.325;  249.125;    0.000
701.261; 2166.325;  229.125;    0.000
701.368; 2199.325;  247.125;    0.000
701.475; 2227.325;  208.125;    0.000
701.582; 2222.325;  262.125;    0.000
701.690; 2209.325;  224.125;    0.000
701.797; 2210.325;  294.125;    0.000
701.904; 2224.325;  303.125;    0.000
702.011; 2232.325;  278.125;    0.000
702.118; 2224.325;  279.125;    0.000
702.225; 2235.325;  342.125;    0.000
702.332; 2202.325;  281.125;    0.000
702.439; 2227.325;  313.125;    0.000
702.546; 2265.325;  295.125;    0.000
702.652; 2243.325;  293.125;    0.000
702.759; 2224.325;  333.125;    0.000
702.866; 2170.325;  272.125;    0.000
702.973; 2174.325;  310.125;    0.000
703.080; 2175.325;  313.125;    0.000
703.187; 2256.325;  316.125;    0.000
703.294; 2233.325;  328.125;    0.000
703.400; 2032.325;  312.125;    0.000
703.507;  492.325;  349.125;    0.000
703.614;  334.325;  298.125;    0.000
703.720;  305.325;  300.125;    0.000
703.827;  359.325;  346.125;    0.000
703.934;  301.325;  308.125;    0.000
704.040;  303.325;  300.125;    0.000
704.147;  316.325;  317.125;    0.000
704.254;  339.325;  350.125;    0.000
704.360;  316.325;  285.125;    0.000
704.467;  355.325;  334.125;    0.000
704.573;  310.325;  330.125;    0.000
704.680;  327.325;  312.125;    0.000
704.786;  306.325;  305.125;    0.000
704.893;  335.325;  330.125;    0.000
704.999;  320.325;  315.125;    0.000
705.106;  374.325;  327.125;    0.000

