
Integration time [ms]:   0.300
Averaging Nr. [scans]: 1
Smoothing Nr. [pixels]: 0
Data measured with spectrometer [name]: UV1
Wave   ;Sample   ;Dark     ;Reference
[nm]   ;[counts] ;[counts] ;[counts] 

236.381;  165.950;  160.350;    0.000
236.451;  179.950;  198.350;    0.000
236.520;  143.950;  179.350;    0.000
236.590;  182.950;  205.350;    0.000
236.660;  198.950;  199.350;    0.000
236.730;  152.950;  178.350;    0.000
236.799;  167.950;  201.350;    0.000
236.869;  191.950;  197.350;    0.000
236.939;  177.950;  180.350;    0.000
237.009;  211.950;  165.350;    0.000
237.078;  162.950;  191.350;    0.000
237.148;  173.950;  146.350;    0.000
237.218;  185.950;  142.350;    0.000
237.287;  190.950;  190.350;    0.000
237.357;  169.950;  182.350;    0.000
237.427;  155.950;  139.350;    0.000
237.496; 1150.950;  221.350;    0.000
237.566; 1020.950;  183.350;    0.000
237.636; 1077.950;  157.350;    0.000
237.705; 1140.950;  189.350;    0.000
237.775; 1145.950;  169.350;    0.000
237.845; 1129.950;  156.350;    0.000
237.914; 1084.950;  185.350;    0.000
237.984; 1120.950;  194.350;    0.000
238.054; 1056.950;  138.350;    0.000
238.123; 1084.950;  166.350;    0.000
238.193; 1118.950;  174.350;    0.000
238.263; 1116.950;  158.350;    0.000
238.332; 1094.950;  167.350;    0.000
238.402; 1078.950;  173.350;    0.000
238.471; 1122.950;  153.350;    0.000
238.541; 1063.950;  167.350;    0.000
238.611; 1054.950;  165.350;    0.000
238.680; 1071.950;  157.350;    0.000
238.750; 1073.950;  152.350;    0.000
238.819; 1123.950;  190.350;    0.000
238.889; 1115.950;  151.350;    0.000
238.958; 1149.950;  166.350;    0.000
239.028; 1139.950;  180.350;    0.000
239.097; 1066.950;  170.350;    0.000
239.167; 1209.950;  177.350;    0.000
239.237; 1201.950;  195.350;    0.000
239.306; 1026.950;  145.350;    0.000
239.376; 1083.950;  158.350;    0.000
239.445; 1123.950;  187.350;    0.000
239.515; 1146.950;  160.350;    0.000
239.584; 1126.950;  173.350;    0.000
239.654; 1115.950;  184.350;    0.000
239.723; 1085.950;  195.350;    0.000
239.793; 1083.950;  183.350;    0.000
239.862; 1161.950;  190.350;    0.000
239.932; 1079.950;  168.350;    0.000
240.001; 1069.950;  164.350;    0.000
240.070; 1106.950;  183.350;    0.000
240.140; 1095.950;  175.350;    0.000
240.209; 1058.950;  135.350;    0.000
240.279; 1045.950;  176.350;    0.000
240.348; 1090.950;  184.350;    0.000
240.418; 1075.950;  157.350;    0.000
240.487; 1087.950;  189.350;    0.000
240.556; 1083.950;  157.350;    0.000
240.626; 1146.950;  174.350;    0.000
240.695; 1043.950;  180.350;    0.000
240.765; 1093.950;  152.350;    0.000
240.834; 1123.950;  136.350;    0.000
240.903; 1057.950;  196.350;    0.000
240.973; 1041.950;  183.350;    0.000
241.042; 1007.950;  150.350;    0.000
241.112; 1062.950;  168.350;    0.000
241.181; 1047.950;  152.350;    0.000
241.250; 1096.950;  132.350;    0.000
241.320; 1038.950;  209.350;    0.000
241.389; 1117.950;  169.350;    0.000
241.458; 1113.950;  204.350;    0.000
241.528; 1049.950;  176.350;    0.000
241.597; 1040.950;  170.350;    0.000
241.666;  999.950;  168.350;    0.000
241.736; 1096.950;  172.350;    0.000
241.805; 1056.950;  160.350;    0.000
241.874; 1062.950;  176.350;    0.000
241.943; 1046.950;  165.350;    0.000
242.013; 1081.950;  206.350;    0.000
242.082; 1046.950;  162.350;    0.000
242.151; 1022.950;  180.350;    0.000
242.221; 1071.950;  154.350;    0.000
242.290; 1077.950;  122.350;    0.000
242.359;  990.950;  121.350;    0.000
242.428; 1041.950;  187.350;    0.000
242.498;  959.950;  140.350;    0.000
242.567; 1019.950;  173.350;    0.000
242.636; 1060.950;  155.350;    0.000
242.705; 1033.950;  108.350;    0.000
242.774; 1076.950;  145.350;    0.000
242.844; 1031.950;  162.350;    0.000
242.913; 1001.950;  178.350;    0.000
242.982; 1046.950;  163.350;    0.000
243.051; 1044.950;  138.350;    0.000
243.120; 1042.950;  172.350;    0.000
243.190;  997.950;  155.350;    0.000
243.259; 1010.950;  159.350;    0.000
243.328;  999.950;  173.350;    0.000
243.397; 1054.950;  175.350;    0.000
243.466; 1013.950;  170.350;    0.000
243.535; 1010.950;  161.350;    0.000
243.605;  971.950;  149.350;    0.000
243.674; 1051.950;  162.350;    0.000
243.743; 1045.950;  175.350;    0.000
243.812; 1004.950;  159.350;    0.000
243.881; 1007.950;  158.350;    0.000
243.950; 1017.950;  154.350;    0.000
244.019; 1037.950;  185.350;    0.000
244.088;  974.950;  175.350;    0.000
244.158; 1034.950;  167.350;    0.000
244.227; 1065.950;  159.350;    0.000
244.296;  976.950;  143.350;    0.000
244.365; 1052.950;  182.350;    0.000
244.434; 1015.950;  117.350;    0.000
244.503;  989.950;  109.350;    0.000
244.572; 1024.950;  147.350;    0.000
244.641;  948.950;  129.350;    0.000
244.710;  964.950;  159.350;    0.000
244.779;  929.950;  166.350;    0.000
244.848;  982.950;  122.350;    0.000
244.917; 1016.950;  167.350;    0.000
244.986;  964.950;  158.350;    0.000
245.055; 1034.950;  175.350;    0.000
245.124; 1002.950;  153.350;    0.000
245.193; 1033.950;  155.350;    0.000
245.262;  920.950;  137.350;    0.000
245.331;  952.950;  145.350;    0.000
245.400;  895.950;  107.350;    0.000
245.469;  903.950;  162.350;    0.000
245.538;  934.950;  165.350;    0.000
245.607;  962.950;  178.350;    0.000
245.676;  948.950;  166.350;    0.000
245.745;  927.950;  169.350;    0.000
245.814;  909.950;  155.350;    0.000
245.883;  881.950;  186.350;    0.000
245.952;  941.950;  165.350;    0.000
246.021;  894.950;  169.350;    0.000
246.090;  911.950;  170.350;    0.000
246.159;  836.950;  155.350;    0.000
246.227;  862.950;  161.350;    0.000
246.296;  910.950;  142.350;    0.000
246.365;  881.950;  160.350;    0.000
246.434;  931.950;  199.350;    0.000
246.503;  894.950;  155.350;    0.000
246.572;  931.950;  206.350;    0.000
246.641;  901.950;  177.350;    0.000
246.710;  902.950;  178.350;    0.000
246.779;  857.950;  193.350;    0.000
246.847;  881.950;  147.350;    0.000
246.916;  881.950;  131.350;    0.000
246.985;  880.950;  168.350;    0.000
247.054;  845.950;  143.350;    0.000
247.123;  874.950;  130.350;    0.000
247.192;  872.950;  175.350;    0.000
247.260;  802.950;  171.350;    0.000
247.329;  884.950;  162.350;    0.000
247.398;  866.950;  163.350;    0.000
247.467;  853.950;  155.350;    0.000
247.536;  904.950;  149.350;    0.000
247.604;  893.950;  191.350;    0.000
247.673;  830.950;  193.350;    0.000
247.742;  823.950;  159.350;    0.000
247.811;  874.950;  167.350;    0.000
247.879;  886.950;  176.350;    0.000
247.948;  870.950;  157.350;    0.000
248.017;  843.950;  150.350;    0.000
248.086;  877.950;  153.350;    0.000
248.154;  817.950;  157.350;    0.000
248.223;  879.950;  198.350;    0.000
248.292;  817.950;  188.350;    0.000
248.361;  839.950;  157.350;    0.000
248.429;  824.950;  138.350;    0.000
248.498;  838.950;  166.350;    0.000
248.567;  835.950;  179.350;    0.000
248.635;  872.950;  210.350;    0.000
248.704;  807.950;  168.350;    0.000
248.773;  872.950;  147.350;    0.000
248.841;  841.950;  155.350;    0.000
248.910;  845.950;  183.350;    0.000
248.979;  824.950;  171.350;    0.000
249.047;  815.950;  152.350;    0.000
249.116;  820.950;  155.350;    0.000
249.185;  848.950;  217.350;    0.000
249.253;  784.950;  149.350;    0.000
249.322;  808.950;  167.350;    0.000
249.390;  823.950;  182.350;    0.000
249.459;  830.950;  173.350;    0.000
249.528;  786.950;  162.350;    0.000
249.596;  840.950;  162.350;    0.000
249.665;  780.950;  163.350;    0.000
249.733;  807.950;  147.350;    0.000
249.802;  819.950;  170.350;    0.000
249.871;  801.950;  179.350;    0.000
249.939;  808.950;  179.350;    0.000
250.008;  872.950;  201.350;    0.000
250.076;  847.950;  189.350;    0.000
250.145;  795.950;  171.350;    0.000
250.213;  822.950;  161.350;    0.000
250.282;  796.950;  171.350;    0.000
250.350;  830.950;  138.350;    0.000
250.419;  889.950;  172.350;    0.000
250.487;  843.950;  207.350;    0.000
250.556;  797.950;  160.350;    0.000
250.624;  802.950;  187.350;    0.000
250.693;  787.950;  141.350;    0.000
250.761;  800.950;  182.350;    0.000
250.830;  791.950;  203.350;    0.000
250.898;  756.950;  160.350;    0.000
250.967;  837.950;  143.350;    0.000
251.035;  769.950;  142.350;    0.000
251.104;  740.950;  159.350;    0.000
251.172;  769.950;  189.350;    0.000
251.241;  790.950;  134.350;    0.000
251.309;  788.950;  179.350;    0.000
251.378;  826.950;  203.350;    0.000
251.446;  748.950;  151.350;    0.000
251.514;  816.950;  176.350;    0.000
251.583;  793.950;  173.350;    0.000
251.651;  764.950;  163.350;    0.000
251.720;  809.950;  151.350;    0.000
251.788;  748.950;  205.350;    0.000
251.856;  730.950;  126.350;    0.000
251.925;  776.950;  118.350;    0.000
251.993;  752.950;  139.350;    0.000
252.062;  812.950;  161.350;    0.000
252.130;  760.950;  180.350;    0.000
252.198;  727.950;  141.350;    0.000
252.267;  766.950;  145.350;    0.000
252.335;  714.950;  159.350;    0.000
252.403;  768.950;  158.350;    0.000
252.472;  742.950;  142.350;    0.000
252.540;  773.950;  162.350;    0.000
252.608;  771.950;  180.350;    0.000
252.677;  759.950;  137.350;    0.000
252.745;  712.950;  183.350;    0.000
252.813;  707.950;  151.350;    0.000
252.881;  684.950;  109.350;    0.000
252.950;  701.950;  174.350;    0.000
253.018;  723.950;  136.350;    0.000
253.086;  692.950;  149.350;    0.000
253.155;  687.950;  127.350;    0.000
253.223;  662.950;  156.350;    0.000
253.291;  650.950;  163.350;    0.000
253.359;  681.950;  174.350;    0.000
253.428;  674.950;  174.350;    0.000
253.496;  607.950;  161.350;    0.000
253.564;  605.950;  128.350;    0.000
253.632;  583.950;  153.350;    0.000
253.700;  580.950;  185.350;    0.000
253.769;  609.950;  163.350;    0.000
253.837;  637.950;  176.350;    0.000
253.905;  632.950;  164.350;    0.000
253.973;  603.950;  156.350;    0.000
254.041;  636.950;  154.350;    0.000
254.110;  588.950;  165.350;    0.000
254.178;  606.950;  148.350;    0.000
254.246;  570.950;  138.350;    0.000
254.314;  607.950;  164.350;    0.000
254.382;  620.950;  167.350;    0.000
254.450;  622.950;  134.350;    0.000
254.518;  607.950;  192.350;    0.000
254.587;  639.950;  139.350;    0.000
254.655;  621.950;  162.350;    0.000
254.723;  590.950;  131.350;    0.000
254.791;  673.950;  181.350;    0.000
254.859;  589.950;  146.350;    0.000
254.927;  659.950;  189.350;    0.000
254.995;  598.950;  141.350;    0.000
255.063;  619.950;  181.350;    0.000
255.131;  610.950;  156.350;    0.000
255.199;  656.950;  175.350;    0.000
255.267;  659.950;  120.350;    0.000
255.336;  653.950;  186.350;    0.000
255.404;  591.950;  134.350;    0.000
255.472;  641.950;  172.350;    0.000
255.540;  670.950;  157.350;    0.000
255.608;  619.950;  186.350;    0.000
255.676;  638.950;  155.350;    0.000
255.744;  649.950;  143.350;    0.000
255.812;  672.950;  134.350;    0.000
255.880;  705.950;  188.350;    0.000
255.948;  643.950;  163.350;    0.000
256.016;  711.950;  175.350;    0.000
256.084;  756.950;  191.350;    0.000
256.152;  680.950;  187.350;    0.000
256.220;  710.950;  152.350;    0.000
256.288;  725.950;  141.350;    0.000
256.356;  695.950;  139.350;    0.000
256.424;  626.950;  121.350;    0.000
256.491;  680.950;  139.350;    0.000
256.559;  745.950;  144.350;    0.000
256.627;  746.950;  158.350;    0.000
256.695;  725.950;  121.350;    0.000
256.763;  735.950;  150.350;    0.000
256.831;  784.950;  181.350;    0.000
256.899;  764.950;  146.350;    0.000
256.967;  741.950;   71.350;    0.000
257.035;  756.950;  164.350;    0.000
257.103;  811.950;  191.350;    0.000
257.171;  796.950;  140.350;    0.000
257.238;  772.950;  165.350;    0.000
257.306;  804.950;  127.350;    0.000
257.374;  804.950;  120.350;    0.000
257.442;  785.950;  139.350;    0.000
257.510;  720.950;  158.350;    0.000
257.578;  834.950;  164.350;    0.000
257.646;  900.950;  151.350;    0.000
257.713;  846.950;  136.350;    0.000
257.781;  850.950;  137.350;    0.000
257.849;  816.950;  151.350;    0.000
257.917;  855.950;  154.350;    0.000
257.985;  870.950;  113.350;    0.000
258.052;  869.950;  140.350;    0.000
258.120;  923.950;  176.350;    0.000
258.188;  874.950;  157.350;    0.000
258.256;  853.950;  153.350;    0.000
258.324;  981.950;  184.350;    0.000
258.391;  906.950;  144.350;    0.000
258.459;  925.950;  162.350;    0.000
258.527;  991.950;  154.350;    0.000
258.595;  952.950;  122.350;    0.000
258.662;  990.950;  164.350;    0.000
258.730;  991.950;  114.350;    0.000
258.798;  984.950;  131.350;    0.000
258.865; 1019.950;  171.350;    0.000
258.933; 1034.950;  145.350;    0.000
259.001; 1067.950;  150.350;    0.000
259.069; 1081.950;  123.350;    0.000
259.136; 1014.950;  139.350;    0.000
259.204; 1089.950;  165.350;    0.000
259.272; 1159.950;  114.350;    0.000
259.339; 1031.950;  179.350;    0.000
259.407; 1082.950;  153.350;    0.000
259.475; 1099.950;  143.350;    0.000
259.542; 1098.950;  136.350;    0.000
259.610; 1159.950;  133.350;    0.000
259.677; 1155.950;  159.350;    0.000
259.745; 1203.950;  130.350;    0.000
259.813; 1221.950;  175.350;    0.000
259.880; 1267.950;  158.350;    0.000
259.948; 1279.950;  124.350;    0.000
260.016; 1253.950;  105.350;    0.000
260.083; 1281.950;  169.350;    0.000
260.151; 1212.950;  133.350;    0.000
260.218; 1275.950;  143.350;    0.000
260.286; 1331.950;  134.350;    0.000
260.353; 1310.950;  160.350;    0.000
260.421; 1398.950;  128.350;    0.000
260.489; 1316.950;  150.350;    0.000
260.556; 1265.950;  179.350;    0.000
260.624; 1343.950;  113.350;    0.000
260.691; 1361.950;  128.350;    0.000
260.759; 1421.950;  146.350;    0.000
260.826; 1406.950;  111.350;    0.000
260.894; 1420.950;  115.350;    0.000
260.961; 1443.950;  138.350;    0.000
261.029; 1458.950;  152.350;    0.000
261.096; 1482.950;  175.350;    0.000
261.164; 1511.950;  131.350;    0.000
261.231; 1574.950;  141.350;    0.000
261.299; 1517.950;  125.350;    0.000
261.366; 1587.950;  142.350;    0.000
261.434; 1563.950;  133.350;    0.000
261.501; 1531.950;  137.350;    0.000
261.568; 1581.950;  184.350;    0.000
261.636; 1612.950;  138.350;    0.000
261.703; 1637.950;  161.350;    0.000
261.771; 1573.950;  160.350;    0.000
261.838; 1625.950;  178.350;    0.000
261.906; 1522.950;  128.350;    0.000
261.973; 1648.950;  139.350;    0.000
262.040; 1680.950;  148.350;    0.000
262.108; 1622.950;  130.350;    0.000
262.175; 1618.950;  117.350;    0.000
262.243; 1719.950;  174.350;    0.000
262.310; 1650.950;  145.350;    0.000
262.377; 1638.950;  108.350;    0.000
262.445; 1773.950;  147.350;    0.000
262.512; 1795.950;  124.350;    0.000
262.579; 1817.950;  127.350;    0.000
262.647; 1775.950;  166.350;    0.000
262.714; 1755.950;  150.350;    0.000
262.781; 1832.950;  121.350;    0.000
262.849; 1807.950;  126.350;    0.000
262.916; 1818.950;  119.350;    0.000
262.983; 1889.950;  155.350;    0.000
263.051; 1905.950;  137.350;    0.000
263.118; 1916.950;  160.350;    0.000
263.185; 1985.950;  151.350;    0.000
263.252; 1895.950;  167.350;    0.000
263.320; 1922.950;  123.350;    0.000
263.387; 1900.950;  134.350;    0.000
263.454; 1906.950;  144.350;    0.000
263.522; 1874.950;  153.350;    0.000
263.589; 1887.950;  161.350;    0.000
263.656; 1997.950;  117.350;    0.000
263.723; 2024.950;  101.350;    0.000
263.790; 1935.950;  128.350;    0.000
263.858; 2019.950;  142.350;    0.000
263.925; 2073.950;  182.350;    0.000
263.992; 2006.950;  146.350;    0.000
264.059; 2012.950;  132.350;    0.000
264.126; 2061.950;  154.350;    0.000
264.194; 2007.950;  153.350;    0.000
264.261; 2022.950;  157.350;    0.000
264.328; 2151.950;  171.350;    0.000
264.395; 2086.950;  166.350;    0.000
264.462; 2106.950;  165.350;    0.000
264.529; 2165.950;  124.350;    0.000
264.597; 2137.950;  120.350;    0.000
264.664; 2091.950;  159.350;    0.000
264.731; 2177.950;  145.350;    0.000
264.798; 2225.950;  100.350;    0.000
264.865; 2250.950;  166.350;    0.000
264.932; 2166.950;  132.350;    0.000
264.999; 2255.950;  137.350;    0.000
265.066; 2228.950;  124.350;    0.000
265.133; 2236.950;  162.350;    0.000
265.201; 2181.950;  163.350;    0.000
265.268; 2203.950;  174.350;    0.000
265.335; 2297.950;  132.350;    0.000
265.402; 2234.950;  116.350;    0.000
265.469; 2206.950;  121.350;    0.000
265.536; 2324.950;  157.350;    0.000
265.603; 2363.950;  151.350;    0.000
265.670; 2342.950;  164.350;    0.000
265.737; 2329.950;  142.350;    0.000
265.804; 2333.950;  146.350;    0.000
265.871; 2414.950;  168.350;    0.000
265.938; 2415.950;  131.350;    0.000
266.005; 2497.950;  208.350;    0.000
266.072; 2432.950;  125.350;    0.000
266.139; 2418.950;  161.350;    0.000
266.206; 2399.950;  134.350;    0.000
266.273; 2479.950;  155.350;    0.000
266.340; 2338.950;  122.350;    0.000
266.407; 2424.950;  134.350;    0.000
266.474; 2425.950;  126.350;    0.000
266.541; 2501.950;  153.350;    0.000
266.608; 2365.950;  129.350;    0.000
266.675; 2529.950;  185.350;    0.000
266.742; 2572.950;  153.350;    0.000
266.808; 2518.950;  169.350;    0.000
266.875; 2492.950;  156.350;    0.000
266.942; 2514.950;  172.350;    0.000
267.009; 2518.950;  150.350;    0.000
267.076; 2602.950;  184.350;    0.000
267.143; 2483.950;  170.350;    0.000
267.210; 2562.950;  132.350;    0.000
267.277; 2493.950;  146.350;    0.000
267.344; 2619.950;  159.350;    0.000
267.410; 2581.950;  174.350;    0.000
267.477; 2531.950;  169.350;    0.000
267.544; 2593.950;  130.350;    0.000
267.611; 2586.950;  169.350;    0.000
267.678; 2605.950;  197.350;    0.000
267.745; 2588.950;  185.350;    0.000
267.811; 2571.950;  160.350;    0.000
267.878; 2600.950;  143.350;    0.000
267.945; 2561.950;  126.350;    0.000
268.012; 2608.950;  172.350;    0.000
268.079; 2602.950;  156.350;    0.000
268.145; 2619.950;  128.350;    0.000
268.212; 2610.950;  107.350;    0.000
268.279; 2576.950;  135.350;    0.000
268.346; 2574.950;  166.350;    0.000
268.412; 2593.950;  150.350;    0.000
268.479; 2543.950;  176.350;    0.000
268.546; 2585.950;  119.350;    0.000
268.613; 2618.950;  201.350;    0.000
268.679; 2619.950;  141.350;    0.000
268.746; 2620.950;  177.350;    0.000
268.813; 2539.950;  134.350;    0.000
268.879; 2544.950;  141.350;    0.000
268.946; 2593.950;  172.350;    0.000
269.013; 2445.950;  150.350;    0.000
269.079; 2680.950;  124.350;    0.000
269.146; 2497.950;  135.350;    0.000
269.213; 2690.950;  200.350;    0.000
269.280; 2534.950;  142.350;    0.000
269.346; 2586.950;  153.350;    0.000
269.413; 2618.950;  140.350;    0.000
269.479; 2616.950;  171.350;    0.000
269.546; 2609.950;  156.350;    0.000
269.613; 2537.950;  145.350;    0.000
269.679; 2485.950;  168.350;    0.000
269.746; 2637.950;  136.350;    0.000
269.813; 2622.950;  153.350;    0.000
269.879; 2584.950;  162.350;    0.000
269.946; 2688.950;  156.350;    0.000
270.012; 2576.950;  178.350;    0.000
270.079; 2656.950;  132.350;    0.000
270.145; 2591.950;  146.350;    0.000
270.212; 2522.950;  145.350;    0.000
270.279; 2618.950;  184.350;    0.000
270.345; 2536.950;  143.350;    0.000
270.412; 2582.950;  158.350;    0.000
270.478; 2537.950;  143.350;    0.000
270.545; 2567.950;  150.350;    0.000
270.611; 2511.950;  156.350;    0.000
270.678; 2496.950;  121.350;    0.000
270.744; 2569.950;  161.350;    0.000
270.811; 2508.950;  173.350;    0.000
270.877; 2559.950;  115.350;    0.000
270.944; 2505.950;  114.350;    0.000
271.010; 2436.950;  122.350;    0.000
271.077; 2468.950;  142.350;    0.000
271.143; 2578.950;  152.350;    0.000
271.210; 2535.950;  135.350;    0.000
271.276; 2492.950;  107.350;    0.000
271.342; 2470.950;  173.350;    0.000
271.409; 2462.950;  171.350;    0.000
271.475; 2541.950;  136.350;    0.000
271.542; 2459.950;  121.350;    0.000
271.608; 2520.950;  133.350;    0.000
271.675; 2465.950;  136.350;    0.000
271.741; 2477.950;  151.350;    0.000
271.807; 2508.950;  130.350;    0.000
271.874; 2527.950;  168.350;    0.000
271.940; 2384.950;  156.350;    0.000
272.007; 2552.950;  122.350;    0.000
272.073; 2446.950;  121.350;    0.000
272.139; 2458.950;  137.350;    0.000
272.206; 2461.950;  152.350;    0.000
272.272; 2504.950;  162.350;    0.000
272.338; 2468.950;  197.350;    0.000
272.405; 2475.950;  144.350;    0.000
272.471; 2459.950;  160.350;    0.000
272.537; 2472.950;  142.350;    0.000
272.604; 2492.950;  141.350;    0.000
272.670; 2456.950;  182.350;    0.000
272.736; 2511.950;  126.350;    0.000
272.802; 2479.950;  146.350;    0.000
272.869; 2466.950;  163.350;    0.000
272.935; 2474.950;  132.350;    0.000
273.001; 2474.950;  119.350;    0.000
273.068; 2465.950;  137.350;    0.000
273.134; 2539.950;  155.350;    0.000
273.200; 2513.950;  165.350;    0.000
273.266; 2415.950;  156.350;    0.000
273.333; 2625.950;  143.350;    0.000
273.399; 2534.950;  128.350;    0.000
273.465; 2599.950;  167.350;    0.000
273.531; 2502.950;  122.350;    0.000
273.597; 2633.950;  182.350;    0.000
273.664; 2594.950;  177.350;    0.000
273.730; 2577.950;  124.350;    0.000
273.796; 2517.950;  143.350;    0.000
273.862; 2601.950;  155.350;    0.000
273.928; 2580.950;  137.350;    0.000
273.995; 2635.950;  188.350;    0.000
274.061; 2680.950;  154.350;    0.000
274.127; 2640.950;  161.350;    0.000
274.193; 2536.950;   95.350;    0.000
274.259; 2572.950;  128.350;    0.000
274.325; 2569.950;  146.350;    0.000
274.391; 2646.950;  113.350;    0.000
274.457; 2574.950;  150.350;    0.000
274.524; 2516.950;  165.350;    0.000
274.590; 2666.950;  140.350;    0.000
274.656; 2652.950;  165.350;    0.000
274.722; 2597.950;  118.350;    0.000
274.788; 2757.950;  143.350;    0.000
274.854; 2652.950;  150.350;    0.000
274.920; 2711.950;   88.350;    0.000
274.986; 2672.950;  178.350;    0.000
275.052; 2748.950;  145.350;    0.000
275.118; 2726.950;  105.350;    0.000
275.184; 2764.950;  129.350;    0.000
275.250; 2775.950;  138.350;    0.000
275.316; 2696.950;  173.350;    0.000
275.382; 2786.950;  106.350;    0.000
275.448; 2805.950;  160.350;    0.000
275.514; 2962.950;  162.350;    0.000
275.580; 2907.950;  135.350;    0.000
275.646; 2844.950;  120.350;    0.000
275.712; 2887.950;  157.350;    0.000
275.778; 2898.950;  128.350;    0.000
275.844; 2789.950;  117.350;    0.000
275.910; 2881.950;  121.350;    0.000
275.976; 2886.950;  172.350;    0.000
276.042; 2947.950;  114.350;    0.000
276.108; 2909.950;  200.350;    0.000
276.174; 2918.950;  132.350;    0.000
276.240; 3104.950;  128.350;    0.000
276.306; 3023.950;  124.350;    0.000
276.372; 3053.950;  133.350;    0.000
276.437; 3102.950;  146.350;    0.000
276.503; 3071.950;  136.350;    0.000
276.569; 3226.950;  162.350;    0.000
276.635; 3227.950;  128.350;    0.000
276.701; 3328.950;  148.350;    0.000
276.767; 3341.950;  155.350;    0.000
276.833; 3337.950;  128.350;    0.000
276.899; 3445.950;  145.350;    0.000
276.964; 3513.950;  124.350;    0.000
277.030; 3458.950;  130.350;    0.000
277.096; 3454.950;  139.350;    0.000
277.162; 3586.950;  164.350;    0.000
277.228; 3726.950;  108.350;    0.000
277.293; 3790.950;  138.350;    0.000
277.359; 3973.950;  123.350;    0.000
277.425; 4067.950;  183.350;    0.000
277.491; 4253.950;  144.350;    0.000
277.557; 5015.950;  130.350;    0.000
277.622; 6463.950;  151.350;    0.000
277.688; 6420.950;  169.350;    0.000
277.754; 6573.950;  199.350;    0.000
277.820; 6980.950;  170.350;    0.000
277.885; 8433.950;  173.350;    0.000
277.951;10507.950;  187.350;    0.000
278.017; 8764.950;  152.350;    0.000
278.083; 7630.950;  137.350;    0.000
278.148; 7504.950;  147.350;    0.000
278.214; 7448.950;  162.350;    0.000
278.280; 7981.950;  171.350;    0.000
278.345; 7478.950;  174.350;    0.000
278.411; 6727.950;  152.350;    0.000
278.477; 6996.950;  173.350;    0.000
278.542; 7460.950;  161.350;    0.000
278.608; 7976.950;  155.350;    0.000
278.674; 8923.950;  169.350;    0.000
278.739; 9643.950;  142.350;    0.000
278.805;10976.950;  164.350;    0.000
278.871;12974.950;  160.350;    0.000
278.936;16868.949;  121.350;    0.000
279.002;26941.949;  166.350;    0.000
279.067;36111.949;  199.350;    0.000
279.133;34302.949;  150.350;    0.000
279.199;29781.949;  154.350;    0.000
279.264;30612.949;  154.350;    0.000
279.330;36794.949;  159.350;    0.000
279.395;50905.949;  143.350;    0.000
279.461;65299.949;  173.350;    0.000
279.527;65299.949;  163.350;    0.000
279.592;65299.949;  167.350;    0.000
279.658;57359.949;  189.350;    0.000
279.723;55728.949;  153.350;    0.000
279.789;59333.949;  174.350;    0.000
279.854;51612.949;  129.350;    0.000
279.920;40470.949;  165.350;    0.000
279.985;35301.949;  152.350;    0.000
280.051;36064.949;  164.350;    0.000
280.116;44752.949;  187.350;    0.000
280.182;65299.949;  160.350;    0.000
280.247;65299.949;  124.350;    0.000
280.313;63150.949;  154.350;    0.000
280.378;39392.949;  152.350;    0.000
280.444;26982.949;  165.350;    0.000
280.509;21030.949;  164.350;    0.000
280.574;17241.949;  160.350;    0.000
280.640;14715.950;  167.350;    0.000
280.705;13320.950;  190.350;    0.000
280.771;11951.950;  154.350;    0.000
280.836;11135.950;  158.350;    0.000
280.902;10320.950;  124.350;    0.000
280.967; 9561.950;  179.350;    0.000
281.032; 9154.950;  187.350;    0.000
281.098; 8503.950;  155.350;    0.000
281.163; 8239.950;  133.350;    0.000
281.229; 7898.950;  170.350;    0.000
281.294; 7616.950;  175.350;    0.000
281.359; 7369.950;  163.350;    0.000
281.425; 7075.950;  161.350;    0.000
281.490; 6715.950;  162.350;    0.000
281.555; 6705.950;  137.350;    0.000
281.621; 6458.950;  163.350;    0.000
281.686; 6200.950;  155.350;    0.000
281.751; 6009.950;  158.350;    0.000
281.816; 5791.950;  139.350;    0.000
281.882; 5566.950;  150.350;    0.000
281.947; 5655.950;  165.350;    0.000
282.012; 5502.950;  171.350;    0.000
282.078; 5378.950;  177.350;    0.000
282.143; 5337.950;  149.350;    0.000
282.208; 5209.950;  181.350;    0.000
282.273; 5115.950;  166.350;    0.000
282.339; 5019.950;  165.350;    0.000
282.404; 4985.950;  166.350;    0.000
282.469; 4886.950;  150.350;    0.000
282.534; 4876.950;  176.350;    0.000
282.600; 4813.950;  117.350;    0.000
282.665; 4743.950;  134.350;    0.000
282.730; 4732.950;  155.350;    0.000
282.795; 4681.950;  193.350;    0.000
282.860; 4730.950;  160.350;    0.000
282.926; 4560.950;  174.350;    0.000
282.991; 4547.950;  161.350;    0.000
283.056; 4478.950;  157.350;    0.000
283.121; 4552.950;  178.350;    0.000
283.186; 4431.950;  152.350;    0.000
283.251; 4382.950;  167.350;    0.000
283.316; 4561.950;  186.350;    0.000
283.382; 4261.950;  148.350;    0.000
283.447; 4422.950;  191.350;    0.000
283.512; 4323.950;  132.350;    0.000
283.577; 4245.950;  179.350;    0.000
283.642; 4396.950;  185.350;    0.000
283.707; 4318.950;  136.350;    0.000
283.772; 4209.950;  119.350;    0.000
283.837; 4387.950;  136.350;    0.000
283.902; 4202.950;  135.350;    0.000
283.967; 4424.950;  146.350;    0.000
284.032; 4211.950;  140.350;    0.000
284.097; 4390.950;  199.350;    0.000
284.163; 4203.950;  144.350;    0.000
284.228; 4363.950;  183.350;    0.000
284.293; 4418.950;  141.350;    0.000
284.358; 4383.950;  146.350;    0.000
284.423; 4365.950;  127.350;    0.000
284.488; 4467.950;  186.350;    0.000
284.553; 4435.950;  155.350;    0.000
284.618; 4611.950;  118.350;    0.000
284.683; 4675.950;  145.350;    0.000
284.748; 4926.950;  139.350;    0.000
284.812; 5209.950;  147.350;    0.000
284.877; 5515.950;  123.350;    0.000
284.942; 6113.950;  153.350;    0.000
285.007; 7535.950;  168.350;    0.000
285.072;10329.950;  181.350;    0.000
285.137;19590.949;  147.350;    0.000
285.202;25703.949;  175.350;    0.000
285.267;19524.949;  182.350;    0.000
285.332;11803.950;  136.350;    0.000
285.397; 8646.950;  138.350;    0.000
285.462; 7059.950;  151.350;    0.000
285.527; 6363.950;  159.350;    0.000
285.591; 5864.950;  177.350;    0.000
285.656; 5355.950;  144.350;    0.000
285.721; 5231.950;  125.350;    0.000
285.786; 5011.950;  169.350;    0.000
285.851; 4925.950;  175.350;    0.000
285.916; 4806.950;  164.350;    0.000
285.981; 4631.950;  134.350;    0.000
286.045; 4481.950;  154.350;    0.000
286.110; 4455.950;  136.350;    0.000
286.175; 4490.950;  155.350;    0.000
286.240; 4477.950;  138.350;    0.000
286.305; 4419.950;  213.350;    0.000
286.369; 4320.950;  221.350;    0.000
286.434; 4349.950;  172.350;    0.000
286.499; 4245.950;  161.350;    0.000
286.564; 4340.950;  189.350;    0.000
286.628; 4159.950;  144.350;    0.000
286.693; 4258.950;  176.350;    0.000
286.758; 4266.950;  168.350;    0.000
286.823; 4166.950;  142.350;    0.000
286.887; 4072.950;  134.350;    0.000
286.952; 4071.950;  180.350;    0.000
287.017; 4129.950;  204.350;    0.000
287.082; 4139.950;  120.350;    0.000
287.146; 4067.950;  173.350;    0.000
287.211; 4092.950;  167.350;    0.000
287.276; 4169.950;  164.350;    0.000
287.340; 4154.950;  138.350;    0.000
287.405; 3983.950;  172.350;    0.000
287.470; 4147.950;  142.350;    0.000
287.534; 4110.950;  155.350;    0.000
287.599; 4170.950;  166.350;    0.000
287.663; 3991.950;  171.350;    0.000
287.728; 4063.950;  190.350;    0.000
287.793; 4193.950;  197.350;    0.000
287.857; 4127.950;  165.350;    0.000
287.922; 4045.950;  147.350;    0.000
287.987; 4115.950;  167.350;    0.000
288.051; 4149.950;  151.350;    0.000
288.116; 4336.950;  154.350;    0.000
288.180; 4405.950;  186.350;    0.000
288.245; 4266.950;  161.350;    0.000
288.309; 4137.950;  177.350;    0.000
288.374; 4062.950;  151.350;    0.000
288.439; 4116.950;  169.350;    0.000
288.503; 4040.950;  133.350;    0.000
288.568; 3951.950;  206.350;    0.000
288.632; 3954.950;  192.350;    0.000
288.697; 4077.950;  183.350;    0.000
288.761; 3998.950;  148.350;    0.000
288.826; 3956.950;  136.350;    0.000
288.890; 3969.950;  185.350;    0.000
288.955; 4087.950;  150.350;    0.000
289.019; 3998.950;  165.350;    0.000
289.084; 3891.950;  150.350;    0.000
289.148; 3802.950;  146.350;    0.000
289.212; 3968.950;  172.350;    0.000
289.277; 3943.950;  177.350;    0.000
289.341; 3925.950;  190.350;    0.000
289.406; 3937.950;  117.350;    0.000
289.470; 3861.950;  173.350;    0.000
289.535; 3934.950;  170.350;    0.000
289.599; 3969.950;  154.350;    0.000
289.663; 3816.950;  173.350;    0.000
289.728; 3934.950;  176.350;    0.000
289.792; 3948.950;  138.350;    0.000
289.857; 3865.950;  203.350;    0.000
289.921; 3978.950;  143.350;    0.000
289.985; 3958.950;  150.350;    0.000
290.050; 3885.950;  170.350;    0.000
290.114; 3862.950;  125.350;    0.000
290.178; 3918.950;  161.350;    0.000
290.243; 3833.950;  119.350;    0.000
290.307; 3907.950;  169.350;    0.000
290.371; 3842.950;  169.350;    0.000
290.436; 4037.950;  170.350;    0.000
290.500; 3909.950;  144.350;    0.000
290.564; 3986.950;  179.350;    0.000
290.629; 4017.950;  166.350;    0.000
290.693; 4007.950;  156.350;    0.000
290.757; 3908.950;  147.350;    0.000
290.821; 4098.950;  170.350;    0.000
290.886; 3897.950;  167.350;    0.000
290.950; 3972.950;  187.350;    0.000
291.014; 3975.950;  164.350;    0.000
291.078; 3926.950;  115.350;    0.000
291.143; 4099.950;  149.350;    0.000
291.207; 4022.950;  163.350;    0.000
291.271; 4082.950;  177.350;    0.000
291.335; 3947.950;  148.350;    0.000
291.399; 4081.950;  155.350;    0.000
291.464; 4295.950;  114.350;    0.000
291.528; 4335.950;  153.350;    0.000
291.592; 4327.950;  156.350;    0.000
291.656; 4271.950;  170.350;    0.000
291.720; 4234.950;  159.350;    0.000
291.784; 4131.950;  159.350;    0.000
291.849; 4179.950;  154.350;    0.000
291.913; 4153.950;  118.350;    0.000
291.977; 4143.950;  157.350;    0.000
292.041; 4159.950;  163.350;    0.000
292.105; 4141.950;  135.350;    0.000
292.169; 4173.950;  155.350;    0.000
292.233; 4236.950;  163.350;    0.000
292.297; 4217.950;  144.350;    0.000
292.361; 4283.950;  143.350;    0.000
292.425; 4450.950;  177.350;    0.000
292.490; 4580.950;  159.350;    0.000
292.554; 4596.950;  137.350;    0.000
292.618; 4862.950;  144.350;    0.000
292.682; 5111.950;  169.350;    0.000
292.746; 5823.950;  166.350;    0.000
292.810; 7416.950;  147.350;    0.000
292.874; 9086.950;  160.350;    0.000
292.938; 9139.950;  174.350;    0.000
293.002; 8177.950;  148.350;    0.000
293.066; 7263.950;  115.350;    0.000
293.130; 6758.950;  133.350;    0.000
293.194; 6447.950;  148.350;    0.000
293.258; 6183.950;  167.350;    0.000
293.322; 6220.950;  166.350;    0.000
293.386; 6335.950;  193.350;    0.000
293.450; 6563.950;  142.350;    0.000
293.514; 7403.950;  170.350;    0.000
293.577; 9593.950;  153.350;    0.000
293.641;13144.950;  171.350;    0.000
293.705;14071.950;  168.350;    0.000
293.769;12285.950;  155.350;    0.000
293.833;10549.950;  161.350;    0.000
293.897; 9314.950;  124.350;    0.000
293.961; 8216.950;  165.350;    0.000
294.025; 7363.950;  118.350;    0.000
294.089; 6772.950;  125.350;    0.000
294.152; 6312.950;  160.350;    0.000
294.216; 5977.950;  160.350;    0.000
294.280; 5762.950;  158.350;    0.000
294.344; 5475.950;  119.350;    0.000
294.408; 5298.950;  168.350;    0.000
294.472; 5122.950;  156.350;    0.000
294.536; 5042.950;  192.350;    0.000
294.599; 4789.950;  171.350;    0.000
294.663; 4743.950;  139.350;    0.000
294.727; 4657.950;  136.350;    0.000
294.791; 4603.950;  118.350;    0.000
294.855; 4651.950;  118.350;    0.000
294.918; 4572.950;  127.350;    0.000
294.982; 4621.950;  167.350;    0.000
295.046; 4480.950;  178.350;    0.000
295.110; 4403.950;  157.350;    0.000
295.173; 4259.950;  101.350;    0.000
295.237; 4290.950;  145.350;    0.000
295.301; 4242.950;  135.350;    0.000
295.364; 4178.950;  185.350;    0.000
295.428; 4077.950;  112.350;    0.000
295.492; 4149.950;  142.350;    0.000
295.556; 4183.950;  170.350;    0.000
295.619; 4309.950;  193.350;    0.000
295.683; 4137.950;  144.350;    0.000
295.747; 4044.950;  152.350;    0.000
295.810; 4008.950;  139.350;    0.000
295.874; 4059.950;  157.350;    0.000
295.938; 3970.950;  128.350;    0.000
296.001; 3912.950;  164.350;    0.000
296.065; 4002.950;  184.350;    0.000
296.128; 3992.950;  127.350;    0.000
296.192; 3949.950;  166.350;    0.000
296.256; 3919.950;  154.350;    0.000
296.319; 3890.950;  128.350;    0.000
296.383; 3781.950;  146.350;    0.000
296.447; 3848.950;  155.350;    0.000
296.510; 3916.950;  177.350;    0.000
296.574; 3805.950;  169.350;    0.000
296.637; 3781.950;  140.350;    0.000
296.701; 3794.950;  181.350;    0.000
296.764; 3794.950;  131.350;    0.000
296.828; 3812.950;  194.350;    0.000
296.891; 3772.950;  146.350;    0.000
296.955; 3682.950;  160.350;    0.000
297.018; 3791.950;  174.350;    0.000
297.082; 3763.950;  153.350;    0.000
297.145; 3708.950;  133.350;    0.000
297.209; 3734.950;  149.350;    0.000
297.272; 3837.950;  150.350;    0.000
297.336; 3677.950;  119.350;    0.000
297.399; 3723.950;  160.350;    0.000
297.463; 3650.950;  158.350;    0.000
297.526; 3641.950;  160.350;    0.000
297.590; 3646.950;  173.350;    0.000
297.653; 3598.950;  121.350;    0.000
297.717; 3705.950;  168.350;    0.000
297.780; 3759.950;  131.350;    0.000
297.843; 3688.950;  154.350;    0.000
297.907; 3617.950;  126.350;    0.000
297.970; 3555.950;  180.350;    0.000
298.034; 3654.950;  140.350;    0.000
298.097; 3633.950;  207.350;    0.000
298.160; 3596.950;  177.350;    0.000
298.224; 3634.950;  165.350;    0.000
298.287; 3581.950;  160.350;    0.000
298.350; 3591.950;  176.350;    0.000
298.414; 3664.950;  155.350;    0.000
298.477; 3576.950;  132.350;    0.000
298.540; 3477.950;  162.350;    0.000
298.604; 3598.950;  180.350;    0.000
298.667; 3541.950;  208.350;    0.000
298.730; 3434.950;  177.350;    0.000
298.794; 3458.950;  126.350;    0.000
298.857; 3596.950;  171.350;    0.000
298.920; 3527.950;  124.350;    0.000
298.984; 3470.950;  146.350;    0.000
299.047; 3443.950;  140.350;    0.000
299.110; 3499.950;  159.350;    0.000
299.173; 3418.950;  177.350;    0.000
299.237; 3437.950;  196.350;    0.000
299.300; 3403.950;  121.350;    0.000
299.363; 3307.950;  172.350;    0.000
299.426; 3309.950;  117.350;    0.000
299.489; 3291.950;  138.350;    0.000
299.553; 3400.950;  198.350;    0.000
299.616; 3331.950;  158.350;    0.000
299.679; 3387.950;  148.350;    0.000
299.742; 3328.950;  138.350;    0.000
299.805; 3297.950;  157.350;    0.000
299.868; 3314.950;  183.350;    0.000
299.932; 3293.950;  137.350;    0.000
299.995; 3173.950;  152.350;    0.000
300.058; 3354.950;  171.350;    0.000
300.121; 3276.950;  172.350;    0.000
300.184; 3355.950;  161.350;    0.000
300.247; 3250.950;  156.350;    0.000
300.310; 3262.950;  154.350;    0.000
300.374; 3299.950;  147.350;    0.000
300.437; 3280.950;  144.350;    0.000
300.500; 3331.950;  152.350;    0.000
300.563; 3255.950;  160.350;    0.000
300.626; 3333.950;  167.350;    0.000
300.689; 3275.950;  193.350;    0.000
300.752; 3218.950;  134.350;    0.000
300.815; 3339.950;  194.350;    0.000
300.878; 3299.950;  156.350;    0.000
300.941; 3216.950;  177.350;    0.000
301.004; 3233.950;  160.350;    0.000
301.067; 3235.950;  153.350;    0.000
301.130; 3259.950;  167.350;    0.000
301.193; 3229.950;  156.350;    0.000
301.256; 3222.950;  176.350;    0.000
301.319; 3226.950;  172.350;    0.000
301.382; 3323.950;  150.350;    0.000
301.445; 3239.950;  183.350;    0.000
301.508; 3194.950;  118.350;    0.000
301.571; 3213.950;  142.350;    0.000
301.634; 3327.950;  164.350;    0.000
301.697; 3289.950;  169.350;    0.000
301.760; 3211.950;  197.350;    0.000
301.823; 3305.950;  155.350;    0.000
301.885; 3226.950;  165.350;    0.000
301.948; 3255.950;  168.350;    0.000
302.011; 3234.950;  172.350;    0.000
302.074; 3239.950;  182.350;    0.000
302.137; 3166.950;  161.350;    0.000
302.200; 3161.950;  174.350;    0.000
302.263; 3235.950;  158.350;    0.000
302.326; 3197.950;  168.350;    0.000
302.388; 3173.950;  165.350;    0.000
302.451; 3115.950;  158.350;    0.000
302.514; 3128.950;  181.350;    0.000
302.577; 3155.950;  147.350;    0.000
302.640; 3158.950;  178.350;    0.000
302.703; 3022.950;  164.350;    0.000
302.765; 3153.950;  149.350;    0.000
302.828; 3094.950;  192.350;    0.000
302.891; 3123.950;  201.350;    0.000
302.954; 2985.950;  135.350;    0.000
303.016; 3127.950;  180.350;    0.000
303.079; 3092.950;  192.350;    0.000
303.142; 3229.950;  176.350;    0.000
303.205; 3105.950;  176.350;    0.000
303.267; 3200.950;  163.350;    0.000
303.330; 3167.950;  162.350;    0.000
303.393; 3136.950;  164.350;    0.000
303.456; 3226.950;  180.350;    0.000
303.518; 3090.950;  162.350;    0.000
303.581; 3060.950;  137.350;    0.000
303.644; 3087.950;  135.350;    0.000
303.706; 3080.950;  170.350;    0.000
303.769; 3147.950;  216.350;    0.000
303.832; 3123.950;  143.350;    0.000
303.894; 3146.950;  162.350;    0.000
303.957; 3093.950;  149.350;    0.000
304.020; 3198.950;  111.350;    0.000
304.082; 3073.950;  158.350;    0.000
304.145; 3153.950;  149.350;    0.000
304.207; 3003.950;  169.350;    0.000
304.270; 3106.950;  170.350;    0.000
304.333; 3139.950;  185.350;    0.000
304.395; 3182.950;  179.350;    0.000
304.458; 3124.950;  174.350;    0.000
304.520; 3183.950;  160.350;    0.000
304.583; 3145.950;  175.350;    0.000
304.646; 3179.950;  160.350;    0.000
304.708; 3141.950;  173.350;    0.000
304.771; 3006.950;  115.350;    0.000
304.833; 3109.950;  172.350;    0.000
304.896; 3174.950;  187.350;    0.000
304.958; 3167.950;  142.350;    0.000
305.021; 3126.950;  164.350;    0.000
305.083; 3153.950;  139.350;    0.000
305.146; 3032.950;  162.350;    0.000
305.208; 3227.950;  135.350;    0.000
305.271; 3065.950;  159.350;    0.000
305.333; 3113.950;  210.350;    0.000
305.396; 3166.950;  151.350;    0.000
305.458; 3144.950;  195.350;    0.000
305.520; 3127.950;  179.350;    0.000
305.583; 3114.950;  157.350;    0.000
305.645; 3216.950;  187.350;    0.000
305.708; 3177.950;  159.350;    0.000
305.770; 3198.950;  189.350;    0.000
305.833; 3129.950;  147.350;    0.000
305.895; 3151.950;  154.350;    0.000
305.957; 3152.950;  143.350;    0.000
306.020; 3164.950;  133.350;    0.000
306.082; 3105.950;  146.350;    0.000
306.144; 3148.950;  171.350;    0.000
306.207; 3153.950;  151.350;    0.000
306.269; 3124.950;  169.350;    0.000
306.331; 3062.950;  162.350;    0.000
306.394; 3068.950;  171.350;    0.000
306.456; 3124.950;  155.350;    0.000
306.518; 3072.950;  183.350;    0.000
306.581; 3146.950;  180.350;    0.000
306.643; 3023.950;  199.350;    0.000
306.705; 3130.950;  163.350;    0.000
306.768; 3070.950;  183.350;    0.000
306.830; 3130.950;  183.350;    0.000
306.892; 3161.950;  190.350;    0.000
306.954; 3231.950;  161.350;    0.000
307.017; 3231.950;  151.350;    0.000
307.079; 3169.950;  147.350;    0.000
307.141; 3219.950;  179.350;    0.000
307.203; 3318.950;  143.350;    0.000
307.266; 3285.950;  142.350;    0.000
307.328; 3177.950;  161.350;    0.000
307.390; 3230.950;  189.350;    0.000
307.452; 3225.950;  155.350;    0.000
307.514; 3331.950;  211.350;    0.000
307.577; 3210.950;  201.350;    0.000
307.639; 3214.950;  192.350;    0.000
307.701; 3317.950;  162.350;    0.000
307.763; 3278.950;  155.350;    0.000
307.825; 3395.950;  193.350;    0.000
307.887; 3349.950;  214.350;    0.000
307.949; 3337.950;  208.350;    0.000
308.012; 3256.950;  175.350;    0.000
308.074; 3301.950;  155.350;    0.000
308.136; 3287.950;  172.350;    0.000
308.198; 3282.950;  171.350;    0.000
308.260; 3328.950;  182.350;    0.000
308.322; 3334.950;  177.350;    0.000
308.384; 3322.950;  207.350;    0.000
308.446; 3275.950;  170.350;    0.000
308.508; 3355.950;  177.350;    0.000
308.570; 3374.950;  195.350;    0.000
308.632; 3315.950;  190.350;    0.000
308.694; 3337.950;  161.350;    0.000
308.756; 3343.950;  173.350;    0.000
308.818; 3423.950;  190.350;    0.000
308.880; 3397.950;  197.350;    0.000
308.942; 3455.950;  223.350;    0.000
309.004; 3448.950;  176.350;    0.000
309.066; 3437.950;  182.350;    0.000
309.128; 3515.950;  185.350;    0.000
309.190; 3682.950;  166.350;    0.000
309.252; 3779.950;  191.350;    0.000
309.314; 3728.950;  208.350;    0.000
309.376; 3752.950;  205.350;    0.000
309.438; 3615.950;  166.350;    0.000
309.500; 3617.950;  195.350;    0.000
309.562; 3701.950;  163.350;    0.000
309.624; 3694.950;  162.350;    0.000
309.686; 3694.950;  194.350;    0.000
309.747; 3635.950;  179.350;    0.000
309.809; 3628.950;  211.350;    0.000
309.871; 3534.950;  191.350;    0.000
309.933; 3503.950;  151.350;    0.000
309.995; 3643.950;  179.350;    0.000
310.057; 3589.950;  175.350;    0.000
310.119; 3626.950;  161.350;    0.000
310.180; 3475.950;  167.350;    0.000
310.242; 3415.950;  171.350;    0.000
310.304; 3451.950;  209.350;    0.000
310.366; 3460.950;  229.350;    0.000
310.428; 3359.950;  132.350;    0.000
310.489; 3487.950;  165.350;    0.000
310.551; 3449.950;  193.350;    0.000
310.613; 3409.950;  182.350;    0.000
310.675; 3468.950;  186.350;    0.000
310.737; 3433.950;  192.350;    0.000
310.798; 3419.950;  194.350;    0.000
310.860; 3458.950;  220.350;    0.000
310.922; 3430.950;  161.350;    0.000
310.983; 3326.950;  203.350;    0.000
311.045; 3376.950;  198.350;    0.000
311.107; 3441.950;  179.350;    0.000
311.169; 3337.950;  154.350;    0.000
311.230; 3311.950;  134.350;    0.000
311.292; 3431.950;  215.350;    0.000
311.354; 3388.950;  171.350;    0.000
311.415; 3368.950;  195.350;    0.000
311.477; 3458.950;  185.350;    0.000
311.539; 3387.950;  183.350;    0.000
311.600; 3341.950;  183.350;    0.000
311.662; 3418.950;  207.350;    0.000
311.724; 3432.950;  193.350;    0.000
311.785; 3351.950;  180.350;    0.000
311.847; 3387.950;  155.350;    0.000
311.908; 3326.950;  179.350;    0.000
311.970; 3377.950;  193.350;    0.000
312.032; 3384.950;  188.350;    0.000
312.093; 3495.950;  166.350;    0.000
312.155; 3421.950;  147.350;    0.000
312.216; 3429.950;  177.350;    0.000
312.278; 3408.950;  162.350;    0.000
312.339; 3406.950;  158.350;    0.000
312.401; 3469.950;  181.350;    0.000
312.462; 3460.950;  153.350;    0.000
312.524; 3440.950;  186.350;    0.000
312.585; 3408.950;  191.350;    0.000
312.647; 3405.950;  131.350;    0.000
312.708; 3458.950;  170.350;    0.000
312.770; 3464.950;  194.350;    0.000
312.831; 3566.950;  161.350;    0.000
312.893; 3524.950;  179.350;    0.000
312.954; 3478.950;  183.350;    0.000
313.016; 3539.950;  189.350;    0.000
313.077; 3536.950;  169.350;    0.000
313.139; 3497.950;  148.350;    0.000
313.200; 3530.950;  155.350;    0.000
313.261; 3573.950;  213.350;    0.000
313.323; 3525.950;  162.350;    0.000
313.384; 3448.950;  160.350;    0.000
313.446; 3478.950;  202.350;    0.000
313.507; 3475.950;  149.350;    0.000
313.568; 3590.950;  194.350;    0.000
313.630; 3416.950;  163.350;    0.000
313.691; 3472.950;  158.350;    0.000
313.752; 3467.950;  179.350;    0.000
313.814; 3483.950;  180.350;    0.000
313.875; 3373.950;  191.350;    0.000
313.936; 3506.950;  169.350;    0.000
313.998; 3498.950;  165.350;    0.000
314.059; 3485.950;  211.350;    0.000
314.120; 3383.950;  190.350;    0.000
314.182; 3564.950;  185.350;    0.000
314.243; 3441.950;  186.350;    0.000
314.304; 3473.950;  178.350;    0.000
314.365; 3466.950;  187.350;    0.000
314.427; 3527.950;  145.350;    0.000
314.488; 3500.950;  184.350;    0.000
314.549; 3494.950;  181.350;    0.000
314.610; 3470.950;  151.350;    0.000
314.672; 3503.950;  153.350;    0.000
314.733; 3349.950;  148.350;    0.000
314.794; 3436.950;  156.350;    0.000
314.855; 3457.950;  196.350;    0.000
314.917; 3501.950;  157.350;    0.000
314.978; 3533.950;  174.350;    0.000
315.039; 3524.950;  168.350;    0.000
315.100; 3442.950;  154.350;    0.000
315.161; 3404.950;  176.350;    0.000
315.222; 3562.950;  198.350;    0.000
315.283; 3410.950;  169.350;    0.000
315.345; 3418.950;  162.350;    0.000
315.406; 3447.950;  199.350;    0.000
315.467; 3414.950;  180.350;    0.000
315.528; 3477.950;  179.350;    0.000
315.589; 3483.950;  166.350;    0.000
315.650; 3477.950;  179.350;    0.000
315.711; 3461.950;  177.350;    0.000
315.772; 3473.950;  180.350;    0.000
315.833; 3454.950;  157.350;    0.000
315.894; 3447.950;  133.350;    0.000
315.955; 3442.950;  205.350;    0.000
316.016; 3520.950;  190.350;    0.000
316.078; 3356.950;  174.350;    0.000
316.139; 3557.950;  208.350;    0.000
316.200; 3477.950;  166.350;    0.000
316.261; 3475.950;  186.350;    0.000
316.322; 3446.950;  185.350;    0.000
316.383; 3434.950;  179.350;    0.000
316.444; 3328.950;  172.350;    0.000
316.504; 3450.950;  181.350;    0.000
316.565; 3397.950;  197.350;    0.000
316.626; 3351.950;  196.350;    0.000
316.687; 3353.950;  173.350;    0.000
316.748; 3430.950;  178.350;    0.000
316.809; 3399.950;  178.350;    0.000
316.870; 3400.950;  134.350;    0.000
316.931; 3395.950;  166.350;    0.000
316.992; 3504.950;  200.350;    0.000
317.053; 3435.950;  169.350;    0.000
317.114; 3541.950;  185.350;    0.000
317.175; 3436.950;  213.350;    0.000
317.235; 3353.950;  199.350;    0.000
317.296; 3360.950;  190.350;    0.000
317.357; 3413.950;  152.350;    0.000
317.418; 3468.950;  192.350;    0.000
317.479; 3324.950;  170.350;    0.000
317.540; 3410.950;  179.350;    0.000
317.601; 3348.950;  155.350;    0.000
317.661; 3332.950;  154.350;    0.000
317.722; 3304.950;  190.350;    0.000
317.783; 3432.950;  149.350;    0.000
317.844; 3487.950;  207.350;    0.000
317.904; 3492.950;  153.350;    0.000
317.965; 3512.950;  179.350;    0.000
318.026; 3532.950;  235.350;    0.000
318.087; 3500.950;  184.350;    0.000
318.148; 3407.950;  201.350;    0.000
318.208; 3462.950;  220.350;    0.000
318.269; 3370.950;  175.350;    0.000
318.330; 3368.950;  185.350;    0.000
318.390; 3268.950;  180.350;    0.000
318.451; 3353.950;  164.350;    0.000
318.512; 3327.950;  150.350;    0.000
318.572; 3377.950;  205.350;    0.000
318.633; 3402.950;  224.350;    0.000
318.694; 3474.950;  202.350;    0.000
318.754; 3422.950;  196.350;    0.000
318.815; 3391.950;  187.350;    0.000
318.876; 3320.950;  200.350;    0.000
318.936; 3459.950;  232.350;    0.000
318.997; 3427.950;  211.350;    0.000
319.058; 3429.950;  194.350;    0.000
319.118; 3407.950;  197.350;    0.000
319.179; 3316.950;  162.350;    0.000
319.239; 3375.950;  188.350;    0.000
319.300; 3383.950;  205.350;    0.000
319.361; 3344.950;  179.350;    0.000
319.421; 3311.950;  182.350;    0.000
319.482; 3316.950;  189.350;    0.000
319.542; 3345.950;  180.350;    0.000
319.603; 3329.950;  204.350;    0.000
319.663; 3284.950;  195.350;    0.000
319.724; 3305.950;  135.350;    0.000
319.784; 3284.950;  184.350;    0.000
319.845; 3352.950;  160.350;    0.000
319.905; 3266.950;  206.350;    0.000
319.966; 3416.950;  203.350;    0.000
320.026; 3214.950;  203.350;    0.000
320.087; 3316.950;  206.350;    0.000
320.147; 3238.950;  180.350;    0.000
320.208; 3225.950;  189.350;    0.000
320.268; 3362.950;  179.350;    0.000
320.329; 3239.950;  215.350;    0.000
320.389; 3182.950;  193.350;    0.000
320.449; 3295.950;  210.350;    0.000
320.510; 3284.950;  206.350;    0.000
320.570; 3325.950;  221.350;    0.000
320.631; 3363.950;  203.350;    0.000
320.691; 3251.950;  190.350;    0.000
320.751; 3255.950;  205.350;    0.000
320.812; 3208.950;  191.350;    0.000
320.872; 3418.950;  216.350;    0.000
320.932; 3309.950;  209.350;    0.000
320.993; 3283.950;  189.350;    0.000
321.053; 3359.950;  228.350;    0.000
321.113; 3330.950;  163.350;    0.000
321.174; 3307.950;  204.350;    0.000
321.234; 3312.950;  214.350;    0.000
321.294; 3275.950;  184.350;    0.000
321.355; 3189.950;  216.350;    0.000
321.415; 3369.950;  187.350;    0.000
321.475; 3245.950;  216.350;    0.000
321.535; 3336.950;  189.350;    0.000
321.596; 3233.950;  186.350;    0.000
321.656; 3306.950;  204.350;    0.000
321.716; 3340.950;  183.350;    0.000
321.776; 3230.950;  194.350;    0.000
321.837; 3284.950;  190.350;    0.000
321.897; 3332.950;  219.350;    0.000
321.957; 3243.950;  222.350;    0.000
322.017; 3256.950;  183.350;    0.000
322.077; 3421.950;  239.350;    0.000
322.138; 3308.950;  219.350;    0.000
322.198; 3278.950;  185.350;    0.000
322.258; 3353.950;  231.350;    0.000
322.318; 3328.950;  197.350;    0.000
322.378; 3218.950;  179.350;    0.000
322.438; 3268.950;  217.350;    0.000
322.499; 3287.950;  238.350;    0.000
322.559; 3172.950;  197.350;    0.000
322.619; 3150.950;  204.350;    0.000
322.679; 3201.950;  199.350;    0.000
322.739; 3198.950;  194.350;    0.000
322.799; 3305.950;  203.350;    0.000
322.859; 3170.950;  234.350;    0.000
322.919; 3279.950;  194.350;    0.000
322.979; 3344.950;  219.350;    0.000
323.039; 3215.950;  193.350;    0.000
323.099; 3272.950;  207.350;    0.000
323.159; 3281.950;  213.350;    0.000
323.219; 3143.950;  171.350;    0.000
323.279; 3274.950;  215.350;    0.000
323.339; 3235.950;  170.350;    0.000
323.399; 3426.950;  195.350;    0.000
323.459; 3324.950;  234.350;    0.000
323.519; 3285.950;  201.350;    0.000
323.579; 3215.950;  167.350;    0.000
323.639; 3335.950;  209.350;    0.000
323.699; 3271.950;  217.350;    0.000
323.759; 3186.950;  213.350;    0.000
323.819; 3264.950;  216.350;    0.000
323.879; 3281.950;  193.350;    0.000
323.939; 3201.950;  182.350;    0.000
323.999; 3181.950;  206.350;    0.000
324.059; 3237.950;  196.350;    0.000
324.119; 3264.950;  240.350;    0.000
324.178; 3152.950;  186.350;    0.000
324.238; 3186.950;  179.350;    0.000
324.298; 3202.950;  195.350;    0.000
324.358; 3150.950;  208.350;    0.000
324.418; 3192.950;  190.350;    0.000
324.478; 3250.950;  197.350;    0.000
324.538; 3195.950;  157.350;    0.000
324.597; 3237.950;  219.350;    0.000
324.657; 3225.950;  176.350;    0.000
324.717; 3142.950;  179.350;    0.000
324.777; 3197.950;  190.350;    0.000
324.837; 3197.950;  172.350;    0.000
324.896; 3142.950;  199.350;    0.000
324.956; 3216.950;  216.350;    0.000
325.016; 3217.950;  191.350;    0.000
325.076; 3202.950;  185.350;    0.000
325.135; 3104.950;  174.350;    0.000
325.195; 3185.950;  175.350;    0.000
325.255; 3080.950;  144.350;    0.000
325.315; 3174.950;  201.350;    0.000
325.374; 3283.950;  198.350;    0.000
325.434; 3178.950;  181.350;    0.000
325.494; 3218.950;  183.350;    0.000
325.553; 3236.950;  172.350;    0.000
325.613; 3245.950;  200.350;    0.000
325.673; 3253.950;  177.350;    0.000
325.732; 3193.950;  174.350;    0.000
325.792; 3143.950;  181.350;    0.000
325.852; 3162.950;  214.350;    0.000
325.911; 3210.950;  230.350;    0.000
325.971; 3296.950;  198.350;    0.000
326.031; 3262.950;  201.350;    0.000
326.090; 3243.950;  214.350;    0.000
326.150; 3163.950;  163.350;    0.000
326.209; 3263.950;  207.350;    0.000
326.269; 3186.950;  201.350;    0.000
326.328; 3263.950;  208.350;    0.000
326.388; 3291.950;  169.350;    0.000
326.448; 3267.950;  229.350;    0.000
326.507; 3231.950;  243.350;    0.000
326.567; 3209.950;  162.350;    0.000
326.626; 3189.950;  200.350;    0.000
326.686; 3177.950;  166.350;    0.000
326.745; 3197.950;  178.350;    0.000
326.805; 3147.950;  185.350;    0.000
326.864; 3152.950;  209.350;    0.000
326.924; 3112.950;  234.350;    0.000
326.983; 3072.950;  197.350;    0.000
327.043; 3126.950;  217.350;    0.000
327.102; 3061.950;  174.350;    0.000
327.161; 3184.950;  172.350;    0.000
327.221; 3116.950;  183.350;    0.000
327.280; 3076.950;  200.350;    0.000
327.340; 3147.950;  200.350;    0.000
327.399; 3130.950;  219.350;    0.000
327.459; 3044.950;  246.350;    0.000
327.518; 3034.950;  217.350;    0.000
327.577; 3046.950;  212.350;    0.000
327.637; 3031.950;  188.350;    0.000
327.696; 3091.950;  201.350;    0.000
327.755; 3098.950;  199.350;    0.000
327.815; 3103.950;  224.350;    0.000
327.874; 3157.950;  236.350;    0.000
327.933; 3057.950;  182.350;    0.000
327.993; 3141.950;  206.350;    0.000
328.052; 3087.950;  191.350;    0.000
328.111; 3085.950;  222.350;    0.000
328.171; 3082.950;  200.350;    0.000
328.230; 3094.950;  203.350;    0.000
328.289; 3048.950;  219.350;    0.000
328.349; 3125.950;  231.350;    0.000
328.408; 3066.950;  223.350;    0.000
328.467; 3063.950;  226.350;    0.000
328.526; 3085.950;  197.350;    0.000
328.586; 3018.950;  221.350;    0.000
328.645; 3120.950;  199.350;    0.000
328.704; 3117.950;  227.350;    0.000
328.763; 3095.950;  201.350;    0.000
328.822; 3142.950;  230.350;    0.000
328.882; 3127.950;  244.350;    0.000
328.941; 3012.950;  221.350;    0.000
329.000; 3130.950;  207.350;    0.000
329.059; 3059.950;  208.350;    0.000
329.118; 2999.950;  203.350;    0.000
329.177; 2985.950;  198.350;    0.000
329.237; 3096.950;  218.350;    0.000
329.296; 3085.950;  213.350;    0.000
329.355; 3021.950;  208.350;    0.000
329.414; 3047.950;  231.350;    0.000
329.473; 3060.950;  221.350;    0.000
329.532; 3098.950;  243.350;    0.000
329.591; 3038.950;  210.350;    0.000
329.650; 3068.950;  232.350;    0.000
329.709; 3031.950;  211.350;    0.000
329.768; 3136.950;  194.350;    0.000
329.827; 3151.950;  237.350;    0.000
329.886; 3139.950;  213.350;    0.000
329.945; 3184.950;  190.350;    0.000
330.004; 3231.950;  233.350;    0.000
330.063; 3406.950;  191.350;    0.000
330.122; 3637.950;  234.350;    0.000
330.181; 3933.950;  220.350;    0.000
330.240; 3968.950;  191.350;    0.000
330.299; 3627.950;  210.350;    0.000
330.358; 3347.950;  191.350;    0.000
330.417; 3208.950;  225.350;    0.000
330.476; 3204.950;  226.350;    0.000
330.535; 3104.950;  217.350;    0.000
330.594; 3069.950;  205.350;    0.000
330.653; 2979.950;  193.350;    0.000
330.712; 2992.950;  206.350;    0.000
330.771; 3082.950;  175.350;    0.000
330.830; 3052.950;  204.350;    0.000
330.889; 2958.950;  198.350;    0.000
330.948; 2903.950;  198.350;    0.000
331.006; 2962.950;  207.350;    0.000
331.065; 2997.950;  203.350;    0.000
331.124; 2976.950;  210.350;    0.000
331.183; 2931.950;  165.350;    0.000
331.242; 2943.950;  195.350;    0.000
331.301; 2899.950;  191.350;    0.000
331.359; 3010.950;  205.350;    0.000
331.418; 2922.950;  183.350;    0.000
331.477; 3021.950;  198.350;    0.000
331.536; 2977.950;  211.350;    0.000
331.595; 3001.950;  191.350;    0.000
331.653; 2977.950;  232.350;    0.000
331.712; 2967.950;  225.350;    0.000
331.771; 2904.950;  199.350;    0.000
331.830; 2952.950;  189.350;    0.000
331.888; 2950.950;  219.350;    0.000
331.947; 2984.950;  188.350;    0.000
332.006; 2995.950;  180.350;    0.000
332.065; 2936.950;  177.350;    0.000
332.123; 2976.950;  214.350;    0.000
332.182; 2953.950;  223.350;    0.000
332.241; 2910.950;  202.350;    0.000
332.299; 2917.950;  180.350;    0.000
332.358; 3028.950;  206.350;    0.000
332.417; 3020.950;  195.350;    0.000
332.475; 2998.950;  221.350;    0.000
332.534; 3081.950;  207.350;    0.000
332.592; 3088.950;  190.350;    0.000
332.651; 2998.950;  203.350;    0.000
332.710; 3074.950;  219.350;    0.000
332.768; 3045.950;  210.350;    0.000
332.827; 3044.950;  173.350;    0.000
332.885; 3112.950;  239.350;    0.000
332.944; 3171.950;  145.350;    0.000
333.003; 3209.950;  197.350;    0.000
333.061; 3106.950;  179.350;    0.000
333.120; 3118.950;  198.350;    0.000
333.178; 3218.950;  185.350;    0.000
333.237; 3203.950;  204.350;    0.000
333.295; 3228.950;  266.350;    0.000
333.354; 3149.950;  181.350;    0.000
333.412; 3127.950;  189.350;    0.000
333.471; 3217.950;  216.350;    0.000
333.529; 3225.950;  220.350;    0.000
333.588; 3334.950;  193.350;    0.000
333.646; 3310.950;  186.350;    0.000
333.705; 3297.950;  210.350;    0.000
333.763; 3304.950;  222.350;    0.000
333.822; 3374.950;  222.350;    0.000
333.880; 3243.950;  202.350;    0.000
333.938; 3215.950;  205.350;    0.000
333.997; 3216.950;  199.350;    0.000
334.055; 3206.950;  199.350;    0.000
334.114; 3277.950;  237.350;    0.000
334.172; 3261.950;  155.350;    0.000
334.230; 3137.950;  208.350;    0.000
334.289; 3250.950;  191.350;    0.000
334.347; 3213.950;  211.350;    0.000
334.405; 3190.950;  212.350;    0.000
334.464; 3288.950;  179.350;    0.000
334.522; 3130.950;  160.350;    0.000
334.580; 3157.950;  195.350;    0.000
334.639; 3196.950;  191.350;    0.000
334.697; 3163.950;  194.350;    0.000
334.755; 3214.950;  185.350;    0.000
334.814; 3255.950;  214.350;    0.000
334.872; 3174.950;  179.350;    0.000
334.930; 3080.950;  169.350;    0.000
334.988; 3123.950;  201.350;    0.000
335.047; 3185.950;  188.350;    0.000
335.105; 3111.950;  175.350;    0.000
335.163; 3097.950;  191.350;    0.000
335.221; 3108.950;  196.350;    0.000
335.280; 3153.950;  182.350;    0.000
335.338; 3122.950;  202.350;    0.000
335.396; 3081.950;  219.350;    0.000
335.454; 3058.950;  187.350;    0.000
335.512; 3136.950;  236.350;    0.000
335.570; 3156.950;  209.350;    0.000
335.629; 3123.950;  247.350;    0.000
335.687; 3132.950;  219.350;    0.000
335.745; 3205.950;  203.350;    0.000
335.803; 3128.950;  220.350;    0.000
335.861; 3176.950;  208.350;    0.000
335.919; 3155.950;  223.350;    0.000
335.977; 3126.950;  201.350;    0.000
336.035; 3124.950;  193.350;    0.000
336.094; 3064.950;  178.350;    0.000
336.152; 3086.950;  182.350;    0.000
336.210; 3005.950;  199.350;    0.000
336.268; 2983.950;  216.350;    0.000
336.326; 3168.950;  216.350;    0.000
336.384; 3204.950;  201.350;    0.000
336.442; 2969.950;  197.350;    0.000
336.500; 3118.950;  203.350;    0.000
336.558; 3029.950;  198.350;    0.000
336.616; 3152.950;  210.350;    0.000
336.674; 3022.950;  192.350;    0.000
336.732; 3040.950;  182.350;    0.000
336.790; 3081.950;  189.350;    0.000
336.848; 3110.950;  233.350;    0.000
336.906; 3018.950;  235.350;    0.000
336.964; 3139.950;  208.350;    0.000
337.022; 3070.950;  249.350;    0.000
337.080; 3092.950;  204.350;    0.000
337.138; 3087.950;  176.350;    0.000
337.195; 2949.950;  207.350;    0.000
337.253; 3089.950;  214.350;    0.000
337.311; 3067.950;  210.350;    0.000
337.369; 3088.950;  222.350;    0.000
337.427; 2999.950;  236.350;    0.000
337.485; 3058.950;  241.350;    0.000
337.543; 2996.950;  217.350;    0.000
337.601; 2965.950;  221.350;    0.000
337.658; 3018.950;  205.350;    0.000
337.716; 2949.950;  210.350;    0.000
337.774; 2973.950;  196.350;    0.000
337.832; 3018.950;  200.350;    0.000
337.890; 2926.950;  192.350;    0.000
337.947; 2883.950;  192.350;    0.000
338.005; 2990.950;  211.350;    0.000
338.063; 2954.950;  176.350;    0.000
338.121; 2927.950;  222.350;    0.000
338.178; 2845.950;  198.350;    0.000
338.236; 2965.950;  210.350;    0.000
338.294; 2967.950;  211.350;    0.000
338.352; 2925.950;  212.350;    0.000
338.409; 2899.950;  199.350;    0.000
338.467; 2820.950;  205.350;    0.000
338.525; 2862.950;  217.350;    0.000
338.583; 2851.950;  197.350;    0.000
338.640; 2926.950;  226.350;    0.000
338.698; 2917.950;  201.350;    0.000
338.756; 2954.950;  192.350;    0.000
338.813; 2979.950;  220.350;    0.000
338.871; 2949.950;  258.350;    0.000
338.928; 3003.950;  223.350;    0.000
338.986; 2882.950;  200.350;    0.000
339.044; 2843.950;  206.350;    0.000
339.101; 2891.950;  250.350;    0.000
339.159; 3036.950;  245.350;    0.000
339.216; 2865.950;  227.350;    0.000
339.274; 2859.950;  260.350;    0.000
339.332; 2951.950;  223.350;    0.000
339.389; 2891.950;  233.350;    0.000
339.447; 2908.950;  206.350;    0.000
339.504; 2944.950;  229.350;    0.000
339.562; 2923.950;  194.350;    0.000
339.619; 2847.950;  245.350;    0.000
339.677; 2877.950;  238.350;    0.000
339.734; 2820.950;  197.350;    0.000
339.792; 2928.950;  210.350;    0.000
339.849; 2811.950;  201.350;    0.000
339.907; 2853.950;  252.350;    0.000
339.964; 2844.950;  191.350;    0.000
340.022; 2878.950;  246.350;    0.000
340.079; 2794.950;  213.350;    0.000
340.137; 2787.950;  240.350;    0.000
340.194; 2842.950;  208.350;    0.000
340.252; 2814.950;  215.350;    0.000
340.309; 2777.950;  203.350;    0.000
340.366; 2811.950;  194.350;    0.000
340.424; 2829.950;  226.350;    0.000
340.481; 2837.950;  234.350;    0.000
340.538; 2835.950;  205.350;    0.000
340.596; 2908.950;  197.350;    0.000
340.653; 2877.950;  233.350;    0.000
340.711; 2896.950;  273.350;    0.000
340.768; 2904.950;  237.350;    0.000
340.825; 2867.950;  224.350;    0.000
340.883; 2908.950;  240.350;    0.000
340.940; 2850.950;  216.350;    0.000
340.997; 2836.950;  228.350;    0.000
341.054; 2788.950;  200.350;    0.000
341.112; 2781.950;  220.350;    0.000
341.169; 2922.950;  226.350;    0.000
341.226; 2823.950;  206.350;    0.000
341.284; 2950.950;  204.350;    0.000
341.341; 2872.950;  214.350;    0.000
341.398; 2748.950;  160.350;    0.000
341.455; 2851.950;  209.350;    0.000
341.512; 2843.950;  233.350;    0.000
341.570; 2893.950;  240.350;    0.000
341.627; 2874.950;  209.350;    0.000
341.684; 2820.950;  178.350;    0.000
341.741; 2963.950;  254.350;    0.000
341.798; 2883.950;  232.350;    0.000
341.856; 2882.950;  196.350;    0.000
341.913; 2823.950;  244.350;    0.000
341.970; 2904.950;  203.350;    0.000
342.027; 2847.950;  235.350;    0.000
342.084; 2809.950;  214.350;    0.000
342.141; 2831.950;  194.350;    0.000
342.198; 2913.950;  194.350;    0.000
342.255; 2876.950;  219.350;    0.000
342.313; 2975.950;  195.350;    0.000
342.370; 2824.950;  207.350;    0.000
342.427; 2905.950;  217.350;    0.000
342.484; 2888.950;  213.350;    0.000
342.541; 2952.950;  215.350;    0.000
342.598; 2849.950;  247.350;    0.000
342.655; 2844.950;  205.350;    0.000
342.712; 2914.950;  226.350;    0.000
342.769; 2760.950;  212.350;    0.000
342.826; 2978.950;  203.350;    0.000
342.883; 2886.950;  207.350;    0.000
342.940; 2820.950;  204.350;    0.000
342.997; 2901.950;  237.350;    0.000
343.054; 2834.950;  210.350;    0.000
343.111; 2925.950;  209.350;    0.000
343.168; 2899.950;  201.350;    0.000
343.225; 3004.950;  208.350;    0.000
343.282; 2982.950;  216.350;    0.000
343.339; 2981.950;  237.350;    0.000
343.395; 3044.950;  218.350;    0.000
343.452; 3017.950;  234.350;    0.000
343.509; 3086.950;  214.350;    0.000
343.566; 3079.950;  222.350;    0.000
343.623; 3070.950;  226.350;    0.000
343.680; 3298.950;  245.350;    0.000
343.737; 3152.950;  209.350;    0.000
343.794; 3199.950;  227.350;    0.000
343.850; 3327.950;  197.350;    0.000
343.907; 3275.950;  211.350;    0.000
343.964; 3249.950;  190.350;    0.000
344.021; 3294.950;  252.350;    0.000
344.078; 3313.950;  261.350;    0.000
344.134; 3247.950;  206.350;    0.000
344.191; 3235.950;  231.350;    0.000
344.248; 3228.950;  225.350;    0.000
344.305; 3239.950;  210.350;    0.000
344.361; 3126.950;  194.350;    0.000
344.418; 3117.950;  219.350;    0.000
344.475; 3201.950;  245.350;    0.000
344.532; 3164.950;  238.350;    0.000
344.588; 3145.950;  235.350;    0.000
344.645; 3191.950;  229.350;    0.000
344.702; 3020.950;  145.350;    0.000
344.758; 3124.950;  240.350;    0.000
344.815; 3188.950;  215.350;    0.000
344.872; 3104.950;  203.350;    0.000
344.928; 3147.950;  208.350;    0.000
344.985; 3056.950;  216.350;    0.000
345.042; 3194.950;  234.350;    0.000
345.098; 3078.950;  183.350;    0.000
345.155; 3080.950;  241.350;    0.000
345.212; 2993.950;  222.350;    0.000
345.268; 3074.950;  234.350;    0.000
345.325; 3065.950;  181.350;    0.000
345.381; 3161.950;  251.350;    0.000
345.438; 3110.950;  256.350;    0.000
345.495; 3074.950;  247.350;    0.000
345.551; 3043.950;  231.350;    0.000
345.608; 3090.950;  206.350;    0.000
345.664; 3154.950;  201.350;    0.000
345.721; 2961.950;  216.350;    0.000
345.777; 3045.950;  195.350;    0.000
345.834; 2983.950;  195.350;    0.000
345.890; 3041.950;  227.350;    0.000
345.947; 3103.950;  240.350;    0.000
346.003; 3014.950;  248.350;    0.000
346.060; 3064.950;  213.350;    0.000
346.116; 3151.950;  225.350;    0.000
346.173; 3016.950;  199.350;    0.000
346.229; 3059.950;  264.350;    0.000
346.285; 3145.950;  246.350;    0.000
346.342; 3010.950;  240.350;    0.000
346.398; 2967.950;  222.350;    0.000
346.455; 3176.950;  231.350;    0.000
346.511; 3115.950;  214.350;    0.000
346.567; 3078.950;  231.350;    0.000
346.624; 3059.950;  222.350;    0.000
346.680; 3099.950;  197.350;    0.000
346.737; 3080.950;  225.350;    0.000
346.793; 3049.950;  255.350;    0.000
346.849; 3119.950;  245.350;    0.000
346.906; 3083.950;  221.350;    0.000
346.962; 3157.950;  260.350;    0.000
347.018; 3116.950;  238.350;    0.000
347.074; 3190.950;  257.350;    0.000
347.131; 3059.950;  200.350;    0.000
347.187; 3097.950;  232.350;    0.000
347.243; 3178.950;  240.350;    0.000
347.300; 3186.950;  249.350;    0.000
347.356; 3075.950;  250.350;    0.000
347.412; 3145.950;  252.350;    0.000
347.468; 3224.950;  254.350;    0.000
347.524; 3093.950;  280.350;    0.000
347.581; 3081.950;  228.350;    0.000
347.637; 3139.950;  261.350;    0.000
347.693; 3146.950;  238.350;    0.000
347.749; 3166.950;  261.350;    0.000
347.805; 3070.950;  238.350;    0.000
347.862; 3240.950;  246.350;    0.000
347.918; 3131.950;  256.350;    0.000
347.974; 3137.950;  277.350;    0.000
348.030; 3193.950;  242.350;    0.000
348.086; 3051.950;  223.350;    0.000
348.142; 3032.950;  215.350;    0.000
348.198; 3143.950;  272.350;    0.000
348.254; 3084.950;  292.350;    0.000
348.311; 3198.950;  235.350;    0.000
348.367; 3193.950;  263.350;    0.000
348.423; 3094.950;  193.350;    0.000
348.479; 3087.950;  266.350;    0.000
348.535; 3190.950;  238.350;    0.000
348.591; 3253.950;  237.350;    0.000
348.647; 2976.950;  239.350;    0.000
348.703; 3285.950;  240.350;    0.000
348.759; 3133.950;  253.350;    0.000
348.815; 3127.950;  255.350;    0.000
348.871; 3204.950;  256.350;    0.000
348.927; 3076.950;  261.350;    0.000
348.983; 3200.950;  258.350;    0.000
349.039; 3126.950;  204.350;    0.000
349.095; 3221.950;  215.350;    0.000
349.151; 3190.950;  230.350;    0.000
349.207; 3168.950;  216.350;    0.000
349.263; 3242.950;  235.350;    0.000
349.319; 3239.950;  244.350;    0.000
349.374; 3214.950;  213.350;    0.000
349.430; 3265.950;  241.350;    0.000
349.486; 3212.950;  248.350;    0.000
349.542; 3277.950;  259.350;    0.000
349.598; 3345.950;  208.350;    0.000
349.654; 3269.950;  242.350;    0.000
349.710; 3210.950;  246.350;    0.000
349.766; 3176.950;  226.350;    0.000
349.821; 3280.950;  227.350;    0.000
349.877; 3248.950;  226.350;    0.000
349.933; 3272.950;  249.350;    0.000
349.989; 3195.950;  263.350;    0.000
350.045; 3204.950;  267.350;    0.000
350.100; 3230.950;  219.350;    0.000
350.156; 3190.950;  207.350;    0.000
350.212; 3168.950;  230.350;    0.000
350.268; 3273.950;  223.350;    0.000
350.323; 3190.950;  217.350;    0.000
350.379; 3241.950;  227.350;    0.000
350.435; 3197.950;  219.350;    0.000
350.491; 3168.950;  195.350;    0.000
350.546; 3206.950;  229.350;    0.000
350.602; 3197.950;  222.350;    0.000
350.658; 3220.950;  225.350;    0.000
350.713; 3196.950;  231.350;    0.000
350.769; 3220.950;  193.350;    0.000
350.825; 3155.950;  182.350;    0.000
350.880; 3146.950;  193.350;    0.000
350.936; 3260.950;  222.350;    0.000
350.992; 3238.950;  217.350;    0.000
351.047; 3318.950;  226.350;    0.000
351.103; 3213.950;  187.350;    0.000
351.158; 3247.950;  212.350;    0.000
351.214; 3276.950;  207.350;    0.000
351.270; 3139.950;  194.350;    0.000
351.325; 3245.950;  213.350;    0.000
351.381; 3162.950;  223.350;    0.000
351.436; 3331.950;  222.350;    0.000
351.492; 3248.950;  219.350;    0.000
351.547; 3251.950;  205.350;    0.000
351.603; 3218.950;  218.350;    0.000
351.658; 3343.950;  199.350;    0.000
351.714; 3253.950;  201.350;    0.000
351.769; 3284.950;  209.350;    0.000
351.825; 3319.950;  226.350;    0.000
351.880; 3191.950;  189.350;    0.000
351.936; 3221.950;  201.350;    0.000
351.991; 3286.950;  220.350;    0.000
352.047; 3228.950;  232.350;    0.000
352.102; 3201.950;  185.350;    0.000
352.158; 3243.950;  228.350;    0.000
352.213; 3246.950;  204.350;    0.000
352.268; 3183.950;  220.350;    0.000
352.324; 3226.950;  206.350;    0.000
352.379; 3190.950;  182.350;    0.000
352.434; 3265.950;  214.350;    0.000
352.490; 3225.950;  250.350;    0.000
352.545; 3277.950;  290.350;    0.000
352.601; 3241.950;  247.350;    0.000
352.656; 3283.950;  203.350;    0.000
352.711; 3246.950;  197.350;    0.000
352.767; 3266.950;  169.350;    0.000
352.822; 3234.950;  191.350;    0.000
352.877; 3288.950;  235.350;    0.000
352.932; 3309.950;  231.350;    0.000
352.988; 3241.950;  224.350;    0.000
353.043; 3279.950;  226.350;    0.000
353.098; 3197.950;  227.350;    0.000
353.153; 3330.950;  239.350;    0.000
353.209; 3282.950;  217.350;    0.000
353.264; 3272.950;  198.350;    0.000
353.319; 3251.950;  247.350;    0.000
353.374; 3258.950;  199.350;    0.000
353.430; 3353.950;  247.350;    0.000
353.485; 3369.950;  242.350;    0.000
353.540; 3270.950;  237.350;    0.000
353.595; 3223.950;  233.350;    0.000
353.650; 3225.950;  221.350;    0.000
353.705; 3340.950;  259.350;    0.000
353.761; 3296.950;  223.350;    0.000
353.816; 3303.950;  234.350;    0.000
353.871; 3257.950;  226.350;    0.000
353.926; 3216.950;  232.350;    0.000
353.981; 3352.950;  245.350;    0.000
354.036; 3326.950;  247.350;    0.000
354.091; 3321.950;  233.350;    0.000
354.146; 3348.950;  253.350;    0.000
354.201; 3272.950;  236.350;    0.000
354.256; 3220.950;  210.350;    0.000
354.311; 3323.950;  279.350;    0.000
354.367; 3196.950;  208.350;    0.000
354.422; 3218.950;  228.350;    0.000
354.477; 3342.950;  202.350;    0.000
354.532; 3434.950;  215.350;    0.000
354.587; 3387.950;  249.350;    0.000
354.642; 3322.950;  206.350;    0.000
354.697; 3265.950;  226.350;    0.000
354.751; 3291.950;  241.350;    0.000
354.806; 3321.950;  249.350;    0.000
354.861; 3291.950;  216.350;    0.000
354.916; 3225.950;  249.350;    0.000
354.971; 3340.950;  217.350;    0.000
355.026; 3337.950;  236.350;    0.000
355.081; 3358.950;  242.350;    0.000
355.136; 3343.950;  216.350;    0.000
355.191; 3260.950;  216.350;    0.000
355.246; 3368.950;  258.350;    0.000
355.301; 3370.950;  250.350;    0.000
355.355; 3359.950;  251.350;    0.000
355.410; 3345.950;  216.350;    0.000
355.465; 3262.950;  224.350;    0.000
355.520; 3272.950;  221.350;    0.000
355.575; 3395.950;  255.350;    0.000
355.630; 3365.950;  225.350;    0.000
355.684; 3310.950;  210.350;    0.000
355.739; 3357.950;  232.350;    0.000
355.794; 3274.950;  202.350;    0.000
355.849; 3303.950;  211.350;    0.000
355.904; 3324.950;  226.350;    0.000
355.958; 3399.950;  191.350;    0.000
356.013; 3292.950;  208.350;    0.000
356.068; 3409.950;  229.350;    0.000
356.123; 3357.950;  243.350;    0.000
356.177; 3458.950;  227.350;    0.000
356.232; 3321.950;  243.350;    0.000
356.287; 3400.950;  216.350;    0.000
356.341; 3356.950;  242.350;    0.000
356.396; 3326.950;  175.350;    0.000
356.451; 3345.950;  271.350;    0.000
356.505; 3374.950;  225.350;    0.000
356.560; 3280.950;  260.350;    0.000
356.615; 3366.950;  213.350;    0.000
356.669; 3299.950;  213.350;    0.000
356.724; 3416.950;  221.350;    0.000
356.778; 3437.950;  232.350;    0.000
356.833; 3364.950;  178.350;    0.000
356.888; 3341.950;  236.350;    0.000
356.942; 3381.950;  224.350;    0.000
356.997; 3476.950;  228.350;    0.000
357.051; 3318.950;  226.350;    0.000
357.106; 3338.950;  185.350;    0.000
357.160; 3342.950;  202.350;    0.000
357.215; 3392.950;  232.350;    0.000
357.269; 3370.950;  224.350;    0.000
357.324; 3381.950;  219.350;    0.000
357.378; 3317.950;  196.350;    0.000
357.433; 3423.950;  241.350;    0.000
357.487; 3306.950;  244.350;    0.000
357.542; 3297.950;  210.350;    0.000
357.596; 3368.950;  231.350;    0.000
357.651; 3510.950;  248.350;    0.000
357.705; 3373.950;  232.350;    0.000
357.760; 3373.950;  224.350;    0.000
357.814; 3300.950;  221.350;    0.000
357.868; 3490.950;  207.350;    0.000
357.923; 3359.950;  234.350;    0.000
357.977; 3316.950;  218.350;    0.000
358.032; 3316.950;  244.350;    0.000
358.086; 3442.950;  246.350;    0.000
358.140; 3339.950;  235.350;    0.000
358.195; 3343.950;  237.350;    0.000
358.249; 3448.950;  233.350;    0.000
358.303; 3360.950;  254.350;    0.000
358.358; 3293.950;  217.350;    0.000
358.412; 3261.950;  245.350;    0.000
358.466; 3267.950;  230.350;    0.000
358.521; 3356.950;  214.350;    0.000
358.575; 3318.950;  243.350;    0.000
358.629; 3322.950;  230.350;    0.000
358.683; 3304.950;  232.350;    0.000
358.738; 3347.950;  249.350;    0.000
358.792; 3284.950;  249.350;    0.000
358.846; 3395.950;  271.350;    0.000
358.900; 3459.950;  265.350;    0.000
358.954; 3370.950;  236.350;    0.000
359.009; 3345.950;  254.350;    0.000
359.063; 3340.950;  216.350;    0.000
359.117; 3309.950;  245.350;    0.000
359.171; 3399.950;  252.350;    0.000
359.225; 3385.950;  240.350;    0.000
359.280; 3406.950;  239.350;    0.000
359.334; 3468.950;  234.350;    0.000
359.388; 3412.950;  258.350;    0.000
359.442; 3389.950;  220.350;    0.000
359.496; 3324.950;  206.350;    0.000
359.550; 3477.950;  279.350;    0.000
359.604; 3254.950;  263.350;    0.000
359.658; 3320.950;  251.350;    0.000
359.712; 3362.950;  244.350;    0.000
359.766; 3356.950;  217.350;    0.000
359.820; 3322.950;  235.350;    0.000
359.875; 3331.950;  249.350;    0.000
359.929; 3366.950;  269.350;    0.000
359.983; 3293.950;  240.350;    0.000
360.037; 3288.950;  252.350;    0.000
360.091; 3291.950;  271.350;    0.000
360.145; 3313.950;  222.350;    0.000
360.199; 3361.950;  302.350;    0.000
360.253; 3316.950;  234.350;    0.000
360.306; 3296.950;  258.350;    0.000
360.360; 3249.950;  249.350;    0.000
360.414; 3426.950;  231.350;    0.000
360.468; 3348.950;  261.350;    0.000
360.522; 3392.950;  277.350;    0.000
360.576; 3410.950;  273.350;    0.000
360.630; 3392.950;  264.350;    0.000
360.684; 3371.950;  223.350;    0.000
360.738; 3338.950;  266.350;    0.000
360.792; 3400.950;  252.350;    0.000
360.846; 3307.950;  234.350;    0.000
360.899; 3436.950;  296.350;    0.000
360.953; 3341.950;  273.350;    0.000
361.007; 3361.950;  251.350;    0.000
361.061; 3290.950;  250.350;    0.000
361.115; 3345.950;  267.350;    0.000
361.168; 3376.950;  308.350;    0.000
361.222; 3320.950;  246.350;    0.000
361.276; 3346.950;  261.350;    0.000
361.330; 3375.950;  233.350;    0.000
361.384; 3314.950;  269.350;    0.000
361.437; 3344.950;  270.350;    0.000
361.491; 3354.950;  263.350;    0.000
361.545; 3267.950;  288.350;    0.000
361.599; 3361.950;  270.350;    0.000
361.652; 3363.950;  256.350;    0.000
361.706; 3422.950;  263.350;    0.000
361.760; 3303.950;  237.350;    0.000
361.813; 3379.950;  278.350;    0.000
361.867; 3260.950;  317.350;    0.000
361.921; 3367.950;  260.350;    0.000
361.974; 3315.950;  239.350;    0.000
362.028; 3323.950;  266.350;    0.000
362.082; 3333.950;  269.350;    0.000
362.135; 3386.950;  262.350;    0.000
362.189; 3357.950;  258.350;    0.000
362.242; 3381.950;  273.350;    0.000
362.296; 3335.950;  261.350;    0.000
362.350; 3298.950;  272.350;    0.000
362.403; 3313.950;  291.350;    0.000
362.457; 3360.950;  253.350;    0.000
362.510; 3320.950;  266.350;    0.000
362.564; 3225.950;  260.350;    0.000
362.617; 3373.950;  280.350;    0.000
362.671; 3430.950;  281.350;    0.000
362.724; 3262.950;  234.350;    0.000
362.778; 3354.950;  311.350;    0.000
362.831; 3366.950;  276.350;    0.000
362.885; 3246.950;  288.350;    0.000
362.938; 3157.950;  284.350;    0.000
362.992;  339.950;  245.350;    0.000
363.045;  265.950;  277.350;    0.000
363.099;  295.950;  246.350;    0.000
363.152;  279.950;  290.350;    0.000
363.205;  276.950;  256.350;    0.000
363.259;  289.950;  238.350;    0.000
363.312;  322.950;  290.350;    0.000
363.366;  305.950;  287.350;    0.000
363.419;  315.950;  279.350;    0.000
363.472;  318.950;  304.350;    0.000
363.526;  276.950;  305.350;    0.000
363.579;  295.950;  281.350;    0.000
363.632;  280.950;  279.350;    0.000
363.686;  261.950;  277.350;    0.000
363.739;  267.950;  268.350;    0.000
363.792;  278.950;  274.350;    0.000

