
Integration time [ms]:   1.000
Averaging Nr. [scans]: 1
Smoothing Nr. [pixels]: 0
Data measured with spectrometer [name]: VIS
Wave   ;Sample   ;Dark     ;Reference
[nm]   ;[counts] ;[counts] ;[counts] 

450.961;  200.975;  200.375;    0.000
451.100;  217.975;  241.375;    0.000
451.239;  214.975;  201.375;    0.000
451.377;  233.975;  262.375;    0.000
451.516;  199.975;  229.375;    0.000
451.655;  217.975;  211.375;    0.000
451.794;  225.975;  225.375;    0.000
451.932;  260.975;  247.375;    0.000
452.071;  229.975;  260.375;    0.000
452.210;  220.975;  235.375;    0.000
452.348;  221.975;  276.375;    0.000
452.487;  257.975;  259.375;    0.000
452.626;  201.975;  254.375;    0.000
452.764;  209.975;  233.375;    0.000
452.903;  213.975;  202.375;    0.000
453.042;  255.975;  211.375;    0.000
453.180; 2593.975;  240.375;    0.000
453.319; 2585.975;  238.375;    0.000
453.458; 2573.975;  215.375;    0.000
453.596; 2639.975;  252.375;    0.000
453.735; 2670.975;  240.375;    0.000
453.873; 2717.975;  257.375;    0.000
454.012; 2771.975;  228.375;    0.000
454.150; 2737.975;  270.375;    0.000
454.289; 2806.975;  233.375;    0.000
454.427; 2756.975;  243.375;    0.000
454.566; 2895.975;  257.375;    0.000
454.704; 2878.975;  243.375;    0.000
454.843; 2917.975;  190.375;    0.000
454.981; 2962.975;  271.375;    0.000
455.120; 2893.975;  210.375;    0.000
455.258; 2944.975;  235.375;    0.000
455.397; 2964.975;  214.375;    0.000
455.535; 3025.975;  214.375;    0.000
455.674; 2980.975;  184.375;    0.000
455.812; 3081.975;  228.375;    0.000
455.951; 3069.975;  204.375;    0.000
456.089; 3139.975;  220.375;    0.000
456.227; 3069.975;  196.375;    0.000
456.366; 3273.975;  261.375;    0.000
456.504; 3191.975;  249.375;    0.000
456.642; 3259.975;  245.375;    0.000
456.781; 3274.975;  183.375;    0.000
456.919; 3397.975;  203.375;    0.000
457.057; 3313.975;  177.375;    0.000
457.196; 3350.975;  191.375;    0.000
457.334; 3446.975;  233.375;    0.000
457.472; 3390.975;  214.375;    0.000
457.610; 3531.975;  230.375;    0.000
457.749; 3493.975;  247.375;    0.000
457.887; 3600.975;  220.375;    0.000
458.025; 3544.975;  195.375;    0.000
458.163; 3638.975;  224.375;    0.000
458.301; 3752.975;  228.375;    0.000
458.440; 3711.975;  200.375;    0.000
458.578; 3925.975;  233.375;    0.000
458.716; 3917.975;  182.375;    0.000
458.854; 4020.975;  251.375;    0.000
458.992; 3893.975;  187.375;    0.000
459.130; 4014.975;  229.375;    0.000
459.269; 4033.975;  237.375;    0.000
459.407; 4169.975;  228.375;    0.000
459.545; 4217.975;  216.375;    0.000
459.683; 4175.975;  204.375;    0.000
459.821; 4170.975;  191.375;    0.000
459.959; 4279.975;  227.375;    0.000
460.097; 4327.975;  221.375;    0.000
460.235; 4341.975;  241.375;    0.000
460.373; 4506.975;  231.375;    0.000
460.511; 4382.975;  214.375;    0.000
460.649; 4360.975;  172.375;    0.000
460.787; 4530.975;  275.375;    0.000
460.925; 4535.975;  175.375;    0.000
461.063; 4610.975;  252.375;    0.000
461.201; 4638.975;  210.375;    0.000
461.339; 4541.975;  237.375;    0.000
461.477; 4554.975;  210.375;    0.000
461.615; 4614.975;  236.375;    0.000
461.753; 4696.975;  215.375;    0.000
461.891; 4670.975;  222.375;    0.000
462.029; 4853.975;  227.375;    0.000
462.166; 4898.975;  202.375;    0.000
462.304; 4976.975;  191.375;    0.000
462.442; 5049.975;  210.375;    0.000
462.580; 5050.975;  184.375;    0.000
462.718; 4979.975;  220.375;    0.000
462.856; 5098.975;  226.375;    0.000
462.993; 4983.975;  254.375;    0.000
463.131; 5029.975;  200.375;    0.000
463.269; 5138.975;  215.375;    0.000
463.407; 4940.975;  213.375;    0.000
463.545; 4952.975;  242.375;    0.000
463.682; 4844.975;  212.375;    0.000
463.820; 5041.975;  185.375;    0.000
463.958; 5168.975;  212.375;    0.000
464.095; 5403.975;  181.375;    0.000
464.233; 5373.975;  192.375;    0.000
464.371; 5419.975;  247.375;    0.000
464.509; 5309.975;  151.375;    0.000
464.646; 5397.975;  207.375;    0.000
464.784; 5328.975;  199.375;    0.000
464.921; 5229.975;  253.375;    0.000
465.059; 5066.975;  214.375;    0.000
465.197; 5039.975;  200.375;    0.000
465.334; 4979.975;  180.375;    0.000
465.472; 4849.975;  204.375;    0.000
465.609; 4889.975;  203.375;    0.000
465.747; 4914.975;  214.375;    0.000
465.885; 4782.975;  233.375;    0.000
466.022; 4824.975;  215.375;    0.000
466.160; 4723.975;  201.375;    0.000
466.297; 4837.975;  196.375;    0.000
466.435; 4750.975;  230.375;    0.000
466.572; 4700.975;  227.375;    0.000
466.710; 4715.975;  218.375;    0.000
466.847; 4732.975;  245.375;    0.000
466.985; 4761.975;  223.375;    0.000
467.122; 4706.975;  168.375;    0.000
467.260; 4609.975;  196.375;    0.000
467.397; 4678.975;  198.375;    0.000
467.534; 4711.975;  219.375;    0.000
467.672; 4701.975;  214.375;    0.000
467.809; 4598.975;  185.375;    0.000
467.947; 4565.975;  247.375;    0.000
468.084; 4582.975;  196.375;    0.000
468.221; 4666.975;  238.375;    0.000
468.359; 4711.975;  236.375;    0.000
468.496; 4602.975;  235.375;    0.000
468.633; 4679.975;  218.375;    0.000
468.771; 4672.975;  223.375;    0.000
468.908; 4726.975;  208.375;    0.000
469.045; 4780.975;  249.375;    0.000
469.183; 4672.975;  222.375;    0.000
469.320; 4738.975;  216.375;    0.000
469.457; 4775.975;  224.375;    0.000
469.594; 4850.975;  259.375;    0.000
469.732; 4847.975;  223.375;    0.000
469.869; 4927.975;  234.375;    0.000
470.006; 4816.975;  225.375;    0.000
470.143; 5052.975;  243.375;    0.000
470.280; 5048.975;  208.375;    0.000
470.417; 5142.975;  232.375;    0.000
470.555; 4976.975;  218.375;    0.000
470.692; 5077.975;  223.375;    0.000
470.829; 5093.975;  238.375;    0.000
470.966; 5119.975;  205.375;    0.000
471.103; 4954.975;  259.375;    0.000
471.240; 5001.975;  214.375;    0.000
471.377; 4995.975;  226.375;    0.000
471.514; 4813.975;  250.375;    0.000
471.651; 4872.975;  221.375;    0.000
471.789; 4854.975;  242.375;    0.000
471.926; 4993.975;  190.375;    0.000
472.063; 4826.975;  234.375;    0.000
472.200; 4841.975;  252.375;    0.000
472.337; 4909.975;  241.375;    0.000
472.474; 4774.975;  244.375;    0.000
472.611; 4935.975;  268.375;    0.000
472.748; 4760.975;  222.375;    0.000
472.884; 4829.975;  271.375;    0.000
473.021; 4783.975;  195.375;    0.000
473.158; 4882.975;  205.375;    0.000
473.295; 4742.975;  223.375;    0.000
473.432; 4815.975;  216.375;    0.000
473.569; 4857.975;  196.375;    0.000
473.706; 4864.975;  190.375;    0.000
473.843; 4718.975;  211.375;    0.000
473.980; 4830.975;  254.375;    0.000
474.117; 4746.975;  185.375;    0.000
474.253; 4825.975;  229.375;    0.000
474.390; 4853.975;  238.375;    0.000
474.527; 4774.975;  220.375;    0.000
474.664; 4832.975;  242.375;    0.000
474.801; 5008.975;  229.375;    0.000
474.937; 4833.975;  229.375;    0.000
475.074; 4831.975;  210.375;    0.000
475.211; 4906.975;  219.375;    0.000
475.348; 5021.975;  226.375;    0.000
475.484; 4933.975;  207.375;    0.000
475.621; 4875.975;  233.375;    0.000
475.758; 4988.975;  230.375;    0.000
475.894; 4942.975;  234.375;    0.000
476.031; 4937.975;  202.375;    0.000
476.168; 5003.975;  222.375;    0.000
476.304; 5042.975;  237.375;    0.000
476.441; 5001.975;  238.375;    0.000
476.578; 4998.975;  216.375;    0.000
476.714; 5071.975;  212.375;    0.000
476.851; 4952.975;  210.375;    0.000
476.987; 5138.975;  239.375;    0.000
477.124; 5063.975;  250.375;    0.000
477.261; 5214.975;  227.375;    0.000
477.397; 5138.975;  189.375;    0.000
477.534; 5129.975;  204.375;    0.000
477.670; 5232.975;  190.375;    0.000
477.807; 5196.975;  198.375;    0.000
477.943; 5342.975;  216.375;    0.000
478.080; 5382.975;  213.375;    0.000
478.216; 5303.975;  239.375;    0.000
478.353; 5289.975;  218.375;    0.000
478.489; 5447.975;  184.375;    0.000
478.626; 5480.975;  223.375;    0.000
478.762; 5536.975;  213.375;    0.000
478.898; 5506.975;  216.375;    0.000
479.035; 5447.975;  250.375;    0.000
479.171; 5550.975;  201.375;    0.000
479.308; 5457.975;  242.375;    0.000
479.444; 5473.975;  205.375;    0.000
479.580; 5660.975;  203.375;    0.000
479.717; 5572.975;  260.375;    0.000
479.853; 5464.975;  225.375;    0.000
479.989; 5577.975;  226.375;    0.000
480.126; 5637.975;  211.375;    0.000
480.262; 5603.975;  220.375;    0.000
480.398; 5625.975;  207.375;    0.000
480.535; 5599.975;  179.375;    0.000
480.671; 5667.975;  200.375;    0.000
480.807; 5555.975;  190.375;    0.000
480.943; 5570.975;  165.375;    0.000
481.080; 5435.975;  210.375;    0.000
481.216; 5598.975;  232.375;    0.000
481.352; 5554.975;  235.375;    0.000
481.488; 5596.975;  208.375;    0.000
481.624; 5546.975;  245.375;    0.000
481.760; 5444.975;  210.375;    0.000
481.897; 5516.975;  189.375;    0.000
482.033; 5402.975;  256.375;    0.000
482.169; 5459.975;  257.375;    0.000
482.305; 5578.975;  199.375;    0.000
482.441; 5395.975;  182.375;    0.000
482.577; 5511.975;  223.375;    0.000
482.713; 5516.975;  243.375;    0.000
482.849; 5480.975;  197.375;    0.000
482.985; 5528.975;  240.375;    0.000
483.121; 5540.975;  210.375;    0.000
483.258; 5594.975;  248.375;    0.000
483.394; 5457.975;  224.375;    0.000
483.530; 5467.975;  209.375;    0.000
483.665; 5577.975;  225.375;    0.000
483.801; 5459.975;  216.375;    0.000
483.937; 5560.975;  211.375;    0.000
484.073; 5577.975;  259.375;    0.000
484.209; 5588.975;  191.375;    0.000
484.345; 5645.975;  239.375;    0.000
484.481; 5654.975;  231.375;    0.000
484.617; 5645.975;  216.375;    0.000
484.753; 5635.975;  180.375;    0.000
484.889; 5753.975;  252.375;    0.000
485.025; 5605.975;  244.375;    0.000
485.161; 5766.975;  242.375;    0.000
485.296; 5751.975;  235.375;    0.000
485.432; 5848.975;  247.375;    0.000
485.568; 5785.975;  203.375;    0.000
485.704; 5583.975;  229.375;    0.000
485.840; 5694.975;  230.375;    0.000
485.975; 5694.975;  266.375;    0.000
486.111; 5737.975;  220.375;    0.000
486.247; 5795.975;  264.375;    0.000
486.383; 5752.975;  213.375;    0.000
486.518; 5718.975;  222.375;    0.000
486.654; 5722.975;  244.375;    0.000
486.790; 5771.975;  273.375;    0.000
486.926; 5706.975;  203.375;    0.000
487.061; 5725.975;  227.375;    0.000
487.197; 5702.975;  210.375;    0.000
487.333; 5640.975;  209.375;    0.000
487.468; 5646.975;  197.375;    0.000
487.604; 5636.975;  230.375;    0.000
487.740; 5639.975;  254.375;    0.000
487.875; 5650.975;  286.375;    0.000
488.011; 5661.975;  225.375;    0.000
488.146; 5652.975;  251.375;    0.000
488.282; 5559.975;  242.375;    0.000
488.417; 5708.975;  230.375;    0.000
488.553; 5690.975;  260.375;    0.000
488.688; 5681.975;  207.375;    0.000
488.824; 5647.975;  204.375;    0.000
488.960; 5562.975;  248.375;    0.000
489.095; 5799.975;  204.375;    0.000
489.230; 5584.975;  227.375;    0.000
489.366; 5683.975;  226.375;    0.000
489.501; 5798.975;  199.375;    0.000
489.637; 5660.975;  233.375;    0.000
489.772; 5730.975;  249.375;    0.000
489.908; 5681.975;  200.375;    0.000
490.043; 5822.975;  246.375;    0.000
490.178; 5780.975;  222.375;    0.000
490.314; 5931.975;  219.375;    0.000
490.449; 5730.975;  227.375;    0.000
490.585; 5667.975;  209.375;    0.000
490.720; 5726.975;  238.375;    0.000
490.855; 5609.975;  222.375;    0.000
490.991; 5756.975;  202.375;    0.000
491.126; 5802.975;  272.375;    0.000
491.261; 5616.975;  261.375;    0.000
491.396; 5736.975;  190.375;    0.000
491.532; 5583.975;  202.375;    0.000
491.667; 5599.975;  208.375;    0.000
491.802; 5734.975;  203.375;    0.000
491.937; 5761.975;  253.375;    0.000
492.073; 5679.975;  242.375;    0.000
492.208; 5742.975;  230.375;    0.000
492.343; 5660.975;  183.375;    0.000
492.478; 5664.975;  246.375;    0.000
492.613; 5701.975;  223.375;    0.000
492.749; 5740.975;  230.375;    0.000
492.884; 5642.975;  190.375;    0.000
493.019; 5739.975;  234.375;    0.000
493.154; 5707.975;  218.375;    0.000
493.289; 5715.975;  222.375;    0.000
493.424; 5721.975;  196.375;    0.000
493.559; 5798.975;  202.375;    0.000
493.694; 5716.975;  180.375;    0.000
493.829; 5650.975;  224.375;    0.000
493.964; 5818.975;  218.375;    0.000
494.099; 5741.975;  275.375;    0.000
494.234; 5700.975;  226.375;    0.000
494.369; 5825.975;  225.375;    0.000
494.504; 5688.975;  219.375;    0.000
494.639; 5706.975;  296.375;    0.000
494.774; 5731.975;  228.375;    0.000
494.909; 5823.975;  222.375;    0.000
495.044; 5609.975;  215.375;    0.000
495.179; 5729.975;  200.375;    0.000
495.314; 5676.975;  235.375;    0.000
495.449; 5726.975;  249.375;    0.000
495.584; 5726.975;  228.375;    0.000
495.719; 5685.975;  212.375;    0.000
495.854; 5791.975;  201.375;    0.000
495.988; 5751.975;  248.375;    0.000
496.123; 5878.975;  209.375;    0.000
496.258; 5876.975;  249.375;    0.000
496.393; 5923.975;  223.375;    0.000
496.528; 5968.975;  209.375;    0.000
496.663; 5858.975;  207.375;    0.000
496.797; 5966.975;  229.375;    0.000
496.932; 5953.975;  225.375;    0.000
497.067; 6028.975;  218.375;    0.000
497.202; 6011.975;  163.375;    0.000
497.336; 6078.975;  246.375;    0.000
497.471; 6100.975;  229.375;    0.000
497.606; 6171.975;  251.375;    0.000
497.740; 6395.975;  220.375;    0.000
497.875; 6398.975;  216.375;    0.000
498.010; 6506.975;  226.375;    0.000
498.144; 6515.975;  237.375;    0.000
498.279; 6474.975;  196.375;    0.000
498.414; 6690.975;  219.375;    0.000
498.548; 6918.975;  205.375;    0.000
498.683; 6880.975;  206.375;    0.000
498.817; 7088.975;  225.375;    0.000
498.952; 7344.975;  221.375;    0.000
499.087; 7478.975;  220.375;    0.000
499.221; 7642.975;  233.375;    0.000
499.356; 7825.975;  230.375;    0.000
499.490; 8019.975;  229.375;    0.000
499.625; 8159.975;  231.375;    0.000
499.759; 8368.975;  243.375;    0.000
499.894; 8684.975;  241.375;    0.000
500.028; 8999.975;  264.375;    0.000
500.162; 9128.975;  287.375;    0.000
500.297; 9334.975;  234.375;    0.000
500.431; 9253.975;  230.375;    0.000
500.566; 9281.975;  213.375;    0.000
500.700; 9168.975;  243.375;    0.000
500.835; 8923.975;  272.375;    0.000
500.969; 8752.975;  188.375;    0.000
501.103; 8521.975;  200.375;    0.000
501.238; 8349.975;  257.375;    0.000
501.372; 8109.975;  224.375;    0.000
501.506; 7800.975;  225.375;    0.000
501.641; 7691.975;  271.375;    0.000
501.775; 7343.975;  199.375;    0.000
501.909; 7239.975;  249.375;    0.000
502.043; 7211.975;  211.375;    0.000
502.178; 7051.975;  269.375;    0.000
502.312; 6784.975;  198.375;    0.000
502.446; 6692.975;  256.375;    0.000
502.580; 6684.975;  195.375;    0.000
502.715; 6388.975;  224.375;    0.000
502.849; 6410.975;  245.375;    0.000
502.983; 6245.975;  250.375;    0.000
503.117; 6177.975;  193.375;    0.000
503.251; 6263.975;  242.375;    0.000
503.385; 6043.975;  227.375;    0.000
503.520; 6004.975;  235.375;    0.000
503.654; 5911.975;  220.375;    0.000
503.788; 5863.975;  267.375;    0.000
503.922; 5776.975;  220.375;    0.000
504.056; 5792.975;  238.375;    0.000
504.190; 5731.975;  212.375;    0.000
504.324; 5668.975;  265.375;    0.000
504.458; 5596.975;  228.375;    0.000
504.592; 5591.975;  231.375;    0.000
504.726; 5607.975;  218.375;    0.000
504.860; 5550.975;  253.375;    0.000
504.994; 5489.975;  217.375;    0.000
505.128; 5397.975;  243.375;    0.000
505.262; 5230.975;  194.375;    0.000
505.396; 5194.975;  210.375;    0.000
505.530; 5150.975;  211.375;    0.000
505.664; 5141.975;  219.375;    0.000
505.798; 5107.975;  240.375;    0.000
505.932; 4900.975;  240.375;    0.000
506.066; 5080.975;  252.375;    0.000
506.199; 4892.975;  242.375;    0.000
506.333; 4907.975;  244.375;    0.000
506.467; 4848.975;  223.375;    0.000
506.601; 4733.975;  183.375;    0.000
506.735; 4789.975;  249.375;    0.000
506.869; 4733.975;  270.375;    0.000
507.002; 4670.975;  207.375;    0.000
507.136; 4725.975;  242.375;    0.000
507.270; 4681.975;  232.375;    0.000
507.404; 4741.975;  195.375;    0.000
507.537; 4573.975;  218.375;    0.000
507.671; 4646.975;  246.375;    0.000
507.805; 4583.975;  244.375;    0.000
507.939; 4563.975;  251.375;    0.000
508.072; 4555.975;  212.375;    0.000
508.206; 4525.975;  198.375;    0.000
508.340; 4470.975;  234.375;    0.000
508.473; 4630.975;  217.375;    0.000
508.607; 4450.975;  224.375;    0.000
508.740; 4452.975;  207.375;    0.000
508.874; 4523.975;  230.375;    0.000
509.008; 4472.975;  246.375;    0.000
509.141; 4414.975;  239.375;    0.000
509.275; 4394.975;  229.375;    0.000
509.408; 4393.975;  234.375;    0.000
509.542; 4392.975;  212.375;    0.000
509.675; 4403.975;  256.375;    0.000
509.809; 4328.975;  232.375;    0.000
509.942; 4330.975;  237.375;    0.000
510.076; 4189.975;  226.375;    0.000
510.209; 4289.975;  251.375;    0.000
510.343; 4398.975;  229.375;    0.000
510.476; 4341.975;  285.375;    0.000
510.610; 4306.975;  211.375;    0.000
510.743; 4231.975;  258.375;    0.000
510.877; 4231.975;  244.375;    0.000
511.010; 4276.975;  235.375;    0.000
511.143; 4087.975;  251.375;    0.000
511.277; 4228.975;  228.375;    0.000
511.410; 4232.975;  216.375;    0.000
511.543; 4222.975;  231.375;    0.000
511.677; 4143.975;  244.375;    0.000
511.810; 4136.975;  186.375;    0.000
511.943; 4103.975;  211.375;    0.000
512.077; 4275.975;  201.375;    0.000
512.210; 4108.975;  194.375;    0.000
512.343; 4124.975;  233.375;    0.000
512.476; 4159.975;  234.375;    0.000
512.610; 4184.975;  224.375;    0.000
512.743; 4168.975;  255.375;    0.000
512.876; 4187.975;  264.375;    0.000
513.009; 4299.975;  283.375;    0.000
513.142; 4200.975;  246.375;    0.000
513.276; 4133.975;  217.375;    0.000
513.409; 4177.975;  222.375;    0.000
513.542; 4034.975;  237.375;    0.000
513.675; 4152.975;  238.375;    0.000
513.808; 4143.975;  220.375;    0.000
513.941; 4111.975;  233.375;    0.000
514.074; 4213.975;  248.375;    0.000
514.207; 4122.975;  233.375;    0.000
514.340; 4177.975;  190.375;    0.000
514.474; 4168.975;  221.375;    0.000
514.607; 4218.975;  213.375;    0.000
514.740; 4273.975;  251.375;    0.000
514.873; 4212.975;  257.375;    0.000
515.006; 4169.975;  268.375;    0.000
515.139; 4153.975;  257.375;    0.000
515.272; 4150.975;  227.375;    0.000
515.404; 4265.975;  238.375;    0.000
515.537; 4261.975;  275.375;    0.000
515.670; 4209.975;  239.375;    0.000
515.803; 4221.975;  223.375;    0.000
515.936; 4322.975;  202.375;    0.000
516.069; 4425.975;  188.375;    0.000
516.202; 4447.975;  240.375;    0.000
516.335; 4491.975;  252.375;    0.000
516.468; 4663.975;  254.375;    0.000
516.600; 5420.975;  254.375;    0.000
516.733; 6607.975;  255.375;    0.000
516.866; 6360.975;  265.375;    0.000
516.999; 5788.975;  251.375;    0.000
517.132; 7084.975;  256.375;    0.000
517.264; 9583.975;  202.375;    0.000
517.397; 9040.975;  248.375;    0.000
517.530; 6873.975;  221.375;    0.000
517.663; 5949.975;  244.375;    0.000
517.795; 5581.975;  245.375;    0.000
517.928; 5406.975;  236.375;    0.000
518.061; 5569.975;  219.375;    0.000
518.193; 7135.975;  251.375;    0.000
518.326;10709.975;  271.375;    0.000
518.459;10877.975;  207.375;    0.000
518.591; 8090.975;  217.375;    0.000
518.724; 6409.975;  200.375;    0.000
518.857; 5706.975;  204.375;    0.000
518.989; 5417.975;  242.375;    0.000
519.122; 5095.975;  254.375;    0.000
519.254; 4856.975;  239.375;    0.000
519.387; 4687.975;  235.375;    0.000
519.519; 4610.975;  227.375;    0.000
519.652; 4545.975;  178.375;    0.000
519.784; 4302.975;  226.375;    0.000
519.917; 4253.975;  256.375;    0.000
520.049; 4250.975;  234.375;    0.000
520.182; 4190.975;  258.375;    0.000
520.314; 4225.975;  298.375;    0.000
520.447; 4176.975;  204.375;    0.000
520.579; 4111.975;  235.375;    0.000
520.712; 4068.975;  208.375;    0.000
520.844; 4022.975;  272.375;    0.000
520.976; 3981.975;  234.375;    0.000
521.109; 4031.975;  235.375;    0.000
521.241; 3950.975;  250.375;    0.000
521.373; 3913.975;  233.375;    0.000
521.506; 3812.975;  231.375;    0.000
521.638; 3921.975;  258.375;    0.000
521.770; 3810.975;  226.375;    0.000
521.903; 3794.975;  258.375;    0.000
522.035; 3935.975;  263.375;    0.000
522.167; 3775.975;  214.375;    0.000
522.300; 3791.975;  212.375;    0.000
522.432; 3760.975;  220.375;    0.000
522.564; 3804.975;  228.375;    0.000
522.696; 3716.975;  272.375;    0.000
522.828; 3738.975;  222.375;    0.000
522.961; 3738.975;  205.375;    0.000
523.093; 3785.975;  253.375;    0.000
523.225; 3705.975;  239.375;    0.000
523.357; 3703.975;  263.375;    0.000
523.489; 3700.975;  264.375;    0.000
523.621; 3660.975;  259.375;    0.000
523.753; 3579.975;  233.375;    0.000
523.885; 3619.975;  232.375;    0.000
524.018; 3530.975;  214.375;    0.000
524.150; 3657.975;  235.375;    0.000
524.282; 3609.975;  242.375;    0.000
524.414; 3678.975;  261.375;    0.000
524.546; 3558.975;  233.375;    0.000
524.678; 3526.975;  242.375;    0.000
524.810; 3475.975;  216.375;    0.000
524.942; 3547.975;  220.375;    0.000
525.074; 3544.975;  249.375;    0.000
525.206; 3376.975;  227.375;    0.000
525.338; 3498.975;  250.375;    0.000
525.469; 3462.975;  231.375;    0.000
525.601; 3434.975;  245.375;    0.000
525.733; 3415.975;  187.375;    0.000
525.865; 3375.975;  280.375;    0.000
525.997; 3464.975;  216.375;    0.000
526.129; 3538.975;  228.375;    0.000
526.261; 3436.975;  187.375;    0.000
526.393; 3404.975;  228.375;    0.000
526.524; 3396.975;  201.375;    0.000
526.656; 3441.975;  199.375;    0.000
526.788; 3442.975;  233.375;    0.000
526.920; 3319.975;  256.375;    0.000
527.052; 3263.975;  219.375;    0.000
527.183; 3323.975;  227.375;    0.000
527.315; 3385.975;  266.375;    0.000
527.447; 3322.975;  239.375;    0.000
527.578; 3402.975;  213.375;    0.000
527.710; 3396.975;  216.375;    0.000
527.842; 3392.975;  240.375;    0.000
527.973; 3371.975;  286.375;    0.000
528.105; 3298.975;  222.375;    0.000
528.237; 3344.975;  223.375;    0.000
528.368; 3223.975;  211.375;    0.000
528.500; 3335.975;  215.375;    0.000
528.632; 3348.975;  216.375;    0.000
528.763; 3308.975;  234.375;    0.000
528.895; 3223.975;  196.375;    0.000
529.026; 3324.975;  202.375;    0.000
529.158; 3294.975;  226.375;    0.000
529.289; 3325.975;  229.375;    0.000
529.421; 3395.975;  264.375;    0.000
529.552; 3168.975;  265.375;    0.000
529.684; 3287.975;  260.375;    0.000
529.815; 3366.975;  284.375;    0.000
529.947; 3323.975;  237.375;    0.000
530.078; 3300.975;  223.375;    0.000
530.210; 3375.975;  223.375;    0.000
530.341; 3316.975;  209.375;    0.000
530.472; 3288.975;  203.375;    0.000
530.604; 3340.975;  223.375;    0.000
530.735; 3323.975;  218.375;    0.000
530.867; 3304.975;  222.375;    0.000
530.998; 3351.975;  239.375;    0.000
531.129; 3249.975;  250.375;    0.000
531.260; 3249.975;  224.375;    0.000
531.392; 3420.975;  216.375;    0.000
531.523; 3353.975;  234.375;    0.000
531.654; 3266.975;  256.375;    0.000
531.786; 3301.975;  226.375;    0.000
531.917; 3385.975;  239.375;    0.000
532.048; 3311.975;  205.375;    0.000
532.179; 3299.975;  244.375;    0.000
532.311; 3306.975;  235.375;    0.000
532.442; 3263.975;  258.375;    0.000
532.573; 3279.975;  220.375;    0.000
532.704; 3332.975;  213.375;    0.000
532.835; 3334.975;  249.375;    0.000
532.966; 3302.975;  226.375;    0.000
533.097; 3284.975;  246.375;    0.000
533.229; 3318.975;  237.375;    0.000
533.360; 3333.975;  225.375;    0.000
533.491; 3450.975;  241.375;    0.000
533.622; 3266.975;  242.375;    0.000
533.753; 3321.975;  264.375;    0.000
533.884; 3330.975;  245.375;    0.000
534.015; 3343.975;  269.375;    0.000
534.146; 3352.975;  267.375;    0.000
534.277; 3390.975;  282.375;    0.000
534.408; 3337.975;  229.375;    0.000
534.539; 3290.975;  269.375;    0.000
534.670; 3444.975;  231.375;    0.000
534.801; 3361.975;  260.375;    0.000
534.932; 3228.975;  232.375;    0.000
535.063; 3351.975;  227.375;    0.000
535.194; 3282.975;  281.375;    0.000
535.324; 3161.975;  206.375;    0.000
535.455; 3321.975;  257.375;    0.000
535.586; 3195.975;  275.375;    0.000
535.717; 3296.975;  206.375;    0.000
535.848; 3276.975;  271.375;    0.000
535.979; 3305.975;  250.375;    0.000
536.109; 3269.975;  253.375;    0.000
536.240; 3222.975;  234.375;    0.000
536.371; 3223.975;  230.375;    0.000
536.502; 3345.975;  270.375;    0.000
536.632; 3229.975;  228.375;    0.000
536.763; 3313.975;  249.375;    0.000
536.894; 3220.975;  262.375;    0.000
537.025; 3196.975;  258.375;    0.000
537.155; 3269.975;  278.375;    0.000
537.286; 3275.975;  209.375;    0.000
537.417; 3291.975;  255.375;    0.000
537.547; 3119.975;  208.375;    0.000
537.678; 3161.975;  224.375;    0.000
537.808; 3211.975;  224.375;    0.000
537.939; 3138.975;  257.375;    0.000
538.070; 3178.975;  240.375;    0.000
538.200; 3252.975;  259.375;    0.000
538.331; 3187.975;  235.375;    0.000
538.461; 3164.975;  251.375;    0.000
538.592; 3164.975;  245.375;    0.000
538.722; 3224.975;  239.375;    0.000
538.853; 3251.975;  216.375;    0.000
538.983; 3112.975;  226.375;    0.000
539.114; 3159.975;  240.375;    0.000
539.244; 3091.975;  237.375;    0.000
539.375; 3181.975;  198.375;    0.000
539.505; 3118.975;  263.375;    0.000
539.636; 3163.975;  226.375;    0.000
539.766; 3180.975;  229.375;    0.000
539.896; 3164.975;  219.375;    0.000
540.027; 3169.975;  246.375;    0.000
540.157; 3158.975;  218.375;    0.000
540.287; 3130.975;  216.375;    0.000
540.418; 3195.975;  267.375;    0.000
540.548; 3287.975;  260.375;    0.000
540.678; 3049.975;  242.375;    0.000
540.809; 3220.975;  260.375;    0.000
540.939; 3186.975;  257.375;    0.000
541.069; 3134.975;  226.375;    0.000
541.200; 3072.975;  227.375;    0.000
541.330; 3215.975;  218.375;    0.000
541.460; 3185.975;  223.375;    0.000
541.590; 3106.975;  237.375;    0.000
541.720; 3150.975;  222.375;    0.000
541.851; 3209.975;  250.375;    0.000
541.981; 3242.975;  222.375;    0.000
542.111; 3241.975;  212.375;    0.000
542.241; 3260.975;  205.375;    0.000
542.371; 3168.975;  202.375;    0.000
542.501; 3205.975;  218.375;    0.000
542.631; 3184.975;  222.375;    0.000
542.761; 3339.975;  249.375;    0.000
542.891; 3287.975;  173.375;    0.000
543.021; 3235.975;  218.375;    0.000
543.151; 3303.975;  222.375;    0.000
543.281; 3203.975;  188.375;    0.000
543.411; 3292.975;  239.375;    0.000
543.542; 3258.975;  215.375;    0.000
543.671; 3290.975;  250.375;    0.000
543.801; 3252.975;  212.375;    0.000
543.931; 3234.975;  233.375;    0.000
544.061; 3285.975;  194.375;    0.000
544.191; 3288.975;  218.375;    0.000
544.321; 3310.975;  220.375;    0.000
544.451; 3219.975;  183.375;    0.000
544.581; 3200.975;  221.375;    0.000
544.711; 3369.975;  224.375;    0.000
544.841; 3333.975;  214.375;    0.000
544.970; 3342.975;  227.375;    0.000
545.100; 3228.975;  186.375;    0.000
545.230; 3331.975;  205.375;    0.000
545.360; 3297.975;  211.375;    0.000
545.490; 3297.975;  202.375;    0.000
545.619; 3266.975;  182.375;    0.000
545.749; 3307.975;  174.375;    0.000
545.879; 3222.975;  169.375;    0.000
546.009; 3281.975;  182.375;    0.000
546.138; 3257.975;  200.375;    0.000
546.268; 3270.975;  204.375;    0.000
546.398; 3192.975;  200.375;    0.000
546.527; 3280.975;  179.375;    0.000
546.657; 3293.975;  162.375;    0.000
546.786; 3305.975;  179.375;    0.000
546.916; 3282.975;  221.375;    0.000
547.046; 3309.975;  179.375;    0.000
547.175; 3381.975;  168.375;    0.000
547.305; 3219.975;  200.375;    0.000
547.434; 3269.975;  166.375;    0.000
547.564; 3290.975;  177.375;    0.000
547.693; 3231.975;  152.375;    0.000
547.823; 3171.975;  171.375;    0.000
547.953; 3348.975;  195.375;    0.000
548.082; 3319.975;  214.375;    0.000
548.211; 3254.975;  177.375;    0.000
548.341; 3212.975;  189.375;    0.000
548.470; 3188.975;  194.375;    0.000
548.600; 3327.975;  172.375;    0.000
548.729; 3174.975;  158.375;    0.000
548.859; 3198.975;  193.375;    0.000
548.988; 3199.975;  131.375;    0.000
549.117; 3353.975;  204.375;    0.000
549.247; 3292.975;  191.375;    0.000
549.376; 3224.975;  202.375;    0.000
549.505; 3330.975;  187.375;    0.000
549.635; 3380.975;  198.375;    0.000
549.764; 3371.975;  155.375;    0.000
549.893; 3333.975;  176.375;    0.000
550.023; 3289.975;  202.375;    0.000
550.152; 3340.975;  168.375;    0.000
550.281; 3405.975;  180.375;    0.000
550.410; 3274.975;  180.375;    0.000
550.539; 3421.975;  181.375;    0.000
550.669; 3363.975;  168.375;    0.000
550.798; 3407.975;  223.375;    0.000
550.927; 3365.975;  179.375;    0.000
551.056; 3392.975;  159.375;    0.000
551.185; 3397.975;  199.375;    0.000
551.314; 3310.975;  185.375;    0.000
551.443; 3424.975;  172.375;    0.000
551.573; 3495.975;  158.375;    0.000
551.702; 3391.975;  210.375;    0.000
551.831; 3389.975;  238.375;    0.000
551.960; 3502.975;  191.375;    0.000
552.089; 3463.975;  195.375;    0.000
552.218; 3526.975;  196.375;    0.000
552.347; 3486.975;  194.375;    0.000
552.476; 3397.975;  192.375;    0.000
552.605; 3366.975;  172.375;    0.000
552.734; 3642.975;  214.375;    0.000
552.863; 3672.975;  177.375;    0.000
552.992; 3630.975;  190.375;    0.000
553.121; 3637.975;  185.375;    0.000
553.249; 3602.975;  175.375;    0.000
553.378; 3640.975;  192.375;    0.000
553.507; 3531.975;  193.375;    0.000
553.636; 3444.975;  182.375;    0.000
553.765; 3517.975;  187.375;    0.000
553.894; 3470.975;  214.375;    0.000
554.023; 3559.975;  217.375;    0.000
554.151; 3486.975;  223.375;    0.000
554.280; 3373.975;  170.375;    0.000
554.409; 3427.975;  172.375;    0.000
554.538; 3500.975;  182.375;    0.000
554.666; 3448.975;  195.375;    0.000
554.795; 3372.975;  176.375;    0.000
554.924; 3465.975;  164.375;    0.000
555.052; 3390.975;  171.375;    0.000
555.181; 3373.975;  208.375;    0.000
555.310; 3415.975;  214.375;    0.000
555.439; 3477.975;  193.375;    0.000
555.567; 3365.975;  189.375;    0.000
555.696; 3216.975;  196.375;    0.000
555.824; 3297.975;  183.375;    0.000
555.953; 3378.975;  234.375;    0.000
556.082; 3275.975;  183.375;    0.000
556.210; 3335.975;  199.375;    0.000
556.339; 3359.975;  201.375;    0.000
556.467; 3239.975;  208.375;    0.000
556.596; 3216.975;  194.375;    0.000
556.724; 3248.975;  170.375;    0.000
556.853; 3242.975;  166.375;    0.000
556.981; 3266.975;  185.375;    0.000
557.110; 3186.975;  213.375;    0.000
557.238; 3185.975;  188.375;    0.000
557.367; 3247.975;  176.375;    0.000
557.495; 3324.975;  180.375;    0.000
557.623; 3194.975;  193.375;    0.000
557.752; 3252.975;  207.375;    0.000
557.880; 3251.975;  189.375;    0.000
558.008; 3228.975;  169.375;    0.000
558.137; 3311.975;  203.375;    0.000
558.265; 3246.975;  167.375;    0.000
558.393; 3233.975;  204.375;    0.000
558.522; 3198.975;  203.375;    0.000
558.650; 3313.975;  215.375;    0.000
558.778; 3358.975;  190.375;    0.000
558.906; 3150.975;  186.375;    0.000
559.035; 3235.975;  193.375;    0.000
559.163; 3156.975;  198.375;    0.000
559.291; 3273.975;  222.375;    0.000
559.419; 3298.975;  192.375;    0.000
559.548; 3238.975;  186.375;    0.000
559.676; 3256.975;  199.375;    0.000
559.804; 3235.975;  186.375;    0.000
559.932; 3215.975;  202.375;    0.000
560.060; 3262.975;  183.375;    0.000
560.188; 3324.975;  212.375;    0.000
560.316; 3243.975;  192.375;    0.000
560.444; 3330.975;  180.375;    0.000
560.572; 3346.975;  206.375;    0.000
560.700; 3334.975;  184.375;    0.000
560.828; 3295.975;  177.375;    0.000
560.956; 3306.975;  221.375;    0.000
561.085; 3324.975;  227.375;    0.000
561.212; 3260.975;  208.375;    0.000
561.340; 3316.975;  189.375;    0.000
561.468; 3418.975;  189.375;    0.000
561.596; 3430.975;  183.375;    0.000
561.724; 3393.975;  188.375;    0.000
561.852; 3447.975;  183.375;    0.000
561.980; 3427.975;  209.375;    0.000
562.108; 3386.975;  165.375;    0.000
562.236; 3500.975;  188.375;    0.000
562.364; 3407.975;  177.375;    0.000
562.492; 3412.975;  192.375;    0.000
562.619; 3380.975;  187.375;    0.000
562.747; 3504.975;  217.375;    0.000
562.875; 3567.975;  221.375;    0.000
563.003; 3458.975;  199.375;    0.000
563.130; 3461.975;  191.375;    0.000
563.258; 3461.975;  186.375;    0.000
563.386; 3479.975;  191.375;    0.000
563.514; 3576.975;  217.375;    0.000
563.641; 3516.975;  220.375;    0.000
563.769; 3625.975;  186.375;    0.000
563.897; 3659.975;  158.375;    0.000
564.024; 3598.975;  192.375;    0.000
564.152; 3695.975;  217.375;    0.000
564.280; 3727.975;  203.375;    0.000
564.407; 3675.975;  190.375;    0.000
564.535; 3708.975;  188.375;    0.000
564.662; 3780.975;  199.375;    0.000
564.790; 3756.975;  227.375;    0.000
564.917; 3814.975;  160.375;    0.000
565.045; 3918.975;  222.375;    0.000
565.173; 3841.975;  169.375;    0.000
565.300; 3939.975;  208.375;    0.000
565.428; 3925.975;  174.375;    0.000
565.555; 3870.975;  201.375;    0.000
565.682; 3950.975;  180.375;    0.000
565.810; 4055.975;  165.375;    0.000
565.937; 4172.975;  167.375;    0.000
566.065; 4215.975;  190.375;    0.000
566.192; 4208.975;  169.375;    0.000
566.320; 4296.975;  167.375;    0.000
566.447; 4440.975;  151.375;    0.000
566.574; 4391.975;  176.375;    0.000
566.702; 4466.975;  198.375;    0.000
566.829; 4419.975;  209.375;    0.000
566.956; 4607.975;  186.375;    0.000
567.083; 4721.975;  188.375;    0.000
567.211; 4544.975;  159.375;    0.000
567.338; 4682.975;  204.375;    0.000
567.465; 4658.975;  141.375;    0.000
567.593; 4738.975;  168.375;    0.000
567.720; 4863.975;  177.375;    0.000
567.847; 4755.975;  160.375;    0.000
567.974; 4648.975;  139.375;    0.000
568.101; 4484.975;  153.375;    0.000
568.228; 4718.975;  173.375;    0.000
568.356; 4502.975;  149.375;    0.000
568.483; 4296.975;  185.375;    0.000
568.610; 4427.975;  170.375;    0.000
568.737; 4423.975;  223.375;    0.000
568.864; 4400.975;  167.375;    0.000
568.991; 4238.975;  177.375;    0.000
569.118; 4161.975;  169.375;    0.000
569.245; 3970.975;  128.375;    0.000
569.372; 3902.975;  160.375;    0.000
569.499; 3907.975;  156.375;    0.000
569.626; 3798.975;  191.375;    0.000
569.753; 3769.975;  163.375;    0.000
569.880; 3690.975;  167.375;    0.000
570.007; 3778.975;  143.375;    0.000
570.134; 3652.975;  191.375;    0.000
570.261; 3746.975;  164.375;    0.000
570.388; 3707.975;  162.375;    0.000
570.515; 3692.975;  220.375;    0.000
570.642; 3688.975;  184.375;    0.000
570.768; 3607.975;  174.375;    0.000
570.895; 3718.975;  177.375;    0.000
571.022; 3604.975;  152.375;    0.000
571.149; 3655.975;  183.375;    0.000
571.276; 3585.975;  153.375;    0.000
571.402; 3660.975;  190.375;    0.000
571.529; 3568.975;  187.375;    0.000
571.656; 3533.975;  167.375;    0.000
571.783; 3604.975;  186.375;    0.000
571.909; 3515.975;  183.375;    0.000
572.036; 3467.975;  162.375;    0.000
572.163; 3369.975;  196.375;    0.000
572.289; 3543.975;  180.375;    0.000
572.416; 3293.975;  190.375;    0.000
572.543; 3422.975;  174.375;    0.000
572.669; 3468.975;  186.375;    0.000
572.796; 3361.975;  205.375;    0.000
572.922; 3420.975;  185.375;    0.000
573.049; 3281.975;  178.375;    0.000
573.176; 3320.975;  196.375;    0.000
573.302; 3281.975;  202.375;    0.000
573.429; 3407.975;  189.375;    0.000
573.555; 3385.975;  145.375;    0.000
573.682; 3351.975;  228.375;    0.000
573.808; 3349.975;  197.375;    0.000
573.935; 3317.975;  216.375;    0.000
574.061; 3270.975;  173.375;    0.000
574.188; 3361.975;  151.375;    0.000
574.314; 3370.975;  181.375;    0.000
574.440; 3357.975;  167.375;    0.000
574.567; 3313.975;  185.375;    0.000
574.693; 3234.975;  173.375;    0.000
574.820; 3359.975;  164.375;    0.000
574.946; 3444.975;  199.375;    0.000
575.072; 3297.975;  162.375;    0.000
575.198; 3355.975;  225.375;    0.000
575.325; 3346.975;  171.375;    0.000
575.451; 3278.975;  183.375;    0.000
575.577; 3209.975;  190.375;    0.000
575.704; 3343.975;  210.375;    0.000
575.830; 3344.975;  185.375;    0.000
575.956; 3280.975;  168.375;    0.000
576.082; 3252.975;  158.375;    0.000
576.208; 3239.975;  158.375;    0.000
576.335; 3176.975;  196.375;    0.000
576.461; 3191.975;  187.375;    0.000
576.587; 3259.975;  157.375;    0.000
576.713; 3185.975;  156.375;    0.000
576.839; 3184.975;  196.375;    0.000
576.965; 3237.975;  187.375;    0.000
577.091; 3266.975;  204.375;    0.000
577.217; 3246.975;  207.375;    0.000
577.343; 3177.975;  175.375;    0.000
577.469; 3221.975;  197.375;    0.000
577.596; 3183.975;  182.375;    0.000
577.722; 3216.975;  159.375;    0.000
577.848; 3078.975;  162.375;    0.000
577.974; 3181.975;  180.375;    0.000
578.099; 3143.975;  161.375;    0.000
578.225; 3158.975;  180.375;    0.000
578.351; 3171.975;  190.375;    0.000
578.477; 3184.975;  212.375;    0.000
578.603; 3215.975;  179.375;    0.000
578.729; 3144.975;  195.375;    0.000
578.855; 3146.975;  153.375;    0.000
578.981; 3150.975;  162.375;    0.000
579.107; 3181.975;  149.375;    0.000
579.232; 3146.975;  164.375;    0.000
579.358; 3197.975;  162.375;    0.000
579.484; 3184.975;  181.375;    0.000
579.610; 3194.975;  190.375;    0.000
579.735; 3115.975;  191.375;    0.000
579.861; 3142.975;  189.375;    0.000
579.987; 3223.975;  202.375;    0.000
580.113; 3213.975;  197.375;    0.000
580.238; 3162.975;  228.375;    0.000
580.364; 3208.975;  212.375;    0.000
580.490; 3244.975;  225.375;    0.000
580.615; 3138.975;  218.375;    0.000
580.741; 3203.975;  167.375;    0.000
580.867; 3238.975;  215.375;    0.000
580.992; 3157.975;  191.375;    0.000
581.118; 3211.975;  171.375;    0.000
581.243; 3202.975;  204.375;    0.000
581.369; 3212.975;  186.375;    0.000
581.494; 3106.975;  184.375;    0.000
581.620; 3195.975;  212.375;    0.000
581.745; 3252.975;  192.375;    0.000
581.871; 3192.975;  195.375;    0.000
581.996; 3205.975;  160.375;    0.000
582.122; 3378.975;  217.375;    0.000
582.247; 3148.975;  213.375;    0.000
582.373; 3261.975;  187.375;    0.000
582.498; 3291.975;  208.375;    0.000
582.624; 3223.975;  189.375;    0.000
582.749; 3204.975;  185.375;    0.000
582.874; 3083.975;  195.375;    0.000
583.000; 3109.975;  208.375;    0.000
583.125; 3154.975;  147.375;    0.000
583.250; 3176.975;  201.375;    0.000
583.376; 3221.975;  191.375;    0.000
583.501; 3234.975;  206.375;    0.000
583.626; 3091.975;  167.375;    0.000
583.751; 3230.975;  180.375;    0.000
583.877; 3169.975;  185.375;    0.000
584.002; 3213.975;  186.375;    0.000
584.127; 3128.975;  176.375;    0.000
584.252; 3268.975;  214.375;    0.000
584.377; 3160.975;  225.375;    0.000
584.503; 3305.975;  195.375;    0.000
584.628; 3163.975;  206.375;    0.000
584.753; 3151.975;  181.375;    0.000
584.878; 3075.975;  136.375;    0.000
585.003; 3189.975;  215.375;    0.000
585.128; 3269.975;  206.375;    0.000
585.253; 3352.975;  200.375;    0.000
585.378; 3234.975;  169.375;    0.000
585.503; 3240.975;  191.375;    0.000
585.628; 3149.975;  182.375;    0.000
585.753; 3263.975;  164.375;    0.000
585.878; 3139.975;  123.375;    0.000
586.003; 3206.975;  187.375;    0.000
586.128; 3241.975;  198.375;    0.000
586.253; 3265.975;  172.375;    0.000
586.378; 3186.975;  191.375;    0.000
586.503; 3234.975;  190.375;    0.000
586.628; 3226.975;  178.375;    0.000
586.753; 3271.975;  184.375;    0.000
586.878; 3311.975;  169.375;    0.000
587.003; 3332.975;  186.375;    0.000
587.127; 3340.975;  170.375;    0.000
587.252; 3244.975;  170.375;    0.000
587.377; 3290.975;  181.375;    0.000
587.502; 3402.975;  209.375;    0.000
587.627; 3499.975;  210.375;    0.000
587.751; 3475.975;  212.375;    0.000
587.876; 3419.975;  198.375;    0.000
588.001; 3590.975;  161.375;    0.000
588.125; 3614.975;  191.375;    0.000
588.250; 3684.975;  132.375;    0.000
588.375; 3988.975;  183.375;    0.000
588.499; 4208.975;  176.375;    0.000
588.624; 4626.975;  173.375;    0.000
588.749; 5994.975;  204.375;    0.000
588.873; 8923.975;  179.375;    0.000
588.998;12131.975;  182.375;    0.000
589.122;10673.975;  165.375;    0.000
589.247; 7738.975;  185.375;    0.000
589.372; 6806.975;  199.375;    0.000
589.496; 8788.975;  182.375;    0.000
589.621;10476.975;  158.375;    0.000
589.745; 8391.975;  213.375;    0.000
589.870; 5842.975;  175.375;    0.000
589.994; 4810.975;  194.375;    0.000
590.118; 4375.975;  218.375;    0.000
590.243; 4035.975;  170.375;    0.000
590.367; 3962.975;  189.375;    0.000
590.492; 3728.975;  196.375;    0.000
590.616; 3688.975;  182.375;    0.000
590.740; 3624.975;  210.375;    0.000
590.865; 3696.975;  242.375;    0.000
590.989; 3542.975;  191.375;    0.000
591.114; 3555.975;  167.375;    0.000
591.238; 3479.975;  194.375;    0.000
591.362; 3623.975;  236.375;    0.000
591.486; 3623.975;  194.375;    0.000
591.611; 3606.975;  154.375;    0.000
591.735; 3556.975;  186.375;    0.000
591.859; 3430.975;  148.375;    0.000
591.983; 3632.975;  211.375;    0.000
592.107; 3552.975;  204.375;    0.000
592.232; 3580.975;  194.375;    0.000
592.356; 3655.975;  238.375;    0.000
592.480; 3552.975;  179.375;    0.000
592.604; 3571.975;  192.375;    0.000
592.728; 3627.975;  201.375;    0.000
592.852; 3601.975;  158.375;    0.000
592.976; 3592.975;  152.375;    0.000
593.100; 3537.975;  194.375;    0.000
593.224; 3626.975;  235.375;    0.000
593.349; 3630.975;  233.375;    0.000
593.473; 3579.975;  194.375;    0.000
593.597; 3625.975;  215.375;    0.000
593.721; 3719.975;  212.375;    0.000
593.844; 3690.975;  220.375;    0.000
593.968; 3722.975;  221.375;    0.000
594.092; 3644.975;  150.375;    0.000
594.216; 3669.975;  212.375;    0.000
594.340; 3624.975;  209.375;    0.000
594.464; 3682.975;  207.375;    0.000
594.588; 3696.975;  195.375;    0.000
594.712; 3579.975;  176.375;    0.000
594.836; 3465.975;  219.375;    0.000
594.959; 3499.975;  215.375;    0.000
595.083; 3462.975;  200.375;    0.000
595.207; 3549.975;  206.375;    0.000
595.331; 3426.975;  207.375;    0.000
595.455; 3429.975;  206.375;    0.000
595.578; 3468.975;  204.375;    0.000
595.702; 3382.975;  225.375;    0.000
595.826; 3307.975;  186.375;    0.000
595.949; 3314.975;  196.375;    0.000
596.073; 3411.975;  188.375;    0.000
596.197; 3315.975;  217.375;    0.000
596.320; 3262.975;  225.375;    0.000
596.444; 3320.975;  220.375;    0.000
596.568; 3232.975;  155.375;    0.000
596.691; 3258.975;  195.375;    0.000
596.815; 3234.975;  163.375;    0.000
596.938; 3266.975;  181.375;    0.000
597.062; 3187.975;  201.375;    0.000
597.186; 3219.975;  200.375;    0.000
597.309; 3152.975;  214.375;    0.000
597.433; 3222.975;  176.375;    0.000
597.556; 3182.975;  193.375;    0.000
597.680; 3218.975;  241.375;    0.000
597.803; 3164.975;  185.375;    0.000
597.926; 3137.975;  200.375;    0.000
598.050; 3112.975;  193.375;    0.000
598.173; 3150.975;  219.375;    0.000
598.297; 3136.975;  223.375;    0.000
598.420; 3169.975;  187.375;    0.000
598.543; 3107.975;  205.375;    0.000
598.667; 3039.975;  177.375;    0.000
598.790; 3116.975;  208.375;    0.000
598.913; 3037.975;  170.375;    0.000
599.037; 3101.975;  212.375;    0.000
599.160; 3034.975;  165.375;    0.000
599.283; 3050.975;  211.375;    0.000
599.406; 3093.975;  207.375;    0.000
599.530; 3039.975;  182.375;    0.000
599.653; 3027.975;  215.375;    0.000
599.776; 3104.975;  167.375;    0.000
599.899; 3040.975;  190.375;    0.000
600.022; 3079.975;  182.375;    0.000
600.145; 2976.975;  180.375;    0.000
600.269; 3024.975;  208.375;    0.000
600.392; 2987.975;  214.375;    0.000
600.515; 3067.975;  196.375;    0.000
600.638; 3002.975;  204.375;    0.000
600.761; 3071.975;  209.375;    0.000
600.884; 3047.975;  207.375;    0.000
601.007; 3092.975;  234.375;    0.000
601.130; 2956.975;  183.375;    0.000
601.253; 2964.975;  211.375;    0.000
601.376; 3038.975;  199.375;    0.000
601.499; 2972.975;  190.375;    0.000
601.622; 3039.975;  210.375;    0.000
601.745; 2947.975;  180.375;    0.000
601.868; 3015.975;  204.375;    0.000
601.991; 3018.975;  188.375;    0.000
602.113; 3021.975;  210.375;    0.000
602.236; 2996.975;  194.375;    0.000
602.359; 2944.975;  213.375;    0.000
602.482; 2956.975;  169.375;    0.000
602.605; 2918.975;  189.375;    0.000
602.728; 3025.975;  236.375;    0.000
602.850; 2977.975;  230.375;    0.000
602.973; 2957.975;  187.375;    0.000
603.096; 2989.975;  201.375;    0.000
603.219; 2978.975;  209.375;    0.000
603.341; 3003.975;  209.375;    0.000
603.464; 3013.975;  194.375;    0.000
603.587; 2957.975;  166.375;    0.000
603.709; 2939.975;  175.375;    0.000
603.832; 2970.975;  239.375;    0.000
603.955; 2878.975;  205.375;    0.000
604.077; 2999.975;  196.375;    0.000
604.200; 2945.975;  188.375;    0.000
604.323; 2822.975;  224.375;    0.000
604.445; 2960.975;  182.375;    0.000
604.568; 2946.975;  199.375;    0.000
604.690; 2928.975;  175.375;    0.000
604.813; 2967.975;  211.375;    0.000
604.935; 2934.975;  171.375;    0.000
605.058; 2867.975;  196.375;    0.000
605.180; 2976.975;  194.375;    0.000
605.303; 2979.975;  198.375;    0.000
605.425; 2940.975;  212.375;    0.000
605.547; 2904.975;  238.375;    0.000
605.670; 2934.975;  207.375;    0.000
605.792; 2957.975;  204.375;    0.000
605.915; 2890.975;  198.375;    0.000
606.037; 2919.975;  215.375;    0.000
606.159; 2949.975;  170.375;    0.000
606.282; 2970.975;  194.375;    0.000
606.404; 2901.975;  207.375;    0.000
606.526; 2866.975;  208.375;    0.000
606.648; 2838.975;  174.375;    0.000
606.771; 2877.975;  170.375;    0.000
606.893; 2850.975;  182.375;    0.000
607.015; 2853.975;  180.375;    0.000
607.137; 2898.975;  187.375;    0.000
607.260; 2886.975;  202.375;    0.000
607.382; 2903.975;  226.375;    0.000
607.504; 2942.975;  208.375;    0.000
607.626; 2957.975;  229.375;    0.000
607.748; 2886.975;  170.375;    0.000
607.870; 2866.975;  208.375;    0.000
607.992; 2904.975;  184.375;    0.000
608.114; 2906.975;  213.375;    0.000
608.237; 2905.975;  237.375;    0.000
608.359; 2832.975;  176.375;    0.000
608.481; 2896.975;  173.375;    0.000
608.603; 2871.975;  189.375;    0.000
608.725; 2844.975;  185.375;    0.000
608.847; 2953.975;  239.375;    0.000
608.969; 2825.975;  237.375;    0.000
609.090; 2943.975;  189.375;    0.000
609.212; 2854.975;  147.375;    0.000
609.334; 2905.975;  177.375;    0.000
609.456; 2941.975;  196.375;    0.000
609.578; 2837.975;  199.375;    0.000
609.700; 2938.975;  167.375;    0.000
609.822; 2798.975;  140.375;    0.000
609.944; 2917.975;  225.375;    0.000
610.065; 2879.975;  183.375;    0.000
610.187; 2837.975;  170.375;    0.000
610.309; 2858.975;  210.375;    0.000
610.431; 2900.975;  185.375;    0.000
610.552; 2873.975;  197.375;    0.000
610.674; 2856.975;  188.375;    0.000
610.796; 2853.975;  162.375;    0.000
610.918; 2818.975;  200.375;    0.000
611.039; 2813.975;  209.375;    0.000
611.161; 2911.975;  201.375;    0.000
611.282; 2811.975;  197.375;    0.000
611.404; 2813.975;  220.375;    0.000
611.526; 2780.975;  159.375;    0.000
611.647; 2819.975;  205.375;    0.000
611.769; 2834.975;  161.375;    0.000
611.890; 2826.975;  173.375;    0.000
612.012; 2841.975;  225.375;    0.000
612.133; 2787.975;  188.375;    0.000
612.255; 2818.975;  217.375;    0.000
612.377; 2854.975;  219.375;    0.000
612.498; 2762.975;  177.375;    0.000
612.619; 2817.975;  211.375;    0.000
612.741; 2852.975;  185.375;    0.000
612.862; 2766.975;  191.375;    0.000
612.984; 2814.975;  190.375;    0.000
613.105; 2794.975;  211.375;    0.000
613.226; 2821.975;  174.375;    0.000
613.348; 2899.975;  235.375;    0.000
613.469; 2848.975;  230.375;    0.000
613.590; 2862.975;  208.375;    0.000
613.712; 2892.975;  244.375;    0.000
613.833; 2771.975;  202.375;    0.000
613.954; 2860.975;  228.375;    0.000
614.076; 2845.975;  220.375;    0.000
614.197; 2782.975;  191.375;    0.000
614.318; 2869.975;  201.375;    0.000
614.439; 2858.975;  212.375;    0.000
614.560; 2759.975;  219.375;    0.000
614.682; 2779.975;  189.375;    0.000
614.803; 2792.975;  188.375;    0.000
614.924; 2821.975;  225.375;    0.000
615.045; 2806.975;  227.375;    0.000
615.166; 2860.975;  200.375;    0.000
615.287; 2802.975;  195.375;    0.000
615.408; 2767.975;  199.375;    0.000
615.529; 2765.975;  227.375;    0.000
615.650; 2886.975;  176.375;    0.000
615.771; 2795.975;  211.375;    0.000
615.892; 2758.975;  212.375;    0.000
616.013; 2828.975;  172.375;    0.000
616.134; 2855.975;  220.375;    0.000
616.255; 2862.975;  251.375;    0.000
616.376; 2814.975;  186.375;    0.000
616.497; 2814.975;  201.375;    0.000
616.618; 2831.975;  149.375;    0.000
616.739; 2804.975;  213.375;    0.000
616.860; 2836.975;  224.375;    0.000
616.981; 2796.975;  224.375;    0.000
617.102; 2846.975;  217.375;    0.000
617.222; 2816.975;  237.375;    0.000
617.343; 2771.975;  205.375;    0.000
617.464; 2835.975;  229.375;    0.000
617.585; 2807.975;  227.375;    0.000
617.705; 2780.975;  191.375;    0.000
617.826; 2889.975;  237.375;    0.000
617.947; 2766.975;  223.375;    0.000
618.068; 2744.975;  189.375;    0.000
618.188; 2712.975;  194.375;    0.000
618.309; 2825.975;  206.375;    0.000
618.430; 2753.975;  229.375;    0.000
618.550; 2770.975;  250.375;    0.000
618.671; 2779.975;  201.375;    0.000
618.791; 2801.975;  226.375;    0.000
618.912; 2749.975;  246.375;    0.000
619.033; 2691.975;  243.375;    0.000
619.153; 2740.975;  208.375;    0.000
619.274; 2772.975;  223.375;    0.000
619.394; 2779.975;  226.375;    0.000
619.515; 2711.975;  188.375;    0.000
619.635; 2646.975;  216.375;    0.000
619.756; 2783.975;  229.375;    0.000
619.876; 2713.975;  216.375;    0.000
619.996; 2746.975;  244.375;    0.000
620.117; 2780.975;  225.375;    0.000
620.237; 2814.975;  207.375;    0.000
620.358; 2758.975;  239.375;    0.000
620.478; 2775.975;  237.375;    0.000
620.598; 2788.975;  237.375;    0.000
620.719; 2753.975;  223.375;    0.000
620.839; 2776.975;  254.375;    0.000
620.959; 2622.975;  244.375;    0.000
621.079; 2764.975;  193.375;    0.000
621.200; 2727.975;  233.375;    0.000
621.320; 2855.975;  270.375;    0.000
621.440; 2693.975;  206.375;    0.000
621.560; 2694.975;  241.375;    0.000
621.681; 2693.975;  231.375;    0.000
621.801; 2708.975;  235.375;    0.000
621.921; 2652.975;  240.375;    0.000
622.041; 2717.975;  244.375;    0.000
622.161; 2686.975;  225.375;    0.000
622.281; 2643.975;  222.375;    0.000
622.401; 2745.975;  238.375;    0.000
622.521; 2763.975;  233.375;    0.000
622.641; 2717.975;  241.375;    0.000
622.761; 2690.975;  233.375;    0.000
622.882; 2578.975;  230.375;    0.000
623.002; 2685.975;  206.375;    0.000
623.121; 2682.975;  217.375;    0.000
623.241; 2607.975;  263.375;    0.000
623.361; 2682.975;  245.375;    0.000
623.481; 2686.975;  194.375;    0.000
623.601; 2719.975;  228.375;    0.000
623.721; 2640.975;  219.375;    0.000
623.841; 2670.975;  234.375;    0.000
623.961; 2756.975;  235.375;    0.000
624.081; 2696.975;  166.375;    0.000
624.201; 2620.975;  229.375;    0.000
624.320; 2695.975;  224.375;    0.000
624.440; 2676.975;  200.375;    0.000
624.560; 2731.975;  220.375;    0.000
624.680; 2629.975;  214.375;    0.000
624.799; 2607.975;  179.375;    0.000
624.919; 2666.975;  199.375;    0.000
625.039; 2713.975;  211.375;    0.000
625.159; 2688.975;  213.375;    0.000
625.278; 2623.975;  178.375;    0.000
625.398; 2694.975;  206.375;    0.000
625.518; 2612.975;  182.375;    0.000
625.637; 2673.975;  206.375;    0.000
625.757; 2561.975;  197.375;    0.000
625.876; 2660.975;  204.375;    0.000
625.996; 2638.975;  222.375;    0.000
626.115; 2665.975;  222.375;    0.000
626.235; 2701.975;  222.375;    0.000
626.354; 2571.975;  211.375;    0.000
626.474; 2609.975;  217.375;    0.000
626.594; 2694.975;  190.375;    0.000
626.713; 2605.975;  200.375;    0.000
626.832; 2655.975;  234.375;    0.000
626.952; 2690.975;  214.375;    0.000
627.071; 2657.975;  243.375;    0.000
627.191; 2598.975;  192.375;    0.000
627.310; 2623.975;  211.375;    0.000
627.429; 2642.975;  218.375;    0.000
627.549; 2576.975;  214.375;    0.000
627.668; 2581.975;  208.375;    0.000
627.787; 2606.975;  199.375;    0.000
627.907; 2588.975;  208.375;    0.000
628.026; 2650.975;  216.375;    0.000
628.145; 2585.975;  170.375;    0.000
628.264; 2579.975;  217.375;    0.000
628.384; 2566.975;  190.375;    0.000
628.503; 2633.975;  203.375;    0.000
628.622; 2594.975;  197.375;    0.000
628.741; 2645.975;  186.375;    0.000
628.860; 2640.975;  191.375;    0.000
628.980; 2628.975;  196.375;    0.000
629.099; 2589.975;  190.375;    0.000
629.218; 2514.975;  165.375;    0.000
629.337; 2495.975;  190.375;    0.000
629.456; 2615.975;  222.375;    0.000
629.575; 2553.975;  197.375;    0.000
629.694; 2605.975;  210.375;    0.000
629.813; 2648.975;  187.375;    0.000
629.932; 2552.975;  224.375;    0.000
630.051; 2498.975;  216.375;    0.000
630.170; 2623.975;  203.375;    0.000
630.289; 2623.975;  178.375;    0.000
630.408; 2537.975;  192.375;    0.000
630.527; 2565.975;  223.375;    0.000
630.646; 2494.975;  177.375;    0.000
630.764; 2606.975;  224.375;    0.000
630.883; 2518.975;  220.375;    0.000
631.002; 2585.975;  187.375;    0.000
631.121; 2493.975;  208.375;    0.000
631.240; 2520.975;  217.375;    0.000
631.359; 2626.975;  241.375;    0.000
631.477; 2596.975;  189.375;    0.000
631.596; 2587.975;  244.375;    0.000
631.715; 2549.975;  241.375;    0.000
631.834; 2583.975;  219.375;    0.000
631.952; 2614.975;  231.375;    0.000
632.071; 2599.975;  197.375;    0.000
632.190; 2590.975;  193.375;    0.000
632.308; 2463.975;  185.375;    0.000
632.427; 2502.975;  188.375;    0.000
632.546; 2524.975;  208.375;    0.000
632.664; 2466.975;  191.375;    0.000
632.783; 2646.975;  201.375;    0.000
632.901; 2494.975;  239.375;    0.000
633.020; 2566.975;  197.375;    0.000
633.138; 2495.975;  189.375;    0.000
633.257; 2544.975;  210.375;    0.000
633.375; 2506.975;  213.375;    0.000
633.494; 2582.975;  206.375;    0.000
633.612; 2526.975;  231.375;    0.000
633.731; 2554.975;  213.375;    0.000
633.849; 2563.975;  244.375;    0.000
633.968; 2590.975;  251.375;    0.000
634.086; 2524.975;  224.375;    0.000
634.204; 2606.975;  212.375;    0.000
634.323; 2538.975;  213.375;    0.000
634.441; 2558.975;  219.375;    0.000
634.559; 2604.975;  198.375;    0.000
634.678; 2531.975;  201.375;    0.000
634.796; 2528.975;  179.375;    0.000
634.914; 2512.975;  255.375;    0.000
635.032; 2600.975;  264.375;    0.000
635.151; 2551.975;  228.375;    0.000
635.269; 2480.975;  223.375;    0.000
635.387; 2625.975;  228.375;    0.000
635.505; 2511.975;  214.375;    0.000
635.623; 2653.975;  279.375;    0.000
635.742; 2600.975;  237.375;    0.000
635.860; 2543.975;  244.375;    0.000
635.978; 2561.975;  213.375;    0.000
636.096; 2492.975;  230.375;    0.000
636.214; 2519.975;  252.375;    0.000
636.332; 2461.975;  221.375;    0.000
636.450; 2512.975;  227.375;    0.000
636.568; 2525.975;  193.375;    0.000
636.686; 2527.975;  208.375;    0.000
636.804; 2516.975;  213.375;    0.000
636.922; 2473.975;  199.375;    0.000
637.040; 2491.975;  202.375;    0.000
637.158; 2555.975;  239.375;    0.000
637.276; 2572.975;  225.375;    0.000
637.394; 2483.975;  217.375;    0.000
637.512; 2521.975;  192.375;    0.000
637.629; 2606.975;  216.375;    0.000
637.747; 2562.975;  198.375;    0.000
637.865; 2525.975;  265.375;    0.000
637.983; 2512.975;  245.375;    0.000
638.101; 2545.975;  199.375;    0.000
638.218; 2568.975;  197.375;    0.000
638.336; 2608.975;  212.375;    0.000
638.454; 2577.975;  227.375;    0.000
638.572; 2561.975;  215.375;    0.000
638.689; 2461.975;  214.375;    0.000
638.807; 2489.975;  233.375;    0.000
638.925; 2493.975;  217.375;    0.000
639.042; 2481.975;  180.375;    0.000
639.160; 2547.975;  220.375;    0.000
639.278; 2455.975;  180.375;    0.000
639.395; 2573.975;  243.375;    0.000
639.513; 2505.975;  207.375;    0.000
639.630; 2525.975;  183.375;    0.000
639.748; 2402.975;  231.375;    0.000
639.865; 2484.975;  215.375;    0.000
639.983; 2613.975;  182.375;    0.000
640.100; 2539.975;  190.375;    0.000
640.218; 2571.975;  224.375;    0.000
640.335; 2480.975;  214.375;    0.000
640.453; 2585.975;  212.375;    0.000
640.570; 2475.975;  224.375;    0.000
640.688; 2542.975;  220.375;    0.000
640.805; 2476.975;  189.375;    0.000
640.922; 2529.975;  256.375;    0.000
641.040; 2513.975;  209.375;    0.000
641.157; 2488.975;  195.375;    0.000
641.274; 2548.975;  195.375;    0.000
641.391; 2577.975;  231.375;    0.000
641.509; 2565.975;  207.375;    0.000
641.626; 2573.975;  227.375;    0.000
641.743; 2539.975;  188.375;    0.000
641.860; 2511.975;  208.375;    0.000
641.978; 2537.975;  222.375;    0.000
642.095; 2567.975;  194.375;    0.000
642.212; 2499.975;  202.375;    0.000
642.329; 2594.975;  241.375;    0.000
642.446; 2592.975;  261.375;    0.000
642.563; 2545.975;  236.375;    0.000
642.681; 2584.975;  228.375;    0.000
642.798; 2562.975;  242.375;    0.000
642.915; 2556.975;  197.375;    0.000
643.032; 2527.975;  239.375;    0.000
643.149; 2573.975;  241.375;    0.000
643.266; 2619.975;  199.375;    0.000
643.383; 2584.975;  200.375;    0.000
643.500; 2659.975;  221.375;    0.000
643.617; 2618.975;  196.375;    0.000
643.734; 2545.975;  207.375;    0.000
643.850; 2592.975;  222.375;    0.000
643.967; 2617.975;  235.375;    0.000
644.084; 2600.975;  233.375;    0.000
644.201; 2600.975;  229.375;    0.000
644.318; 2523.975;  210.375;    0.000
644.435; 2643.975;  234.375;    0.000
644.552; 2657.975;  220.375;    0.000
644.668; 2665.975;  231.375;    0.000
644.785; 2661.975;  231.375;    0.000
644.902; 2642.975;  238.375;    0.000
645.019; 2646.975;  226.375;    0.000
645.135; 2667.975;  179.375;    0.000
645.252; 2623.975;  224.375;    0.000
645.369; 2579.975;  206.375;    0.000
645.485; 2676.975;  200.375;    0.000
645.602; 2654.975;  210.375;    0.000
645.719; 2686.975;  206.375;    0.000
645.835; 2718.975;  247.375;    0.000
645.952; 2678.975;  222.375;    0.000
646.068; 2699.975;  205.375;    0.000
646.185; 2796.975;  230.375;    0.000
646.302; 2836.975;  254.375;    0.000
646.418; 2766.975;  230.375;    0.000
646.535; 2690.975;  214.375;    0.000
646.651; 2672.975;  179.375;    0.000
646.768; 2733.975;  190.375;    0.000
646.884; 2771.975;  208.375;    0.000
647.000; 2834.975;  262.375;    0.000
647.117; 2764.975;  212.375;    0.000
647.233; 2795.975;  228.375;    0.000
647.350; 2831.975;  208.375;    0.000
647.466; 2890.975;  211.375;    0.000
647.582; 2834.975;  196.375;    0.000
647.699; 2815.975;  217.375;    0.000
647.815; 2880.975;  203.375;    0.000
647.931; 2864.975;  201.375;    0.000
648.047; 2866.975;  182.375;    0.000
648.164; 2960.975;  219.375;    0.000
648.280; 2916.975;  213.375;    0.000
648.396; 2883.975;  202.375;    0.000
648.512; 2913.975;  233.375;    0.000
648.629; 2912.975;  206.375;    0.000
648.745; 2891.975;  188.375;    0.000
648.861; 2911.975;  209.375;    0.000
648.977; 3036.975;  218.375;    0.000
649.093; 2883.975;  225.375;    0.000
649.209; 2973.975;  240.375;    0.000
649.325; 2946.975;  253.375;    0.000
649.441; 2944.975;  263.375;    0.000
649.557; 3031.975;  256.375;    0.000
649.673; 3008.975;  211.375;    0.000
649.789; 2965.975;  237.375;    0.000
649.905; 2996.975;  183.375;    0.000
650.021; 3059.975;  238.375;    0.000
650.137; 3152.975;  241.375;    0.000
650.253; 3041.975;  228.375;    0.000
650.369; 3175.975;  221.375;    0.000
650.485; 3131.975;  240.375;    0.000
650.601; 3096.975;  254.375;    0.000
650.717; 3189.975;  201.375;    0.000
650.833; 3165.975;  257.375;    0.000
650.948; 3144.975;  213.375;    0.000
651.064; 3152.975;  223.375;    0.000
651.180; 3221.975;  230.375;    0.000
651.296; 3317.975;  235.375;    0.000
651.411; 3207.975;  221.375;    0.000
651.527; 3181.975;  233.375;    0.000
651.643; 3269.975;  236.375;    0.000
651.759; 3331.975;  268.375;    0.000
651.874; 3323.975;  214.375;    0.000
651.990; 3458.975;  251.375;    0.000
652.105; 3271.975;  217.375;    0.000
652.221; 3383.975;  243.375;    0.000
652.337; 3392.975;  231.375;    0.000
652.452; 3450.975;  238.375;    0.000
652.568; 3554.975;  188.375;    0.000
652.683; 3468.975;  197.375;    0.000
652.799; 3560.975;  194.375;    0.000
652.914; 3669.975;  222.375;    0.000
653.030; 3582.975;  200.375;    0.000
653.145; 3676.975;  235.375;    0.000
653.261; 3795.975;  261.375;    0.000
653.376; 3815.975;  228.375;    0.000
653.492; 3913.975;  222.375;    0.000
653.607; 3924.975;  227.375;    0.000
653.722; 4009.975;  250.375;    0.000
653.838; 4064.975;  255.375;    0.000
653.953; 4126.975;  235.375;    0.000
654.068; 4233.975;  266.375;    0.000
654.184; 4369.975;  210.375;    0.000
654.299; 4373.975;  240.375;    0.000
654.414; 4327.975;  222.375;    0.000
654.530; 4442.975;  222.375;    0.000
654.645; 4453.975;  256.375;    0.000
654.760; 4593.975;  244.375;    0.000
654.875; 4807.975;  229.375;    0.000
654.990; 4908.975;  226.375;    0.000
655.106; 4984.975;  254.375;    0.000
655.221; 5197.975;  251.375;    0.000
655.336; 5211.975;  245.375;    0.000
655.451; 5462.975;  199.375;    0.000
655.566; 5543.975;  228.375;    0.000
655.681; 5825.975;  208.375;    0.000
655.796; 6099.975;  218.375;    0.000
655.911; 6320.975;  233.375;    0.000
656.026; 6568.975;  232.375;    0.000
656.141; 6966.975;  223.375;    0.000
656.256; 7143.975;  247.375;    0.000
656.371; 7276.975;  220.375;    0.000
656.486; 7187.975;  225.375;    0.000
656.601; 6969.975;  257.375;    0.000
656.716; 6704.975;  248.375;    0.000
656.831; 6690.975;  262.375;    0.000
656.946; 6471.975;  249.375;    0.000
657.060; 6354.975;  245.375;    0.000
657.175; 6105.975;  245.375;    0.000
657.290; 5907.975;  219.375;    0.000
657.405; 5908.975;  286.375;    0.000
657.520; 5696.975;  259.375;    0.000
657.634; 5644.975;  239.375;    0.000
657.749; 5399.975;  227.375;    0.000
657.864; 5330.975;  210.375;    0.000
657.979; 5215.975;  236.375;    0.000
658.093; 5107.975;  210.375;    0.000
658.208; 5007.975;  248.375;    0.000
658.323; 4908.975;  216.375;    0.000
658.437; 4878.975;  248.375;    0.000
658.552; 4716.975;  249.375;    0.000
658.666; 4724.975;  256.375;    0.000
658.781; 4698.975;  247.375;    0.000
658.895; 4593.975;  209.375;    0.000
659.010; 4380.975;  219.375;    0.000
659.125; 4359.975;  215.375;    0.000
659.239; 4265.975;  205.375;    0.000
659.353; 4176.975;  246.375;    0.000
659.468; 4215.975;  245.375;    0.000
659.582; 4151.975;  244.375;    0.000
659.697; 4170.975;  242.375;    0.000
659.811; 3953.975;  239.375;    0.000
659.926; 3983.975;  226.375;    0.000
660.040; 3972.975;  255.375;    0.000
660.154; 3890.975;  225.375;    0.000
660.269; 3798.975;  200.375;    0.000
660.383; 3727.975;  192.375;    0.000
660.497; 3634.975;  218.375;    0.000
660.612; 3737.975;  236.375;    0.000
660.726; 3652.975;  263.375;    0.000
660.840; 3594.975;  205.375;    0.000
660.954; 3572.975;  219.375;    0.000
661.068; 3570.975;  240.375;    0.000
661.183; 3481.975;  221.375;    0.000
661.297; 3373.975;  194.375;    0.000
661.411; 3488.975;  253.375;    0.000
661.525; 3373.975;  246.375;    0.000
661.639; 3428.975;  217.375;    0.000
661.753; 3409.975;  241.375;    0.000
661.867; 3249.975;  276.375;    0.000
661.981; 3281.975;  203.375;    0.000
662.095; 3283.975;  224.375;    0.000
662.209; 3175.975;  217.375;    0.000
662.323; 3175.975;  251.375;    0.000
662.437; 3161.975;  243.375;    0.000
662.551; 3095.975;  244.375;    0.000
662.665; 3030.975;  247.375;    0.000
662.779; 3032.975;  251.375;    0.000
662.893; 3122.975;  254.375;    0.000
663.007; 3069.975;  222.375;    0.000
663.121; 2962.975;  253.375;    0.000
663.235; 2902.975;  270.375;    0.000
663.349; 2941.975;  242.375;    0.000
663.462; 2852.975;  230.375;    0.000
663.576; 2891.975;  230.375;    0.000
663.690; 2906.975;  249.375;    0.000
663.804; 2844.975;  200.375;    0.000
663.917; 2791.975;  204.375;    0.000
664.031; 2725.975;  206.375;    0.000
664.145; 2840.975;  202.375;    0.000
664.258; 2756.975;  221.375;    0.000
664.372; 2689.975;  215.375;    0.000
664.486; 2680.975;  179.375;    0.000
664.599; 2691.975;  208.375;    0.000
664.713; 2711.975;  268.375;    0.000
664.827; 2651.975;  225.375;    0.000
664.940; 2595.975;  222.375;    0.000
665.054; 2701.975;  208.375;    0.000
665.167; 2656.975;  253.375;    0.000
665.281; 2692.975;  237.375;    0.000
665.394; 2604.975;  227.375;    0.000
665.508; 2502.975;  192.375;    0.000
665.621; 2551.975;  175.375;    0.000
665.735; 2625.975;  249.375;    0.000
665.848; 2565.975;  197.375;    0.000
665.961; 2487.975;  206.375;    0.000
666.075; 2484.975;  245.375;    0.000
666.188; 2518.975;  230.375;    0.000
666.301; 2545.975;  219.375;    0.000
666.415; 2429.975;  231.375;    0.000
666.528; 2502.975;  258.375;    0.000
666.641; 2429.975;  243.375;    0.000
666.755; 2478.975;  208.375;    0.000
666.868; 2429.975;  228.375;    0.000
666.981; 2409.975;  244.375;    0.000
667.094; 2478.975;  244.375;    0.000
667.207; 2415.975;  226.375;    0.000
667.321; 2350.975;  175.375;    0.000
667.434; 2345.975;  211.375;    0.000
667.547; 2395.975;  249.375;    0.000
667.660; 2334.975;  225.375;    0.000
667.773; 2334.975;  242.375;    0.000
667.886; 2360.975;  246.375;    0.000
667.999; 2355.975;  244.375;    0.000
668.112; 2326.975;  227.375;    0.000
668.225; 2392.975;  231.375;    0.000
668.338; 2326.975;  256.375;    0.000
668.451; 2349.975;  216.375;    0.000
668.564; 2340.975;  261.375;    0.000
668.677; 2278.975;  230.375;    0.000
668.790; 2259.975;  192.375;    0.000
668.903; 2252.975;  243.375;    0.000
669.016; 2165.975;  201.375;    0.000
669.129; 2293.975;  249.375;    0.000
669.242; 2130.975;  190.375;    0.000
669.354; 2222.975;  219.375;    0.000
669.467; 2225.975;  242.375;    0.000
669.580; 2209.975;  237.375;    0.000
669.693; 2243.975;  243.375;    0.000
669.806; 2222.975;  234.375;    0.000
669.918; 2142.975;  206.375;    0.000
670.031; 2173.975;  258.375;    0.000
670.144; 2193.975;  231.375;    0.000
670.256; 2146.975;  244.375;    0.000
670.369; 2174.975;  262.375;    0.000
670.482; 2104.975;  264.375;    0.000
670.594; 2113.975;  256.375;    0.000
670.707; 2133.975;  224.375;    0.000
670.820; 2092.975;  261.375;    0.000
670.932; 2150.975;  226.375;    0.000
671.045; 2125.975;  243.375;    0.000
671.157; 2185.975;  235.375;    0.000
671.270; 2171.975;  217.375;    0.000
671.382; 2025.975;  267.375;    0.000
671.495; 2094.975;  258.375;    0.000
671.607; 2159.975;  236.375;    0.000
671.720; 2079.975;  200.375;    0.000
671.832; 2054.975;  219.375;    0.000
671.944; 2073.975;  234.375;    0.000
672.057; 2154.975;  226.375;    0.000
672.169; 2092.975;  225.375;    0.000
672.281; 2114.975;  253.375;    0.000
672.394; 2062.975;  238.375;    0.000
672.506; 2107.975;  244.375;    0.000
672.618; 2146.975;  272.375;    0.000
672.731; 2089.975;  247.375;    0.000
672.843; 1978.975;  261.375;    0.000
672.955; 2040.975;  262.375;    0.000
673.067; 2046.975;  253.375;    0.000
673.180; 2098.975;  239.375;    0.000
673.292; 2069.975;  240.375;    0.000
673.404; 2078.975;  243.375;    0.000
673.516; 1989.975;  258.375;    0.000
673.628; 2028.975;  263.375;    0.000
673.740; 1988.975;  250.375;    0.000
673.852; 2053.975;  285.375;    0.000
673.964; 1998.975;  264.375;    0.000
674.076; 1977.975;  260.375;    0.000
674.188; 1991.975;  226.375;    0.000
674.300; 2061.975;  272.375;    0.000
674.412; 2019.975;  259.375;    0.000
674.524; 2036.975;  283.375;    0.000
674.636; 1983.975;  259.375;    0.000
674.748; 2018.975;  238.375;    0.000
674.860; 1997.975;  277.375;    0.000
674.972; 1974.975;  272.375;    0.000
675.084; 1985.975;  244.375;    0.000
675.196; 1946.975;  272.375;    0.000
675.307; 2028.975;  244.375;    0.000
675.419; 1971.975;  219.375;    0.000
675.531; 2014.975;  275.375;    0.000
675.643; 1865.975;  215.375;    0.000
675.755; 1952.975;  243.375;    0.000
675.866; 1953.975;  223.375;    0.000
675.978; 1998.975;  216.375;    0.000
676.090; 1912.975;  242.375;    0.000
676.201; 1919.975;  276.375;    0.000
676.313; 1905.975;  226.375;    0.000
676.425; 1943.975;  234.375;    0.000
676.536; 1916.975;  231.375;    0.000
676.648; 1895.975;  254.375;    0.000
676.759; 1918.975;  273.375;    0.000
676.871; 1935.975;  250.375;    0.000
676.983; 1886.975;  256.375;    0.000
677.094; 1927.975;  210.375;    0.000
677.206; 1940.975;  248.375;    0.000
677.317; 1988.975;  263.375;    0.000
677.429; 1840.975;  238.375;    0.000
677.540; 1886.975;  247.375;    0.000
677.651; 1834.975;  224.375;    0.000
677.763; 1835.975;  217.375;    0.000
677.874; 1891.975;  234.375;    0.000
677.986; 1861.975;  238.375;    0.000
678.097; 1836.975;  226.375;    0.000
678.208; 1834.975;  253.375;    0.000
678.320; 1882.975;  217.375;    0.000
678.431; 1826.975;  238.375;    0.000
678.542; 1797.975;  236.375;    0.000
678.653; 1787.975;  218.375;    0.000
678.765; 1902.975;  275.375;    0.000
678.876; 1830.975;  213.375;    0.000
678.987; 1738.975;  182.375;    0.000
679.098; 1819.975;  221.375;    0.000
679.209; 1828.975;  238.375;    0.000
679.320; 1810.975;  212.375;    0.000
679.432; 1820.975;  231.375;    0.000
679.543; 1808.975;  198.375;    0.000
679.654; 1774.975;  191.375;    0.000
679.765; 1855.975;  214.375;    0.000
679.876; 1830.975;  221.375;    0.000
679.987; 1779.975;  162.375;    0.000
680.098; 1823.975;  230.375;    0.000
680.209; 1654.975;  206.375;    0.000
680.320; 1756.975;  196.375;    0.000
680.431; 1778.975;  191.375;    0.000
680.542; 1810.975;  214.375;    0.000
680.653; 1808.975;  238.375;    0.000
680.763; 1666.975;  182.375;    0.000
680.874; 1779.975;  213.375;    0.000
680.985; 1746.975;  224.375;    0.000
681.096; 1728.975;  222.375;    0.000
681.207; 1753.975;  220.375;    0.000
681.318; 1774.975;  216.375;    0.000
681.428; 1804.975;  229.375;    0.000
681.539; 1712.975;  183.375;    0.000
681.650; 1763.975;  202.375;    0.000
681.760; 1737.975;  223.375;    0.000
681.871; 1758.975;  211.375;    0.000
681.982; 1789.975;  189.375;    0.000
682.093; 1677.975;  222.375;    0.000
682.203; 1794.975;  220.375;    0.000
682.314; 1723.975;  214.375;    0.000
682.424; 1804.975;  208.375;    0.000
682.535; 1741.975;  213.375;    0.000
682.646; 1797.975;  302.375;    0.000
682.756; 1754.975;  255.375;    0.000
682.867; 1720.975;  244.375;    0.000
682.977; 1669.975;  221.375;    0.000
683.088; 1745.975;  259.375;    0.000
683.198; 1685.975;  212.375;    0.000
683.308; 1640.975;  202.375;    0.000
683.419; 1695.975;  255.375;    0.000
683.529; 1639.975;  217.375;    0.000
683.640; 1715.975;  240.375;    0.000
683.750; 1685.975;  181.375;    0.000
683.860; 1741.975;  246.375;    0.000
683.971; 1752.975;  254.375;    0.000
684.081; 1756.975;  235.375;    0.000
684.191; 1732.975;  251.375;    0.000
684.301; 1715.975;  233.375;    0.000
684.412; 1767.975;  202.375;    0.000
684.522; 1653.975;  232.375;    0.000
684.632; 1757.975;  202.375;    0.000
684.742; 1731.975;  254.375;    0.000
684.852; 1664.975;  219.375;    0.000
684.963; 1698.975;  256.375;    0.000
685.073; 1711.975;  253.375;    0.000
685.183; 1691.975;  254.375;    0.000
685.293; 1648.975;  232.375;    0.000
685.403; 1637.975;  242.375;    0.000
685.513; 1794.975;  261.375;    0.000
685.623; 1740.975;  245.375;    0.000
685.733; 1664.975;  254.375;    0.000
685.843; 1659.975;  249.375;    0.000
685.953; 1667.975;  252.375;    0.000
686.063; 1706.975;  227.375;    0.000
686.173; 1687.975;  223.375;    0.000
686.283; 1683.975;  234.375;    0.000
686.393; 1730.975;  239.375;    0.000
686.503; 1708.975;  231.375;    0.000
686.612; 1708.975;  232.375;    0.000
686.722; 1706.975;  258.375;    0.000
686.832; 1690.975;  256.375;    0.000
686.942; 1620.975;  230.375;    0.000
687.052; 1699.975;  274.375;    0.000
687.161; 1673.975;  269.375;    0.000
687.271; 1608.975;  218.375;    0.000
687.381; 1650.975;  235.375;    0.000
687.491; 1653.975;  262.375;    0.000
687.600; 1706.975;  256.375;    0.000
687.710; 1639.975;  225.375;    0.000
687.820; 1643.975;  230.375;    0.000
687.929; 1752.975;  226.375;    0.000
688.039; 1681.975;  228.375;    0.000
688.148; 1700.975;  249.375;    0.000
688.258; 1648.975;  237.375;    0.000
688.367; 1670.975;  260.375;    0.000
688.477; 1579.975;  200.375;    0.000
688.586; 1585.975;  223.375;    0.000
688.696; 1713.975;  223.375;    0.000
688.805; 1657.975;  257.375;    0.000
688.915; 1602.975;  185.375;    0.000
689.024; 1614.975;  227.375;    0.000
689.134; 1641.975;  224.375;    0.000
689.243; 1587.975;  206.375;    0.000
689.352; 1653.975;  275.375;    0.000
689.462; 1636.975;  233.375;    0.000
689.571; 1674.975;  244.375;    0.000
689.680; 1601.975;  261.375;    0.000
689.790; 1628.975;  192.375;    0.000
689.899; 1605.975;  214.375;    0.000
690.008; 1647.975;  255.375;    0.000
690.117; 1560.975;  219.375;    0.000
690.227; 1695.975;  241.375;    0.000
690.336; 1619.975;  231.375;    0.000
690.445; 1619.975;  212.375;    0.000
690.554; 1650.975;  234.375;    0.000
690.663; 1633.975;  210.375;    0.000
690.772; 1626.975;  221.375;    0.000
690.881; 1662.975;  244.375;    0.000
690.990; 1704.975;  247.375;    0.000
691.099; 1570.975;  222.375;    0.000
691.209; 1635.975;  240.375;    0.000
691.318; 1618.975;  223.375;    0.000
691.427; 1606.975;  217.375;    0.000
691.536; 1585.975;  216.375;    0.000
691.644; 1644.975;  194.375;    0.000
691.753; 1622.975;  221.375;    0.000
691.862; 1628.975;  224.375;    0.000
691.971; 1564.975;  191.375;    0.000
692.080; 1585.975;  247.375;    0.000
692.189; 1557.975;  208.375;    0.000
692.298; 1602.975;  203.375;    0.000
692.406; 1663.975;  239.375;    0.000
692.515; 1613.975;  250.375;    0.000
692.624; 1599.975;  226.375;    0.000
692.733; 1565.975;  229.375;    0.000
692.842; 1610.975;  254.375;    0.000
692.950; 1508.975;  242.375;    0.000
693.059; 1647.975;  204.375;    0.000
693.168; 1572.975;  252.375;    0.000
693.276; 1605.975;  195.375;    0.000
693.385; 1548.975;  228.375;    0.000
693.494; 1665.975;  282.375;    0.000
693.602; 1592.975;  221.375;    0.000
693.711; 1583.975;  225.375;    0.000
693.819; 1637.975;  234.375;    0.000
693.928; 1607.975;  229.375;    0.000
694.036; 1567.975;  192.375;    0.000
694.145; 1693.975;  233.375;    0.000
694.253; 1636.975;  277.375;    0.000
694.362; 1569.975;  188.375;    0.000
694.470; 1622.975;  263.375;    0.000
694.579; 1636.975;  253.375;    0.000
694.687; 1691.975;  281.375;    0.000
694.795; 1567.975;  233.375;    0.000
694.904; 1545.975;  223.375;    0.000
695.012; 1576.975;  296.375;    0.000
695.120; 1595.975;  227.375;    0.000
695.229; 1666.975;  269.375;    0.000
695.337; 1634.975;  229.375;    0.000
695.445; 1647.975;  244.375;    0.000
695.553; 1607.975;  259.375;    0.000
695.662; 1628.975;  208.375;    0.000
695.770; 1574.975;  241.375;    0.000
695.878; 1552.975;  239.375;    0.000
695.986; 1648.975;  247.375;    0.000
696.094; 1586.975;  224.375;    0.000
696.202; 1541.975;  205.375;    0.000
696.310; 1606.975;  217.375;    0.000
696.419; 1549.975;  228.375;    0.000
696.527; 1541.975;  246.375;    0.000
696.635; 1574.975;  245.375;    0.000
696.743; 1571.975;  233.375;    0.000
696.851; 1554.975;  251.375;    0.000
696.959; 1557.975;  257.375;    0.000
697.067; 1587.975;  260.375;    0.000
697.174; 1568.975;  223.375;    0.000
697.282; 1568.975;  239.375;    0.000
697.390; 1578.975;  264.375;    0.000
697.498; 1557.975;  227.375;    0.000
697.606; 1510.975;  243.375;    0.000
697.714; 1635.975;  256.375;    0.000
697.822; 1541.975;  278.375;    0.000
697.929; 1576.975;  227.375;    0.000
698.037; 1523.975;  232.375;    0.000
698.145; 1528.975;  256.375;    0.000
698.253; 1518.975;  245.375;    0.000
698.360; 1561.975;  282.375;    0.000
698.468; 1581.975;  244.375;    0.000
698.576; 1572.975;  279.375;    0.000
698.683; 1567.975;  259.375;    0.000
698.791; 1586.975;  265.375;    0.000
698.899; 1537.975;  250.375;    0.000
699.006; 1613.975;  245.375;    0.000
699.114; 1519.975;  280.375;    0.000
699.221; 1622.975;  240.375;    0.000
699.329; 1626.975;  293.375;    0.000
699.436; 1549.975;  216.375;    0.000
699.544; 1583.975;  269.375;    0.000
699.651; 1564.975;  219.375;    0.000
699.759; 1504.975;  245.375;    0.000
699.866; 1552.975;  261.375;    0.000
699.974; 1559.975;  245.375;    0.000
700.081; 1524.975;  257.375;    0.000
700.188; 1573.975;  268.375;    0.000
700.296; 1511.975;  225.375;    0.000
700.403; 1553.975;  257.375;    0.000
700.510; 1548.975;  267.375;    0.000
700.618; 1619.975;  299.375;    0.000
700.725; 1563.975;  223.375;    0.000
700.832; 1548.975;  233.375;    0.000
700.940; 1567.975;  255.375;    0.000
701.047; 1563.975;  244.375;    0.000
701.154; 1518.975;  248.375;    0.000
701.261; 1552.975;  264.375;    0.000
701.368; 1603.975;  299.375;    0.000
701.475; 1500.975;  264.375;    0.000
701.582; 1546.975;  275.375;    0.000
701.690; 1530.975;  261.375;    0.000
701.797; 1599.975;  273.375;    0.000
701.904; 1624.975;  320.375;    0.000
702.011; 1559.975;  299.375;    0.000
702.118; 1532.975;  292.375;    0.000
702.225; 1542.975;  317.375;    0.000
702.332; 1554.975;  307.375;    0.000
702.439; 1537.975;  313.375;    0.000
702.546; 1620.975;  312.375;    0.000
702.652; 1581.975;  297.375;    0.000
702.759; 1648.975;  345.375;    0.000
702.866; 1592.975;  330.375;    0.000
702.973; 1613.975;  303.375;    0.000
703.080; 1523.975;  303.375;    0.000
703.187; 1545.975;  327.375;    0.000
703.294; 1629.975;  325.375;    0.000
703.400; 1473.975;  302.375;    0.000
703.507;  471.975;  344.375;    0.000
703.614;  298.975;  294.375;    0.000
703.720;  285.975;  322.375;    0.000
703.827;  347.975;  329.375;    0.000
703.934;  291.975;  318.375;    0.000
704.040;  292.975;  299.375;    0.000
704.147;  322.975;  352.375;    0.000
704.254;  347.975;  350.375;    0.000
704.360;  300.975;  347.375;    0.000
704.467;  330.975;  336.375;    0.000
704.573;  335.975;  344.375;    0.000
704.680;  324.975;  365.375;    0.000
704.786;  332.975;  332.375;    0.000
704.893;  307.975;  304.375;    0.000
704.999;  294.975;  299.375;    0.000
705.106;  336.975;  365.375;    0.000

