
Integration time [ms]:   1.000
Averaging Nr. [scans]: 1
Smoothing Nr. [pixels]: 0
Data measured with spectrometer [name]: VIS
Wave   ;Sample   ;Dark     ;Reference
[nm]   ;[counts] ;[counts] ;[counts] 

450.961;  186.700;  200.375;    0.000
451.100;  203.700;  241.375;    0.000
451.239;  185.700;  201.375;    0.000
451.377;  245.700;  262.375;    0.000
451.516;  203.700;  229.375;    0.000
451.655;  221.700;  211.375;    0.000
451.794;  195.700;  225.375;    0.000
451.932;  228.700;  247.375;    0.000
452.071;  238.700;  260.375;    0.000
452.210;  221.700;  235.375;    0.000
452.348;  220.700;  276.375;    0.000
452.487;  233.700;  259.375;    0.000
452.626;  226.700;  254.375;    0.000
452.764;  221.700;  233.375;    0.000
452.903;  212.700;  202.375;    0.000
453.042;  248.700;  211.375;    0.000
453.180; 2744.700;  240.375;    0.000
453.319; 2807.700;  238.375;    0.000
453.458; 2672.700;  215.375;    0.000
453.596; 2802.700;  252.375;    0.000
453.735; 2808.700;  240.375;    0.000
453.873; 2798.700;  257.375;    0.000
454.012; 2887.700;  228.375;    0.000
454.150; 2878.700;  270.375;    0.000
454.289; 2933.700;  233.375;    0.000
454.427; 2916.700;  243.375;    0.000
454.566; 2955.700;  257.375;    0.000
454.704; 2959.700;  243.375;    0.000
454.843; 3013.700;  190.375;    0.000
454.981; 3088.700;  271.375;    0.000
455.120; 2988.700;  210.375;    0.000
455.258; 3069.700;  235.375;    0.000
455.397; 3131.700;  214.375;    0.000
455.535; 3164.700;  214.375;    0.000
455.674; 3080.700;  184.375;    0.000
455.812; 3230.700;  228.375;    0.000
455.951; 3230.700;  204.375;    0.000
456.089; 3237.700;  220.375;    0.000
456.227; 3234.700;  196.375;    0.000
456.366; 3320.700;  261.375;    0.000
456.504; 3331.700;  249.375;    0.000
456.642; 3413.700;  245.375;    0.000
456.781; 3388.700;  183.375;    0.000
456.919; 3493.700;  203.375;    0.000
457.057; 3462.700;  177.375;    0.000
457.196; 3601.700;  191.375;    0.000
457.334; 3476.700;  233.375;    0.000
457.472; 3688.700;  214.375;    0.000
457.610; 3702.700;  230.375;    0.000
457.749; 3661.700;  247.375;    0.000
457.887; 3758.700;  220.375;    0.000
458.025; 3748.700;  195.375;    0.000
458.163; 3672.700;  224.375;    0.000
458.301; 3891.700;  228.375;    0.000
458.440; 3848.700;  200.375;    0.000
458.578; 3915.700;  233.375;    0.000
458.716; 3986.700;  182.375;    0.000
458.854; 4098.700;  251.375;    0.000
458.992; 4117.700;  187.375;    0.000
459.130; 4254.700;  229.375;    0.000
459.269; 4171.700;  237.375;    0.000
459.407; 4089.700;  228.375;    0.000
459.545; 4197.700;  216.375;    0.000
459.683; 4348.700;  204.375;    0.000
459.821; 4327.700;  191.375;    0.000
459.959; 4353.700;  227.375;    0.000
460.097; 4384.700;  221.375;    0.000
460.235; 4450.700;  241.375;    0.000
460.373; 4458.700;  231.375;    0.000
460.511; 4457.700;  214.375;    0.000
460.649; 4528.700;  172.375;    0.000
460.787; 4518.700;  275.375;    0.000
460.925; 4581.700;  175.375;    0.000
461.063; 4665.700;  252.375;    0.000
461.201; 4526.700;  210.375;    0.000
461.339; 4758.700;  237.375;    0.000
461.477; 4587.700;  210.375;    0.000
461.615; 4748.700;  236.375;    0.000
461.753; 4766.700;  215.375;    0.000
461.891; 4789.700;  222.375;    0.000
462.029; 4897.700;  227.375;    0.000
462.166; 4815.700;  202.375;    0.000
462.304; 4958.700;  191.375;    0.000
462.442; 5075.700;  210.375;    0.000
462.580; 5072.700;  184.375;    0.000
462.718; 5044.700;  220.375;    0.000
462.856; 4953.700;  226.375;    0.000
462.993; 5067.700;  254.375;    0.000
463.131; 4975.700;  200.375;    0.000
463.269; 5022.700;  215.375;    0.000
463.407; 4960.700;  213.375;    0.000
463.545; 4770.700;  242.375;    0.000
463.682; 4873.700;  212.375;    0.000
463.820; 4983.700;  185.375;    0.000
463.958; 5231.700;  212.375;    0.000
464.095; 5270.700;  181.375;    0.000
464.233; 5339.700;  192.375;    0.000
464.371; 5428.700;  247.375;    0.000
464.509; 5401.700;  151.375;    0.000
464.646; 5433.700;  207.375;    0.000
464.784; 5399.700;  199.375;    0.000
464.921; 5309.700;  253.375;    0.000
465.059; 5246.700;  214.375;    0.000
465.197; 5134.700;  200.375;    0.000
465.334; 5084.700;  180.375;    0.000
465.472; 5073.700;  204.375;    0.000
465.609; 5084.700;  203.375;    0.000
465.747; 4925.700;  214.375;    0.000
465.885; 4889.700;  233.375;    0.000
466.022; 4928.700;  215.375;    0.000
466.160; 4996.700;  201.375;    0.000
466.297; 4972.700;  196.375;    0.000
466.435; 4896.700;  230.375;    0.000
466.572; 4946.700;  227.375;    0.000
466.710; 4868.700;  218.375;    0.000
466.847; 4856.700;  245.375;    0.000
466.985; 4870.700;  223.375;    0.000
467.122; 4848.700;  168.375;    0.000
467.260; 4799.700;  196.375;    0.000
467.397; 4872.700;  198.375;    0.000
467.534; 4840.700;  219.375;    0.000
467.672; 4673.700;  214.375;    0.000
467.809; 4828.700;  185.375;    0.000
467.947; 4891.700;  247.375;    0.000
468.084; 4744.700;  196.375;    0.000
468.221; 4894.700;  238.375;    0.000
468.359; 4874.700;  236.375;    0.000
468.496; 4988.700;  235.375;    0.000
468.633; 4857.700;  218.375;    0.000
468.771; 4858.700;  223.375;    0.000
468.908; 4963.700;  208.375;    0.000
469.045; 4899.700;  249.375;    0.000
469.183; 4994.700;  222.375;    0.000
469.320; 5074.700;  216.375;    0.000
469.457; 5055.700;  224.375;    0.000
469.594; 5049.700;  259.375;    0.000
469.732; 5103.700;  223.375;    0.000
469.869; 5127.700;  234.375;    0.000
470.006; 5083.700;  225.375;    0.000
470.143; 5175.700;  243.375;    0.000
470.280; 5196.700;  208.375;    0.000
470.417; 5221.700;  232.375;    0.000
470.555; 5211.700;  218.375;    0.000
470.692; 5117.700;  223.375;    0.000
470.829; 5291.700;  238.375;    0.000
470.966; 5076.700;  205.375;    0.000
471.103; 5146.700;  259.375;    0.000
471.240; 5129.700;  214.375;    0.000
471.377; 5094.700;  226.375;    0.000
471.514; 5147.700;  250.375;    0.000
471.651; 5116.700;  221.375;    0.000
471.789; 5063.700;  242.375;    0.000
471.926; 5240.700;  190.375;    0.000
472.063; 5037.700;  234.375;    0.000
472.200; 5107.700;  252.375;    0.000
472.337; 5102.700;  241.375;    0.000
472.474; 5139.700;  244.375;    0.000
472.611; 5160.700;  268.375;    0.000
472.748; 5070.700;  222.375;    0.000
472.884; 5051.700;  271.375;    0.000
473.021; 5025.700;  195.375;    0.000
473.158; 4967.700;  205.375;    0.000
473.295; 5064.700;  223.375;    0.000
473.432; 4945.700;  216.375;    0.000
473.569; 4911.700;  196.375;    0.000
473.706; 4930.700;  190.375;    0.000
473.843; 5033.700;  211.375;    0.000
473.980; 5072.700;  254.375;    0.000
474.117; 5004.700;  185.375;    0.000
474.253; 5057.700;  229.375;    0.000
474.390; 5113.700;  238.375;    0.000
474.527; 5006.700;  220.375;    0.000
474.664; 5018.700;  242.375;    0.000
474.801; 5158.700;  229.375;    0.000
474.937; 5148.700;  229.375;    0.000
475.074; 5090.700;  210.375;    0.000
475.211; 5055.700;  219.375;    0.000
475.348; 5137.700;  226.375;    0.000
475.484; 5285.700;  207.375;    0.000
475.621; 5176.700;  233.375;    0.000
475.758; 5047.700;  230.375;    0.000
475.894; 5171.700;  234.375;    0.000
476.031; 5134.700;  202.375;    0.000
476.168; 5102.700;  222.375;    0.000
476.304; 5160.700;  237.375;    0.000
476.441; 5211.700;  238.375;    0.000
476.578; 5259.700;  216.375;    0.000
476.714; 5277.700;  212.375;    0.000
476.851; 5323.700;  210.375;    0.000
476.987; 5204.700;  239.375;    0.000
477.124; 5361.700;  250.375;    0.000
477.261; 5311.700;  227.375;    0.000
477.397; 5362.700;  189.375;    0.000
477.534; 5289.700;  204.375;    0.000
477.670; 5340.700;  190.375;    0.000
477.807; 5496.700;  198.375;    0.000
477.943; 5513.700;  216.375;    0.000
478.080; 5427.700;  213.375;    0.000
478.216; 5554.700;  239.375;    0.000
478.353; 5518.700;  218.375;    0.000
478.489; 5744.700;  184.375;    0.000
478.626; 5612.700;  223.375;    0.000
478.762; 5597.700;  213.375;    0.000
478.898; 5669.700;  216.375;    0.000
479.035; 5593.700;  250.375;    0.000
479.171; 5706.700;  201.375;    0.000
479.308; 5668.700;  242.375;    0.000
479.444; 5826.700;  205.375;    0.000
479.580; 5598.700;  203.375;    0.000
479.717; 5670.700;  260.375;    0.000
479.853; 5783.700;  225.375;    0.000
479.989; 5736.700;  226.375;    0.000
480.126; 5691.700;  211.375;    0.000
480.262; 5775.700;  220.375;    0.000
480.398; 5921.700;  207.375;    0.000
480.535; 5815.700;  179.375;    0.000
480.671; 5756.700;  200.375;    0.000
480.807; 5649.700;  190.375;    0.000
480.943; 5795.700;  165.375;    0.000
481.080; 5708.700;  210.375;    0.000
481.216; 5517.700;  232.375;    0.000
481.352; 5740.700;  235.375;    0.000
481.488; 5764.700;  208.375;    0.000
481.624; 5641.700;  245.375;    0.000
481.760; 5744.700;  210.375;    0.000
481.897; 5762.700;  189.375;    0.000
482.033; 5718.700;  256.375;    0.000
482.169; 5664.700;  257.375;    0.000
482.305; 5746.700;  199.375;    0.000
482.441; 5668.700;  182.375;    0.000
482.577; 5783.700;  223.375;    0.000
482.713; 5845.700;  243.375;    0.000
482.849; 5726.700;  197.375;    0.000
482.985; 5653.700;  240.375;    0.000
483.121; 5778.700;  210.375;    0.000
483.258; 5651.700;  248.375;    0.000
483.394; 5650.700;  224.375;    0.000
483.530; 5743.700;  209.375;    0.000
483.665; 5660.700;  225.375;    0.000
483.801; 5815.700;  216.375;    0.000
483.937; 5859.700;  211.375;    0.000
484.073; 5875.700;  259.375;    0.000
484.209; 5747.700;  191.375;    0.000
484.345; 5760.700;  239.375;    0.000
484.481; 5851.700;  231.375;    0.000
484.617; 5927.700;  216.375;    0.000
484.753; 5851.700;  180.375;    0.000
484.889; 5837.700;  252.375;    0.000
485.025; 5828.700;  244.375;    0.000
485.161; 5823.700;  242.375;    0.000
485.296; 5791.700;  235.375;    0.000
485.432; 5945.700;  247.375;    0.000
485.568; 5900.700;  203.375;    0.000
485.704; 5848.700;  229.375;    0.000
485.840; 5881.700;  230.375;    0.000
485.975; 5789.700;  266.375;    0.000
486.111; 5872.700;  220.375;    0.000
486.247; 5926.700;  264.375;    0.000
486.383; 5916.700;  213.375;    0.000
486.518; 5918.700;  222.375;    0.000
486.654; 5896.700;  244.375;    0.000
486.790; 5962.700;  273.375;    0.000
486.926; 5863.700;  203.375;    0.000
487.061; 5988.700;  227.375;    0.000
487.197; 5943.700;  210.375;    0.000
487.333; 5772.700;  209.375;    0.000
487.468; 5703.700;  197.375;    0.000
487.604; 5847.700;  230.375;    0.000
487.740; 5940.700;  254.375;    0.000
487.875; 5909.700;  286.375;    0.000
488.011; 5832.700;  225.375;    0.000
488.146; 5907.700;  251.375;    0.000
488.282; 6001.700;  242.375;    0.000
488.417; 5834.700;  230.375;    0.000
488.553; 5888.700;  260.375;    0.000
488.688; 5912.700;  207.375;    0.000
488.824; 6003.700;  204.375;    0.000
488.960; 5958.700;  248.375;    0.000
489.095; 5967.700;  204.375;    0.000
489.230; 5924.700;  227.375;    0.000
489.366; 5854.700;  226.375;    0.000
489.501; 5969.700;  199.375;    0.000
489.637; 5965.700;  233.375;    0.000
489.772; 5961.700;  249.375;    0.000
489.908; 5914.700;  200.375;    0.000
490.043; 6019.700;  246.375;    0.000
490.178; 6014.700;  222.375;    0.000
490.314; 6020.700;  219.375;    0.000
490.449; 5968.700;  227.375;    0.000
490.585; 6035.700;  209.375;    0.000
490.720; 5907.700;  238.375;    0.000
490.855; 5913.700;  222.375;    0.000
490.991; 5900.700;  202.375;    0.000
491.126; 5880.700;  272.375;    0.000
491.261; 5931.700;  261.375;    0.000
491.396; 5953.700;  190.375;    0.000
491.532; 5752.700;  202.375;    0.000
491.667; 5966.700;  208.375;    0.000
491.802; 5866.700;  203.375;    0.000
491.937; 5857.700;  253.375;    0.000
492.073; 6032.700;  242.375;    0.000
492.208; 6016.700;  230.375;    0.000
492.343; 5979.700;  183.375;    0.000
492.478; 5929.700;  246.375;    0.000
492.613; 5950.700;  223.375;    0.000
492.749; 5948.700;  230.375;    0.000
492.884; 6068.700;  190.375;    0.000
493.019; 5977.700;  234.375;    0.000
493.154; 6028.700;  218.375;    0.000
493.289; 5865.700;  222.375;    0.000
493.424; 5980.700;  196.375;    0.000
493.559; 5926.700;  202.375;    0.000
493.694; 5876.700;  180.375;    0.000
493.829; 5938.700;  224.375;    0.000
493.964; 5908.700;  218.375;    0.000
494.099; 5848.700;  275.375;    0.000
494.234; 5969.700;  226.375;    0.000
494.369; 5818.700;  225.375;    0.000
494.504; 5991.700;  219.375;    0.000
494.639; 5886.700;  296.375;    0.000
494.774; 5980.700;  228.375;    0.000
494.909; 5926.700;  222.375;    0.000
495.044; 5929.700;  215.375;    0.000
495.179; 5933.700;  200.375;    0.000
495.314; 5865.700;  235.375;    0.000
495.449; 5974.700;  249.375;    0.000
495.584; 5893.700;  228.375;    0.000
495.719; 5952.700;  212.375;    0.000
495.854; 5886.700;  201.375;    0.000
495.988; 6252.700;  248.375;    0.000
496.123; 5895.700;  209.375;    0.000
496.258; 6034.700;  249.375;    0.000
496.393; 6166.700;  223.375;    0.000
496.528; 6065.700;  209.375;    0.000
496.663; 6070.700;  207.375;    0.000
496.797; 6253.700;  229.375;    0.000
496.932; 6241.700;  225.375;    0.000
497.067; 6179.700;  218.375;    0.000
497.202; 6228.700;  163.375;    0.000
497.336; 6357.700;  246.375;    0.000
497.471; 6300.700;  229.375;    0.000
497.606; 6288.700;  251.375;    0.000
497.740; 6489.700;  220.375;    0.000
497.875; 6494.700;  216.375;    0.000
498.010; 6556.700;  226.375;    0.000
498.144; 6654.700;  237.375;    0.000
498.279; 6632.700;  196.375;    0.000
498.414; 6796.700;  219.375;    0.000
498.548; 6811.700;  205.375;    0.000
498.683; 6922.700;  206.375;    0.000
498.817; 7031.700;  225.375;    0.000
498.952; 7330.700;  221.375;    0.000
499.087; 7420.700;  220.375;    0.000
499.221; 7471.700;  233.375;    0.000
499.356; 7737.700;  230.375;    0.000
499.490; 7853.700;  229.375;    0.000
499.625; 8103.700;  231.375;    0.000
499.759; 8192.700;  243.375;    0.000
499.894; 8267.700;  241.375;    0.000
500.028; 8574.700;  264.375;    0.000
500.162; 8738.700;  287.375;    0.000
500.297; 8843.700;  234.375;    0.000
500.431; 8812.700;  230.375;    0.000
500.566; 8795.700;  213.375;    0.000
500.700; 8787.700;  243.375;    0.000
500.835; 8693.700;  272.375;    0.000
500.969; 8483.700;  188.375;    0.000
501.103; 8380.700;  200.375;    0.000
501.238; 8089.700;  257.375;    0.000
501.372; 8059.700;  224.375;    0.000
501.506; 7754.700;  225.375;    0.000
501.641; 7489.700;  271.375;    0.000
501.775; 7264.700;  199.375;    0.000
501.909; 7218.700;  249.375;    0.000
502.043; 7081.700;  211.375;    0.000
502.178; 7027.700;  269.375;    0.000
502.312; 6828.700;  198.375;    0.000
502.446; 6810.700;  256.375;    0.000
502.580; 6687.700;  195.375;    0.000
502.715; 6594.700;  224.375;    0.000
502.849; 6381.700;  245.375;    0.000
502.983; 6526.700;  250.375;    0.000
503.117; 6413.700;  193.375;    0.000
503.251; 6243.700;  242.375;    0.000
503.385; 6141.700;  227.375;    0.000
503.520; 6070.700;  235.375;    0.000
503.654; 6087.700;  220.375;    0.000
503.788; 6198.700;  267.375;    0.000
503.922; 5963.700;  220.375;    0.000
504.056; 5936.700;  238.375;    0.000
504.190; 5823.700;  212.375;    0.000
504.324; 5923.700;  265.375;    0.000
504.458; 5789.700;  228.375;    0.000
504.592; 5619.700;  231.375;    0.000
504.726; 5816.700;  218.375;    0.000
504.860; 5651.700;  253.375;    0.000
504.994; 5591.700;  217.375;    0.000
505.128; 5620.700;  243.375;    0.000
505.262; 5453.700;  194.375;    0.000
505.396; 5400.700;  210.375;    0.000
505.530; 5299.700;  211.375;    0.000
505.664; 5417.700;  219.375;    0.000
505.798; 5264.700;  240.375;    0.000
505.932; 5146.700;  240.375;    0.000
506.066; 5192.700;  252.375;    0.000
506.199; 5077.700;  242.375;    0.000
506.333; 5076.700;  244.375;    0.000
506.467; 5016.700;  223.375;    0.000
506.601; 4951.700;  183.375;    0.000
506.735; 5016.700;  249.375;    0.000
506.869; 4958.700;  270.375;    0.000
507.002; 4816.700;  207.375;    0.000
507.136; 4962.700;  242.375;    0.000
507.270; 4843.700;  232.375;    0.000
507.404; 4822.700;  195.375;    0.000
507.537; 4735.700;  218.375;    0.000
507.671; 4896.700;  246.375;    0.000
507.805; 4765.700;  244.375;    0.000
507.939; 4767.700;  251.375;    0.000
508.072; 4747.700;  212.375;    0.000
508.206; 4637.700;  198.375;    0.000
508.340; 4728.700;  234.375;    0.000
508.473; 4752.700;  217.375;    0.000
508.607; 4571.700;  224.375;    0.000
508.740; 4631.700;  207.375;    0.000
508.874; 4634.700;  230.375;    0.000
509.008; 4610.700;  246.375;    0.000
509.141; 4510.700;  239.375;    0.000
509.275; 4645.700;  229.375;    0.000
509.408; 4587.700;  234.375;    0.000
509.542; 4617.700;  212.375;    0.000
509.675; 4571.700;  256.375;    0.000
509.809; 4433.700;  232.375;    0.000
509.942; 4472.700;  237.375;    0.000
510.076; 4477.700;  226.375;    0.000
510.209; 4558.700;  251.375;    0.000
510.343; 4529.700;  229.375;    0.000
510.476; 4482.700;  285.375;    0.000
510.610; 4392.700;  211.375;    0.000
510.743; 4540.700;  258.375;    0.000
510.877; 4475.700;  244.375;    0.000
511.010; 4360.700;  235.375;    0.000
511.143; 4455.700;  251.375;    0.000
511.277; 4348.700;  228.375;    0.000
511.410; 4524.700;  216.375;    0.000
511.543; 4381.700;  231.375;    0.000
511.677; 4420.700;  244.375;    0.000
511.810; 4341.700;  186.375;    0.000
511.943; 4394.700;  211.375;    0.000
512.077; 4358.700;  201.375;    0.000
512.210; 4340.700;  194.375;    0.000
512.343; 4270.700;  233.375;    0.000
512.476; 4304.700;  234.375;    0.000
512.610; 4349.700;  224.375;    0.000
512.743; 4325.700;  255.375;    0.000
512.876; 4342.700;  264.375;    0.000
513.009; 4405.700;  283.375;    0.000
513.142; 4368.700;  246.375;    0.000
513.276; 4326.700;  217.375;    0.000
513.409; 4380.700;  222.375;    0.000
513.542; 4277.700;  237.375;    0.000
513.675; 4326.700;  238.375;    0.000
513.808; 4310.700;  220.375;    0.000
513.941; 4399.700;  233.375;    0.000
514.074; 4244.700;  248.375;    0.000
514.207; 4328.700;  233.375;    0.000
514.340; 4307.700;  190.375;    0.000
514.474; 4357.700;  221.375;    0.000
514.607; 4335.700;  213.375;    0.000
514.740; 4318.700;  251.375;    0.000
514.873; 4372.700;  257.375;    0.000
515.006; 4449.700;  268.375;    0.000
515.139; 4374.700;  257.375;    0.000
515.272; 4487.700;  227.375;    0.000
515.404; 4477.700;  238.375;    0.000
515.537; 4398.700;  275.375;    0.000
515.670; 4396.700;  239.375;    0.000
515.803; 4401.700;  223.375;    0.000
515.936; 4487.700;  202.375;    0.000
516.069; 4582.700;  188.375;    0.000
516.202; 4599.700;  240.375;    0.000
516.335; 4666.700;  252.375;    0.000
516.468; 4958.700;  254.375;    0.000
516.600; 5775.700;  254.375;    0.000
516.733; 7041.700;  255.375;    0.000
516.866; 6869.700;  265.375;    0.000
516.999; 6165.700;  251.375;    0.000
517.132; 7641.700;  256.375;    0.000
517.264;10367.700;  202.375;    0.000
517.397; 9786.700;  248.375;    0.000
517.530; 7272.700;  221.375;    0.000
517.663; 6338.700;  244.375;    0.000
517.795; 5934.700;  245.375;    0.000
517.928; 5825.700;  236.375;    0.000
518.061; 5951.700;  219.375;    0.000
518.193; 7604.700;  251.375;    0.000
518.326;11591.700;  271.375;    0.000
518.459;11955.700;  207.375;    0.000
518.591; 9104.700;  217.375;    0.000
518.724; 7007.700;  200.375;    0.000
518.857; 6226.700;  204.375;    0.000
518.989; 5825.700;  242.375;    0.000
519.122; 5441.700;  254.375;    0.000
519.254; 5214.700;  239.375;    0.000
519.387; 4947.700;  235.375;    0.000
519.519; 4879.700;  227.375;    0.000
519.652; 4776.700;  178.375;    0.000
519.784; 4628.700;  226.375;    0.000
519.917; 4637.700;  256.375;    0.000
520.049; 4659.700;  234.375;    0.000
520.182; 4557.700;  258.375;    0.000
520.314; 4416.700;  298.375;    0.000
520.447; 4378.700;  204.375;    0.000
520.579; 4298.700;  235.375;    0.000
520.712; 4311.700;  208.375;    0.000
520.844; 4350.700;  272.375;    0.000
520.976; 4230.700;  234.375;    0.000
521.109; 4257.700;  235.375;    0.000
521.241; 4173.700;  250.375;    0.000
521.373; 4151.700;  233.375;    0.000
521.506; 4043.700;  231.375;    0.000
521.638; 4131.700;  258.375;    0.000
521.770; 4034.700;  226.375;    0.000
521.903; 4062.700;  258.375;    0.000
522.035; 4037.700;  263.375;    0.000
522.167; 3987.700;  214.375;    0.000
522.300; 3977.700;  212.375;    0.000
522.432; 4021.700;  220.375;    0.000
522.564; 3833.700;  228.375;    0.000
522.696; 4012.700;  272.375;    0.000
522.828; 3917.700;  222.375;    0.000
522.961; 3936.700;  205.375;    0.000
523.093; 3890.700;  253.375;    0.000
523.225; 3990.700;  239.375;    0.000
523.357; 3910.700;  263.375;    0.000
523.489; 3912.700;  264.375;    0.000
523.621; 3848.700;  259.375;    0.000
523.753; 3735.700;  233.375;    0.000
523.885; 3855.700;  232.375;    0.000
524.018; 3781.700;  214.375;    0.000
524.150; 3736.700;  235.375;    0.000
524.282; 3798.700;  242.375;    0.000
524.414; 3713.700;  261.375;    0.000
524.546; 3737.700;  233.375;    0.000
524.678; 3786.700;  242.375;    0.000
524.810; 3830.700;  216.375;    0.000
524.942; 3665.700;  220.375;    0.000
525.074; 3610.700;  249.375;    0.000
525.206; 3652.700;  227.375;    0.000
525.338; 3539.700;  250.375;    0.000
525.469; 3633.700;  231.375;    0.000
525.601; 3670.700;  245.375;    0.000
525.733; 3635.700;  187.375;    0.000
525.865; 3650.700;  280.375;    0.000
525.997; 3673.700;  216.375;    0.000
526.129; 3604.700;  228.375;    0.000
526.261; 3605.700;  187.375;    0.000
526.393; 3597.700;  228.375;    0.000
526.524; 3541.700;  201.375;    0.000
526.656; 3590.700;  199.375;    0.000
526.788; 3624.700;  233.375;    0.000
526.920; 3598.700;  256.375;    0.000
527.052; 3512.700;  219.375;    0.000
527.183; 3478.700;  227.375;    0.000
527.315; 3495.700;  266.375;    0.000
527.447; 3634.700;  239.375;    0.000
527.578; 3491.700;  213.375;    0.000
527.710; 3496.700;  216.375;    0.000
527.842; 3523.700;  240.375;    0.000
527.973; 3471.700;  286.375;    0.000
528.105; 3505.700;  222.375;    0.000
528.237; 3605.700;  223.375;    0.000
528.368; 3496.700;  211.375;    0.000
528.500; 3489.700;  215.375;    0.000
528.632; 3499.700;  216.375;    0.000
528.763; 3528.700;  234.375;    0.000
528.895; 3436.700;  196.375;    0.000
529.026; 3544.700;  202.375;    0.000
529.158; 3440.700;  226.375;    0.000
529.289; 3543.700;  229.375;    0.000
529.421; 3482.700;  264.375;    0.000
529.552; 3432.700;  265.375;    0.000
529.684; 3530.700;  260.375;    0.000
529.815; 3584.700;  284.375;    0.000
529.947; 3441.700;  237.375;    0.000
530.078; 3425.700;  223.375;    0.000
530.210; 3446.700;  223.375;    0.000
530.341; 3489.700;  209.375;    0.000
530.472; 3462.700;  203.375;    0.000
530.604; 3512.700;  223.375;    0.000
530.735; 3422.700;  218.375;    0.000
530.867; 3507.700;  222.375;    0.000
530.998; 3502.700;  239.375;    0.000
531.129; 3513.700;  250.375;    0.000
531.260; 3368.700;  224.375;    0.000
531.392; 3559.700;  216.375;    0.000
531.523; 3469.700;  234.375;    0.000
531.654; 3543.700;  256.375;    0.000
531.786; 3418.700;  226.375;    0.000
531.917; 3472.700;  239.375;    0.000
532.048; 3583.700;  205.375;    0.000
532.179; 3572.700;  244.375;    0.000
532.311; 3425.700;  235.375;    0.000
532.442; 3435.700;  258.375;    0.000
532.573; 3490.700;  220.375;    0.000
532.704; 3441.700;  213.375;    0.000
532.835; 3386.700;  249.375;    0.000
532.966; 3468.700;  226.375;    0.000
533.097; 3497.700;  246.375;    0.000
533.229; 3511.700;  237.375;    0.000
533.360; 3464.700;  225.375;    0.000
533.491; 3469.700;  241.375;    0.000
533.622; 3520.700;  242.375;    0.000
533.753; 3478.700;  264.375;    0.000
533.884; 3525.700;  245.375;    0.000
534.015; 3436.700;  269.375;    0.000
534.146; 3452.700;  267.375;    0.000
534.277; 3434.700;  282.375;    0.000
534.408; 3395.700;  229.375;    0.000
534.539; 3408.700;  269.375;    0.000
534.670; 3546.700;  231.375;    0.000
534.801; 3378.700;  260.375;    0.000
534.932; 3419.700;  232.375;    0.000
535.063; 3361.700;  227.375;    0.000
535.194; 3370.700;  281.375;    0.000
535.324; 3403.700;  206.375;    0.000
535.455; 3437.700;  257.375;    0.000
535.586; 3459.700;  275.375;    0.000
535.717; 3330.700;  206.375;    0.000
535.848; 3433.700;  271.375;    0.000
535.979; 3503.700;  250.375;    0.000
536.109; 3354.700;  253.375;    0.000
536.240; 3455.700;  234.375;    0.000
536.371; 3367.700;  230.375;    0.000
536.502; 3432.700;  270.375;    0.000
536.632; 3441.700;  228.375;    0.000
536.763; 3403.700;  249.375;    0.000
536.894; 3351.700;  262.375;    0.000
537.025; 3353.700;  258.375;    0.000
537.155; 3448.700;  278.375;    0.000
537.286; 3320.700;  209.375;    0.000
537.417; 3395.700;  255.375;    0.000
537.547; 3255.700;  208.375;    0.000
537.678; 3378.700;  224.375;    0.000
537.808; 3344.700;  224.375;    0.000
537.939; 3348.700;  257.375;    0.000
538.070; 3327.700;  240.375;    0.000
538.200; 3391.700;  259.375;    0.000
538.331; 3395.700;  235.375;    0.000
538.461; 3246.700;  251.375;    0.000
538.592; 3354.700;  245.375;    0.000
538.722; 3259.700;  239.375;    0.000
538.853; 3363.700;  216.375;    0.000
538.983; 3319.700;  226.375;    0.000
539.114; 3305.700;  240.375;    0.000
539.244; 3323.700;  237.375;    0.000
539.375; 3269.700;  198.375;    0.000
539.505; 3197.700;  263.375;    0.000
539.636; 3307.700;  226.375;    0.000
539.766; 3280.700;  229.375;    0.000
539.896; 3251.700;  219.375;    0.000
540.027; 3324.700;  246.375;    0.000
540.157; 3268.700;  218.375;    0.000
540.287; 3245.700;  216.375;    0.000
540.418; 3228.700;  267.375;    0.000
540.548; 3301.700;  260.375;    0.000
540.678; 3360.700;  242.375;    0.000
540.809; 3340.700;  260.375;    0.000
540.939; 3250.700;  257.375;    0.000
541.069; 3324.700;  226.375;    0.000
541.200; 3328.700;  227.375;    0.000
541.330; 3326.700;  218.375;    0.000
541.460; 3294.700;  223.375;    0.000
541.590; 3351.700;  237.375;    0.000
541.720; 3266.700;  222.375;    0.000
541.851; 3258.700;  250.375;    0.000
541.981; 3341.700;  222.375;    0.000
542.111; 3391.700;  212.375;    0.000
542.241; 3433.700;  205.375;    0.000
542.371; 3331.700;  202.375;    0.000
542.501; 3315.700;  218.375;    0.000
542.631; 3450.700;  222.375;    0.000
542.761; 3413.700;  249.375;    0.000
542.891; 3360.700;  173.375;    0.000
543.021; 3459.700;  218.375;    0.000
543.151; 3425.700;  222.375;    0.000
543.281; 3479.700;  188.375;    0.000
543.411; 3386.700;  239.375;    0.000
543.542; 3398.700;  215.375;    0.000
543.671; 3439.700;  250.375;    0.000
543.801; 3416.700;  212.375;    0.000
543.931; 3375.700;  233.375;    0.000
544.061; 3407.700;  194.375;    0.000
544.191; 3415.700;  218.375;    0.000
544.321; 3493.700;  220.375;    0.000
544.451; 3336.700;  183.375;    0.000
544.581; 3415.700;  221.375;    0.000
544.711; 3523.700;  224.375;    0.000
544.841; 3429.700;  214.375;    0.000
544.970; 3438.700;  227.375;    0.000
545.100; 3492.700;  186.375;    0.000
545.230; 3477.700;  205.375;    0.000
545.360; 3523.700;  211.375;    0.000
545.490; 3436.700;  202.375;    0.000
545.619; 3421.700;  182.375;    0.000
545.749; 3412.700;  174.375;    0.000
545.879; 3398.700;  169.375;    0.000
546.009; 3423.700;  182.375;    0.000
546.138; 3324.700;  200.375;    0.000
546.268; 3358.700;  204.375;    0.000
546.398; 3364.700;  200.375;    0.000
546.527; 3391.700;  179.375;    0.000
546.657; 3413.700;  162.375;    0.000
546.786; 3462.700;  179.375;    0.000
546.916; 3447.700;  221.375;    0.000
547.046; 3352.700;  179.375;    0.000
547.175; 3361.700;  168.375;    0.000
547.305; 3468.700;  200.375;    0.000
547.434; 3403.700;  166.375;    0.000
547.564; 3361.700;  177.375;    0.000
547.693; 3410.700;  152.375;    0.000
547.823; 3394.700;  171.375;    0.000
547.953; 3404.700;  195.375;    0.000
548.082; 3403.700;  214.375;    0.000
548.211; 3442.700;  177.375;    0.000
548.341; 3391.700;  189.375;    0.000
548.470; 3431.700;  194.375;    0.000
548.600; 3444.700;  172.375;    0.000
548.729; 3325.700;  158.375;    0.000
548.859; 3329.700;  193.375;    0.000
548.988; 3315.700;  131.375;    0.000
549.117; 3451.700;  204.375;    0.000
549.247; 3460.700;  191.375;    0.000
549.376; 3360.700;  202.375;    0.000
549.505; 3460.700;  187.375;    0.000
549.635; 3481.700;  198.375;    0.000
549.764; 3447.700;  155.375;    0.000
549.893; 3374.700;  176.375;    0.000
550.023; 3472.700;  202.375;    0.000
550.152; 3460.700;  168.375;    0.000
550.281; 3588.700;  180.375;    0.000
550.410; 3535.700;  180.375;    0.000
550.539; 3541.700;  181.375;    0.000
550.669; 3558.700;  168.375;    0.000
550.798; 3530.700;  223.375;    0.000
550.927; 3518.700;  179.375;    0.000
551.056; 3547.700;  159.375;    0.000
551.185; 3428.700;  199.375;    0.000
551.314; 3555.700;  185.375;    0.000
551.443; 3453.700;  172.375;    0.000
551.573; 3489.700;  158.375;    0.000
551.702; 3553.700;  210.375;    0.000
551.831; 3576.700;  238.375;    0.000
551.960; 3493.700;  191.375;    0.000
552.089; 3554.700;  195.375;    0.000
552.218; 3556.700;  196.375;    0.000
552.347; 3636.700;  194.375;    0.000
552.476; 3606.700;  192.375;    0.000
552.605; 3668.700;  172.375;    0.000
552.734; 3701.700;  214.375;    0.000
552.863; 3866.700;  177.375;    0.000
552.992; 3732.700;  190.375;    0.000
553.121; 3801.700;  185.375;    0.000
553.249; 3704.700;  175.375;    0.000
553.378; 3638.700;  192.375;    0.000
553.507; 3601.700;  193.375;    0.000
553.636; 3522.700;  182.375;    0.000
553.765; 3612.700;  187.375;    0.000
553.894; 3618.700;  214.375;    0.000
554.023; 3597.700;  217.375;    0.000
554.151; 3586.700;  223.375;    0.000
554.280; 3661.700;  170.375;    0.000
554.409; 3530.700;  172.375;    0.000
554.538; 3577.700;  182.375;    0.000
554.666; 3630.700;  195.375;    0.000
554.795; 3447.700;  176.375;    0.000
554.924; 3556.700;  164.375;    0.000
555.052; 3567.700;  171.375;    0.000
555.181; 3550.700;  208.375;    0.000
555.310; 3519.700;  214.375;    0.000
555.439; 3563.700;  193.375;    0.000
555.567; 3398.700;  189.375;    0.000
555.696; 3531.700;  196.375;    0.000
555.824; 3447.700;  183.375;    0.000
555.953; 3415.700;  234.375;    0.000
556.082; 3385.700;  183.375;    0.000
556.210; 3433.700;  199.375;    0.000
556.339; 3455.700;  201.375;    0.000
556.467; 3337.700;  208.375;    0.000
556.596; 3341.700;  194.375;    0.000
556.724; 3432.700;  170.375;    0.000
556.853; 3428.700;  166.375;    0.000
556.981; 3377.700;  185.375;    0.000
557.110; 3348.700;  213.375;    0.000
557.238; 3420.700;  188.375;    0.000
557.367; 3308.700;  176.375;    0.000
557.495; 3440.700;  180.375;    0.000
557.623; 3310.700;  193.375;    0.000
557.752; 3402.700;  207.375;    0.000
557.880; 3374.700;  189.375;    0.000
558.008; 3434.700;  169.375;    0.000
558.137; 3424.700;  203.375;    0.000
558.265; 3443.700;  167.375;    0.000
558.393; 3367.700;  204.375;    0.000
558.522; 3383.700;  203.375;    0.000
558.650; 3467.700;  215.375;    0.000
558.778; 3430.700;  190.375;    0.000
558.906; 3341.700;  186.375;    0.000
559.035; 3457.700;  193.375;    0.000
559.163; 3411.700;  198.375;    0.000
559.291; 3347.700;  222.375;    0.000
559.419; 3435.700;  192.375;    0.000
559.548; 3284.700;  186.375;    0.000
559.676; 3398.700;  199.375;    0.000
559.804; 3431.700;  186.375;    0.000
559.932; 3383.700;  202.375;    0.000
560.060; 3419.700;  183.375;    0.000
560.188; 3418.700;  212.375;    0.000
560.316; 3439.700;  192.375;    0.000
560.444; 3429.700;  180.375;    0.000
560.572; 3429.700;  206.375;    0.000
560.700; 3493.700;  184.375;    0.000
560.828; 3571.700;  177.375;    0.000
560.956; 3421.700;  221.375;    0.000
561.085; 3606.700;  227.375;    0.000
561.212; 3494.700;  208.375;    0.000
561.340; 3592.700;  189.375;    0.000
561.468; 3559.700;  189.375;    0.000
561.596; 3582.700;  183.375;    0.000
561.724; 3509.700;  188.375;    0.000
561.852; 3565.700;  183.375;    0.000
561.980; 3602.700;  209.375;    0.000
562.108; 3549.700;  165.375;    0.000
562.236; 3497.700;  188.375;    0.000
562.364; 3476.700;  177.375;    0.000
562.492; 3510.700;  192.375;    0.000
562.619; 3639.700;  187.375;    0.000
562.747; 3564.700;  217.375;    0.000
562.875; 3626.700;  221.375;    0.000
563.003; 3570.700;  199.375;    0.000
563.130; 3643.700;  191.375;    0.000
563.258; 3633.700;  186.375;    0.000
563.386; 3620.700;  191.375;    0.000
563.514; 3673.700;  217.375;    0.000
563.641; 3713.700;  220.375;    0.000
563.769; 3751.700;  186.375;    0.000
563.897; 3740.700;  158.375;    0.000
564.024; 3754.700;  192.375;    0.000
564.152; 3874.700;  217.375;    0.000
564.280; 3870.700;  203.375;    0.000
564.407; 3779.700;  190.375;    0.000
564.535; 3830.700;  188.375;    0.000
564.662; 3837.700;  199.375;    0.000
564.790; 3931.700;  227.375;    0.000
564.917; 3895.700;  160.375;    0.000
565.045; 3939.700;  222.375;    0.000
565.173; 3973.700;  169.375;    0.000
565.300; 4020.700;  208.375;    0.000
565.428; 4149.700;  174.375;    0.000
565.555; 4059.700;  201.375;    0.000
565.682; 4107.700;  180.375;    0.000
565.810; 4102.700;  165.375;    0.000
565.937; 4184.700;  167.375;    0.000
566.065; 4284.700;  190.375;    0.000
566.192; 4297.700;  169.375;    0.000
566.320; 4325.700;  167.375;    0.000
566.447; 4347.700;  151.375;    0.000
566.574; 4448.700;  176.375;    0.000
566.702; 4454.700;  198.375;    0.000
566.829; 4528.700;  209.375;    0.000
566.956; 4582.700;  186.375;    0.000
567.083; 4561.700;  188.375;    0.000
567.211; 4606.700;  159.375;    0.000
567.338; 4631.700;  204.375;    0.000
567.465; 4624.700;  141.375;    0.000
567.593; 4631.700;  168.375;    0.000
567.720; 4670.700;  177.375;    0.000
567.847; 4673.700;  160.375;    0.000
567.974; 4605.700;  139.375;    0.000
568.101; 4592.700;  153.375;    0.000
568.228; 4533.700;  173.375;    0.000
568.356; 4489.700;  149.375;    0.000
568.483; 4388.700;  185.375;    0.000
568.610; 4388.700;  170.375;    0.000
568.737; 4352.700;  223.375;    0.000
568.864; 4432.700;  167.375;    0.000
568.991; 4256.700;  177.375;    0.000
569.118; 4190.700;  169.375;    0.000
569.245; 4068.700;  128.375;    0.000
569.372; 4026.700;  160.375;    0.000
569.499; 3884.700;  156.375;    0.000
569.626; 3872.700;  191.375;    0.000
569.753; 3857.700;  163.375;    0.000
569.880; 4000.700;  167.375;    0.000
570.007; 3869.700;  143.375;    0.000
570.134; 3790.700;  191.375;    0.000
570.261; 3854.700;  164.375;    0.000
570.388; 3762.700;  162.375;    0.000
570.515; 3846.700;  220.375;    0.000
570.642; 3770.700;  184.375;    0.000
570.768; 3833.700;  174.375;    0.000
570.895; 3709.700;  177.375;    0.000
571.022; 3803.700;  152.375;    0.000
571.149; 3787.700;  183.375;    0.000
571.276; 3783.700;  153.375;    0.000
571.402; 3674.700;  190.375;    0.000
571.529; 3734.700;  187.375;    0.000
571.656; 3591.700;  167.375;    0.000
571.783; 3583.700;  186.375;    0.000
571.909; 3649.700;  183.375;    0.000
572.036; 3583.700;  162.375;    0.000
572.163; 3629.700;  196.375;    0.000
572.289; 3613.700;  180.375;    0.000
572.416; 3559.700;  190.375;    0.000
572.543; 3592.700;  174.375;    0.000
572.669; 3479.700;  186.375;    0.000
572.796; 3474.700;  205.375;    0.000
572.922; 3508.700;  185.375;    0.000
573.049; 3581.700;  178.375;    0.000
573.176; 3504.700;  196.375;    0.000
573.302; 3575.700;  202.375;    0.000
573.429; 3443.700;  189.375;    0.000
573.555; 3436.700;  145.375;    0.000
573.682; 3512.700;  228.375;    0.000
573.808; 3406.700;  197.375;    0.000
573.935; 3489.700;  216.375;    0.000
574.061; 3445.700;  173.375;    0.000
574.188; 3514.700;  151.375;    0.000
574.314; 3454.700;  181.375;    0.000
574.440; 3415.700;  167.375;    0.000
574.567; 3458.700;  185.375;    0.000
574.693; 3448.700;  173.375;    0.000
574.820; 3511.700;  164.375;    0.000
574.946; 3393.700;  199.375;    0.000
575.072; 3451.700;  162.375;    0.000
575.198; 3479.700;  225.375;    0.000
575.325; 3362.700;  171.375;    0.000
575.451; 3501.700;  183.375;    0.000
575.577; 3390.700;  190.375;    0.000
575.704; 3419.700;  210.375;    0.000
575.830; 3389.700;  185.375;    0.000
575.956; 3441.700;  168.375;    0.000
576.082; 3420.700;  158.375;    0.000
576.208; 3377.700;  158.375;    0.000
576.335; 3403.700;  196.375;    0.000
576.461; 3376.700;  187.375;    0.000
576.587; 3362.700;  157.375;    0.000
576.713; 3446.700;  156.375;    0.000
576.839; 3406.700;  196.375;    0.000
576.965; 3383.700;  187.375;    0.000
577.091; 3376.700;  204.375;    0.000
577.217; 3493.700;  207.375;    0.000
577.343; 3367.700;  175.375;    0.000
577.469; 3461.700;  197.375;    0.000
577.596; 3343.700;  182.375;    0.000
577.722; 3328.700;  159.375;    0.000
577.848; 3356.700;  162.375;    0.000
577.974; 3347.700;  180.375;    0.000
578.099; 3348.700;  161.375;    0.000
578.225; 3393.700;  180.375;    0.000
578.351; 3390.700;  190.375;    0.000
578.477; 3318.700;  212.375;    0.000
578.603; 3379.700;  179.375;    0.000
578.729; 3336.700;  195.375;    0.000
578.855; 3336.700;  153.375;    0.000
578.981; 3315.700;  162.375;    0.000
579.107; 3381.700;  149.375;    0.000
579.232; 3383.700;  164.375;    0.000
579.358; 3380.700;  162.375;    0.000
579.484; 3278.700;  181.375;    0.000
579.610; 3417.700;  190.375;    0.000
579.735; 3390.700;  191.375;    0.000
579.861; 3317.700;  189.375;    0.000
579.987; 3312.700;  202.375;    0.000
580.113; 3335.700;  197.375;    0.000
580.238; 3278.700;  228.375;    0.000
580.364; 3401.700;  212.375;    0.000
580.490; 3376.700;  225.375;    0.000
580.615; 3274.700;  218.375;    0.000
580.741; 3359.700;  167.375;    0.000
580.867; 3363.700;  215.375;    0.000
580.992; 3294.700;  191.375;    0.000
581.118; 3330.700;  171.375;    0.000
581.243; 3401.700;  204.375;    0.000
581.369; 3265.700;  186.375;    0.000
581.494; 3349.700;  184.375;    0.000
581.620; 3337.700;  212.375;    0.000
581.745; 3375.700;  192.375;    0.000
581.871; 3354.700;  195.375;    0.000
581.996; 3336.700;  160.375;    0.000
582.122; 3284.700;  217.375;    0.000
582.247; 3300.700;  213.375;    0.000
582.373; 3293.700;  187.375;    0.000
582.498; 3389.700;  208.375;    0.000
582.624; 3312.700;  189.375;    0.000
582.749; 3366.700;  185.375;    0.000
582.874; 3262.700;  195.375;    0.000
583.000; 3440.700;  208.375;    0.000
583.125; 3382.700;  147.375;    0.000
583.250; 3372.700;  201.375;    0.000
583.376; 3303.700;  191.375;    0.000
583.501; 3301.700;  206.375;    0.000
583.626; 3328.700;  167.375;    0.000
583.751; 3427.700;  180.375;    0.000
583.877; 3294.700;  185.375;    0.000
584.002; 3393.700;  186.375;    0.000
584.127; 3284.700;  176.375;    0.000
584.252; 3336.700;  214.375;    0.000
584.377; 3383.700;  225.375;    0.000
584.503; 3381.700;  195.375;    0.000
584.628; 3332.700;  206.375;    0.000
584.753; 3398.700;  181.375;    0.000
584.878; 3352.700;  136.375;    0.000
585.003; 3409.700;  215.375;    0.000
585.128; 3386.700;  206.375;    0.000
585.253; 3442.700;  200.375;    0.000
585.378; 3487.700;  169.375;    0.000
585.503; 3424.700;  191.375;    0.000
585.628; 3436.700;  182.375;    0.000
585.753; 3499.700;  164.375;    0.000
585.878; 3375.700;  123.375;    0.000
586.003; 3469.700;  187.375;    0.000
586.128; 3408.700;  198.375;    0.000
586.253; 3380.700;  172.375;    0.000
586.378; 3375.700;  191.375;    0.000
586.503; 3367.700;  190.375;    0.000
586.628; 3456.700;  178.375;    0.000
586.753; 3442.700;  184.375;    0.000
586.878; 3556.700;  169.375;    0.000
587.003; 3513.700;  186.375;    0.000
587.127; 3589.700;  170.375;    0.000
587.252; 3562.700;  170.375;    0.000
587.377; 3543.700;  181.375;    0.000
587.502; 3606.700;  209.375;    0.000
587.627; 3646.700;  210.375;    0.000
587.751; 3806.700;  212.375;    0.000
587.876; 3783.700;  198.375;    0.000
588.001; 3845.700;  161.375;    0.000
588.125; 4013.700;  191.375;    0.000
588.250; 4201.700;  132.375;    0.000
588.375; 4437.700;  183.375;    0.000
588.499; 4715.700;  176.375;    0.000
588.624; 5252.700;  173.375;    0.000
588.749; 6718.700;  204.375;    0.000
588.873; 9904.700;  179.375;    0.000
588.998;13556.700;  182.375;    0.000
589.122;12149.700;  165.375;    0.000
589.247; 8912.700;  185.375;    0.000
589.372; 7863.700;  199.375;    0.000
589.496; 9994.700;  182.375;    0.000
589.621;11740.700;  158.375;    0.000
589.745; 9510.700;  213.375;    0.000
589.870; 6796.700;  175.375;    0.000
589.994; 5573.700;  194.375;    0.000
590.118; 5013.700;  218.375;    0.000
590.243; 4624.700;  170.375;    0.000
590.367; 4347.700;  189.375;    0.000
590.492; 4294.700;  196.375;    0.000
590.616; 4134.700;  182.375;    0.000
590.740; 4060.700;  210.375;    0.000
590.865; 3944.700;  242.375;    0.000
590.989; 3949.700;  191.375;    0.000
591.114; 3999.700;  167.375;    0.000
591.238; 3753.700;  194.375;    0.000
591.362; 3774.700;  236.375;    0.000
591.486; 3824.700;  194.375;    0.000
591.611; 3736.700;  154.375;    0.000
591.735; 3839.700;  186.375;    0.000
591.859; 3800.700;  148.375;    0.000
591.983; 3727.700;  211.375;    0.000
592.107; 3768.700;  204.375;    0.000
592.232; 3712.700;  194.375;    0.000
592.356; 3795.700;  238.375;    0.000
592.480; 3770.700;  179.375;    0.000
592.604; 3761.700;  192.375;    0.000
592.728; 3758.700;  201.375;    0.000
592.852; 3756.700;  158.375;    0.000
592.976; 3783.700;  152.375;    0.000
593.100; 3861.700;  194.375;    0.000
593.224; 3752.700;  235.375;    0.000
593.349; 3801.700;  233.375;    0.000
593.473; 3768.700;  194.375;    0.000
593.597; 3665.700;  215.375;    0.000
593.721; 3772.700;  212.375;    0.000
593.844; 3812.700;  220.375;    0.000
593.968; 3694.700;  221.375;    0.000
594.092; 3704.700;  150.375;    0.000
594.216; 3668.700;  212.375;    0.000
594.340; 3726.700;  209.375;    0.000
594.464; 3754.700;  207.375;    0.000
594.588; 3667.700;  195.375;    0.000
594.712; 3596.700;  176.375;    0.000
594.836; 3588.700;  219.375;    0.000
594.959; 3587.700;  215.375;    0.000
595.083; 3527.700;  200.375;    0.000
595.207; 3565.700;  206.375;    0.000
595.331; 3570.700;  207.375;    0.000
595.455; 3566.700;  206.375;    0.000
595.578; 3645.700;  204.375;    0.000
595.702; 3601.700;  225.375;    0.000
595.826; 3512.700;  186.375;    0.000
595.949; 3427.700;  196.375;    0.000
596.073; 3369.700;  188.375;    0.000
596.197; 3418.700;  217.375;    0.000
596.320; 3386.700;  225.375;    0.000
596.444; 3414.700;  220.375;    0.000
596.568; 3411.700;  155.375;    0.000
596.691; 3360.700;  195.375;    0.000
596.815; 3451.700;  163.375;    0.000
596.938; 3411.700;  181.375;    0.000
597.062; 3291.700;  201.375;    0.000
597.186; 3333.700;  200.375;    0.000
597.309; 3304.700;  214.375;    0.000
597.433; 3305.700;  176.375;    0.000
597.556; 3277.700;  193.375;    0.000
597.680; 3375.700;  241.375;    0.000
597.803; 3188.700;  185.375;    0.000
597.926; 3266.700;  200.375;    0.000
598.050; 3242.700;  193.375;    0.000
598.173; 3294.700;  219.375;    0.000
598.297; 3223.700;  223.375;    0.000
598.420; 3192.700;  187.375;    0.000
598.543; 3245.700;  205.375;    0.000
598.667; 3233.700;  177.375;    0.000
598.790; 3231.700;  208.375;    0.000
598.913; 3277.700;  170.375;    0.000
599.037; 3274.700;  212.375;    0.000
599.160; 3292.700;  165.375;    0.000
599.283; 3226.700;  211.375;    0.000
599.406; 3201.700;  207.375;    0.000
599.530; 3158.700;  182.375;    0.000
599.653; 3215.700;  215.375;    0.000
599.776; 3244.700;  167.375;    0.000
599.899; 3161.700;  190.375;    0.000
600.022; 3208.700;  182.375;    0.000
600.145; 3221.700;  180.375;    0.000
600.269; 3203.700;  208.375;    0.000
600.392; 3240.700;  214.375;    0.000
600.515; 3166.700;  196.375;    0.000
600.638; 3176.700;  204.375;    0.000
600.761; 3150.700;  209.375;    0.000
600.884; 3229.700;  207.375;    0.000
601.007; 3130.700;  234.375;    0.000
601.130; 3173.700;  183.375;    0.000
601.253; 3092.700;  211.375;    0.000
601.376; 3253.700;  199.375;    0.000
601.499; 3104.700;  190.375;    0.000
601.622; 3303.700;  210.375;    0.000
601.745; 3100.700;  180.375;    0.000
601.868; 3200.700;  204.375;    0.000
601.991; 3196.700;  188.375;    0.000
602.113; 3144.700;  210.375;    0.000
602.236; 3101.700;  194.375;    0.000
602.359; 3046.700;  213.375;    0.000
602.482; 3098.700;  169.375;    0.000
602.605; 2960.700;  189.375;    0.000
602.728; 3072.700;  236.375;    0.000
602.850; 3154.700;  230.375;    0.000
602.973; 3109.700;  187.375;    0.000
603.096; 3127.700;  201.375;    0.000
603.219; 3116.700;  209.375;    0.000
603.341; 3068.700;  209.375;    0.000
603.464; 3101.700;  194.375;    0.000
603.587; 3104.700;  166.375;    0.000
603.709; 3141.700;  175.375;    0.000
603.832; 3104.700;  239.375;    0.000
603.955; 3142.700;  205.375;    0.000
604.077; 3116.700;  196.375;    0.000
604.200; 3142.700;  188.375;    0.000
604.323; 3052.700;  224.375;    0.000
604.445; 3062.700;  182.375;    0.000
604.568; 3091.700;  199.375;    0.000
604.690; 3056.700;  175.375;    0.000
604.813; 3087.700;  211.375;    0.000
604.935; 3058.700;  171.375;    0.000
605.058; 3069.700;  196.375;    0.000
605.180; 3013.700;  194.375;    0.000
605.303; 3026.700;  198.375;    0.000
605.425; 3081.700;  212.375;    0.000
605.547; 3075.700;  238.375;    0.000
605.670; 3074.700;  207.375;    0.000
605.792; 3048.700;  204.375;    0.000
605.915; 3089.700;  198.375;    0.000
606.037; 3010.700;  215.375;    0.000
606.159; 3125.700;  170.375;    0.000
606.282; 2959.700;  194.375;    0.000
606.404; 3050.700;  207.375;    0.000
606.526; 3046.700;  208.375;    0.000
606.648; 2997.700;  174.375;    0.000
606.771; 2978.700;  170.375;    0.000
606.893; 3017.700;  182.375;    0.000
607.015; 3065.700;  180.375;    0.000
607.137; 3005.700;  187.375;    0.000
607.260; 3058.700;  202.375;    0.000
607.382; 3083.700;  226.375;    0.000
607.504; 2998.700;  208.375;    0.000
607.626; 3010.700;  229.375;    0.000
607.748; 3070.700;  170.375;    0.000
607.870; 3029.700;  208.375;    0.000
607.992; 3031.700;  184.375;    0.000
608.114; 3003.700;  213.375;    0.000
608.237; 3057.700;  237.375;    0.000
608.359; 3023.700;  176.375;    0.000
608.481; 2990.700;  173.375;    0.000
608.603; 2973.700;  189.375;    0.000
608.725; 2991.700;  185.375;    0.000
608.847; 3046.700;  239.375;    0.000
608.969; 3089.700;  237.375;    0.000
609.090; 2975.700;  189.375;    0.000
609.212; 2944.700;  147.375;    0.000
609.334; 3049.700;  177.375;    0.000
609.456; 3051.700;  196.375;    0.000
609.578; 2904.700;  199.375;    0.000
609.700; 2935.700;  167.375;    0.000
609.822; 2940.700;  140.375;    0.000
609.944; 3048.700;  225.375;    0.000
610.065; 3021.700;  183.375;    0.000
610.187; 2956.700;  170.375;    0.000
610.309; 2991.700;  210.375;    0.000
610.431; 2934.700;  185.375;    0.000
610.552; 2980.700;  197.375;    0.000
610.674; 2998.700;  188.375;    0.000
610.796; 2970.700;  162.375;    0.000
610.918; 2943.700;  200.375;    0.000
611.039; 2923.700;  209.375;    0.000
611.161; 2954.700;  201.375;    0.000
611.282; 2883.700;  197.375;    0.000
611.404; 3003.700;  220.375;    0.000
611.526; 2951.700;  159.375;    0.000
611.647; 2915.700;  205.375;    0.000
611.769; 2843.700;  161.375;    0.000
611.890; 2961.700;  173.375;    0.000
612.012; 2907.700;  225.375;    0.000
612.133; 2995.700;  188.375;    0.000
612.255; 2955.700;  217.375;    0.000
612.377; 2913.700;  219.375;    0.000
612.498; 2844.700;  177.375;    0.000
612.619; 3015.700;  211.375;    0.000
612.741; 2933.700;  185.375;    0.000
612.862; 2979.700;  191.375;    0.000
612.984; 2908.700;  190.375;    0.000
613.105; 2960.700;  211.375;    0.000
613.226; 2911.700;  174.375;    0.000
613.348; 2946.700;  235.375;    0.000
613.469; 2939.700;  230.375;    0.000
613.590; 2904.700;  208.375;    0.000
613.712; 2954.700;  244.375;    0.000
613.833; 2967.700;  202.375;    0.000
613.954; 2935.700;  228.375;    0.000
614.076; 2903.700;  220.375;    0.000
614.197; 2858.700;  191.375;    0.000
614.318; 2971.700;  201.375;    0.000
614.439; 2891.700;  212.375;    0.000
614.560; 2941.700;  219.375;    0.000
614.682; 2883.700;  189.375;    0.000
614.803; 2891.700;  188.375;    0.000
614.924; 2969.700;  225.375;    0.000
615.045; 2989.700;  227.375;    0.000
615.166; 2932.700;  200.375;    0.000
615.287; 2891.700;  195.375;    0.000
615.408; 2911.700;  199.375;    0.000
615.529; 2936.700;  227.375;    0.000
615.650; 2864.700;  176.375;    0.000
615.771; 2834.700;  211.375;    0.000
615.892; 2895.700;  212.375;    0.000
616.013; 2885.700;  172.375;    0.000
616.134; 2992.700;  220.375;    0.000
616.255; 2936.700;  251.375;    0.000
616.376; 2947.700;  186.375;    0.000
616.497; 2975.700;  201.375;    0.000
616.618; 2948.700;  149.375;    0.000
616.739; 2918.700;  213.375;    0.000
616.860; 2910.700;  224.375;    0.000
616.981; 2987.700;  224.375;    0.000
617.102; 2875.700;  217.375;    0.000
617.222; 2848.700;  237.375;    0.000
617.343; 2903.700;  205.375;    0.000
617.464; 2971.700;  229.375;    0.000
617.585; 2903.700;  227.375;    0.000
617.705; 2849.700;  191.375;    0.000
617.826; 2900.700;  237.375;    0.000
617.947; 2901.700;  223.375;    0.000
618.068; 2937.700;  189.375;    0.000
618.188; 2871.700;  194.375;    0.000
618.309; 2872.700;  206.375;    0.000
618.430; 2926.700;  229.375;    0.000
618.550; 2940.700;  250.375;    0.000
618.671; 2894.700;  201.375;    0.000
618.791; 2853.700;  226.375;    0.000
618.912; 2924.700;  246.375;    0.000
619.033; 2861.700;  243.375;    0.000
619.153; 2884.700;  208.375;    0.000
619.274; 2883.700;  223.375;    0.000
619.394; 2838.700;  226.375;    0.000
619.515; 2838.700;  188.375;    0.000
619.635; 2796.700;  216.375;    0.000
619.756; 2834.700;  229.375;    0.000
619.876; 2869.700;  216.375;    0.000
619.996; 2923.700;  244.375;    0.000
620.117; 2843.700;  225.375;    0.000
620.237; 2796.700;  207.375;    0.000
620.358; 2841.700;  239.375;    0.000
620.478; 2860.700;  237.375;    0.000
620.598; 2853.700;  237.375;    0.000
620.719; 2771.700;  223.375;    0.000
620.839; 2852.700;  254.375;    0.000
620.959; 2866.700;  244.375;    0.000
621.079; 2700.700;  193.375;    0.000
621.200; 2852.700;  233.375;    0.000
621.320; 2857.700;  270.375;    0.000
621.440; 2784.700;  206.375;    0.000
621.560; 2731.700;  241.375;    0.000
621.681; 2748.700;  231.375;    0.000
621.801; 2874.700;  235.375;    0.000
621.921; 2828.700;  240.375;    0.000
622.041; 2812.700;  244.375;    0.000
622.161; 2793.700;  225.375;    0.000
622.281; 2780.700;  222.375;    0.000
622.401; 2783.700;  238.375;    0.000
622.521; 2860.700;  233.375;    0.000
622.641; 2724.700;  241.375;    0.000
622.761; 2794.700;  233.375;    0.000
622.882; 2858.700;  230.375;    0.000
623.002; 2817.700;  206.375;    0.000
623.121; 2780.700;  217.375;    0.000
623.241; 2830.700;  263.375;    0.000
623.361; 2801.700;  245.375;    0.000
623.481; 2851.700;  194.375;    0.000
623.601; 2840.700;  228.375;    0.000
623.721; 2804.700;  219.375;    0.000
623.841; 2823.700;  234.375;    0.000
623.961; 2764.700;  235.375;    0.000
624.081; 2679.700;  166.375;    0.000
624.201; 2772.700;  229.375;    0.000
624.320; 2790.700;  224.375;    0.000
624.440; 2769.700;  200.375;    0.000
624.560; 2664.700;  220.375;    0.000
624.680; 2719.700;  214.375;    0.000
624.799; 2724.700;  179.375;    0.000
624.919; 2803.700;  199.375;    0.000
625.039; 2800.700;  211.375;    0.000
625.159; 2754.700;  213.375;    0.000
625.278; 2683.700;  178.375;    0.000
625.398; 2754.700;  206.375;    0.000
625.518; 2689.700;  182.375;    0.000
625.637; 2714.700;  206.375;    0.000
625.757; 2737.700;  197.375;    0.000
625.876; 2763.700;  204.375;    0.000
625.996; 2771.700;  222.375;    0.000
626.115; 2712.700;  222.375;    0.000
626.235; 2729.700;  222.375;    0.000
626.354; 2742.700;  211.375;    0.000
626.474; 2751.700;  217.375;    0.000
626.594; 2699.700;  190.375;    0.000
626.713; 2716.700;  200.375;    0.000
626.832; 2732.700;  234.375;    0.000
626.952; 2657.700;  214.375;    0.000
627.071; 2769.700;  243.375;    0.000
627.191; 2591.700;  192.375;    0.000
627.310; 2662.700;  211.375;    0.000
627.429; 2754.700;  218.375;    0.000
627.549; 2680.700;  214.375;    0.000
627.668; 2708.700;  208.375;    0.000
627.787; 2741.700;  199.375;    0.000
627.907; 2647.700;  208.375;    0.000
628.026; 2741.700;  216.375;    0.000
628.145; 2676.700;  170.375;    0.000
628.264; 2738.700;  217.375;    0.000
628.384; 2636.700;  190.375;    0.000
628.503; 2709.700;  203.375;    0.000
628.622; 2710.700;  197.375;    0.000
628.741; 2642.700;  186.375;    0.000
628.860; 2697.700;  191.375;    0.000
628.980; 2722.700;  196.375;    0.000
629.099; 2700.700;  190.375;    0.000
629.218; 2677.700;  165.375;    0.000
629.337; 2821.700;  190.375;    0.000
629.456; 2708.700;  222.375;    0.000
629.575; 2593.700;  197.375;    0.000
629.694; 2702.700;  210.375;    0.000
629.813; 2612.700;  187.375;    0.000
629.932; 2672.700;  224.375;    0.000
630.051; 2740.700;  216.375;    0.000
630.170; 2692.700;  203.375;    0.000
630.289; 2689.700;  178.375;    0.000
630.408; 2608.700;  192.375;    0.000
630.527; 2664.700;  223.375;    0.000
630.646; 2658.700;  177.375;    0.000
630.764; 2734.700;  224.375;    0.000
630.883; 2710.700;  220.375;    0.000
631.002; 2618.700;  187.375;    0.000
631.121; 2574.700;  208.375;    0.000
631.240; 2727.700;  217.375;    0.000
631.359; 2749.700;  241.375;    0.000
631.477; 2683.700;  189.375;    0.000
631.596; 2719.700;  244.375;    0.000
631.715; 2649.700;  241.375;    0.000
631.834; 2711.700;  219.375;    0.000
631.952; 2792.700;  231.375;    0.000
632.071; 2667.700;  197.375;    0.000
632.190; 2619.700;  193.375;    0.000
632.308; 2628.700;  185.375;    0.000
632.427; 2667.700;  188.375;    0.000
632.546; 2678.700;  208.375;    0.000
632.664; 2573.700;  191.375;    0.000
632.783; 2647.700;  201.375;    0.000
632.901; 2590.700;  239.375;    0.000
633.020; 2591.700;  197.375;    0.000
633.138; 2639.700;  189.375;    0.000
633.257; 2524.700;  210.375;    0.000
633.375; 2765.700;  213.375;    0.000
633.494; 2609.700;  206.375;    0.000
633.612; 2627.700;  231.375;    0.000
633.731; 2671.700;  213.375;    0.000
633.849; 2578.700;  244.375;    0.000
633.968; 2600.700;  251.375;    0.000
634.086; 2654.700;  224.375;    0.000
634.204; 2663.700;  212.375;    0.000
634.323; 2635.700;  213.375;    0.000
634.441; 2607.700;  219.375;    0.000
634.559; 2652.700;  198.375;    0.000
634.678; 2605.700;  201.375;    0.000
634.796; 2591.700;  179.375;    0.000
634.914; 2599.700;  255.375;    0.000
635.032; 2671.700;  264.375;    0.000
635.151; 2646.700;  228.375;    0.000
635.269; 2654.700;  223.375;    0.000
635.387; 2655.700;  228.375;    0.000
635.505; 2655.700;  214.375;    0.000
635.623; 2601.700;  279.375;    0.000
635.742; 2551.700;  237.375;    0.000
635.860; 2633.700;  244.375;    0.000
635.978; 2605.700;  213.375;    0.000
636.096; 2589.700;  230.375;    0.000
636.214; 2640.700;  252.375;    0.000
636.332; 2557.700;  221.375;    0.000
636.450; 2604.700;  227.375;    0.000
636.568; 2644.700;  193.375;    0.000
636.686; 2558.700;  208.375;    0.000
636.804; 2642.700;  213.375;    0.000
636.922; 2604.700;  199.375;    0.000
637.040; 2654.700;  202.375;    0.000
637.158; 2624.700;  239.375;    0.000
637.276; 2625.700;  225.375;    0.000
637.394; 2635.700;  217.375;    0.000
637.512; 2616.700;  192.375;    0.000
637.629; 2649.700;  216.375;    0.000
637.747; 2566.700;  198.375;    0.000
637.865; 2554.700;  265.375;    0.000
637.983; 2635.700;  245.375;    0.000
638.101; 2590.700;  199.375;    0.000
638.218; 2616.700;  197.375;    0.000
638.336; 2627.700;  212.375;    0.000
638.454; 2657.700;  227.375;    0.000
638.572; 2575.700;  215.375;    0.000
638.689; 2593.700;  214.375;    0.000
638.807; 2626.700;  233.375;    0.000
638.925; 2659.700;  217.375;    0.000
639.042; 2550.700;  180.375;    0.000
639.160; 2619.700;  220.375;    0.000
639.278; 2556.700;  180.375;    0.000
639.395; 2637.700;  243.375;    0.000
639.513; 2635.700;  207.375;    0.000
639.630; 2563.700;  183.375;    0.000
639.748; 2565.700;  231.375;    0.000
639.865; 2594.700;  215.375;    0.000
639.983; 2566.700;  182.375;    0.000
640.100; 2591.700;  190.375;    0.000
640.218; 2591.700;  224.375;    0.000
640.335; 2602.700;  214.375;    0.000
640.453; 2621.700;  212.375;    0.000
640.570; 2625.700;  224.375;    0.000
640.688; 2587.700;  220.375;    0.000
640.805; 2641.700;  189.375;    0.000
640.922; 2623.700;  256.375;    0.000
641.040; 2616.700;  209.375;    0.000
641.157; 2540.700;  195.375;    0.000
641.274; 2629.700;  195.375;    0.000
641.391; 2676.700;  231.375;    0.000
641.509; 2611.700;  207.375;    0.000
641.626; 2676.700;  227.375;    0.000
641.743; 2562.700;  188.375;    0.000
641.860; 2608.700;  208.375;    0.000
641.978; 2612.700;  222.375;    0.000
642.095; 2603.700;  194.375;    0.000
642.212; 2660.700;  202.375;    0.000
642.329; 2623.700;  241.375;    0.000
642.446; 2662.700;  261.375;    0.000
642.563; 2666.700;  236.375;    0.000
642.681; 2621.700;  228.375;    0.000
642.798; 2654.700;  242.375;    0.000
642.915; 2631.700;  197.375;    0.000
643.032; 2717.700;  239.375;    0.000
643.149; 2681.700;  241.375;    0.000
643.266; 2670.700;  199.375;    0.000
643.383; 2659.700;  200.375;    0.000
643.500; 2693.700;  221.375;    0.000
643.617; 2720.700;  196.375;    0.000
643.734; 2674.700;  207.375;    0.000
643.850; 2589.700;  222.375;    0.000
643.967; 2551.700;  235.375;    0.000
644.084; 2708.700;  233.375;    0.000
644.201; 2558.700;  229.375;    0.000
644.318; 2705.700;  210.375;    0.000
644.435; 2668.700;  234.375;    0.000
644.552; 2679.700;  220.375;    0.000
644.668; 2778.700;  231.375;    0.000
644.785; 2763.700;  231.375;    0.000
644.902; 2716.700;  238.375;    0.000
645.019; 2714.700;  226.375;    0.000
645.135; 2701.700;  179.375;    0.000
645.252; 2705.700;  224.375;    0.000
645.369; 2747.700;  206.375;    0.000
645.485; 2734.700;  200.375;    0.000
645.602; 2739.700;  210.375;    0.000
645.719; 2692.700;  206.375;    0.000
645.835; 2838.700;  247.375;    0.000
645.952; 2801.700;  222.375;    0.000
646.068; 2759.700;  205.375;    0.000
646.185; 2833.700;  230.375;    0.000
646.302; 2894.700;  254.375;    0.000
646.418; 2807.700;  230.375;    0.000
646.535; 2860.700;  214.375;    0.000
646.651; 2789.700;  179.375;    0.000
646.768; 2908.700;  190.375;    0.000
646.884; 2789.700;  208.375;    0.000
647.000; 2759.700;  262.375;    0.000
647.117; 2898.700;  212.375;    0.000
647.233; 2904.700;  228.375;    0.000
647.350; 2904.700;  208.375;    0.000
647.466; 2880.700;  211.375;    0.000
647.582; 2855.700;  196.375;    0.000
647.699; 2865.700;  217.375;    0.000
647.815; 2986.700;  203.375;    0.000
647.931; 2870.700;  201.375;    0.000
648.047; 2944.700;  182.375;    0.000
648.164; 2881.700;  219.375;    0.000
648.280; 2928.700;  213.375;    0.000
648.396; 3011.700;  202.375;    0.000
648.512; 2989.700;  233.375;    0.000
648.629; 2948.700;  206.375;    0.000
648.745; 3044.700;  188.375;    0.000
648.861; 2968.700;  209.375;    0.000
648.977; 3015.700;  218.375;    0.000
649.093; 2970.700;  225.375;    0.000
649.209; 3096.700;  240.375;    0.000
649.325; 3124.700;  253.375;    0.000
649.441; 3202.700;  263.375;    0.000
649.557; 3137.700;  256.375;    0.000
649.673; 3133.700;  211.375;    0.000
649.789; 3206.700;  237.375;    0.000
649.905; 3104.700;  183.375;    0.000
650.021; 3277.700;  238.375;    0.000
650.137; 3204.700;  241.375;    0.000
650.253; 3146.700;  228.375;    0.000
650.369; 3185.700;  221.375;    0.000
650.485; 3170.700;  240.375;    0.000
650.601; 3210.700;  254.375;    0.000
650.717; 3124.700;  201.375;    0.000
650.833; 3325.700;  257.375;    0.000
650.948; 3280.700;  213.375;    0.000
651.064; 3167.700;  223.375;    0.000
651.180; 3279.700;  230.375;    0.000
651.296; 3284.700;  235.375;    0.000
651.411; 3254.700;  221.375;    0.000
651.527; 3344.700;  233.375;    0.000
651.643; 3477.700;  236.375;    0.000
651.759; 3371.700;  268.375;    0.000
651.874; 3368.700;  214.375;    0.000
651.990; 3459.700;  251.375;    0.000
652.105; 3342.700;  217.375;    0.000
652.221; 3590.700;  243.375;    0.000
652.337; 3527.700;  231.375;    0.000
652.452; 3546.700;  238.375;    0.000
652.568; 3563.700;  188.375;    0.000
652.683; 3689.700;  197.375;    0.000
652.799; 3661.700;  194.375;    0.000
652.914; 3587.700;  222.375;    0.000
653.030; 3857.700;  200.375;    0.000
653.145; 3675.700;  235.375;    0.000
653.261; 3790.700;  261.375;    0.000
653.376; 3888.700;  228.375;    0.000
653.492; 3857.700;  222.375;    0.000
653.607; 3980.700;  227.375;    0.000
653.722; 4085.700;  250.375;    0.000
653.838; 4211.700;  255.375;    0.000
653.953; 4126.700;  235.375;    0.000
654.068; 4136.700;  266.375;    0.000
654.184; 4266.700;  210.375;    0.000
654.299; 4358.700;  240.375;    0.000
654.414; 4371.700;  222.375;    0.000
654.530; 4361.700;  222.375;    0.000
654.645; 4490.700;  256.375;    0.000
654.760; 4633.700;  244.375;    0.000
654.875; 4807.700;  229.375;    0.000
654.990; 4947.700;  226.375;    0.000
655.106; 4954.700;  254.375;    0.000
655.221; 5145.700;  251.375;    0.000
655.336; 5200.700;  245.375;    0.000
655.451; 5383.700;  199.375;    0.000
655.566; 5563.700;  228.375;    0.000
655.681; 5713.700;  208.375;    0.000
655.796; 5970.700;  218.375;    0.000
655.911; 6118.700;  233.375;    0.000
656.026; 6477.700;  232.375;    0.000
656.141; 6825.700;  223.375;    0.000
656.256; 6922.700;  247.375;    0.000
656.371; 6989.700;  220.375;    0.000
656.486; 6969.700;  225.375;    0.000
656.601; 6874.700;  257.375;    0.000
656.716; 6494.700;  248.375;    0.000
656.831; 6503.700;  262.375;    0.000
656.946; 6368.700;  249.375;    0.000
657.060; 6172.700;  245.375;    0.000
657.175; 6055.700;  245.375;    0.000
657.290; 5945.700;  219.375;    0.000
657.405; 5845.700;  286.375;    0.000
657.520; 5550.700;  259.375;    0.000
657.634; 5484.700;  239.375;    0.000
657.749; 5493.700;  227.375;    0.000
657.864; 5288.700;  210.375;    0.000
657.979; 5194.700;  236.375;    0.000
658.093; 5021.700;  210.375;    0.000
658.208; 5082.700;  248.375;    0.000
658.323; 4870.700;  216.375;    0.000
658.437; 4770.700;  248.375;    0.000
658.552; 4771.700;  249.375;    0.000
658.666; 4644.700;  256.375;    0.000
658.781; 4639.700;  247.375;    0.000
658.895; 4559.700;  209.375;    0.000
659.010; 4535.700;  219.375;    0.000
659.125; 4415.700;  215.375;    0.000
659.239; 4344.700;  205.375;    0.000
659.353; 4205.700;  246.375;    0.000
659.468; 4217.700;  245.375;    0.000
659.582; 4137.700;  244.375;    0.000
659.697; 4115.700;  242.375;    0.000
659.811; 4050.700;  239.375;    0.000
659.926; 4014.700;  226.375;    0.000
660.040; 4002.700;  255.375;    0.000
660.154; 3942.700;  225.375;    0.000
660.269; 3935.700;  200.375;    0.000
660.383; 3841.700;  192.375;    0.000
660.497; 3765.700;  218.375;    0.000
660.612; 3739.700;  236.375;    0.000
660.726; 3697.700;  263.375;    0.000
660.840; 3639.700;  205.375;    0.000
660.954; 3592.700;  219.375;    0.000
661.068; 3558.700;  240.375;    0.000
661.183; 3573.700;  221.375;    0.000
661.297; 3422.700;  194.375;    0.000
661.411; 3439.700;  253.375;    0.000
661.525; 3556.700;  246.375;    0.000
661.639; 3523.700;  217.375;    0.000
661.753; 3340.700;  241.375;    0.000
661.867; 3349.700;  276.375;    0.000
661.981; 3321.700;  203.375;    0.000
662.095; 3270.700;  224.375;    0.000
662.209; 3209.700;  217.375;    0.000
662.323; 3272.700;  251.375;    0.000
662.437; 3192.700;  243.375;    0.000
662.551; 3206.700;  244.375;    0.000
662.665; 3107.700;  247.375;    0.000
662.779; 3086.700;  251.375;    0.000
662.893; 3152.700;  254.375;    0.000
663.007; 3088.700;  222.375;    0.000
663.121; 3075.700;  253.375;    0.000
663.235; 3071.700;  270.375;    0.000
663.349; 2997.700;  242.375;    0.000
663.462; 2908.700;  230.375;    0.000
663.576; 2944.700;  230.375;    0.000
663.690; 2993.700;  249.375;    0.000
663.804; 2749.700;  200.375;    0.000
663.917; 2910.700;  204.375;    0.000
664.031; 2814.700;  206.375;    0.000
664.145; 2834.700;  202.375;    0.000
664.258; 2768.700;  221.375;    0.000
664.372; 2782.700;  215.375;    0.000
664.486; 2777.700;  179.375;    0.000
664.599; 2785.700;  208.375;    0.000
664.713; 2847.700;  268.375;    0.000
664.827; 2758.700;  225.375;    0.000
664.940; 2717.700;  222.375;    0.000
665.054; 2740.700;  208.375;    0.000
665.167; 2720.700;  253.375;    0.000
665.281; 2713.700;  237.375;    0.000
665.394; 2681.700;  227.375;    0.000
665.508; 2620.700;  192.375;    0.000
665.621; 2638.700;  175.375;    0.000
665.735; 2656.700;  249.375;    0.000
665.848; 2654.700;  197.375;    0.000
665.961; 2628.700;  206.375;    0.000
666.075; 2624.700;  245.375;    0.000
666.188; 2619.700;  230.375;    0.000
666.301; 2566.700;  219.375;    0.000
666.415; 2509.700;  231.375;    0.000
666.528; 2608.700;  258.375;    0.000
666.641; 2564.700;  243.375;    0.000
666.755; 2505.700;  208.375;    0.000
666.868; 2531.700;  228.375;    0.000
666.981; 2432.700;  244.375;    0.000
667.094; 2510.700;  244.375;    0.000
667.207; 2546.700;  226.375;    0.000
667.321; 2460.700;  175.375;    0.000
667.434; 2427.700;  211.375;    0.000
667.547; 2556.700;  249.375;    0.000
667.660; 2413.700;  225.375;    0.000
667.773; 2455.700;  242.375;    0.000
667.886; 2418.700;  246.375;    0.000
667.999; 2431.700;  244.375;    0.000
668.112; 2464.700;  227.375;    0.000
668.225; 2366.700;  231.375;    0.000
668.338; 2349.700;  256.375;    0.000
668.451; 2397.700;  216.375;    0.000
668.564; 2339.700;  261.375;    0.000
668.677; 2278.700;  230.375;    0.000
668.790; 2345.700;  192.375;    0.000
668.903; 2358.700;  243.375;    0.000
669.016; 2280.700;  201.375;    0.000
669.129; 2305.700;  249.375;    0.000
669.242; 2323.700;  190.375;    0.000
669.354; 2212.700;  219.375;    0.000
669.467; 2279.700;  242.375;    0.000
669.580; 2340.700;  237.375;    0.000
669.693; 2206.700;  243.375;    0.000
669.806; 2295.700;  234.375;    0.000
669.918; 2202.700;  206.375;    0.000
670.031; 2289.700;  258.375;    0.000
670.144; 2262.700;  231.375;    0.000
670.256; 2195.700;  244.375;    0.000
670.369; 2249.700;  262.375;    0.000
670.482; 2225.700;  264.375;    0.000
670.594; 2180.700;  256.375;    0.000
670.707; 2159.700;  224.375;    0.000
670.820; 2209.700;  261.375;    0.000
670.932; 2234.700;  226.375;    0.000
671.045; 2234.700;  243.375;    0.000
671.157; 2232.700;  235.375;    0.000
671.270; 2187.700;  217.375;    0.000
671.382; 2178.700;  267.375;    0.000
671.495; 2149.700;  258.375;    0.000
671.607; 2215.700;  236.375;    0.000
671.720; 2098.700;  200.375;    0.000
671.832; 2167.700;  219.375;    0.000
671.944; 2221.700;  234.375;    0.000
672.057; 2204.700;  226.375;    0.000
672.169; 2105.700;  225.375;    0.000
672.281; 2179.700;  253.375;    0.000
672.394; 2225.700;  238.375;    0.000
672.506; 2092.700;  244.375;    0.000
672.618; 2078.700;  272.375;    0.000
672.731; 2106.700;  247.375;    0.000
672.843; 2115.700;  261.375;    0.000
672.955; 2124.700;  262.375;    0.000
673.067; 2136.700;  253.375;    0.000
673.180; 2141.700;  239.375;    0.000
673.292; 2007.700;  240.375;    0.000
673.404; 2097.700;  243.375;    0.000
673.516; 2110.700;  258.375;    0.000
673.628; 2106.700;  263.375;    0.000
673.740; 2030.700;  250.375;    0.000
673.852; 1999.700;  285.375;    0.000
673.964; 2126.700;  264.375;    0.000
674.076; 2075.700;  260.375;    0.000
674.188; 2011.700;  226.375;    0.000
674.300; 2049.700;  272.375;    0.000
674.412; 2101.700;  259.375;    0.000
674.524; 2117.700;  283.375;    0.000
674.636; 2037.700;  259.375;    0.000
674.748; 2013.700;  238.375;    0.000
674.860; 2046.700;  277.375;    0.000
674.972; 1986.700;  272.375;    0.000
675.084; 2050.700;  244.375;    0.000
675.196; 2036.700;  272.375;    0.000
675.307; 1992.700;  244.375;    0.000
675.419; 2025.700;  219.375;    0.000
675.531; 2089.700;  275.375;    0.000
675.643; 1993.700;  215.375;    0.000
675.755; 2008.700;  243.375;    0.000
675.866; 2006.700;  223.375;    0.000
675.978; 2048.700;  216.375;    0.000
676.090; 1990.700;  242.375;    0.000
676.201; 2016.700;  276.375;    0.000
676.313; 1898.700;  226.375;    0.000
676.425; 1963.700;  234.375;    0.000
676.536; 1978.700;  231.375;    0.000
676.648; 1983.700;  254.375;    0.000
676.759; 1876.700;  273.375;    0.000
676.871; 1949.700;  250.375;    0.000
676.983; 2005.700;  256.375;    0.000
677.094; 1959.700;  210.375;    0.000
677.206; 1971.700;  248.375;    0.000
677.317; 1908.700;  263.375;    0.000
677.429; 1936.700;  238.375;    0.000
677.540; 1868.700;  247.375;    0.000
677.651; 1933.700;  224.375;    0.000
677.763; 1853.700;  217.375;    0.000
677.874; 1880.700;  234.375;    0.000
677.986; 1894.700;  238.375;    0.000
678.097; 1914.700;  226.375;    0.000
678.208; 2014.700;  253.375;    0.000
678.320; 1900.700;  217.375;    0.000
678.431; 1870.700;  238.375;    0.000
678.542; 1873.700;  236.375;    0.000
678.653; 1853.700;  218.375;    0.000
678.765; 1853.700;  275.375;    0.000
678.876; 1854.700;  213.375;    0.000
678.987; 1853.700;  182.375;    0.000
679.098; 1858.700;  221.375;    0.000
679.209; 1932.700;  238.375;    0.000
679.320; 1824.700;  212.375;    0.000
679.432; 1825.700;  231.375;    0.000
679.543; 1824.700;  198.375;    0.000
679.654; 1825.700;  191.375;    0.000
679.765; 1838.700;  214.375;    0.000
679.876; 1864.700;  221.375;    0.000
679.987; 1812.700;  162.375;    0.000
680.098; 1894.700;  230.375;    0.000
680.209; 1842.700;  206.375;    0.000
680.320; 1783.700;  196.375;    0.000
680.431; 1828.700;  191.375;    0.000
680.542; 1816.700;  214.375;    0.000
680.653; 1897.700;  238.375;    0.000
680.763; 1837.700;  182.375;    0.000
680.874; 1763.700;  213.375;    0.000
680.985; 1868.700;  224.375;    0.000
681.096; 1750.700;  222.375;    0.000
681.207; 1776.700;  220.375;    0.000
681.318; 1832.700;  216.375;    0.000
681.428; 1763.700;  229.375;    0.000
681.539; 1764.700;  183.375;    0.000
681.650; 1809.700;  202.375;    0.000
681.760; 1834.700;  223.375;    0.000
681.871; 1880.700;  211.375;    0.000
681.982; 1791.700;  189.375;    0.000
682.093; 1782.700;  222.375;    0.000
682.203; 1804.700;  220.375;    0.000
682.314; 1891.700;  214.375;    0.000
682.424; 1798.700;  208.375;    0.000
682.535; 1787.700;  213.375;    0.000
682.646; 1833.700;  302.375;    0.000
682.756; 1848.700;  255.375;    0.000
682.867; 1801.700;  244.375;    0.000
682.977; 1825.700;  221.375;    0.000
683.088; 1749.700;  259.375;    0.000
683.198; 1786.700;  212.375;    0.000
683.308; 1692.700;  202.375;    0.000
683.419; 1742.700;  255.375;    0.000
683.529; 1784.700;  217.375;    0.000
683.640; 1768.700;  240.375;    0.000
683.750; 1791.700;  181.375;    0.000
683.860; 1770.700;  246.375;    0.000
683.971; 1735.700;  254.375;    0.000
684.081; 1802.700;  235.375;    0.000
684.191; 1678.700;  251.375;    0.000
684.301; 1783.700;  233.375;    0.000
684.412; 1765.700;  202.375;    0.000
684.522; 1791.700;  232.375;    0.000
684.632; 1799.700;  202.375;    0.000
684.742; 1755.700;  254.375;    0.000
684.852; 1787.700;  219.375;    0.000
684.963; 1792.700;  256.375;    0.000
685.073; 1701.700;  253.375;    0.000
685.183; 1753.700;  254.375;    0.000
685.293; 1737.700;  232.375;    0.000
685.403; 1759.700;  242.375;    0.000
685.513; 1814.700;  261.375;    0.000
685.623; 1740.700;  245.375;    0.000
685.733; 1762.700;  254.375;    0.000
685.843; 1836.700;  249.375;    0.000
685.953; 1705.700;  252.375;    0.000
686.063; 1755.700;  227.375;    0.000
686.173; 1758.700;  223.375;    0.000
686.283; 1805.700;  234.375;    0.000
686.393; 1664.700;  239.375;    0.000
686.503; 1710.700;  231.375;    0.000
686.612; 1707.700;  232.375;    0.000
686.722; 1771.700;  258.375;    0.000
686.832; 1792.700;  256.375;    0.000
686.942; 1778.700;  230.375;    0.000
687.052; 1731.700;  274.375;    0.000
687.161; 1757.700;  269.375;    0.000
687.271; 1683.700;  218.375;    0.000
687.381; 1684.700;  235.375;    0.000
687.491; 1793.700;  262.375;    0.000
687.600; 1781.700;  256.375;    0.000
687.710; 1730.700;  225.375;    0.000
687.820; 1713.700;  230.375;    0.000
687.929; 1732.700;  226.375;    0.000
688.039; 1774.700;  228.375;    0.000
688.148; 1730.700;  249.375;    0.000
688.258; 1649.700;  237.375;    0.000
688.367; 1746.700;  260.375;    0.000
688.477; 1682.700;  200.375;    0.000
688.586; 1705.700;  223.375;    0.000
688.696; 1731.700;  223.375;    0.000
688.805; 1680.700;  257.375;    0.000
688.915; 1627.700;  185.375;    0.000
689.024; 1677.700;  227.375;    0.000
689.134; 1684.700;  224.375;    0.000
689.243; 1661.700;  206.375;    0.000
689.352; 1722.700;  275.375;    0.000
689.462; 1643.700;  233.375;    0.000
689.571; 1730.700;  244.375;    0.000
689.680; 1714.700;  261.375;    0.000
689.790; 1700.700;  192.375;    0.000
689.899; 1683.700;  214.375;    0.000
690.008; 1677.700;  255.375;    0.000
690.117; 1677.700;  219.375;    0.000
690.227; 1683.700;  241.375;    0.000
690.336; 1710.700;  231.375;    0.000
690.445; 1687.700;  212.375;    0.000
690.554; 1640.700;  234.375;    0.000
690.663; 1662.700;  210.375;    0.000
690.772; 1651.700;  221.375;    0.000
690.881; 1699.700;  244.375;    0.000
690.990; 1739.700;  247.375;    0.000
691.099; 1642.700;  222.375;    0.000
691.209; 1641.700;  240.375;    0.000
691.318; 1649.700;  223.375;    0.000
691.427; 1625.700;  217.375;    0.000
691.536; 1711.700;  216.375;    0.000
691.644; 1641.700;  194.375;    0.000
691.753; 1640.700;  221.375;    0.000
691.862; 1696.700;  224.375;    0.000
691.971; 1628.700;  191.375;    0.000
692.080; 1671.700;  247.375;    0.000
692.189; 1616.700;  208.375;    0.000
692.298; 1618.700;  203.375;    0.000
692.406; 1696.700;  239.375;    0.000
692.515; 1702.700;  250.375;    0.000
692.624; 1607.700;  226.375;    0.000
692.733; 1652.700;  229.375;    0.000
692.842; 1653.700;  254.375;    0.000
692.950; 1668.700;  242.375;    0.000
693.059; 1615.700;  204.375;    0.000
693.168; 1723.700;  252.375;    0.000
693.276; 1616.700;  195.375;    0.000
693.385; 1658.700;  228.375;    0.000
693.494; 1686.700;  282.375;    0.000
693.602; 1625.700;  221.375;    0.000
693.711; 1577.700;  225.375;    0.000
693.819; 1624.700;  234.375;    0.000
693.928; 1661.700;  229.375;    0.000
694.036; 1635.700;  192.375;    0.000
694.145; 1698.700;  233.375;    0.000
694.253; 1620.700;  277.375;    0.000
694.362; 1654.700;  188.375;    0.000
694.470; 1692.700;  263.375;    0.000
694.579; 1651.700;  253.375;    0.000
694.687; 1705.700;  281.375;    0.000
694.795; 1608.700;  233.375;    0.000
694.904; 1645.700;  223.375;    0.000
695.012; 1674.700;  296.375;    0.000
695.120; 1663.700;  227.375;    0.000
695.229; 1688.700;  269.375;    0.000
695.337; 1652.700;  229.375;    0.000
695.445; 1716.700;  244.375;    0.000
695.553; 1617.700;  259.375;    0.000
695.662; 1679.700;  208.375;    0.000
695.770; 1586.700;  241.375;    0.000
695.878; 1638.700;  239.375;    0.000
695.986; 1598.700;  247.375;    0.000
696.094; 1584.700;  224.375;    0.000
696.202; 1617.700;  205.375;    0.000
696.310; 1655.700;  217.375;    0.000
696.419; 1589.700;  228.375;    0.000
696.527; 1609.700;  246.375;    0.000
696.635; 1594.700;  245.375;    0.000
696.743; 1618.700;  233.375;    0.000
696.851; 1621.700;  251.375;    0.000
696.959; 1708.700;  257.375;    0.000
697.067; 1632.700;  260.375;    0.000
697.174; 1623.700;  223.375;    0.000
697.282; 1581.700;  239.375;    0.000
697.390; 1600.700;  264.375;    0.000
697.498; 1640.700;  227.375;    0.000
697.606; 1546.700;  243.375;    0.000
697.714; 1613.700;  256.375;    0.000
697.822; 1648.700;  278.375;    0.000
697.929; 1578.700;  227.375;    0.000
698.037; 1580.700;  232.375;    0.000
698.145; 1613.700;  256.375;    0.000
698.253; 1592.700;  245.375;    0.000
698.360; 1642.700;  282.375;    0.000
698.468; 1637.700;  244.375;    0.000
698.576; 1624.700;  279.375;    0.000
698.683; 1562.700;  259.375;    0.000
698.791; 1610.700;  265.375;    0.000
698.899; 1639.700;  250.375;    0.000
699.006; 1630.700;  245.375;    0.000
699.114; 1664.700;  280.375;    0.000
699.221; 1683.700;  240.375;    0.000
699.329; 1677.700;  293.375;    0.000
699.436; 1557.700;  216.375;    0.000
699.544; 1637.700;  269.375;    0.000
699.651; 1590.700;  219.375;    0.000
699.759; 1611.700;  245.375;    0.000
699.866; 1560.700;  261.375;    0.000
699.974; 1536.700;  245.375;    0.000
700.081; 1642.700;  257.375;    0.000
700.188; 1659.700;  268.375;    0.000
700.296; 1631.700;  225.375;    0.000
700.403; 1578.700;  257.375;    0.000
700.510; 1566.700;  267.375;    0.000
700.618; 1645.700;  299.375;    0.000
700.725; 1565.700;  223.375;    0.000
700.832; 1683.700;  233.375;    0.000
700.940; 1627.700;  255.375;    0.000
701.047; 1567.700;  244.375;    0.000
701.154; 1512.700;  248.375;    0.000
701.261; 1560.700;  264.375;    0.000
701.368; 1655.700;  299.375;    0.000
701.475; 1661.700;  264.375;    0.000
701.582; 1607.700;  275.375;    0.000
701.690; 1576.700;  261.375;    0.000
701.797; 1622.700;  273.375;    0.000
701.904; 1657.700;  320.375;    0.000
702.011; 1636.700;  299.375;    0.000
702.118; 1673.700;  292.375;    0.000
702.225; 1634.700;  317.375;    0.000
702.332; 1633.700;  307.375;    0.000
702.439; 1630.700;  313.375;    0.000
702.546; 1656.700;  312.375;    0.000
702.652; 1644.700;  297.375;    0.000
702.759; 1619.700;  345.375;    0.000
702.866; 1622.700;  330.375;    0.000
702.973; 1685.700;  303.375;    0.000
703.080; 1700.700;  303.375;    0.000
703.187; 1638.700;  327.375;    0.000
703.294; 1657.700;  325.375;    0.000
703.400; 1493.700;  302.375;    0.000
703.507;  444.700;  344.375;    0.000
703.614;  284.700;  294.375;    0.000
703.720;  311.700;  322.375;    0.000
703.827;  346.700;  329.375;    0.000
703.934;  308.700;  318.375;    0.000
704.040;  296.700;  299.375;    0.000
704.147;  340.700;  352.375;    0.000
704.254;  337.700;  350.375;    0.000
704.360;  335.700;  347.375;    0.000
704.467;  372.700;  336.375;    0.000
704.573;  296.700;  344.375;    0.000
704.680;  310.700;  365.375;    0.000
704.786;  328.700;  332.375;    0.000
704.893;  341.700;  304.375;    0.000
704.999;  306.700;  299.375;    0.000
705.106;  322.700;  365.375;    0.000

