
Integration time [ms]:   1.000
Averaging Nr. [scans]: 1
Smoothing Nr. [pixels]: 0
Data measured with spectrometer [name]: UV1
Wave   ;Sample   ;Dark     ;Reference
[nm]   ;[counts] ;[counts] ;[counts] 

236.381;  147.450;  175.825;    0.000
236.451;  190.450;  220.825;    0.000
236.520;  190.450;  178.825;    0.000
236.590;  173.450;  182.825;    0.000
236.660;  168.450;  180.825;    0.000
236.730;  169.450;  201.825;    0.000
236.799;  199.450;  168.825;    0.000
236.869;  191.450;  205.825;    0.000
236.939;  178.450;  175.825;    0.000
237.009;  178.450;  186.825;    0.000
237.078;  188.450;  200.825;    0.000
237.148;  133.450;  156.825;    0.000
237.218;  183.450;  190.825;    0.000
237.287;  201.450;  167.825;    0.000
237.357;  159.450;  213.825;    0.000
237.427;  136.450;  164.825;    0.000
237.496;  910.450;  210.825;    0.000
237.566;  879.450;  193.825;    0.000
237.636;  914.450;  179.825;    0.000
237.705;  901.450;  218.825;    0.000
237.775;  906.450;  160.825;    0.000
237.845;  875.450;  207.825;    0.000
237.914;  885.450;  180.825;    0.000
237.984;  943.450;  207.825;    0.000
238.054;  864.450;  149.825;    0.000
238.123;  857.450;  190.825;    0.000
238.193;  881.450;  167.825;    0.000
238.263;  952.450;  172.825;    0.000
238.332;  841.450;  173.825;    0.000
238.402;  940.450;  214.825;    0.000
238.471;  836.450;  181.825;    0.000
238.541;  910.450;  177.825;    0.000
238.611;  872.450;  138.825;    0.000
238.680;  916.450;  168.825;    0.000
238.750;  854.450;  171.825;    0.000
238.819;  946.450;  156.825;    0.000
238.889;  913.450;  194.825;    0.000
238.958;  868.450;  185.825;    0.000
239.028;  928.450;  170.825;    0.000
239.097;  887.450;  159.825;    0.000
239.167;  969.450;  208.825;    0.000
239.237;  900.450;  167.825;    0.000
239.306;  854.450;  154.825;    0.000
239.376;  898.450;  183.825;    0.000
239.445;  931.450;  221.825;    0.000
239.515;  862.450;  208.825;    0.000
239.584;  944.450;  177.825;    0.000
239.654;  883.450;  133.825;    0.000
239.723;  801.450;  167.825;    0.000
239.793;  895.450;  190.825;    0.000
239.862;  871.450;  192.825;    0.000
239.932;  834.450;  174.825;    0.000
240.001;  867.450;  166.825;    0.000
240.070;  884.450;  179.825;    0.000
240.140;  863.450;  191.825;    0.000
240.209;  859.450;  134.825;    0.000
240.279;  887.450;  185.825;    0.000
240.348;  869.450;  193.825;    0.000
240.418;  858.450;  149.825;    0.000
240.487;  853.450;  197.825;    0.000
240.556;  929.450;  193.825;    0.000
240.626;  893.450;  178.825;    0.000
240.695;  922.450;  194.825;    0.000
240.765;  843.450;  178.825;    0.000
240.834;  830.450;  190.825;    0.000
240.903;  872.450;  212.825;    0.000
240.973;  800.450;  153.825;    0.000
241.042;  859.450;  177.825;    0.000
241.112;  869.450;  193.825;    0.000
241.181;  863.450;  171.825;    0.000
241.250;  800.450;  152.825;    0.000
241.320;  880.450;  176.825;    0.000
241.389;  831.450;  186.825;    0.000
241.458;  900.450;  182.825;    0.000
241.528;  811.450;  175.825;    0.000
241.597;  872.450;  180.825;    0.000
241.666;  818.450;  162.825;    0.000
241.736;  871.450;  187.825;    0.000
241.805;  860.450;  173.825;    0.000
241.874;  837.450;  177.825;    0.000
241.943;  834.450;  208.825;    0.000
242.013;  893.450;  183.825;    0.000
242.082;  871.450;  171.825;    0.000
242.151;  860.450;  208.825;    0.000
242.221;  832.450;  160.825;    0.000
242.290;  865.450;  200.825;    0.000
242.359;  844.450;  167.825;    0.000
242.428;  837.450;  213.825;    0.000
242.498;  848.450;  156.825;    0.000
242.567;  822.450;  200.825;    0.000
242.636;  842.450;  178.825;    0.000
242.705;  832.450;  185.825;    0.000
242.774;  832.450;  190.825;    0.000
242.844;  894.450;  194.825;    0.000
242.913;  823.450;  162.825;    0.000
242.982;  847.450;  189.825;    0.000
243.051;  828.450;  176.825;    0.000
243.120;  876.450;  213.825;    0.000
243.190;  865.450;  155.825;    0.000
243.259;  835.450;  183.825;    0.000
243.328;  787.450;  170.825;    0.000
243.397;  864.450;  224.825;    0.000
243.466;  858.450;  172.825;    0.000
243.535;  846.450;  145.825;    0.000
243.605;  797.450;  157.825;    0.000
243.674;  885.450;  199.825;    0.000
243.743;  818.450;  196.825;    0.000
243.812;  821.450;  152.825;    0.000
243.881;  775.450;  188.825;    0.000
243.950;  798.450;  154.825;    0.000
244.019;  898.450;  195.825;    0.000
244.088;  877.450;  164.825;    0.000
244.158;  864.450;  220.825;    0.000
244.227;  823.450;  150.825;    0.000
244.296;  833.450;  153.825;    0.000
244.365;  815.450;  195.825;    0.000
244.434;  816.450;  136.825;    0.000
244.503;  864.450;  172.825;    0.000
244.572;  777.450;  129.825;    0.000
244.641;  836.450;  132.825;    0.000
244.710;  849.450;  185.825;    0.000
244.779;  820.450;  164.825;    0.000
244.848;  760.450;  132.825;    0.000
244.917;  782.450;  196.825;    0.000
244.986;  750.450;  148.825;    0.000
245.055;  886.450;  192.825;    0.000
245.124;  794.450;  170.825;    0.000
245.193;  840.450;  172.825;    0.000
245.262;  763.450;  146.825;    0.000
245.331;  795.450;  178.825;    0.000
245.400;  757.450;  108.825;    0.000
245.469;  791.450;  173.825;    0.000
245.538;  756.450;  180.825;    0.000
245.607;  797.450;  171.825;    0.000
245.676;  797.450;  149.825;    0.000
245.745;  762.450;  194.825;    0.000
245.814;  791.450;  186.825;    0.000
245.883;  812.450;  192.825;    0.000
245.952;  764.450;  169.825;    0.000
246.021;  738.450;  190.825;    0.000
246.090;  745.450;  181.825;    0.000
246.159;  727.450;  179.825;    0.000
246.227;  746.450;  182.825;    0.000
246.296;  766.450;  182.825;    0.000
246.365;  723.450;  171.825;    0.000
246.434;  804.450;  218.825;    0.000
246.503;  745.450;  147.825;    0.000
246.572;  785.450;  227.825;    0.000
246.641;  771.450;  193.825;    0.000
246.710;  785.450;  207.825;    0.000
246.779;  718.450;  181.825;    0.000
246.847;  690.450;  179.825;    0.000
246.916;  750.450;  155.825;    0.000
246.985;  767.450;  168.825;    0.000
247.054;  716.450;  137.825;    0.000
247.123;  771.450;  128.825;    0.000
247.192;  709.450;  163.825;    0.000
247.260;  685.450;  173.825;    0.000
247.329;  689.450;  174.825;    0.000
247.398;  734.450;  238.825;    0.000
247.467;  705.450;  168.825;    0.000
247.536;  754.450;  203.825;    0.000
247.604;  726.450;  194.825;    0.000
247.673;  716.450;  145.825;    0.000
247.742;  695.450;  167.825;    0.000
247.811;  692.450;  180.825;    0.000
247.879;  715.450;  187.825;    0.000
247.948;  717.450;  187.825;    0.000
248.017;  716.450;  170.825;    0.000
248.086;  709.450;  223.825;    0.000
248.154;  708.450;  160.825;    0.000
248.223;  715.450;  163.825;    0.000
248.292;  696.450;  201.825;    0.000
248.361;  730.450;  205.825;    0.000
248.429;  720.450;  191.825;    0.000
248.498;  702.450;  194.825;    0.000
248.567;  705.450;  217.825;    0.000
248.635;  754.450;  224.825;    0.000
248.704;  717.450;  204.825;    0.000
248.773;  706.450;  175.825;    0.000
248.841;  689.450;  157.825;    0.000
248.910;  728.450;  206.825;    0.000
248.979;  691.450;  170.825;    0.000
249.047;  668.450;  178.825;    0.000
249.116;  751.450;  183.825;    0.000
249.185;  698.450;  202.825;    0.000
249.253;  738.450;  159.825;    0.000
249.322;  685.450;  177.825;    0.000
249.390;  656.450;  157.825;    0.000
249.459;  701.450;  211.825;    0.000
249.528;  659.450;  181.825;    0.000
249.596;  689.450;  179.825;    0.000
249.665;  682.450;  176.825;    0.000
249.733;  704.450;  186.825;    0.000
249.802;  674.450;  185.825;    0.000
249.871;  701.450;  166.825;    0.000
249.939;  672.450;  163.825;    0.000
250.008;  709.450;  212.825;    0.000
250.076;  688.450;  227.825;    0.000
250.145;  661.450;  172.825;    0.000
250.213;  648.450;  173.825;    0.000
250.282;  696.450;  189.825;    0.000
250.350;  636.450;  166.825;    0.000
250.419;  698.450;  161.825;    0.000
250.487;  686.450;  178.825;    0.000
250.556;  686.450;  208.825;    0.000
250.624;  684.450;  190.825;    0.000
250.693;  642.450;  163.825;    0.000
250.761;  705.450;  194.825;    0.000
250.830;  705.450;  225.825;    0.000
250.898;  681.450;  140.825;    0.000
250.967;  672.450;  167.825;    0.000
251.035;  621.450;  155.825;    0.000
251.104;  666.450;  189.825;    0.000
251.172;  656.450;  136.825;    0.000
251.241;  652.450;  148.825;    0.000
251.309;  660.450;  201.825;    0.000
251.378;  704.450;  169.825;    0.000
251.446;  607.450;  178.825;    0.000
251.514;  668.450;  206.825;    0.000
251.583;  670.450;  178.825;    0.000
251.651;  598.450;  168.825;    0.000
251.720;  658.450;  190.825;    0.000
251.788;  695.450;  209.825;    0.000
251.856;  638.450;  173.825;    0.000
251.925;  645.450;  171.825;    0.000
251.993;  625.450;  188.825;    0.000
252.062;  633.450;  169.825;    0.000
252.130;  593.450;  196.825;    0.000
252.198;  639.450;  210.825;    0.000
252.267;  656.450;  181.825;    0.000
252.335;  694.450;  164.825;    0.000
252.403;  676.450;  152.825;    0.000
252.472;  658.450;  166.825;    0.000
252.540;  627.450;  189.825;    0.000
252.608;  652.450;  198.825;    0.000
252.677;  551.450;  156.825;    0.000
252.745;  614.450;  184.825;    0.000
252.813;  613.450;  163.825;    0.000
252.881;  575.450;  130.825;    0.000
252.950;  600.450;  189.825;    0.000
253.018;  571.450;  164.825;    0.000
253.086;  561.450;  172.825;    0.000
253.155;  554.450;  205.825;    0.000
253.223;  525.450;  175.825;    0.000
253.291;  594.450;  176.825;    0.000
253.359;  595.450;  182.825;    0.000
253.428;  564.450;  222.825;    0.000
253.496;  517.450;  166.825;    0.000
253.564;  512.450;  135.825;    0.000
253.632;  519.450;  184.825;    0.000
253.700;  473.450;  173.825;    0.000
253.769;  558.450;  163.825;    0.000
253.837;  528.450;  179.825;    0.000
253.905;  520.450;  157.825;    0.000
253.973;  561.450;  164.825;    0.000
254.041;  522.450;  170.825;    0.000
254.110;  499.450;  169.825;    0.000
254.178;  498.450;  165.825;    0.000
254.246;  502.450;  126.825;    0.000
254.314;  450.450;  166.825;    0.000
254.382;  455.450;  169.825;    0.000
254.450;  481.450;  170.825;    0.000
254.518;  509.450;  196.825;    0.000
254.587;  497.450;  161.825;    0.000
254.655;  573.450;  187.825;    0.000
254.723;  541.450;  144.825;    0.000
254.791;  540.450;  175.825;    0.000
254.859;  506.450;  168.825;    0.000
254.927;  542.450;  198.825;    0.000
254.995;  504.450;  165.825;    0.000
255.063;  484.450;  150.825;    0.000
255.131;  536.450;  181.825;    0.000
255.199;  499.450;  160.825;    0.000
255.267;  505.450;  131.825;    0.000
255.336;  512.450;  188.825;    0.000
255.404;  550.450;  163.825;    0.000
255.472;  532.450;  192.825;    0.000
255.540;  497.450;  158.825;    0.000
255.608;  516.450;  147.825;    0.000
255.676;  548.450;  166.825;    0.000
255.744;  503.450;  159.825;    0.000
255.812;  502.450;  164.825;    0.000
255.880;  558.450;  195.825;    0.000
255.948;  600.450;  167.825;    0.000
256.016;  536.450;  185.825;    0.000
256.084;  529.450;  191.825;    0.000
256.152;  551.450;  214.825;    0.000
256.220;  479.450;  195.825;    0.000
256.288;  538.450;  185.825;    0.000
256.356;  524.450;  168.825;    0.000
256.424;  544.450;  161.825;    0.000
256.491;  507.450;  161.825;    0.000
256.559;  573.450;  157.825;    0.000
256.627;  581.450;  164.825;    0.000
256.695;  548.450;  146.825;    0.000
256.763;  566.450;  194.825;    0.000
256.831;  555.450;  182.825;    0.000
256.899;  586.450;  192.825;    0.000
256.967;  574.450;  172.825;    0.000
257.035;  622.450;  169.825;    0.000
257.103;  593.450;  223.825;    0.000
257.171;  591.450;  141.825;    0.000
257.238;  613.450;  146.825;    0.000
257.306;  593.450;  180.825;    0.000
257.374;  645.450;  138.825;    0.000
257.442;  612.450;  135.825;    0.000
257.510;  629.450;  130.825;    0.000
257.578;  604.450;  123.825;    0.000
257.646;  576.450;  162.825;    0.000
257.713;  624.450;  149.825;    0.000
257.781;  612.450;  125.825;    0.000
257.849;  600.450;  149.825;    0.000
257.917;  608.450;  177.825;    0.000
257.985;  674.450;  143.825;    0.000
258.052;  690.450;  154.825;    0.000
258.120;  650.450;  162.825;    0.000
258.188;  640.450;  172.825;    0.000
258.256;  692.450;  160.825;    0.000
258.324;  741.450;  209.825;    0.000
258.391;  725.450;  153.825;    0.000
258.459;  735.450;  133.825;    0.000
258.527;  702.450;  160.825;    0.000
258.595;  768.450;  128.825;    0.000
258.662;  706.450;  114.825;    0.000
258.730;  748.450;  192.825;    0.000
258.798;  767.450;  144.825;    0.000
258.865;  809.450;  140.825;    0.000
258.933;  762.450;  150.825;    0.000
259.001;  739.450;  149.825;    0.000
259.069;  762.450;  110.825;    0.000
259.136;  779.450;  150.825;    0.000
259.204;  762.450;  156.825;    0.000
259.272;  847.450;  185.825;    0.000
259.339;  807.450;  148.825;    0.000
259.407;  863.450;  163.825;    0.000
259.475;  809.450;  129.825;    0.000
259.542;  833.450;  144.825;    0.000
259.610;  817.450;  164.825;    0.000
259.677;  857.450;  188.825;    0.000
259.745;  821.450;  113.825;    0.000
259.813;  900.450;  188.825;    0.000
259.880;  898.450;  174.825;    0.000
259.948;  900.450;  166.825;    0.000
260.016;  908.450;  150.825;    0.000
260.083;  902.450;  178.825;    0.000
260.151;  918.450;  120.825;    0.000
260.218;  893.450;  175.825;    0.000
260.286;  924.450;  155.825;    0.000
260.353; 1012.450;  165.825;    0.000
260.421;  925.450;  169.825;    0.000
260.489;  995.450;  194.825;    0.000
260.556;  980.450;  161.825;    0.000
260.624;  926.450;  179.825;    0.000
260.691;  946.450;  174.825;    0.000
260.759;  994.450;  164.825;    0.000
260.826;  999.450;  125.825;    0.000
260.894; 1054.450;  164.825;    0.000
260.961; 1053.450;  147.825;    0.000
261.029; 1045.450;  167.825;    0.000
261.096; 1049.450;  136.825;    0.000
261.164; 1043.450;  146.825;    0.000
261.231; 1099.450;  190.825;    0.000
261.299; 1110.450;  171.825;    0.000
261.366; 1068.450;  165.825;    0.000
261.434; 1122.450;  160.825;    0.000
261.501; 1075.450;  149.825;    0.000
261.568; 1115.450;  155.825;    0.000
261.636; 1069.450;  137.825;    0.000
261.703; 1194.450;  186.825;    0.000
261.771; 1169.450;  162.825;    0.000
261.838; 1181.450;  190.825;    0.000
261.906; 1207.450;  133.825;    0.000
261.973; 1148.450;  202.825;    0.000
262.040; 1151.450;  179.825;    0.000
262.108; 1136.450;  161.825;    0.000
262.175; 1174.450;  155.825;    0.000
262.243; 1173.450;  158.825;    0.000
262.310; 1230.450;  129.825;    0.000
262.377; 1187.450;  157.825;    0.000
262.445; 1208.450;  132.825;    0.000
262.512; 1213.450;  161.825;    0.000
262.579; 1260.450;  151.825;    0.000
262.647; 1293.450;  174.825;    0.000
262.714; 1253.450;  174.825;    0.000
262.781; 1248.450;  164.825;    0.000
262.849; 1276.450;  168.825;    0.000
262.916; 1374.450;  153.825;    0.000
262.983; 1378.450;  201.825;    0.000
263.051; 1276.450;  117.825;    0.000
263.118; 1332.450;  150.825;    0.000
263.185; 1362.450;  172.825;    0.000
263.252; 1345.450;  154.825;    0.000
263.320; 1299.450;  152.825;    0.000
263.387; 1374.450;  136.825;    0.000
263.454; 1346.450;  167.825;    0.000
263.522; 1329.450;  122.825;    0.000
263.589; 1428.450;  147.825;    0.000
263.656; 1425.450;  130.825;    0.000
263.723; 1425.450;  182.825;    0.000
263.790; 1425.450;  163.825;    0.000
263.858; 1378.450;  161.825;    0.000
263.925; 1466.450;  153.825;    0.000
263.992; 1456.450;  139.825;    0.000
264.059; 1420.450;  141.825;    0.000
264.126; 1518.450;  153.825;    0.000
264.194; 1451.450;  144.825;    0.000
264.261; 1527.450;  188.825;    0.000
264.328; 1474.450;  161.825;    0.000
264.395; 1512.450;  184.825;    0.000
264.462; 1477.450;  162.825;    0.000
264.529; 1543.450;  178.825;    0.000
264.597; 1493.450;  160.825;    0.000
264.664; 1575.450;  158.825;    0.000
264.731; 1538.450;  176.825;    0.000
264.798; 1572.450;  137.825;    0.000
264.865; 1559.450;  175.825;    0.000
264.932; 1544.450;  162.825;    0.000
264.999; 1597.450;  153.825;    0.000
265.066; 1573.450;  168.825;    0.000
265.133; 1572.450;  142.825;    0.000
265.201; 1627.450;  163.825;    0.000
265.268; 1566.450;  143.825;    0.000
265.335; 1652.450;  156.825;    0.000
265.402; 1632.450;  136.825;    0.000
265.469; 1606.450;  127.825;    0.000
265.536; 1677.450;  159.825;    0.000
265.603; 1663.450;  191.825;    0.000
265.670; 1664.450;  136.825;    0.000
265.737; 1684.450;  186.825;    0.000
265.804; 1719.450;  147.825;    0.000
265.871; 1748.450;  147.825;    0.000
265.938; 1773.450;  153.825;    0.000
266.005; 1726.450;  172.825;    0.000
266.072; 1626.450;  151.825;    0.000
266.139; 1789.450;  175.825;    0.000
266.206; 1666.450;  165.825;    0.000
266.273; 1742.450;  162.825;    0.000
266.340; 1727.450;  150.825;    0.000
266.407; 1741.450;  169.825;    0.000
266.474; 1718.450;  151.825;    0.000
266.541; 1709.450;  164.825;    0.000
266.608; 1667.450;  111.825;    0.000
266.675; 1809.450;  173.825;    0.000
266.742; 1780.450;  148.825;    0.000
266.808; 1727.450;  185.825;    0.000
266.875; 1792.450;  188.825;    0.000
266.942; 1771.450;  131.825;    0.000
267.009; 1870.450;  184.825;    0.000
267.076; 1844.450;  200.825;    0.000
267.143; 1961.450;  216.825;    0.000
267.210; 1782.450;  138.825;    0.000
267.277; 1863.450;  143.825;    0.000
267.344; 1847.450;  172.825;    0.000
267.410; 1830.450;  172.825;    0.000
267.477; 1902.450;  160.825;    0.000
267.544; 1833.450;  175.825;    0.000
267.611; 1787.450;  189.825;    0.000
267.678; 1787.450;  162.825;    0.000
267.745; 1915.450;  206.825;    0.000
267.811; 1769.450;  146.825;    0.000
267.878; 1848.450;  147.825;    0.000
267.945; 1863.450;  170.825;    0.000
268.012; 1877.450;  153.825;    0.000
268.079; 1969.450;  185.825;    0.000
268.145; 1876.450;  197.825;    0.000
268.212; 1866.450;  167.825;    0.000
268.279; 1875.450;  145.825;    0.000
268.346; 1870.450;  182.825;    0.000
268.412; 1884.450;  144.825;    0.000
268.479; 1842.450;  186.825;    0.000
268.546; 1895.450;  147.825;    0.000
268.613; 1909.450;  188.825;    0.000
268.679; 1911.450;  173.825;    0.000
268.746; 1988.450;  204.825;    0.000
268.813; 1941.450;  199.825;    0.000
268.879; 1903.450;  157.825;    0.000
268.946; 1898.450;  192.825;    0.000
269.013; 1953.450;  136.825;    0.000
269.079; 1910.450;  166.825;    0.000
269.146; 1846.450;  129.825;    0.000
269.213; 1905.450;  178.825;    0.000
269.280; 1925.450;  148.825;    0.000
269.346; 1876.450;  194.825;    0.000
269.413; 1911.450;  135.825;    0.000
269.479; 1867.450;  180.825;    0.000
269.546; 1914.450;  169.825;    0.000
269.613; 1804.450;  160.825;    0.000
269.679; 1872.450;  161.825;    0.000
269.746; 1909.450;  143.825;    0.000
269.813; 1913.450;  172.825;    0.000
269.879; 1937.450;  152.825;    0.000
269.946; 1898.450;  156.825;    0.000
270.012; 1846.450;  190.825;    0.000
270.079; 1818.450;  143.825;    0.000
270.145; 1898.450;  148.825;    0.000
270.212; 1856.450;  176.825;    0.000
270.279; 1923.450;  168.825;    0.000
270.345; 1863.450;  143.825;    0.000
270.412; 1933.450;  155.825;    0.000
270.478; 1971.450;  176.825;    0.000
270.545; 1830.450;  112.825;    0.000
270.611; 1991.450;  186.825;    0.000
270.678; 1875.450;  141.825;    0.000
270.744; 1800.450;  145.825;    0.000
270.811; 1933.450;  120.825;    0.000
270.877; 1857.450;  118.825;    0.000
270.944; 1909.450;  135.825;    0.000
271.010; 1841.450;  128.825;    0.000
271.077; 1836.450;  176.825;    0.000
271.143; 1892.450;  162.825;    0.000
271.210; 1824.450;  133.825;    0.000
271.276; 1870.450;  107.825;    0.000
271.342; 1914.450;  202.825;    0.000
271.409; 1868.450;  160.825;    0.000
271.475; 1860.450;  165.825;    0.000
271.542; 1872.450;  152.825;    0.000
271.608; 1827.450;  163.825;    0.000
271.675; 1933.450;  149.825;    0.000
271.741; 1922.450;  164.825;    0.000
271.807; 1886.450;  128.825;    0.000
271.874; 1946.450;  148.825;    0.000
271.940; 1887.450;  179.825;    0.000
272.007; 1882.450;  148.825;    0.000
272.073; 1869.450;  146.825;    0.000
272.139; 1895.450;  166.825;    0.000
272.206; 1869.450;  198.825;    0.000
272.272; 1885.450;  201.825;    0.000
272.338; 2001.450;  208.825;    0.000
272.405; 1926.450;  181.825;    0.000
272.471; 1871.450;  167.825;    0.000
272.537; 1874.450;  189.825;    0.000
272.604; 1878.450;  162.825;    0.000
272.670; 1890.450;  194.825;    0.000
272.736; 1977.450;  176.825;    0.000
272.802; 1925.450;  163.825;    0.000
272.869; 1943.450;  170.825;    0.000
272.935; 1917.450;  145.825;    0.000
273.001; 1961.450;  149.825;    0.000
273.068; 1916.450;  172.825;    0.000
273.134; 1946.450;  155.825;    0.000
273.200; 1981.450;  183.825;    0.000
273.266; 1914.450;  160.825;    0.000
273.333; 1952.450;  190.825;    0.000
273.399; 1886.450;  132.825;    0.000
273.465; 2027.450;  179.825;    0.000
273.531; 1952.450;  161.825;    0.000
273.597; 1979.450;  194.825;    0.000
273.664; 2016.450;  193.825;    0.000
273.730; 1915.450;  180.825;    0.000
273.796; 1981.450;  145.825;    0.000
273.862; 1996.450;  176.825;    0.000
273.928; 1993.450;  169.825;    0.000
273.995; 2112.450;  202.825;    0.000
274.061; 2055.450;  176.825;    0.000
274.127; 2038.450;  178.825;    0.000
274.193; 2088.450;  106.825;    0.000
274.259; 2140.450;  186.825;    0.000
274.325; 2070.450;  163.825;    0.000
274.391; 2079.450;  162.825;    0.000
274.457; 2119.450;  145.825;    0.000
274.524; 2124.450;  189.825;    0.000
274.590; 2144.450;  161.825;    0.000
274.656; 2171.450;  157.825;    0.000
274.722; 2133.450;  143.825;    0.000
274.788; 2197.450;  166.825;    0.000
274.854; 2144.450;  200.825;    0.000
274.920; 2146.450;  132.825;    0.000
274.986; 2211.450;  184.825;    0.000
275.052; 2274.450;  169.825;    0.000
275.118; 2324.450;  153.825;    0.000
275.184; 2228.450;  182.825;    0.000
275.250; 2265.450;  124.825;    0.000
275.316; 2271.450;  154.825;    0.000
275.382; 2309.450;  150.825;    0.000
275.448; 2290.450;  180.825;    0.000
275.514; 2368.450;  143.825;    0.000
275.580; 2424.450;  120.825;    0.000
275.646; 2403.450;  127.825;    0.000
275.712; 2424.450;  109.825;    0.000
275.778; 2491.450;  126.825;    0.000
275.844; 2536.450;  155.825;    0.000
275.910; 2512.450;  164.825;    0.000
275.976; 2565.450;  161.825;    0.000
276.042; 2648.450;  152.825;    0.000
276.108; 2599.450;  159.825;    0.000
276.174; 2642.450;  149.825;    0.000
276.240; 2678.450;  112.825;    0.000
276.306; 2660.450;  142.825;    0.000
276.372; 2752.450;  136.825;    0.000
276.437; 2861.450;  141.825;    0.000
276.503; 2865.450;  150.825;    0.000
276.569; 3061.450;  178.825;    0.000
276.635; 3028.450;  117.825;    0.000
276.701; 2960.450;  174.825;    0.000
276.767; 3008.450;  136.825;    0.000
276.833; 3222.450;  119.825;    0.000
276.899; 3228.450;  171.825;    0.000
276.964; 3232.450;  146.825;    0.000
277.030; 3414.450;  157.825;    0.000
277.096; 3506.450;  124.825;    0.000
277.162; 3575.450;  185.825;    0.000
277.228; 3724.450;  125.825;    0.000
277.293; 3728.450;  159.825;    0.000
277.359; 3979.450;  186.825;    0.000
277.425; 4109.450;  176.825;    0.000
277.491; 4435.450;  140.825;    0.000
277.557; 5040.450;  172.825;    0.000
277.622; 6384.450;  187.825;    0.000
277.688; 6613.450;  203.825;    0.000
277.754; 6704.450;  170.825;    0.000
277.820; 7385.450;  142.825;    0.000
277.885; 8412.450;  182.825;    0.000
277.951;10010.450;  171.825;    0.000
278.017; 9094.450;  173.825;    0.000
278.083; 8062.450;  151.825;    0.000
278.148; 7846.450;  159.825;    0.000
278.214; 8062.450;  173.825;    0.000
278.280; 8469.450;  137.825;    0.000
278.345; 7943.450;  190.825;    0.000
278.411; 7547.450;  149.825;    0.000
278.477; 7803.450;  157.825;    0.000
278.542; 8409.450;  136.825;    0.000
278.608; 9004.450;  144.825;    0.000
278.674; 9761.450;  215.825;    0.000
278.739;10897.450;  148.825;    0.000
278.805;12443.450;  152.825;    0.000
278.871;14282.450;  170.825;    0.000
278.936;17552.449;  180.825;    0.000
279.002;24632.449;  177.825;    0.000
279.067;30378.449;  172.825;    0.000
279.133;29741.449;  160.825;    0.000
279.199;27831.449;  165.825;    0.000
279.264;28870.449;  130.825;    0.000
279.330;33022.449;  154.825;    0.000
279.395;40573.449;  170.825;    0.000
279.461;47892.449;  136.825;    0.000
279.527;51757.449;  174.825;    0.000
279.592;49747.449;  179.825;    0.000
279.658;45123.449;  187.825;    0.000
279.723;43752.449;  201.825;    0.000
279.789;44610.449;  194.825;    0.000
279.854;41174.449;  171.825;    0.000
279.920;35357.449;  183.825;    0.000
279.985;33045.449;  173.825;    0.000
280.051;33296.449;  194.825;    0.000
280.116;38261.449;  197.825;    0.000
280.182;45771.449;  171.825;    0.000
280.247;50892.449;  131.825;    0.000
280.313;45176.449;  166.825;    0.000
280.378;35418.449;  159.825;    0.000
280.444;27500.449;  190.825;    0.000
280.509;22447.449;  189.825;    0.000
280.574;19598.449;  171.825;    0.000
280.640;16900.449;  167.825;    0.000
280.705;15131.450;  129.825;    0.000
280.771;13708.450;  193.825;    0.000
280.836;12925.450;  172.825;    0.000
280.902;11849.450;  189.825;    0.000
280.967;11144.450;  143.825;    0.000
281.032;10481.450;  182.825;    0.000
281.098; 9832.450;  172.825;    0.000
281.163; 9254.450;  184.825;    0.000
281.229; 8842.450;  210.825;    0.000
281.294; 8526.450;  223.825;    0.000
281.359; 8006.450;  197.825;    0.000
281.425; 7772.450;  192.825;    0.000
281.490; 7593.450;  162.825;    0.000
281.555; 7203.450;  193.825;    0.000
281.621; 6949.450;  141.825;    0.000
281.686; 6803.450;  166.825;    0.000
281.751; 6482.450;  204.825;    0.000
281.816; 6330.450;  159.825;    0.000
281.882; 6091.450;  146.825;    0.000
281.947; 5876.450;  176.825;    0.000
282.012; 5743.450;  139.825;    0.000
282.078; 5675.450;  186.825;    0.000
282.143; 5359.450;  151.825;    0.000
282.208; 5345.450;  213.825;    0.000
282.273; 5438.450;  160.825;    0.000
282.339; 5173.450;  175.825;    0.000
282.404; 4955.450;  157.825;    0.000
282.469; 4867.450;  185.825;    0.000
282.534; 4854.450;  166.825;    0.000
282.600; 4717.450;  168.825;    0.000
282.665; 4748.450;  167.825;    0.000
282.730; 4493.450;  148.825;    0.000
282.795; 4531.450;  186.825;    0.000
282.860; 4577.450;  161.825;    0.000
282.926; 4436.450;  178.825;    0.000
282.991; 4330.450;  139.825;    0.000
283.056; 4350.450;  158.825;    0.000
283.121; 4197.450;  191.825;    0.000
283.186; 4162.450;  182.825;    0.000
283.251; 4216.450;  181.825;    0.000
283.316; 4259.450;  187.825;    0.000
283.382; 4081.450;  175.825;    0.000
283.447; 4090.450;  183.825;    0.000
283.512; 3939.450;  175.825;    0.000
283.577; 3972.450;  180.825;    0.000
283.642; 3997.450;  193.825;    0.000
283.707; 3810.450;  145.825;    0.000
283.772; 3889.450;  143.825;    0.000
283.837; 3861.450;  143.825;    0.000
283.902; 3666.450;  150.825;    0.000
283.967; 3724.450;  166.825;    0.000
284.032; 3813.450;  126.825;    0.000
284.097; 3684.450;  201.825;    0.000
284.163; 3728.450;  133.825;    0.000
284.228; 3801.450;  193.825;    0.000
284.293; 3726.450;  157.825;    0.000
284.358; 3782.450;  185.825;    0.000
284.423; 3834.450;  142.825;    0.000
284.488; 3916.450;  192.825;    0.000
284.553; 3926.450;  146.825;    0.000
284.618; 3999.450;  154.825;    0.000
284.683; 4221.450;  172.825;    0.000
284.748; 4273.450;  195.825;    0.000
284.812; 4592.450;  190.825;    0.000
284.877; 4813.450;  169.825;    0.000
284.942; 5411.450;  195.825;    0.000
285.007; 6366.450;  204.825;    0.000
285.072; 8364.450;  189.825;    0.000
285.137;12954.450;  149.825;    0.000
285.202;17126.449;  164.825;    0.000
285.267;15119.450;  161.825;    0.000
285.332;10451.450;  140.825;    0.000
285.397; 7942.450;  142.825;    0.000
285.462; 6559.450;  146.825;    0.000
285.527; 5785.450;  132.825;    0.000
285.591; 5183.450;  160.825;    0.000
285.656; 4871.450;  136.825;    0.000
285.721; 4457.450;  135.825;    0.000
285.786; 4269.450;  171.825;    0.000
285.851; 4012.450;  168.825;    0.000
285.916; 3997.450;  178.825;    0.000
285.981; 3911.450;  152.825;    0.000
286.045; 3870.450;  167.825;    0.000
286.110; 3726.450;  187.825;    0.000
286.175; 3704.450;  162.825;    0.000
286.240; 3580.450;  163.825;    0.000
286.305; 3579.450;  190.825;    0.000
286.369; 3501.450;  143.825;    0.000
286.434; 3509.450;  185.825;    0.000
286.499; 3478.450;  195.825;    0.000
286.564; 3482.450;  173.825;    0.000
286.628; 3363.450;  159.825;    0.000
286.693; 3416.450;  175.825;    0.000
286.758; 3354.450;  170.825;    0.000
286.823; 3187.450;  129.825;    0.000
286.887; 3327.450;  172.825;    0.000
286.952; 3337.450;  163.825;    0.000
287.017; 3234.450;  217.825;    0.000
287.082; 3291.450;  165.825;    0.000
287.146; 3199.450;  176.825;    0.000
287.211; 3173.450;  192.825;    0.000
287.276; 3124.450;  147.825;    0.000
287.340; 3203.450;  162.825;    0.000
287.405; 3253.450;  196.825;    0.000
287.470; 3085.450;  148.825;    0.000
287.534; 3192.450;  166.825;    0.000
287.599; 3152.450;  193.825;    0.000
287.663; 3241.450;  191.825;    0.000
287.728; 3086.450;  146.825;    0.000
287.793; 3082.450;  234.825;    0.000
287.857; 3010.450;  177.825;    0.000
287.922; 3174.450;  166.825;    0.000
287.987; 3052.450;  169.825;    0.000
288.051; 3109.450;  169.825;    0.000
288.116; 3213.450;  187.825;    0.000
288.180; 3139.450;  200.825;    0.000
288.245; 3123.450;  201.825;    0.000
288.309; 3132.450;  176.825;    0.000
288.374; 3104.450;  162.825;    0.000
288.439; 3050.450;  195.825;    0.000
288.503; 3019.450;  162.825;    0.000
288.568; 2997.450;  228.825;    0.000
288.632; 3060.450;  194.825;    0.000
288.697; 3184.450;  173.825;    0.000
288.761; 3055.450;  153.825;    0.000
288.826; 2903.450;  151.825;    0.000
288.890; 2998.450;  208.825;    0.000
288.955; 3044.450;  159.825;    0.000
289.019; 2922.450;  198.825;    0.000
289.084; 2963.450;  152.825;    0.000
289.148; 2969.450;  171.825;    0.000
289.212; 3021.450;  184.825;    0.000
289.277; 3028.450;  165.825;    0.000
289.341; 3031.450;  207.825;    0.000
289.406; 2965.450;  156.825;    0.000
289.470; 2988.450;  191.825;    0.000
289.535; 2972.450;  222.825;    0.000
289.599; 2828.450;  214.825;    0.000
289.663; 2989.450;  183.825;    0.000
289.728; 2998.450;  192.825;    0.000
289.792; 2964.450;  197.825;    0.000
289.857; 2890.450;  221.825;    0.000
289.921; 2996.450;  177.825;    0.000
289.985; 3078.450;  177.825;    0.000
290.050; 2957.450;  178.825;    0.000
290.114; 2956.450;  112.825;    0.000
290.178; 3049.450;  170.825;    0.000
290.243; 2956.450;  162.825;    0.000
290.307; 2961.450;  178.825;    0.000
290.371; 3056.450;  141.825;    0.000
290.436; 3038.450;  178.825;    0.000
290.500; 2970.450;  135.825;    0.000
290.564; 3118.450;  199.825;    0.000
290.629; 3020.450;  165.825;    0.000
290.693; 2932.450;  154.825;    0.000
290.757; 3005.450;  159.825;    0.000
290.821; 3019.450;  179.825;    0.000
290.886; 3071.450;  141.825;    0.000
290.950; 3060.450;  166.825;    0.000
291.014; 3042.450;  169.825;    0.000
291.078; 3010.450;  191.825;    0.000
291.143; 3065.450;  169.825;    0.000
291.207; 3091.450;  164.825;    0.000
291.271; 3008.450;  193.825;    0.000
291.335; 3261.450;  150.825;    0.000
291.399; 3097.450;  175.825;    0.000
291.464; 3364.450;  128.825;    0.000
291.528; 3467.450;  162.825;    0.000
291.592; 3400.450;  152.825;    0.000
291.656; 3338.450;  175.825;    0.000
291.720; 3266.450;  173.825;    0.000
291.784; 3238.450;  192.825;    0.000
291.849; 3221.450;  159.825;    0.000
291.913; 3192.450;  174.825;    0.000
291.977; 3225.450;  177.825;    0.000
292.041; 3357.450;  188.825;    0.000
292.105; 3321.450;  174.825;    0.000
292.169; 3492.450;  143.825;    0.000
292.233; 3412.450;  149.825;    0.000
292.297; 3412.450;  176.825;    0.000
292.361; 3514.450;  178.825;    0.000
292.425; 3514.450;  153.825;    0.000
292.490; 3750.450;  185.825;    0.000
292.554; 3878.450;  144.825;    0.000
292.618; 4082.450;  166.825;    0.000
292.682; 4361.450;  181.825;    0.000
292.746; 5107.450;  152.825;    0.000
292.810; 6709.450;  208.825;    0.000
292.874; 8387.450;  142.825;    0.000
292.938; 8429.450;  195.825;    0.000
293.002; 7650.450;  156.825;    0.000
293.066; 6961.450;  108.825;    0.000
293.130; 6482.450;  136.825;    0.000
293.194; 6233.450;  135.825;    0.000
293.258; 6024.450;  187.825;    0.000
293.322; 5925.450;  148.825;    0.000
293.386; 6056.450;  186.825;    0.000
293.450; 6387.450;  196.825;    0.000
293.514; 7162.450;  175.825;    0.000
293.577; 9366.450;  137.825;    0.000
293.641;12402.450;  142.825;    0.000
293.705;12914.450;  201.825;    0.000
293.769;11805.450;  150.825;    0.000
293.833;10645.450;  147.825;    0.000
293.897; 9161.450;  170.825;    0.000
293.961; 8259.450;  121.825;    0.000
294.025; 7567.450;  172.825;    0.000
294.089; 6880.450;  167.825;    0.000
294.152; 6490.450;  167.825;    0.000
294.216; 6132.450;  165.825;    0.000
294.280; 5757.450;  168.825;    0.000
294.344; 5369.450;  160.825;    0.000
294.408; 5180.450;  187.825;    0.000
294.472; 4933.450;  141.825;    0.000
294.536; 4752.450;  184.825;    0.000
294.599; 4616.450;  176.825;    0.000
294.663; 4306.450;  120.825;    0.000
294.727; 4360.450;  159.825;    0.000
294.791; 4114.450;  190.825;    0.000
294.855; 4080.450;  148.825;    0.000
294.918; 3908.450;  160.825;    0.000
294.982; 3853.450;  156.825;    0.000
295.046; 3786.450;  177.825;    0.000
295.110; 3835.450;  149.825;    0.000
295.173; 3612.450;  156.825;    0.000
295.237; 3628.450;  174.825;    0.000
295.301; 3456.450;  152.825;    0.000
295.364; 3441.450;  204.825;    0.000
295.428; 3445.450;  196.825;    0.000
295.492; 3330.450;  178.825;    0.000
295.556; 3366.450;  161.825;    0.000
295.619; 3276.450;  178.825;    0.000
295.683; 3266.450;  152.825;    0.000
295.747; 3260.450;  148.825;    0.000
295.810; 3191.450;  177.825;    0.000
295.874; 3227.450;  146.825;    0.000
295.938; 3202.450;  115.825;    0.000
296.001; 3091.450;  172.825;    0.000
296.065; 3088.450;  146.825;    0.000
296.128; 3023.450;  164.825;    0.000
296.192; 2977.450;  137.825;    0.000
296.256; 2965.450;  143.825;    0.000
296.319; 2983.450;  156.825;    0.000
296.383; 2920.450;  165.825;    0.000
296.447; 3009.450;  170.825;    0.000
296.510; 3052.450;  174.825;    0.000
296.574; 2982.450;  127.825;    0.000
296.637; 2857.450;  132.825;    0.000
296.701; 2928.450;  206.825;    0.000
296.764; 2810.450;  179.825;    0.000
296.828; 2894.450;  213.825;    0.000
296.891; 2869.450;  149.825;    0.000
296.955; 2764.450;  170.825;    0.000
297.018; 2790.450;  185.825;    0.000
297.082; 2791.450;  205.825;    0.000
297.145; 2785.450;  154.825;    0.000
297.209; 2772.450;  200.825;    0.000
297.272; 2722.450;  157.825;    0.000
297.336; 2749.450;  164.825;    0.000
297.399; 2771.450;  166.825;    0.000
297.463; 2760.450;  195.825;    0.000
297.526; 2762.450;  176.825;    0.000
297.590; 2701.450;  198.825;    0.000
297.653; 2690.450;  146.825;    0.000
297.717; 2731.450;  175.825;    0.000
297.780; 2674.450;  139.825;    0.000
297.843; 2759.450;  174.825;    0.000
297.907; 2604.450;  149.825;    0.000
297.970; 2653.450;  161.825;    0.000
298.034; 2595.450;  185.825;    0.000
298.097; 2627.450;  167.825;    0.000
298.160; 2639.450;  195.825;    0.000
298.224; 2624.450;  178.825;    0.000
298.287; 2638.450;  164.825;    0.000
298.350; 2645.450;  194.825;    0.000
298.414; 2655.450;  191.825;    0.000
298.477; 2541.450;  155.825;    0.000
298.540; 2606.450;  139.825;    0.000
298.604; 2569.450;  198.825;    0.000
298.667; 2574.450;  183.825;    0.000
298.730; 2583.450;  185.825;    0.000
298.794; 2460.450;  153.825;    0.000
298.857; 2577.450;  169.825;    0.000
298.920; 2552.450;  159.825;    0.000
298.984; 2601.450;  179.825;    0.000
299.047; 2621.450;  174.825;    0.000
299.110; 2506.450;  144.825;    0.000
299.173; 2500.450;  190.825;    0.000
299.237; 2538.450;  163.825;    0.000
299.300; 2408.450;  153.825;    0.000
299.363; 2436.450;  145.825;    0.000
299.426; 2487.450;  160.825;    0.000
299.489; 2480.450;  173.825;    0.000
299.553; 2561.450;  209.825;    0.000
299.616; 2520.450;  172.825;    0.000
299.679; 2466.450;  204.825;    0.000
299.742; 2525.450;  162.825;    0.000
299.805; 2540.450;  198.825;    0.000
299.868; 2368.450;  176.825;    0.000
299.932; 2464.450;  166.825;    0.000
299.995; 2509.450;  162.825;    0.000
300.058; 2416.450;  175.825;    0.000
300.121; 2450.450;  197.825;    0.000
300.184; 2414.450;  188.825;    0.000
300.247; 2352.450;  181.825;    0.000
300.310; 2388.450;  161.825;    0.000
300.374; 2346.450;  201.825;    0.000
300.437; 2395.450;  156.825;    0.000
300.500; 2413.450;  180.825;    0.000
300.563; 2386.450;  174.825;    0.000
300.626; 2296.450;  206.825;    0.000
300.689; 2329.450;  218.825;    0.000
300.752; 2399.450;  192.825;    0.000
300.815; 2362.450;  172.825;    0.000
300.878; 2403.450;  207.825;    0.000
300.941; 2326.450;  163.825;    0.000
301.004; 2360.450;  171.825;    0.000
301.067; 2425.450;  198.825;    0.000
301.130; 2371.450;  156.825;    0.000
301.193; 2307.450;  173.825;    0.000
301.256; 2345.450;  167.825;    0.000
301.319; 2398.450;  211.825;    0.000
301.382; 2390.450;  167.825;    0.000
301.445; 2415.450;  224.825;    0.000
301.508; 2269.450;  168.825;    0.000
301.571; 2292.450;  161.825;    0.000
301.634; 2331.450;  177.825;    0.000
301.697; 2333.450;  203.825;    0.000
301.760; 2331.450;  190.825;    0.000
301.823; 2316.450;  182.825;    0.000
301.885; 2378.450;  202.825;    0.000
301.948; 2375.450;  200.825;    0.000
302.011; 2348.450;  157.825;    0.000
302.074; 2327.450;  205.825;    0.000
302.137; 2306.450;  149.825;    0.000
302.200; 2361.450;  201.825;    0.000
302.263; 2349.450;  178.825;    0.000
302.326; 2242.450;  184.825;    0.000
302.388; 2393.450;  176.825;    0.000
302.451; 2265.450;  146.825;    0.000
302.514; 2330.450;  192.825;    0.000
302.577; 2308.450;  181.825;    0.000
302.640; 2291.450;  186.825;    0.000
302.703; 2294.450;  164.825;    0.000
302.765; 2274.450;  197.825;    0.000
302.828; 2313.450;  208.825;    0.000
302.891; 2304.450;  168.825;    0.000
302.954; 2317.450;  177.825;    0.000
303.016; 2287.450;  190.825;    0.000
303.079; 2243.450;  216.825;    0.000
303.142; 2292.450;  228.825;    0.000
303.205; 2272.450;  192.825;    0.000
303.267; 2244.450;  182.825;    0.000
303.330; 2295.450;  201.825;    0.000
303.393; 2247.450;  196.825;    0.000
303.456; 2282.450;  184.825;    0.000
303.518; 2262.450;  194.825;    0.000
303.581; 2314.450;  195.825;    0.000
303.644; 2197.450;  184.825;    0.000
303.706; 2235.450;  150.825;    0.000
303.769; 2251.450;  182.825;    0.000
303.832; 2295.450;  143.825;    0.000
303.894; 2267.450;  207.825;    0.000
303.957; 2322.450;  178.825;    0.000
304.020; 2225.450;  203.825;    0.000
304.082; 2243.450;  175.825;    0.000
304.145; 2257.450;  171.825;    0.000
304.207; 2217.450;  157.825;    0.000
304.270; 2261.450;  195.825;    0.000
304.333; 2336.450;  195.825;    0.000
304.395; 2245.450;  197.825;    0.000
304.458; 2368.450;  231.825;    0.000
304.520; 2290.450;  218.825;    0.000
304.583; 2276.450;  177.825;    0.000
304.646; 2256.450;  177.825;    0.000
304.708; 2260.450;  178.825;    0.000
304.771; 2272.450;  143.825;    0.000
304.833; 2265.450;  241.825;    0.000
304.896; 2234.450;  200.825;    0.000
304.958; 2274.450;  176.825;    0.000
305.021; 2252.450;  159.825;    0.000
305.083; 2226.450;  159.825;    0.000
305.146; 2282.450;  190.825;    0.000
305.208; 2209.450;  152.825;    0.000
305.271; 2207.450;  162.825;    0.000
305.333; 2294.450;  219.825;    0.000
305.396; 2257.450;  163.825;    0.000
305.458; 2279.450;  215.825;    0.000
305.520; 2268.450;  174.825;    0.000
305.583; 2235.450;  161.825;    0.000
305.645; 2257.450;  203.825;    0.000
305.708; 2286.450;  163.825;    0.000
305.770; 2283.450;  215.825;    0.000
305.833; 2186.450;  207.825;    0.000
305.895; 2305.450;  166.825;    0.000
305.957; 2230.450;  175.825;    0.000
306.020; 2183.450;  169.825;    0.000
306.082; 2281.450;  203.825;    0.000
306.144; 2231.450;  181.825;    0.000
306.207; 2250.450;  199.825;    0.000
306.269; 2293.450;  177.825;    0.000
306.331; 2281.450;  160.825;    0.000
306.394; 2358.450;  193.825;    0.000
306.456; 2231.450;  136.825;    0.000
306.518; 2327.450;  189.825;    0.000
306.581; 2326.450;  156.825;    0.000
306.643; 2198.450;  190.825;    0.000
306.705; 2215.450;  190.825;    0.000
306.768; 2311.450;  172.825;    0.000
306.830; 2335.450;  214.825;    0.000
306.892; 2333.450;  198.825;    0.000
306.954; 2229.450;  177.825;    0.000
307.017; 2281.450;  183.825;    0.000
307.079; 2301.450;  170.825;    0.000
307.141; 2395.450;  173.825;    0.000
307.203; 2240.450;  171.825;    0.000
307.266; 2408.450;  166.825;    0.000
307.328; 2334.450;  207.825;    0.000
307.390; 2394.450;  201.825;    0.000
307.452; 2375.450;  182.825;    0.000
307.514; 2378.450;  213.825;    0.000
307.577; 2326.450;  213.825;    0.000
307.639; 2351.450;  197.825;    0.000
307.701; 2361.450;  174.825;    0.000
307.763; 2387.450;  181.825;    0.000
307.825; 2313.450;  186.825;    0.000
307.887; 2397.450;  198.825;    0.000
307.949; 2351.450;  158.825;    0.000
308.012; 2434.450;  209.825;    0.000
308.074; 2379.450;  176.825;    0.000
308.136; 2290.450;  227.825;    0.000
308.198; 2366.450;  187.825;    0.000
308.260; 2377.450;  211.825;    0.000
308.322; 2433.450;  206.825;    0.000
308.384; 2481.450;  186.825;    0.000
308.446; 2447.450;  175.825;    0.000
308.508; 2513.450;  211.825;    0.000
308.570; 2418.450;  191.825;    0.000
308.632; 2506.450;  195.825;    0.000
308.694; 2430.450;  173.825;    0.000
308.756; 2469.450;  185.825;    0.000
308.818; 2536.450;  195.825;    0.000
308.880; 2535.450;  189.825;    0.000
308.942; 2491.450;  231.825;    0.000
309.004; 2643.450;  188.825;    0.000
309.066; 2604.450;  196.825;    0.000
309.128; 2662.450;  155.825;    0.000
309.190; 2633.450;  176.825;    0.000
309.252; 2735.450;  191.825;    0.000
309.314; 2819.450;  236.825;    0.000
309.376; 2768.450;  212.825;    0.000
309.438; 2725.450;  201.825;    0.000
309.500; 2706.450;  206.825;    0.000
309.562; 2779.450;  213.825;    0.000
309.624; 2809.450;  196.825;    0.000
309.686; 3024.450;  198.825;    0.000
309.747; 2880.450;  186.825;    0.000
309.809; 2865.450;  215.825;    0.000
309.871; 2687.450;  242.825;    0.000
309.933; 2636.450;  162.825;    0.000
309.995; 2634.450;  163.825;    0.000
310.057; 2544.450;  145.825;    0.000
310.119; 2636.450;  205.825;    0.000
310.180; 2589.450;  195.825;    0.000
310.242; 2638.450;  167.825;    0.000
310.304; 2569.450;  213.825;    0.000
310.366; 2668.450;  224.825;    0.000
310.428; 2476.450;  170.825;    0.000
310.489; 2586.450;  195.825;    0.000
310.551; 2553.450;  207.825;    0.000
310.613; 2652.450;  168.825;    0.000
310.675; 2570.450;  188.825;    0.000
310.737; 2610.450;  211.825;    0.000
310.798; 2533.450;  221.825;    0.000
310.860; 2614.450;  201.825;    0.000
310.922; 2504.450;  206.825;    0.000
310.983; 2507.450;  222.825;    0.000
311.045; 2565.450;  235.825;    0.000
311.107; 2632.450;  184.825;    0.000
311.169; 2523.450;  148.825;    0.000
311.230; 2468.450;  211.825;    0.000
311.292; 2631.450;  235.825;    0.000
311.354; 2572.450;  183.825;    0.000
311.415; 2524.450;  196.825;    0.000
311.477; 2563.450;  200.825;    0.000
311.539; 2548.450;  171.825;    0.000
311.600; 2469.450;  169.825;    0.000
311.662; 2502.450;  231.825;    0.000
311.724; 2518.450;  204.825;    0.000
311.785; 2545.450;  214.825;    0.000
311.847; 2556.450;  193.825;    0.000
311.908; 2478.450;  180.825;    0.000
311.970; 2463.450;  233.825;    0.000
312.032; 2531.450;  192.825;    0.000
312.093; 2588.450;  195.825;    0.000
312.155; 2510.450;  194.825;    0.000
312.216; 2507.450;  238.825;    0.000
312.278; 2481.450;  146.825;    0.000
312.339; 2565.450;  184.825;    0.000
312.401; 2572.450;  201.825;    0.000
312.462; 2487.450;  173.825;    0.000
312.524; 2495.450;  205.825;    0.000
312.585; 2542.450;  199.825;    0.000
312.647; 2524.450;  168.825;    0.000
312.708; 2416.450;  180.825;    0.000
312.770; 2503.450;  180.825;    0.000
312.831; 2447.450;  176.825;    0.000
312.893; 2467.450;  211.825;    0.000
312.954; 2578.450;  178.825;    0.000
313.016; 2558.450;  204.825;    0.000
313.077; 2529.450;  216.825;    0.000
313.139; 2511.450;  172.825;    0.000
313.200; 2469.450;  197.825;    0.000
313.261; 2563.450;  227.825;    0.000
313.323; 2449.450;  204.825;    0.000
313.384; 2560.450;  182.825;    0.000
313.446; 2569.450;  204.825;    0.000
313.507; 2450.450;  164.825;    0.000
313.568; 2551.450;  197.825;    0.000
313.630; 2586.450;  190.825;    0.000
313.691; 2520.450;  185.825;    0.000
313.752; 2584.450;  192.825;    0.000
313.814; 2521.450;  176.825;    0.000
313.875; 2565.450;  210.825;    0.000
313.936; 2525.450;  165.825;    0.000
313.998; 2452.450;  162.825;    0.000
314.059; 2560.450;  178.825;    0.000
314.120; 2502.450;  176.825;    0.000
314.182; 2556.450;  167.825;    0.000
314.243; 2548.450;  204.825;    0.000
314.304; 2474.450;  197.825;    0.000
314.365; 2646.450;  183.825;    0.000
314.427; 2581.450;  176.825;    0.000
314.488; 2530.450;  149.825;    0.000
314.549; 2640.450;  218.825;    0.000
314.610; 2533.450;  160.825;    0.000
314.672; 2577.450;  187.825;    0.000
314.733; 2526.450;  184.825;    0.000
314.794; 2513.450;  164.825;    0.000
314.855; 2524.450;  191.825;    0.000
314.917; 2484.450;  172.825;    0.000
314.978; 2516.450;  185.825;    0.000
315.039; 2573.450;  194.825;    0.000
315.100; 2616.450;  190.825;    0.000
315.161; 2460.450;  185.825;    0.000
315.222; 2518.450;  204.825;    0.000
315.283; 2514.450;  166.825;    0.000
315.345; 2646.450;  133.825;    0.000
315.406; 2498.450;  191.825;    0.000
315.467; 2412.450;  166.825;    0.000
315.528; 2475.450;  194.825;    0.000
315.589; 2511.450;  193.825;    0.000
315.650; 2643.450;  190.825;    0.000
315.711; 2533.450;  219.825;    0.000
315.772; 2498.450;  159.825;    0.000
315.833; 2523.450;  191.825;    0.000
315.894; 2501.450;  202.825;    0.000
315.955; 2447.450;  167.825;    0.000
316.016; 2516.450;  177.825;    0.000
316.078; 2561.450;  185.825;    0.000
316.139; 2635.450;  219.825;    0.000
316.200; 2606.450;  163.825;    0.000
316.261; 2557.450;  183.825;    0.000
316.322; 2402.450;  230.825;    0.000
316.383; 2502.450;  198.825;    0.000
316.444; 2439.450;  209.825;    0.000
316.504; 2503.450;  179.825;    0.000
316.565; 2500.450;  185.825;    0.000
316.626; 2493.450;  155.825;    0.000
316.687; 2541.450;  211.825;    0.000
316.748; 2427.450;  192.825;    0.000
316.809; 2501.450;  183.825;    0.000
316.870; 2550.450;  196.825;    0.000
316.931; 2470.450;  173.825;    0.000
316.992; 2516.450;  179.825;    0.000
317.053; 2481.450;  186.825;    0.000
317.114; 2522.450;  189.825;    0.000
317.175; 2571.450;  226.825;    0.000
317.235; 2559.450;  206.825;    0.000
317.296; 2470.450;  191.825;    0.000
317.357; 2508.450;  173.825;    0.000
317.418; 2491.450;  212.825;    0.000
317.479; 2519.450;  247.825;    0.000
317.540; 2509.450;  205.825;    0.000
317.601; 2527.450;  205.825;    0.000
317.661; 2418.450;  150.825;    0.000
317.722; 2587.450;  198.825;    0.000
317.783; 2477.450;  153.825;    0.000
317.844; 2490.450;  202.825;    0.000
317.904; 2501.450;  180.825;    0.000
317.965; 2501.450;  205.825;    0.000
318.026; 2585.450;  223.825;    0.000
318.087; 2528.450;  218.825;    0.000
318.148; 2527.450;  207.825;    0.000
318.208; 2424.450;  212.825;    0.000
318.269; 2522.450;  174.825;    0.000
318.330; 2454.450;  191.825;    0.000
318.390; 2448.450;  197.825;    0.000
318.451; 2543.450;  167.825;    0.000
318.512; 2552.450;  174.825;    0.000
318.572; 2417.450;  199.825;    0.000
318.633; 2479.450;  233.825;    0.000
318.694; 2464.450;  232.825;    0.000
318.754; 2463.450;  181.825;    0.000
318.815; 2466.450;  199.825;    0.000
318.876; 2510.450;  207.825;    0.000
318.936; 2451.450;  202.825;    0.000
318.997; 2466.450;  182.825;    0.000
319.058; 2485.450;  180.825;    0.000
319.118; 2497.450;  199.825;    0.000
319.179; 2459.450;  199.825;    0.000
319.239; 2377.450;  229.825;    0.000
319.300; 2455.450;  223.825;    0.000
319.361; 2488.450;  210.825;    0.000
319.421; 2598.450;  205.825;    0.000
319.482; 2465.450;  205.825;    0.000
319.542; 2426.450;  176.825;    0.000
319.603; 2493.450;  191.825;    0.000
319.663; 2466.450;  183.825;    0.000
319.724; 2499.450;  174.825;    0.000
319.784; 2498.450;  198.825;    0.000
319.845; 2481.450;  218.825;    0.000
319.905; 2486.450;  217.825;    0.000
319.966; 2487.450;  197.825;    0.000
320.026; 2503.450;  209.825;    0.000
320.087; 2509.450;  225.825;    0.000
320.147; 2458.450;  201.825;    0.000
320.208; 2429.450;  176.825;    0.000
320.268; 2439.450;  168.825;    0.000
320.329; 2483.450;  238.825;    0.000
320.389; 2468.450;  220.825;    0.000
320.449; 2421.450;  230.825;    0.000
320.510; 2558.450;  234.825;    0.000
320.570; 2375.450;  210.825;    0.000
320.631; 2429.450;  207.825;    0.000
320.691; 2456.450;  222.825;    0.000
320.751; 2428.450;  195.825;    0.000
320.812; 2401.450;  193.825;    0.000
320.872; 2505.450;  237.825;    0.000
320.932; 2500.450;  213.825;    0.000
320.993; 2464.450;  185.825;    0.000
321.053; 2490.450;  245.825;    0.000
321.113; 2484.450;  206.825;    0.000
321.174; 2472.450;  202.825;    0.000
321.234; 2442.450;  244.825;    0.000
321.294; 2402.450;  228.825;    0.000
321.355; 2501.450;  208.825;    0.000
321.415; 2456.450;  223.825;    0.000
321.475; 2394.450;  203.825;    0.000
321.535; 2449.450;  230.825;    0.000
321.596; 2441.450;  186.825;    0.000
321.656; 2366.450;  216.825;    0.000
321.716; 2478.450;  207.825;    0.000
321.776; 2485.450;  181.825;    0.000
321.837; 2438.450;  207.825;    0.000
321.897; 2416.450;  225.825;    0.000
321.957; 2439.450;  222.825;    0.000
322.017; 2453.450;  215.825;    0.000
322.077; 2456.450;  250.825;    0.000
322.138; 2507.450;  189.825;    0.000
322.198; 2434.450;  200.825;    0.000
322.258; 2515.450;  217.825;    0.000
322.318; 2390.450;  183.825;    0.000
322.378; 2444.450;  231.825;    0.000
322.438; 2399.450;  228.825;    0.000
322.499; 2467.450;  248.825;    0.000
322.559; 2375.450;  198.825;    0.000
322.619; 2421.450;  221.825;    0.000
322.679; 2434.450;  217.825;    0.000
322.739; 2441.450;  204.825;    0.000
322.799; 2379.450;  236.825;    0.000
322.859; 2471.450;  213.825;    0.000
322.919; 2414.450;  210.825;    0.000
322.979; 2511.450;  244.825;    0.000
323.039; 2468.450;  218.825;    0.000
323.099; 2395.450;  232.825;    0.000
323.159; 2483.450;  216.825;    0.000
323.219; 2397.450;  169.825;    0.000
323.279; 2421.450;  236.825;    0.000
323.339; 2432.450;  243.825;    0.000
323.399; 2447.450;  208.825;    0.000
323.459; 2507.450;  220.825;    0.000
323.519; 2468.450;  228.825;    0.000
323.579; 2380.450;  164.825;    0.000
323.639; 2470.450;  209.825;    0.000
323.699; 2429.450;  188.825;    0.000
323.759; 2415.450;  206.825;    0.000
323.819; 2462.450;  204.825;    0.000
323.879; 2536.450;  222.825;    0.000
323.939; 2357.450;  206.825;    0.000
323.999; 2522.450;  202.825;    0.000
324.059; 2469.450;  245.825;    0.000
324.119; 2469.450;  214.825;    0.000
324.178; 2422.450;  183.825;    0.000
324.238; 2444.450;  193.825;    0.000
324.298; 2415.450;  207.825;    0.000
324.358; 2448.450;  196.825;    0.000
324.418; 2446.450;  193.825;    0.000
324.478; 2387.450;  191.825;    0.000
324.538; 2430.450;  224.825;    0.000
324.597; 2437.450;  187.825;    0.000
324.657; 2368.450;  208.825;    0.000
324.717; 2425.450;  198.825;    0.000
324.777; 2453.450;  159.825;    0.000
324.837; 2379.450;  180.825;    0.000
324.896; 2436.450;  215.825;    0.000
324.956; 2414.450;  210.825;    0.000
325.016; 2386.450;  187.825;    0.000
325.076; 2484.450;  197.825;    0.000
325.135; 2423.450;  226.825;    0.000
325.195; 2418.450;  201.825;    0.000
325.255; 2325.450;  167.825;    0.000
325.315; 2463.450;  217.825;    0.000
325.374; 2426.450;  196.825;    0.000
325.434; 2407.450;  167.825;    0.000
325.494; 2335.450;  214.825;    0.000
325.553; 2390.450;  203.825;    0.000
325.613; 2461.450;  206.825;    0.000
325.673; 2397.450;  148.825;    0.000
325.732; 2457.450;  207.825;    0.000
325.792; 2375.450;  151.825;    0.000
325.852; 2369.450;  195.825;    0.000
325.911; 2448.450;  201.825;    0.000
325.971; 2440.450;  224.825;    0.000
326.031; 2372.450;  201.825;    0.000
326.090; 2447.450;  203.825;    0.000
326.150; 2436.450;  183.825;    0.000
326.209; 2338.450;  226.825;    0.000
326.269; 2464.450;  194.825;    0.000
326.328; 2326.450;  200.825;    0.000
326.388; 2379.450;  177.825;    0.000
326.448; 2514.450;  239.825;    0.000
326.507; 2411.450;  197.825;    0.000
326.567; 2354.450;  161.825;    0.000
326.626; 2359.450;  220.825;    0.000
326.686; 2323.450;  178.825;    0.000
326.745; 2285.450;  167.825;    0.000
326.805; 2303.450;  176.825;    0.000
326.864; 2347.450;  204.825;    0.000
326.924; 2429.450;  218.825;    0.000
326.983; 2373.450;  201.825;    0.000
327.043; 2388.450;  219.825;    0.000
327.102; 2333.450;  202.825;    0.000
327.161; 2379.450;  228.825;    0.000
327.221; 2378.450;  217.825;    0.000
327.280; 2372.450;  188.825;    0.000
327.340; 2266.450;  209.825;    0.000
327.399; 2360.450;  189.825;    0.000
327.459; 2335.450;  216.825;    0.000
327.518; 2337.450;  200.825;    0.000
327.577; 2328.450;  194.825;    0.000
327.637; 2345.450;  180.825;    0.000
327.696; 2354.450;  208.825;    0.000
327.755; 2341.450;  218.825;    0.000
327.815; 2346.450;  234.825;    0.000
327.874; 2338.450;  259.825;    0.000
327.933; 2310.450;  192.825;    0.000
327.993; 2339.450;  208.825;    0.000
328.052; 2320.450;  221.825;    0.000
328.111; 2339.450;  203.825;    0.000
328.171; 2291.450;  221.825;    0.000
328.230; 2271.450;  222.825;    0.000
328.289; 2301.450;  254.825;    0.000
328.349; 2260.450;  232.825;    0.000
328.408; 2311.450;  223.825;    0.000
328.467; 2221.450;  198.825;    0.000
328.526; 2281.450;  217.825;    0.000
328.586; 2266.450;  185.825;    0.000
328.645; 2274.450;  210.825;    0.000
328.704; 2337.450;  211.825;    0.000
328.763; 2296.450;  231.825;    0.000
328.822; 2352.450;  254.825;    0.000
328.882; 2267.450;  216.825;    0.000
328.941; 2321.450;  239.825;    0.000
329.000; 2356.450;  251.825;    0.000
329.059; 2270.450;  227.825;    0.000
329.118; 2180.450;  233.825;    0.000
329.177; 2231.450;  188.825;    0.000
329.237; 2216.450;  257.825;    0.000
329.296; 2294.450;  265.825;    0.000
329.355; 2281.450;  245.825;    0.000
329.414; 2178.450;  236.825;    0.000
329.473; 2275.450;  242.825;    0.000
329.532; 2268.450;  228.825;    0.000
329.591; 2333.450;  206.825;    0.000
329.650; 2276.450;  250.825;    0.000
329.709; 2299.450;  278.825;    0.000
329.768; 2387.450;  219.825;    0.000
329.827; 2394.450;  254.825;    0.000
329.886; 2342.450;  221.825;    0.000
329.945; 2284.450;  239.825;    0.000
330.004; 2355.450;  245.825;    0.000
330.063; 2217.450;  201.825;    0.000
330.122; 2321.450;  227.825;    0.000
330.181; 2349.450;  196.825;    0.000
330.240; 2302.450;  203.825;    0.000
330.299; 2315.450;  214.825;    0.000
330.358; 2222.450;  196.825;    0.000
330.417; 2246.450;  201.825;    0.000
330.476; 2224.450;  248.825;    0.000
330.535; 2241.450;  253.825;    0.000
330.594; 2253.450;  231.825;    0.000
330.653; 2197.450;  210.825;    0.000
330.712; 2273.450;  242.825;    0.000
330.771; 2174.450;  240.825;    0.000
330.830; 2166.450;  230.825;    0.000
330.889; 2268.450;  217.825;    0.000
330.948; 2276.450;  211.825;    0.000
331.006; 2196.450;  217.825;    0.000
331.065; 2201.450;  170.825;    0.000
331.124; 2265.450;  211.825;    0.000
331.183; 2162.450;  192.825;    0.000
331.242; 2224.450;  227.825;    0.000
331.301; 2206.450;  240.825;    0.000
331.359; 2284.450;  223.825;    0.000
331.418; 2158.450;  215.825;    0.000
331.477; 2297.450;  230.825;    0.000
331.536; 2240.450;  221.825;    0.000
331.595; 2217.450;  198.825;    0.000
331.653; 2288.450;  207.825;    0.000
331.712; 2139.450;  217.825;    0.000
331.771; 2208.450;  221.825;    0.000
331.830; 2208.450;  222.825;    0.000
331.888; 2176.450;  213.825;    0.000
331.947; 2162.450;  233.825;    0.000
332.006; 2151.450;  212.825;    0.000
332.065; 2264.450;  200.825;    0.000
332.123; 2220.450;  223.825;    0.000
332.182; 2198.450;  180.825;    0.000
332.241; 2185.450;  192.825;    0.000
332.299; 2189.450;  172.825;    0.000
332.358; 2126.450;  216.825;    0.000
332.417; 2122.450;  211.825;    0.000
332.475; 2173.450;  222.825;    0.000
332.534; 2146.450;  238.825;    0.000
332.592; 2168.450;  216.825;    0.000
332.651; 2265.450;  196.825;    0.000
332.710; 2253.450;  215.825;    0.000
332.768; 2172.450;  193.825;    0.000
332.827; 2159.450;  201.825;    0.000
332.885; 2304.450;  226.825;    0.000
332.944; 2218.450;  174.825;    0.000
333.003; 2268.450;  187.825;    0.000
333.061; 2234.450;  208.825;    0.000
333.120; 2275.450;  202.825;    0.000
333.178; 2336.450;  227.825;    0.000
333.237; 2325.450;  215.825;    0.000
333.295; 2392.450;  245.825;    0.000
333.354; 2235.450;  194.825;    0.000
333.412; 2325.450;  165.825;    0.000
333.471; 2382.450;  219.825;    0.000
333.529; 2394.450;  255.825;    0.000
333.588; 2510.450;  264.825;    0.000
333.646; 2483.450;  231.825;    0.000
333.705; 2452.450;  232.825;    0.000
333.763; 2471.450;  233.825;    0.000
333.822; 2403.450;  221.825;    0.000
333.880; 2441.450;  180.825;    0.000
333.938; 2303.450;  229.825;    0.000
333.997; 2348.450;  194.825;    0.000
334.055; 2299.450;  230.825;    0.000
334.114; 2345.450;  230.825;    0.000
334.172; 2326.450;  170.825;    0.000
334.230; 2349.450;  192.825;    0.000
334.289; 2384.450;  225.825;    0.000
334.347; 2301.450;  233.825;    0.000
334.405; 2338.450;  207.825;    0.000
334.464; 2367.450;  175.825;    0.000
334.522; 2300.450;  180.825;    0.000
334.580; 2284.450;  172.825;    0.000
334.639; 2308.450;  230.825;    0.000
334.697; 2295.450;  217.825;    0.000
334.755; 2289.450;  217.825;    0.000
334.814; 2186.450;  210.825;    0.000
334.872; 2324.450;  170.825;    0.000
334.930; 2190.450;  167.825;    0.000
334.988; 2317.450;  244.825;    0.000
335.047; 2302.450;  202.825;    0.000
335.105; 2287.450;  181.825;    0.000
335.163; 2314.450;  195.825;    0.000
335.221; 2303.450;  203.825;    0.000
335.280; 2308.450;  216.825;    0.000
335.338; 2305.450;  197.825;    0.000
335.396; 2253.450;  232.825;    0.000
335.454; 2253.450;  211.825;    0.000
335.512; 2313.450;  221.825;    0.000
335.570; 2306.450;  216.825;    0.000
335.629; 2372.450;  244.825;    0.000
335.687; 2328.450;  244.825;    0.000
335.745; 2424.450;  189.825;    0.000
335.803; 2410.450;  198.825;    0.000
335.861; 2317.450;  236.825;    0.000
335.919; 2316.450;  234.825;    0.000
335.977; 2428.450;  214.825;    0.000
336.035; 2250.450;  242.825;    0.000
336.094; 2301.450;  219.825;    0.000
336.152; 2364.450;  196.825;    0.000
336.210; 2312.450;  221.825;    0.000
336.268; 2304.450;  257.825;    0.000
336.326; 2369.450;  211.825;    0.000
336.384; 2346.450;  217.825;    0.000
336.442; 2304.450;  176.825;    0.000
336.500; 2298.450;  242.825;    0.000
336.558; 2336.450;  238.825;    0.000
336.616; 2328.450;  261.825;    0.000
336.674; 2269.450;  200.825;    0.000
336.732; 2350.450;  208.825;    0.000
336.790; 2243.450;  183.825;    0.000
336.848; 2252.450;  199.825;    0.000
336.906; 2322.450;  240.825;    0.000
336.964; 2310.450;  234.825;    0.000
337.022; 2365.450;  282.825;    0.000
337.080; 2397.450;  265.825;    0.000
337.138; 2350.450;  255.825;    0.000
337.195; 2235.450;  200.825;    0.000
337.253; 2277.450;  199.825;    0.000
337.311; 2232.450;  233.825;    0.000
337.369; 2294.450;  250.825;    0.000
337.427; 2243.450;  201.825;    0.000
337.485; 2177.450;  228.825;    0.000
337.543; 2210.450;  221.825;    0.000
337.601; 2286.450;  232.825;    0.000
337.658; 2289.450;  215.825;    0.000
337.716; 2267.450;  198.825;    0.000
337.774; 2260.450;  262.825;    0.000
337.832; 2209.450;  220.825;    0.000
337.890; 2123.450;  194.825;    0.000
337.947; 2220.450;  205.825;    0.000
338.005; 2185.450;  229.825;    0.000
338.063; 2188.450;  237.825;    0.000
338.121; 2222.450;  220.825;    0.000
338.178; 2179.450;  227.825;    0.000
338.236; 2294.450;  238.825;    0.000
338.294; 2282.450;  242.825;    0.000
338.352; 2280.450;  230.825;    0.000
338.409; 2215.450;  222.825;    0.000
338.467; 2185.450;  233.825;    0.000
338.525; 2275.450;  253.825;    0.000
338.583; 2173.450;  221.825;    0.000
338.640; 2202.450;  225.825;    0.000
338.698; 2197.450;  229.825;    0.000
338.756; 2230.450;  238.825;    0.000
338.813; 2239.450;  260.825;    0.000
338.871; 2298.450;  246.825;    0.000
338.928; 2259.450;  240.825;    0.000
338.986; 2238.450;  228.825;    0.000
339.044; 2253.450;  265.825;    0.000
339.101; 2191.450;  224.825;    0.000
339.159; 2251.450;  235.825;    0.000
339.216; 2163.450;  244.825;    0.000
339.274; 2255.450;  266.825;    0.000
339.332; 2188.450;  248.825;    0.000
339.389; 2217.450;  246.825;    0.000
339.447; 2197.450;  237.825;    0.000
339.504; 2297.450;  244.825;    0.000
339.562; 2247.450;  249.825;    0.000
339.619; 2260.450;  266.825;    0.000
339.677; 2294.450;  263.825;    0.000
339.734; 2144.450;  216.825;    0.000
339.792; 2212.450;  276.825;    0.000
339.849; 2257.450;  240.825;    0.000
339.907; 2244.450;  275.825;    0.000
339.964; 2137.450;  243.825;    0.000
340.022; 2160.450;  224.825;    0.000
340.079; 2186.450;  230.825;    0.000
340.137; 2268.450;  232.825;    0.000
340.194; 2274.450;  261.825;    0.000
340.252; 2242.450;  219.825;    0.000
340.309; 2232.450;  212.825;    0.000
340.366; 2187.450;  231.825;    0.000
340.424; 2190.450;  244.825;    0.000
340.481; 2257.450;  238.825;    0.000
340.538; 2271.450;  217.825;    0.000
340.596; 2192.450;  224.825;    0.000
340.653; 2297.450;  225.825;    0.000
340.711; 2317.450;  276.825;    0.000
340.768; 2226.450;  239.825;    0.000
340.825; 2225.450;  216.825;    0.000
340.883; 2222.450;  264.825;    0.000
340.940; 2264.450;  256.825;    0.000
340.997; 2216.450;  230.825;    0.000
341.054; 2303.450;  229.825;    0.000
341.112; 2320.450;  220.825;    0.000
341.169; 2239.450;  276.825;    0.000
341.226; 2194.450;  224.825;    0.000
341.284; 2262.450;  235.825;    0.000
341.341; 2193.450;  226.825;    0.000
341.398; 2230.450;  200.825;    0.000
341.455; 2217.450;  242.825;    0.000
341.512; 2219.450;  226.825;    0.000
341.570; 2291.450;  299.825;    0.000
341.627; 2370.450;  221.825;    0.000
341.684; 2187.450;  204.825;    0.000
341.741; 2330.450;  285.825;    0.000
341.798; 2239.450;  237.825;    0.000
341.856; 2245.450;  223.825;    0.000
341.913; 2239.450;  232.825;    0.000
341.970; 2197.450;  250.825;    0.000
342.027; 2229.450;  272.825;    0.000
342.084; 2239.450;  242.825;    0.000
342.141; 2236.450;  207.825;    0.000
342.198; 2257.450;  252.825;    0.000
342.255; 2210.450;  189.825;    0.000
342.313; 2262.450;  222.825;    0.000
342.370; 2259.450;  203.825;    0.000
342.427; 2268.450;  261.825;    0.000
342.484; 2254.450;  230.825;    0.000
342.541; 2177.450;  224.825;    0.000
342.598; 2157.450;  245.825;    0.000
342.655; 2271.450;  235.825;    0.000
342.712; 2232.450;  238.825;    0.000
342.769; 2189.450;  235.825;    0.000
342.826; 2242.450;  232.825;    0.000
342.883; 2280.450;  212.825;    0.000
342.940; 2199.450;  189.825;    0.000
342.997; 2198.450;  241.825;    0.000
343.054; 2186.450;  235.825;    0.000
343.111; 2245.450;  216.825;    0.000
343.168; 2334.450;  202.825;    0.000
343.225; 2241.450;  228.825;    0.000
343.282; 2295.450;  208.825;    0.000
343.339; 2299.450;  241.825;    0.000
343.395; 2194.450;  206.825;    0.000
343.452; 2275.450;  227.825;    0.000
343.509; 2230.450;  212.825;    0.000
343.566; 2325.450;  266.825;    0.000
343.623; 2329.450;  240.825;    0.000
343.680; 2269.450;  215.825;    0.000
343.737; 2323.450;  231.825;    0.000
343.794; 2385.450;  256.825;    0.000
343.850; 2266.450;  235.825;    0.000
343.907; 2342.450;  246.825;    0.000
343.964; 2394.450;  241.825;    0.000
344.021; 2335.450;  237.825;    0.000
344.078; 2310.450;  248.825;    0.000
344.134; 2307.450;  225.825;    0.000
344.191; 2369.450;  209.825;    0.000
344.248; 2359.450;  234.825;    0.000
344.305; 2373.450;  224.825;    0.000
344.361; 2361.450;  194.825;    0.000
344.418; 2399.450;  240.825;    0.000
344.475; 2452.450;  252.825;    0.000
344.532; 2469.450;  251.825;    0.000
344.588; 2422.450;  240.825;    0.000
344.645; 2384.450;  253.825;    0.000
344.702; 2363.450;  216.825;    0.000
344.758; 2406.450;  258.825;    0.000
344.815; 2320.450;  239.825;    0.000
344.872; 2305.450;  216.825;    0.000
344.928; 2424.450;  236.825;    0.000
344.985; 2413.450;  238.825;    0.000
345.042; 2363.450;  211.825;    0.000
345.098; 2376.450;  223.825;    0.000
345.155; 2334.450;  266.825;    0.000
345.212; 2320.450;  266.825;    0.000
345.268; 2390.450;  245.825;    0.000
345.325; 2331.450;  225.825;    0.000
345.381; 2410.450;  223.825;    0.000
345.438; 2373.450;  259.825;    0.000
345.495; 2474.450;  233.825;    0.000
345.551; 2353.450;  254.825;    0.000
345.608; 2303.450;  212.825;    0.000
345.664; 2367.450;  225.825;    0.000
345.721; 2290.450;  223.825;    0.000
345.777; 2295.450;  226.825;    0.000
345.834; 2286.450;  215.825;    0.000
345.890; 2259.450;  230.825;    0.000
345.947; 2341.450;  232.825;    0.000
346.003; 2395.450;  241.825;    0.000
346.060; 2271.450;  241.825;    0.000
346.116; 2369.450;  231.825;    0.000
346.173; 2337.450;  229.825;    0.000
346.229; 2362.450;  262.825;    0.000
346.285; 2361.450;  232.825;    0.000
346.342; 2383.450;  228.825;    0.000
346.398; 2320.450;  203.825;    0.000
346.455; 2388.450;  214.825;    0.000
346.511; 2473.450;  245.825;    0.000
346.567; 2438.450;  192.825;    0.000
346.624; 2369.450;  206.825;    0.000
346.680; 2416.450;  209.825;    0.000
346.737; 2414.450;  239.825;    0.000
346.793; 2396.450;  234.825;    0.000
346.849; 2449.450;  252.825;    0.000
346.906; 2458.450;  247.825;    0.000
346.962; 2440.450;  274.825;    0.000
347.018; 2503.450;  225.825;    0.000
347.074; 2442.450;  261.825;    0.000
347.131; 2398.450;  230.825;    0.000
347.187; 2385.450;  269.825;    0.000
347.243; 2390.450;  261.825;    0.000
347.300; 2347.450;  236.825;    0.000
347.356; 2423.450;  284.825;    0.000
347.412; 2337.450;  243.825;    0.000
347.468; 2470.450;  276.825;    0.000
347.524; 2391.450;  232.825;    0.000
347.581; 2453.450;  242.825;    0.000
347.637; 2385.450;  270.825;    0.000
347.693; 2390.450;  269.825;    0.000
347.749; 2437.450;  278.825;    0.000
347.805; 2269.450;  224.825;    0.000
347.862; 2406.450;  207.825;    0.000
347.918; 2394.450;  259.825;    0.000
347.974; 2387.450;  244.825;    0.000
348.030; 2322.450;  219.825;    0.000
348.086; 2366.450;  250.825;    0.000
348.142; 2387.450;  251.825;    0.000
348.198; 2395.450;  267.825;    0.000
348.254; 2493.450;  230.825;    0.000
348.311; 2383.450;  261.825;    0.000
348.367; 2421.450;  259.825;    0.000
348.423; 2393.450;  251.825;    0.000
348.479; 2407.450;  251.825;    0.000
348.535; 2406.450;  269.825;    0.000
348.591; 2385.450;  238.825;    0.000
348.647; 2384.450;  273.825;    0.000
348.703; 2434.450;  291.825;    0.000
348.759; 2407.450;  231.825;    0.000
348.815; 2407.450;  286.825;    0.000
348.871; 2412.450;  265.825;    0.000
348.927; 2374.450;  234.825;    0.000
348.983; 2487.450;  267.825;    0.000
349.039; 2435.450;  233.825;    0.000
349.095; 2443.450;  225.825;    0.000
349.151; 2344.450;  242.825;    0.000
349.207; 2429.450;  223.825;    0.000
349.263; 2419.450;  219.825;    0.000
349.319; 2419.450;  226.825;    0.000
349.374; 2383.450;  232.825;    0.000
349.430; 2422.450;  235.825;    0.000
349.486; 2520.450;  227.825;    0.000
349.542; 2523.450;  253.825;    0.000
349.598; 2449.450;  227.825;    0.000
349.654; 2475.450;  270.825;    0.000
349.710; 2471.450;  233.825;    0.000
349.766; 2476.450;  245.825;    0.000
349.821; 2499.450;  242.825;    0.000
349.877; 2408.450;  229.825;    0.000
349.933; 2511.450;  229.825;    0.000
349.989; 2373.450;  230.825;    0.000
350.045; 2468.450;  236.825;    0.000
350.100; 2469.450;  237.825;    0.000
350.156; 2446.450;  230.825;    0.000
350.212; 2407.450;  254.825;    0.000
350.268; 2452.450;  239.825;    0.000
350.323; 2402.450;  204.825;    0.000
350.379; 2436.450;  246.825;    0.000
350.435; 2441.450;  249.825;    0.000
350.491; 2435.450;  217.825;    0.000
350.546; 2500.450;  231.825;    0.000
350.602; 2373.450;  240.825;    0.000
350.658; 2474.450;  235.825;    0.000
350.713; 2516.450;  234.825;    0.000
350.769; 2503.450;  218.825;    0.000
350.825; 2428.450;  227.825;    0.000
350.880; 2448.450;  226.825;    0.000
350.936; 2519.450;  247.825;    0.000
350.992; 2462.450;  213.825;    0.000
351.047; 2423.450;  207.825;    0.000
351.103; 2392.450;  271.825;    0.000
351.158; 2552.450;  251.825;    0.000
351.214; 2505.450;  199.825;    0.000
351.270; 2463.450;  214.825;    0.000
351.325; 2513.450;  235.825;    0.000
351.381; 2408.450;  223.825;    0.000
351.436; 2460.450;  237.825;    0.000
351.492; 2574.450;  221.825;    0.000
351.547; 2551.450;  237.825;    0.000
351.603; 2456.450;  239.825;    0.000
351.658; 2542.450;  209.825;    0.000
351.714; 2486.450;  226.825;    0.000
351.769; 2495.450;  238.825;    0.000
351.825; 2555.450;  226.825;    0.000
351.880; 2598.450;  217.825;    0.000
351.936; 2427.450;  246.825;    0.000
351.991; 2525.450;  233.825;    0.000
352.047; 2529.450;  215.825;    0.000
352.102; 2419.450;  243.825;    0.000
352.158; 2399.450;  234.825;    0.000
352.213; 2389.450;  201.825;    0.000
352.268; 2392.450;  234.825;    0.000
352.324; 2420.450;  211.825;    0.000
352.379; 2445.450;  221.825;    0.000
352.434; 2485.450;  259.825;    0.000
352.490; 2508.450;  250.825;    0.000
352.545; 2514.450;  251.825;    0.000
352.601; 2494.450;  283.825;    0.000
352.656; 2404.450;  236.825;    0.000
352.711; 2428.450;  237.825;    0.000
352.767; 2488.450;  201.825;    0.000
352.822; 2511.450;  209.825;    0.000
352.877; 2451.450;  239.825;    0.000
352.932; 2526.450;  228.825;    0.000
352.988; 2388.450;  202.825;    0.000
353.043; 2518.450;  268.825;    0.000
353.098; 2423.450;  208.825;    0.000
353.153; 2503.450;  219.825;    0.000
353.209; 2501.450;  252.825;    0.000
353.264; 2496.450;  225.825;    0.000
353.319; 2419.450;  234.825;    0.000
353.374; 2545.450;  236.825;    0.000
353.430; 2491.450;  245.825;    0.000
353.485; 2512.450;  238.825;    0.000
353.540; 2452.450;  238.825;    0.000
353.595; 2443.450;  215.825;    0.000
353.650; 2474.450;  238.825;    0.000
353.705; 2455.450;  274.825;    0.000
353.761; 2400.450;  229.825;    0.000
353.816; 2492.450;  275.825;    0.000
353.871; 2499.450;  245.825;    0.000
353.926; 2469.450;  253.825;    0.000
353.981; 2509.450;  269.825;    0.000
354.036; 2496.450;  246.825;    0.000
354.091; 2480.450;  257.825;    0.000
354.146; 2397.450;  278.825;    0.000
354.201; 2488.450;  276.825;    0.000
354.256; 2414.450;  224.825;    0.000
354.311; 2546.450;  287.825;    0.000
354.367; 2540.450;  210.825;    0.000
354.422; 2544.450;  231.825;    0.000
354.477; 2484.450;  226.825;    0.000
354.532; 2487.450;  262.825;    0.000
354.587; 2535.450;  275.825;    0.000
354.642; 2604.450;  247.825;    0.000
354.697; 2556.450;  251.825;    0.000
354.751; 2474.450;  249.825;    0.000
354.806; 2515.450;  217.825;    0.000
354.861; 2517.450;  247.825;    0.000
354.916; 2516.450;  259.825;    0.000
354.971; 2516.450;  241.825;    0.000
355.026; 2509.450;  250.825;    0.000
355.081; 2487.450;  244.825;    0.000
355.136; 2462.450;  203.825;    0.000
355.191; 2526.450;  241.825;    0.000
355.246; 2500.450;  248.825;    0.000
355.301; 2486.450;  259.825;    0.000
355.355; 2487.450;  236.825;    0.000
355.410; 2499.450;  221.825;    0.000
355.465; 2413.450;  206.825;    0.000
355.520; 2424.450;  258.825;    0.000
355.575; 2519.450;  273.825;    0.000
355.630; 2561.450;  252.825;    0.000
355.684; 2489.450;  246.825;    0.000
355.739; 2472.450;  251.825;    0.000
355.794; 2512.450;  247.825;    0.000
355.849; 2563.450;  246.825;    0.000
355.904; 2456.450;  262.825;    0.000
355.958; 2438.450;  249.825;    0.000
356.013; 2492.450;  213.825;    0.000
356.068; 2410.450;  255.825;    0.000
356.123; 2545.450;  205.825;    0.000
356.177; 2568.450;  239.825;    0.000
356.232; 2531.450;  258.825;    0.000
356.287; 2496.450;  248.825;    0.000
356.341; 2481.450;  221.825;    0.000
356.396; 2484.450;  220.825;    0.000
356.451; 2484.450;  231.825;    0.000
356.505; 2531.450;  231.825;    0.000
356.560; 2534.450;  254.825;    0.000
356.615; 2520.450;  234.825;    0.000
356.669; 2508.450;  250.825;    0.000
356.724; 2524.450;  261.825;    0.000
356.778; 2495.450;  207.825;    0.000
356.833; 2495.450;  205.825;    0.000
356.888; 2438.450;  235.825;    0.000
356.942; 2504.450;  205.825;    0.000
356.997; 2590.450;  276.825;    0.000
357.051; 2533.450;  243.825;    0.000
357.106; 2475.450;  242.825;    0.000
357.160; 2433.450;  241.825;    0.000
357.215; 2500.450;  212.825;    0.000
357.269; 2437.450;  238.825;    0.000
357.324; 2548.450;  223.825;    0.000
357.378; 2519.450;  221.825;    0.000
357.433; 2470.450;  262.825;    0.000
357.487; 2498.450;  246.825;    0.000
357.542; 2478.450;  221.825;    0.000
357.596; 2564.450;  225.825;    0.000
357.651; 2515.450;  244.825;    0.000
357.705; 2441.450;  269.825;    0.000
357.760; 2469.450;  209.825;    0.000
357.814; 2435.450;  250.825;    0.000
357.868; 2476.450;  266.825;    0.000
357.923; 2529.450;  248.825;    0.000
357.977; 2360.450;  262.825;    0.000
358.032; 2408.450;  228.825;    0.000
358.086; 2425.450;  257.825;    0.000
358.140; 2508.450;  217.825;    0.000
358.195; 2462.450;  246.825;    0.000
358.249; 2460.450;  255.825;    0.000
358.303; 2540.450;  252.825;    0.000
358.358; 2444.450;  278.825;    0.000
358.412; 2502.450;  276.825;    0.000
358.466; 2461.450;  275.825;    0.000
358.521; 2374.450;  229.825;    0.000
358.575; 2380.450;  270.825;    0.000
358.629; 2380.450;  239.825;    0.000
358.683; 2433.450;  254.825;    0.000
358.738; 2494.450;  239.825;    0.000
358.792; 2437.450;  272.825;    0.000
358.846; 2466.450;  289.825;    0.000
358.900; 2444.450;  299.825;    0.000
358.954; 2422.450;  247.825;    0.000
359.009; 2443.450;  245.825;    0.000
359.063; 2410.450;  272.825;    0.000
359.117; 2451.450;  242.825;    0.000
359.171; 2532.450;  279.825;    0.000
359.225; 2531.450;  221.825;    0.000
359.280; 2427.450;  238.825;    0.000
359.334; 2455.450;  264.825;    0.000
359.388; 2493.450;  273.825;    0.000
359.442; 2506.450;  233.825;    0.000
359.496; 2407.450;  226.825;    0.000
359.550; 2465.450;  271.825;    0.000
359.604; 2369.450;  296.825;    0.000
359.658; 2434.450;  252.825;    0.000
359.712; 2389.450;  256.825;    0.000
359.766; 2517.450;  257.825;    0.000
359.820; 2518.450;  239.825;    0.000
359.875; 2456.450;  252.825;    0.000
359.929; 2449.450;  258.825;    0.000
359.983; 2366.450;  232.825;    0.000
360.037; 2432.450;  268.825;    0.000
360.091; 2401.450;  303.825;    0.000
360.145; 2436.450;  232.825;    0.000
360.199; 2402.450;  255.825;    0.000
360.253; 2429.450;  252.825;    0.000
360.306; 2410.450;  278.825;    0.000
360.360; 2472.450;  249.825;    0.000
360.414; 2450.450;  274.825;    0.000
360.468; 2439.450;  247.825;    0.000
360.522; 2440.450;  268.825;    0.000
360.576; 2425.450;  263.825;    0.000
360.630; 2454.450;  296.825;    0.000
360.684; 2495.450;  253.825;    0.000
360.738; 2419.450;  301.825;    0.000
360.792; 2428.450;  282.825;    0.000
360.846; 2442.450;  277.825;    0.000
360.899; 2539.450;  292.825;    0.000
360.953; 2539.450;  266.825;    0.000
361.007; 2527.450;  240.825;    0.000
361.061; 2482.450;  247.825;    0.000
361.115; 2511.450;  276.825;    0.000
361.168; 2423.450;  288.825;    0.000
361.222; 2347.450;  271.825;    0.000
361.276; 2439.450;  270.825;    0.000
361.330; 2441.450;  295.825;    0.000
361.384; 2421.450;  276.825;    0.000
361.437; 2515.450;  280.825;    0.000
361.491; 2457.450;  261.825;    0.000
361.545; 2389.450;  273.825;    0.000
361.599; 2396.450;  269.825;    0.000
361.652; 2430.450;  258.825;    0.000
361.706; 2423.450;  270.825;    0.000
361.760; 2404.450;  294.825;    0.000
361.813; 2414.450;  244.825;    0.000
361.867; 2464.450;  294.825;    0.000
361.921; 2373.450;  285.825;    0.000
361.974; 2401.450;  269.825;    0.000
362.028; 2438.450;  275.825;    0.000
362.082; 2347.450;  270.825;    0.000
362.135; 2432.450;  259.825;    0.000
362.189; 2450.450;  302.825;    0.000
362.242; 2482.450;  296.825;    0.000
362.296; 2419.450;  285.825;    0.000
362.350; 2431.450;  303.825;    0.000
362.403; 2414.450;  271.825;    0.000
362.457; 2487.450;  285.825;    0.000
362.510; 2361.450;  288.825;    0.000
362.564; 2313.450;  268.825;    0.000
362.617; 2423.450;  285.825;    0.000
362.671; 2499.450;  277.825;    0.000
362.724; 2331.450;  242.825;    0.000
362.778; 2432.450;  274.825;    0.000
362.831; 2400.450;  280.825;    0.000
362.885; 2505.450;  284.825;    0.000
362.938; 2403.450;  276.825;    0.000
362.992;  347.450;  289.825;    0.000
363.045;  268.450;  247.825;    0.000
363.099;  234.450;  260.825;    0.000
363.152;  296.450;  258.825;    0.000
363.205;  341.450;  286.825;    0.000
363.259;  253.450;  236.825;    0.000
363.312;  278.450;  297.825;    0.000
363.366;  287.450;  266.825;    0.000
363.419;  302.450;  309.825;    0.000
363.472;  272.450;  293.825;    0.000
363.526;  310.450;  270.825;    0.000
363.579;  267.450;  276.825;    0.000
363.632;  323.450;  279.825;    0.000
363.686;  257.450;  292.825;    0.000
363.739;  248.450;  248.825;    0.000
363.792;  295.450;  287.825;    0.000

