
Integration time [ms]:   0.300
Averaging Nr. [scans]: 1
Smoothing Nr. [pixels]: 0
Data measured with spectrometer [name]: VIS
Wave   ;Sample   ;Dark     ;Reference
[nm]   ;[counts] ;[counts] ;[counts] 

450.961;  198.050;  204.125;    0.000
451.100;  240.050;  219.125;    0.000
451.239;  201.050;  196.125;    0.000
451.377;  262.050;  252.125;    0.000
451.516;  212.050;  215.125;    0.000
451.655;  230.050;  214.125;    0.000
451.794;  247.050;  241.125;    0.000
451.932;  233.050;  242.125;    0.000
452.071;  216.050;  204.125;    0.000
452.210;  217.050;  243.125;    0.000
452.348;  232.050;  241.125;    0.000
452.487;  228.050;  246.125;    0.000
452.626;  239.050;  235.125;    0.000
452.764;  231.050;  230.125;    0.000
452.903;  211.050;  199.125;    0.000
453.042;  273.050;  178.125;    0.000
453.180; 4327.050;  291.125;    0.000
453.319; 4482.050;  335.125;    0.000
453.458; 4560.050;  245.125;    0.000
453.596; 4566.050;  325.125;    0.000
453.735; 4597.050;  291.125;    0.000
453.873; 4592.050;  295.125;    0.000
454.012; 4630.050;  291.125;    0.000
454.150; 4667.050;  292.125;    0.000
454.289; 4710.050;  328.125;    0.000
454.427; 4777.050;  295.125;    0.000
454.566; 4905.050;  295.125;    0.000
454.704; 4850.050;  301.125;    0.000
454.843; 4772.050;  278.125;    0.000
454.981; 4956.050;  306.125;    0.000
455.120; 4907.050;  237.125;    0.000
455.258; 5143.050;  325.125;    0.000
455.397; 5080.050;  276.125;    0.000
455.535; 5085.050;  269.125;    0.000
455.674; 5155.050;  259.125;    0.000
455.812; 5166.050;  264.125;    0.000
455.951; 5346.050;  286.125;    0.000
456.089; 5175.050;  302.125;    0.000
456.227; 5329.050;  230.125;    0.000
456.366; 5356.050;  303.125;    0.000
456.504; 5568.050;  316.125;    0.000
456.642; 5556.050;  309.125;    0.000
456.781; 5530.050;  299.125;    0.000
456.919; 5609.050;  281.125;    0.000
457.057; 5753.050;  253.125;    0.000
457.196; 5671.050;  268.125;    0.000
457.334; 5815.050;  292.125;    0.000
457.472; 5838.050;  287.125;    0.000
457.610; 5919.050;  300.125;    0.000
457.749; 6165.050;  342.125;    0.000
457.887; 6044.050;  310.125;    0.000
458.025; 6100.050;  310.125;    0.000
458.163; 6252.050;  323.125;    0.000
458.301; 6326.050;  336.125;    0.000
458.440; 6577.050;  297.125;    0.000
458.578; 6719.050;  295.125;    0.000
458.716; 6685.050;  309.125;    0.000
458.854; 6871.050;  335.125;    0.000
458.992; 6930.050;  244.125;    0.000
459.130; 7141.050;  370.125;    0.000
459.269; 7090.050;  313.125;    0.000
459.407; 7187.050;  370.125;    0.000
459.545; 7378.050;  341.125;    0.000
459.683; 7352.050;  336.125;    0.000
459.821; 7543.050;  311.125;    0.000
459.959; 7684.050;  330.125;    0.000
460.097; 7824.050;  355.125;    0.000
460.235; 7772.050;  348.125;    0.000
460.373; 7999.050;  338.125;    0.000
460.511; 8030.050;  361.125;    0.000
460.649; 7941.050;  295.125;    0.000
460.787; 8115.050;  325.125;    0.000
460.925; 8023.050;  266.125;    0.000
461.063; 8162.050;  365.125;    0.000
461.201; 8184.050;  334.125;    0.000
461.339; 8199.050;  341.125;    0.000
461.477; 8204.050;  304.125;    0.000
461.615; 8214.050;  311.125;    0.000
461.753; 8366.050;  342.125;    0.000
461.891; 8399.050;  333.125;    0.000
462.029; 8764.050;  336.125;    0.000
462.166; 8841.050;  272.125;    0.000
462.304; 8988.050;  313.125;    0.000
462.442; 9172.050;  313.125;    0.000
462.580; 9266.050;  328.125;    0.000
462.718; 9467.050;  358.125;    0.000
462.856; 9609.050;  302.125;    0.000
462.993; 9519.050;  360.125;    0.000
463.131; 9613.050;  280.125;    0.000
463.269; 9446.050;  312.125;    0.000
463.407; 9174.050;  263.125;    0.000
463.545; 8839.050;  253.125;    0.000
463.682; 8964.050;  296.125;    0.000
463.820; 9365.050;  308.125;    0.000
463.958; 9752.050;  300.125;    0.000
464.095; 9858.050;  289.125;    0.000
464.233; 9882.050;  340.125;    0.000
464.371; 9905.050;  300.125;    0.000
464.509; 9779.050;  266.125;    0.000
464.646; 9651.050;  294.125;    0.000
464.784; 9668.050;  284.125;    0.000
464.921; 9402.050;  350.125;    0.000
465.059; 9179.050;  256.125;    0.000
465.197; 9058.050;  289.125;    0.000
465.334; 8842.050;  287.125;    0.000
465.472; 8629.050;  322.125;    0.000
465.609; 8734.050;  311.125;    0.000
465.747; 8562.050;  336.125;    0.000
465.885; 8440.050;  308.125;    0.000
466.022; 8484.050;  299.125;    0.000
466.160; 8355.050;  293.125;    0.000
466.297; 8370.050;  317.125;    0.000
466.435; 8148.050;  336.125;    0.000
466.572; 8139.050;  282.125;    0.000
466.710; 8151.050;  299.125;    0.000
466.847; 8166.050;  288.125;    0.000
466.985; 8186.050;  274.125;    0.000
467.122; 8239.050;  302.125;    0.000
467.260; 8126.050;  271.125;    0.000
467.397; 8100.050;  263.125;    0.000
467.534; 8100.050;  320.125;    0.000
467.672; 8076.050;  309.125;    0.000
467.809; 8064.050;  275.125;    0.000
467.947; 8004.050;  319.125;    0.000
468.084; 8069.050;  309.125;    0.000
468.221; 8103.050;  302.125;    0.000
468.359; 7949.050;  286.125;    0.000
468.496; 8083.050;  293.125;    0.000
468.633; 7901.050;  273.125;    0.000
468.771; 8121.050;  296.125;    0.000
468.908; 8100.050;  277.125;    0.000
469.045; 8183.050;  303.125;    0.000
469.183; 8336.050;  314.125;    0.000
469.320; 8311.050;  278.125;    0.000
469.457; 8429.050;  308.125;    0.000
469.594; 8449.050;  272.125;    0.000
469.732; 8388.050;  321.125;    0.000
469.869; 8571.050;  299.125;    0.000
470.006; 8740.050;  267.125;    0.000
470.143; 8773.050;  298.125;    0.000
470.280; 8841.050;  272.125;    0.000
470.417; 8807.050;  314.125;    0.000
470.555; 8810.050;  305.125;    0.000
470.692; 8687.050;  309.125;    0.000
470.829; 8745.050;  311.125;    0.000
470.966; 8645.050;  260.125;    0.000
471.103; 8728.050;  267.125;    0.000
471.240; 8566.050;  290.125;    0.000
471.377; 8632.050;  290.125;    0.000
471.514; 8583.050;  295.125;    0.000
471.651; 8579.050;  300.125;    0.000
471.789; 8529.050;  281.125;    0.000
471.926; 8618.050;  291.125;    0.000
472.063; 8407.050;  305.125;    0.000
472.200; 8420.050;  285.125;    0.000
472.337; 8354.050;  288.125;    0.000
472.474; 8463.050;  276.125;    0.000
472.611; 8312.050;  309.125;    0.000
472.748; 8234.050;  280.125;    0.000
472.884; 8275.050;  300.125;    0.000
473.021; 8128.050;  280.125;    0.000
473.158; 8156.050;  304.125;    0.000
473.295; 8211.050;  308.125;    0.000
473.432; 8234.050;  294.125;    0.000
473.569; 8150.050;  288.125;    0.000
473.706; 8095.050;  254.125;    0.000
473.843; 8187.050;  282.125;    0.000
473.980; 8214.050;  286.125;    0.000
474.117; 8206.050;  257.125;    0.000
474.253; 8186.050;  298.125;    0.000
474.390; 8384.050;  253.125;    0.000
474.527; 8254.050;  271.125;    0.000
474.664; 8272.050;  257.125;    0.000
474.801; 8220.050;  296.125;    0.000
474.937; 8372.050;  263.125;    0.000
475.074; 8405.050;  262.125;    0.000
475.211; 8284.050;  299.125;    0.000
475.348; 8357.050;  308.125;    0.000
475.484; 8389.050;  278.125;    0.000
475.621; 8481.050;  287.125;    0.000
475.758; 8413.050;  231.125;    0.000
475.894; 8437.050;  295.125;    0.000
476.031; 8401.050;  290.125;    0.000
476.168; 8479.050;  287.125;    0.000
476.304; 8389.050;  331.125;    0.000
476.441; 8471.050;  301.125;    0.000
476.578; 8551.050;  263.125;    0.000
476.714; 8481.050;  261.125;    0.000
476.851; 8644.050;  247.125;    0.000
476.987; 8721.050;  297.125;    0.000
477.124; 8880.050;  296.125;    0.000
477.261; 8936.050;  299.125;    0.000
477.397; 8847.050;  292.125;    0.000
477.534; 9033.050;  289.125;    0.000
477.670; 8991.050;  268.125;    0.000
477.807; 9129.050;  234.125;    0.000
477.943; 9271.050;  279.125;    0.000
478.080; 9348.050;  276.125;    0.000
478.216; 9309.050;  248.125;    0.000
478.353; 9284.050;  296.125;    0.000
478.489; 9509.050;  267.125;    0.000
478.626; 9588.050;  243.125;    0.000
478.762; 9601.050;  252.125;    0.000
478.898; 9597.050;  266.125;    0.000
479.035; 9713.050;  290.125;    0.000
479.171; 9707.050;  247.125;    0.000
479.308; 9477.050;  283.125;    0.000
479.444; 9627.050;  244.125;    0.000
479.580; 9637.050;  259.125;    0.000
479.717; 9913.050;  301.125;    0.000
479.853; 9722.050;  257.125;    0.000
479.989; 9647.050;  249.125;    0.000
480.126; 9840.050;  218.125;    0.000
480.262;10089.050;  275.125;    0.000
480.398; 9919.050;  246.125;    0.000
480.535;10004.050;  246.125;    0.000
480.671; 9950.050;  272.125;    0.000
480.807; 9787.050;  281.125;    0.000
480.943; 9755.050;  233.125;    0.000
481.080; 9714.050;  303.125;    0.000
481.216; 9661.050;  229.125;    0.000
481.352; 9682.050;  240.125;    0.000
481.488; 9876.050;  284.125;    0.000
481.624; 9616.050;  236.125;    0.000
481.760; 9464.050;  255.125;    0.000
481.897; 9669.050;  206.125;    0.000
482.033; 9552.050;  254.125;    0.000
482.169; 9611.050;  268.125;    0.000
482.305; 9409.050;  214.125;    0.000
482.441; 9507.050;  225.125;    0.000
482.577; 9479.050;  251.125;    0.000
482.713; 9705.050;  221.125;    0.000
482.849; 9496.050;  218.125;    0.000
482.985; 9463.050;  245.125;    0.000
483.121; 9672.050;  224.125;    0.000
483.258; 9398.050;  249.125;    0.000
483.394; 9605.050;  224.125;    0.000
483.530; 9641.050;  247.125;    0.000
483.665; 9658.050;  256.125;    0.000
483.801; 9477.050;  220.125;    0.000
483.937; 9598.050;  200.125;    0.000
484.073; 9669.050;  272.125;    0.000
484.209; 9883.050;  243.125;    0.000
484.345; 9800.050;  274.125;    0.000
484.481; 9883.050;  264.125;    0.000
484.617; 9808.050;  270.125;    0.000
484.753; 9967.050;  244.125;    0.000
484.889; 9872.050;  293.125;    0.000
485.025; 9821.050;  257.125;    0.000
485.161; 9902.050;  264.125;    0.000
485.296; 9905.050;  247.125;    0.000
485.432; 9954.050;  240.125;    0.000
485.568;10101.050;  240.125;    0.000
485.704; 9933.050;  232.125;    0.000
485.840; 9950.050;  280.125;    0.000
485.975; 9985.050;  253.125;    0.000
486.111; 9868.050;  250.125;    0.000
486.247; 9879.050;  272.125;    0.000
486.383; 9947.050;  258.125;    0.000
486.518; 9964.050;  256.125;    0.000
486.654; 9877.050;  250.125;    0.000
486.790;10081.050;  259.125;    0.000
486.926;10054.050;  256.125;    0.000
487.061; 9742.050;  267.125;    0.000
487.197; 9963.050;  224.125;    0.000
487.333; 9999.050;  265.125;    0.000
487.468;10071.050;  223.125;    0.000
487.604; 9922.050;  298.125;    0.000
487.740; 9958.050;  261.125;    0.000
487.875; 9954.050;  278.125;    0.000
488.011; 9820.050;  292.125;    0.000
488.146; 9700.050;  239.125;    0.000
488.282; 9792.050;  265.125;    0.000
488.417; 9914.050;  286.125;    0.000
488.553; 9762.050;  271.125;    0.000
488.688; 9809.050;  252.125;    0.000
488.824; 9873.050;  239.125;    0.000
488.960; 9953.050;  266.125;    0.000
489.095; 9772.050;  229.125;    0.000
489.230; 9808.050;  247.125;    0.000
489.366; 9931.050;  260.125;    0.000
489.501; 9889.050;  257.125;    0.000
489.637; 9883.050;  233.125;    0.000
489.772; 9875.050;  254.125;    0.000
489.908; 9835.050;  235.125;    0.000
490.043;10034.050;  266.125;    0.000
490.178;10071.050;  228.125;    0.000
490.314; 9940.050;  310.125;    0.000
490.449; 9860.050;  251.125;    0.000
490.585; 9984.050;  221.125;    0.000
490.720; 9916.050;  203.125;    0.000
490.855; 9952.050;  266.125;    0.000
490.991; 9831.050;  249.125;    0.000
491.126; 9779.050;  313.125;    0.000
491.261; 9735.050;  284.125;    0.000
491.396; 9715.050;  225.125;    0.000
491.532; 9791.050;  227.125;    0.000
491.667; 9648.050;  210.125;    0.000
491.802; 9962.050;  214.125;    0.000
491.937;10030.050;  246.125;    0.000
492.073; 9824.050;  250.125;    0.000
492.208; 9888.050;  267.125;    0.000
492.343; 9931.050;  245.125;    0.000
492.478; 9920.050;  271.125;    0.000
492.613;10062.050;  253.125;    0.000
492.749; 9841.050;  249.125;    0.000
492.884; 9939.050;  217.125;    0.000
493.019;10004.050;  244.125;    0.000
493.154; 9769.050;  265.125;    0.000
493.289; 9958.050;  266.125;    0.000
493.424; 9995.050;  226.125;    0.000
493.559; 9954.050;  222.125;    0.000
493.694;10009.050;  218.125;    0.000
493.829; 9897.050;  246.125;    0.000
493.964;10030.050;  243.125;    0.000
494.099; 9878.050;  269.125;    0.000
494.234; 9914.050;  249.125;    0.000
494.369; 9917.050;  279.125;    0.000
494.504;10037.050;  261.125;    0.000
494.639;10006.050;  289.125;    0.000
494.774; 9860.050;  252.125;    0.000
494.909; 9908.050;  250.125;    0.000
495.044; 9793.050;  207.125;    0.000
495.179; 9875.050;  266.125;    0.000
495.314; 9936.050;  228.125;    0.000
495.449; 9805.050;  262.125;    0.000
495.584; 9979.050;  281.125;    0.000
495.719; 9991.050;  251.125;    0.000
495.854; 9834.050;  237.125;    0.000
495.988;10007.050;  238.125;    0.000
496.123; 9825.050;  255.125;    0.000
496.258;10048.050;  264.125;    0.000
496.393;10162.050;  253.125;    0.000
496.528;10170.050;  244.125;    0.000
496.663;10282.050;  267.125;    0.000
496.797;10295.050;  271.125;    0.000
496.932;10437.050;  262.125;    0.000
497.067;10606.050;  260.125;    0.000
497.202;10546.050;  264.125;    0.000
497.336;10602.050;  243.125;    0.000
497.471;10938.050;  251.125;    0.000
497.606;10877.050;  219.125;    0.000
497.740;11144.050;  264.125;    0.000
497.875;11440.050;  252.125;    0.000
498.010;11646.050;  241.125;    0.000
498.144;11910.050;  261.125;    0.000
498.279;11973.050;  221.125;    0.000
498.414;12481.050;  246.125;    0.000
498.548;12593.050;  212.125;    0.000
498.683;13038.050;  260.125;    0.000
498.817;13090.050;  244.125;    0.000
498.952;13513.050;  252.125;    0.000
499.087;13783.050;  251.125;    0.000
499.221;14559.050;  282.125;    0.000
499.356;14912.050;  264.125;    0.000
499.490;15350.050;  280.125;    0.000
499.625;15999.050;  256.125;    0.000
499.759;16600.051;  253.125;    0.000
499.894;17454.051;  261.125;    0.000
500.028;18329.051;  304.125;    0.000
500.162;19008.051;  272.125;    0.000
500.297;19190.051;  274.125;    0.000
500.431;19317.051;  320.125;    0.000
500.566;19502.051;  268.125;    0.000
500.700;18783.051;  280.125;    0.000
500.835;18523.051;  288.125;    0.000
500.969;17530.051;  253.125;    0.000
501.103;17051.051;  234.125;    0.000
501.238;16152.050;  302.125;    0.000
501.372;15422.050;  292.125;    0.000
501.506;15170.050;  222.125;    0.000
501.641;14266.050;  274.125;    0.000
501.775;13750.050;  245.125;    0.000
501.909;13297.050;  283.125;    0.000
502.043;13048.050;  252.125;    0.000
502.178;12796.050;  293.125;    0.000
502.312;12256.050;  223.125;    0.000
502.446;12160.050;  292.125;    0.000
502.580;11793.050;  253.125;    0.000
502.715;11673.050;  282.125;    0.000
502.849;11365.050;  258.125;    0.000
502.983;11303.050;  267.125;    0.000
503.117;11049.050;  226.125;    0.000
503.251;10789.050;  260.125;    0.000
503.385;10701.050;  291.125;    0.000
503.520;10635.050;  279.125;    0.000
503.654;10364.050;  229.125;    0.000
503.788;10299.050;  259.125;    0.000
503.922;10253.050;  246.125;    0.000
504.056;10201.050;  269.125;    0.000
504.190;10138.050;  265.125;    0.000
504.324;10177.050;  298.125;    0.000
504.458;10156.050;  235.125;    0.000
504.592;10015.050;  275.125;    0.000
504.726; 9753.050;  226.125;    0.000
504.860; 9654.050;  298.125;    0.000
504.994; 9483.050;  253.125;    0.000
505.128; 9331.050;  283.125;    0.000
505.262; 9216.050;  255.125;    0.000
505.396; 8957.050;  219.125;    0.000
505.530; 8768.050;  279.125;    0.000
505.664; 8696.050;  306.125;    0.000
505.798; 8548.050;  297.125;    0.000
505.932; 8431.050;  273.125;    0.000
506.066; 8473.050;  271.125;    0.000
506.199; 8381.050;  273.125;    0.000
506.333; 8287.050;  227.125;    0.000
506.467; 8327.050;  302.125;    0.000
506.601; 8168.050;  254.125;    0.000
506.735; 8231.050;  299.125;    0.000
506.869; 8063.050;  278.125;    0.000
507.002; 8096.050;  259.125;    0.000
507.136; 8116.050;  285.125;    0.000
507.270; 7909.050;  255.125;    0.000
507.404; 7844.050;  273.125;    0.000
507.537; 7796.050;  245.125;    0.000
507.671; 7865.050;  251.125;    0.000
507.805; 7707.050;  286.125;    0.000
507.939; 7661.050;  261.125;    0.000
508.072; 7767.050;  298.125;    0.000
508.206; 7583.050;  238.125;    0.000
508.340; 7671.050;  289.125;    0.000
508.473; 7646.050;  255.125;    0.000
508.607; 7569.050;  266.125;    0.000
508.740; 7464.050;  253.125;    0.000
508.874; 7598.050;  233.125;    0.000
509.008; 7372.050;  274.125;    0.000
509.141; 7416.050;  235.125;    0.000
509.275; 7517.050;  225.125;    0.000
509.408; 7511.050;  254.125;    0.000
509.542; 7392.050;  244.125;    0.000
509.675; 7349.050;  263.125;    0.000
509.809; 7253.050;  271.125;    0.000
509.942; 7353.050;  246.125;    0.000
510.076; 7286.050;  221.125;    0.000
510.209; 7291.050;  270.125;    0.000
510.343; 7381.050;  265.125;    0.000
510.476; 7289.050;  291.125;    0.000
510.610; 7257.050;  251.125;    0.000
510.743; 7182.050;  304.125;    0.000
510.877; 7016.050;  259.125;    0.000
511.010; 7107.050;  274.125;    0.000
511.143; 7129.050;  255.125;    0.000
511.277; 7087.050;  267.125;    0.000
511.410; 7112.050;  270.125;    0.000
511.543; 7119.050;  231.125;    0.000
511.677; 6994.050;  275.125;    0.000
511.810; 7109.050;  265.125;    0.000
511.943; 7040.050;  231.125;    0.000
512.077; 7061.050;  225.125;    0.000
512.210; 7110.050;  235.125;    0.000
512.343; 7106.050;  251.125;    0.000
512.476; 6913.050;  260.125;    0.000
512.610; 6997.050;  289.125;    0.000
512.743; 6943.050;  270.125;    0.000
512.876; 6936.050;  289.125;    0.000
513.009; 7090.050;  293.125;    0.000
513.142; 7103.050;  282.125;    0.000
513.276; 6953.050;  244.125;    0.000
513.409; 7046.050;  277.125;    0.000
513.542; 6999.050;  254.125;    0.000
513.675; 6942.050;  258.125;    0.000
513.808; 6896.050;  243.125;    0.000
513.941; 6999.050;  274.125;    0.000
514.074; 6962.050;  296.125;    0.000
514.207; 7042.050;  267.125;    0.000
514.340; 7006.050;  283.125;    0.000
514.474; 7047.050;  255.125;    0.000
514.607; 7112.050;  291.125;    0.000
514.740; 7160.050;  296.125;    0.000
514.873; 7198.050;  275.125;    0.000
515.006; 7362.050;  313.125;    0.000
515.139; 7206.050;  253.125;    0.000
515.272; 7151.050;  263.125;    0.000
515.404; 7401.050;  258.125;    0.000
515.537; 7526.050;  285.125;    0.000
515.670; 7364.050;  286.125;    0.000
515.803; 7328.050;  266.125;    0.000
515.936; 7526.050;  251.125;    0.000
516.069; 7501.050;  231.125;    0.000
516.202; 7800.050;  278.125;    0.000
516.335; 7769.050;  295.125;    0.000
516.468; 8233.050;  239.125;    0.000
516.600; 9270.050;  229.125;    0.000
516.733;11503.050;  301.125;    0.000
516.866;11393.050;  287.125;    0.000
516.999;10453.050;  265.125;    0.000
517.132;12639.050;  291.125;    0.000
517.264;17196.051;  262.125;    0.000
517.397;16772.051;  292.125;    0.000
517.530;13075.050;  299.125;    0.000
517.663;11047.050;  268.125;    0.000
517.795;10256.050;  323.125;    0.000
517.928; 9967.050;  281.125;    0.000
518.061;10115.050;  242.125;    0.000
518.193;12720.050;  279.125;    0.000
518.326;19486.051;  288.125;    0.000
518.459;20745.051;  251.125;    0.000
518.591;15818.050;  314.125;    0.000
518.724;11940.050;  279.125;    0.000
518.857;10093.050;  245.125;    0.000
518.989; 9600.050;  290.125;    0.000
519.122; 8965.050;  319.125;    0.000
519.254; 8470.050;  295.125;    0.000
519.387; 8205.050;  271.125;    0.000
519.519; 8087.050;  312.125;    0.000
519.652; 7835.050;  289.125;    0.000
519.784; 7685.050;  311.125;    0.000
519.917; 7486.050;  283.125;    0.000
520.049; 7349.050;  281.125;    0.000
520.182; 7248.050;  242.125;    0.000
520.314; 7300.050;  310.125;    0.000
520.447; 7345.050;  215.125;    0.000
520.579; 7054.050;  277.125;    0.000
520.712; 7093.050;  224.125;    0.000
520.844; 7081.050;  293.125;    0.000
520.976; 6869.050;  281.125;    0.000
521.109; 6861.050;  279.125;    0.000
521.241; 6752.050;  318.125;    0.000
521.373; 6695.050;  242.125;    0.000
521.506; 6711.050;  246.125;    0.000
521.638; 6439.050;  312.125;    0.000
521.770; 6533.050;  257.125;    0.000
521.903; 6479.050;  295.125;    0.000
522.035; 6420.050;  283.125;    0.000
522.167; 6482.050;  281.125;    0.000
522.300; 6336.050;  262.125;    0.000
522.432; 6355.050;  272.125;    0.000
522.564; 6168.050;  277.125;    0.000
522.696; 6245.050;  295.125;    0.000
522.828; 6236.050;  284.125;    0.000
522.961; 6323.050;  295.125;    0.000
523.093; 6284.050;  282.125;    0.000
523.225; 6119.050;  270.125;    0.000
523.357; 6093.050;  285.125;    0.000
523.489; 6179.050;  292.125;    0.000
523.621; 6036.050;  285.125;    0.000
523.753; 5933.050;  273.125;    0.000
523.885; 6038.050;  271.125;    0.000
524.018; 6037.050;  276.125;    0.000
524.150; 5948.050;  320.125;    0.000
524.282; 6031.050;  304.125;    0.000
524.414; 5863.050;  302.125;    0.000
524.546; 5906.050;  305.125;    0.000
524.678; 5787.050;  264.125;    0.000
524.810; 5905.050;  258.125;    0.000
524.942; 5806.050;  252.125;    0.000
525.074; 5862.050;  275.125;    0.000
525.206; 5754.050;  286.125;    0.000
525.338; 5742.050;  280.125;    0.000
525.469; 5735.050;  267.125;    0.000
525.601; 5740.050;  266.125;    0.000
525.733; 5610.050;  283.125;    0.000
525.865; 5654.050;  273.125;    0.000
525.997; 5724.050;  286.125;    0.000
526.129; 5602.050;  249.125;    0.000
526.261; 5687.050;  233.125;    0.000
526.393; 5738.050;  257.125;    0.000
526.524; 5654.050;  184.125;    0.000
526.656; 5569.050;  259.125;    0.000
526.788; 5616.050;  268.125;    0.000
526.920; 5568.050;  262.125;    0.000
527.052; 5588.050;  250.125;    0.000
527.183; 5524.050;  264.125;    0.000
527.315; 5659.050;  301.125;    0.000
527.447; 5611.050;  262.125;    0.000
527.578; 5653.050;  267.125;    0.000
527.710; 5655.050;  299.125;    0.000
527.842; 5553.050;  266.125;    0.000
527.973; 5612.050;  240.125;    0.000
528.105; 5586.050;  275.125;    0.000
528.237; 5645.050;  239.125;    0.000
528.368; 5524.050;  275.125;    0.000
528.500; 5567.050;  271.125;    0.000
528.632; 5613.050;  252.125;    0.000
528.763; 5476.050;  253.125;    0.000
528.895; 5453.050;  259.125;    0.000
529.026; 5445.050;  209.125;    0.000
529.158; 5588.050;  291.125;    0.000
529.289; 5519.050;  280.125;    0.000
529.421; 5649.050;  274.125;    0.000
529.552; 5419.050;  253.125;    0.000
529.684; 5511.050;  310.125;    0.000
529.815; 5583.050;  305.125;    0.000
529.947; 5512.050;  234.125;    0.000
530.078; 5585.050;  259.125;    0.000
530.210; 5514.050;  264.125;    0.000
530.341; 5558.050;  267.125;    0.000
530.472; 5384.050;  232.125;    0.000
530.604; 5477.050;  293.125;    0.000
530.735; 5503.050;  275.125;    0.000
530.867; 5508.050;  280.125;    0.000
530.998; 5624.050;  295.125;    0.000
531.129; 5649.050;  274.125;    0.000
531.260; 5501.050;  272.125;    0.000
531.392; 5576.050;  275.125;    0.000
531.523; 5613.050;  244.125;    0.000
531.654; 5677.050;  289.125;    0.000
531.786; 5707.050;  259.125;    0.000
531.917; 5773.050;  286.125;    0.000
532.048; 5585.050;  293.125;    0.000
532.179; 5767.050;  288.125;    0.000
532.311; 5653.050;  296.125;    0.000
532.442; 5570.050;  277.125;    0.000
532.573; 5641.050;  273.125;    0.000
532.704; 5639.050;  308.125;    0.000
532.835; 5718.050;  308.125;    0.000
532.966; 5535.050;  274.125;    0.000
533.097; 5572.050;  310.125;    0.000
533.229; 5507.050;  294.125;    0.000
533.360; 5548.050;  324.125;    0.000
533.491; 5430.050;  278.125;    0.000
533.622; 5508.050;  319.125;    0.000
533.753; 5625.050;  303.125;    0.000
533.884; 5520.050;  269.125;    0.000
534.015; 5583.050;  266.125;    0.000
534.146; 5704.050;  283.125;    0.000
534.277; 5681.050;  299.125;    0.000
534.408; 5649.050;  265.125;    0.000
534.539; 5725.050;  310.125;    0.000
534.670; 5478.050;  319.125;    0.000
534.801; 5589.050;  281.125;    0.000
534.932; 5473.050;  239.125;    0.000
535.063; 5493.050;  276.125;    0.000
535.194; 5493.050;  361.125;    0.000
535.324; 5498.050;  283.125;    0.000
535.455; 5439.050;  282.125;    0.000
535.586; 5451.050;  331.125;    0.000
535.717; 5429.050;  262.125;    0.000
535.848; 5511.050;  308.125;    0.000
535.979; 5350.050;  273.125;    0.000
536.109; 5412.050;  277.125;    0.000
536.240; 5470.050;  293.125;    0.000
536.371; 5371.050;  295.125;    0.000
536.502; 5406.050;  330.125;    0.000
536.632; 5364.050;  280.125;    0.000
536.763; 5387.050;  332.125;    0.000
536.894; 5442.050;  334.125;    0.000
537.025; 5192.050;  295.125;    0.000
537.155; 5348.050;  321.125;    0.000
537.286; 5279.050;  292.125;    0.000
537.417; 5384.050;  314.125;    0.000
537.547; 5234.050;  287.125;    0.000
537.678; 5261.050;  287.125;    0.000
537.808; 5333.050;  278.125;    0.000
537.939; 5390.050;  304.125;    0.000
538.070; 5233.050;  303.125;    0.000
538.200; 5442.050;  279.125;    0.000
538.331; 5231.050;  321.125;    0.000
538.461; 5291.050;  313.125;    0.000
538.592; 5282.050;  290.125;    0.000
538.722; 5285.050;  285.125;    0.000
538.853; 5388.050;  261.125;    0.000
538.983; 5220.050;  280.125;    0.000
539.114; 5240.050;  310.125;    0.000
539.244; 5296.050;  281.125;    0.000
539.375; 5239.050;  292.125;    0.000
539.505; 5239.050;  286.125;    0.000
539.636; 5261.050;  276.125;    0.000
539.766; 5265.050;  287.125;    0.000
539.896; 5217.050;  292.125;    0.000
540.027; 5358.050;  262.125;    0.000
540.157; 5240.050;  269.125;    0.000
540.287; 5253.050;  282.125;    0.000
540.418; 5227.050;  269.125;    0.000
540.548; 5235.050;  328.125;    0.000
540.678; 5288.050;  271.125;    0.000
540.809; 5333.050;  272.125;    0.000
540.939; 5365.050;  299.125;    0.000
541.069; 5290.050;  266.125;    0.000
541.200; 5240.050;  242.125;    0.000
541.330; 5283.050;  257.125;    0.000
541.460; 5277.050;  270.125;    0.000
541.590; 5315.050;  287.125;    0.000
541.720; 5250.050;  255.125;    0.000
541.851; 5207.050;  273.125;    0.000
541.981; 5276.050;  244.125;    0.000
542.111; 5357.050;  263.125;    0.000
542.241; 5358.050;  271.125;    0.000
542.371; 5398.050;  263.125;    0.000
542.501; 5524.050;  274.125;    0.000
542.631; 5583.050;  288.125;    0.000
542.761; 5655.050;  261.125;    0.000
542.891; 5598.050;  253.125;    0.000
543.021; 5556.050;  249.125;    0.000
543.151; 5689.050;  261.125;    0.000
543.281; 5560.050;  256.125;    0.000
543.411; 5550.050;  290.125;    0.000
543.542; 5452.050;  278.125;    0.000
543.671; 5563.050;  238.125;    0.000
543.801; 5487.050;  256.125;    0.000
543.931; 5491.050;  254.125;    0.000
544.061; 5616.050;  237.125;    0.000
544.191; 5543.050;  245.125;    0.000
544.321; 5506.050;  267.125;    0.000
544.451; 5562.050;  262.125;    0.000
544.581; 5520.050;  221.125;    0.000
544.711; 5679.050;  252.125;    0.000
544.841; 5742.050;  264.125;    0.000
544.970; 5862.050;  315.125;    0.000
545.100; 5892.050;  245.125;    0.000
545.230; 5999.050;  276.125;    0.000
545.360; 5984.050;  278.125;    0.000
545.490; 5812.050;  268.125;    0.000
545.619; 5872.050;  237.125;    0.000
545.749; 5667.050;  228.125;    0.000
545.879; 5606.050;  234.125;    0.000
546.009; 5679.050;  287.125;    0.000
546.138; 5579.050;  222.125;    0.000
546.268; 5511.050;  228.125;    0.000
546.398; 5572.050;  244.125;    0.000
546.527; 5506.050;  233.125;    0.000
546.657; 5536.050;  189.125;    0.000
546.786; 5650.050;  247.125;    0.000
546.916; 5634.050;  244.125;    0.000
547.046; 5577.050;  214.125;    0.000
547.175; 5688.050;  242.125;    0.000
547.305; 5643.050;  252.125;    0.000
547.434; 5562.050;  191.125;    0.000
547.564; 5480.050;  208.125;    0.000
547.693; 5593.050;  213.125;    0.000
547.823; 5631.050;  209.125;    0.000
547.953; 5582.050;  250.125;    0.000
548.082; 5588.050;  231.125;    0.000
548.211; 5479.050;  226.125;    0.000
548.341; 5517.050;  254.125;    0.000
548.470; 5562.050;  266.125;    0.000
548.600; 5774.050;  229.125;    0.000
548.729; 5635.050;  225.125;    0.000
548.859; 5610.050;  185.125;    0.000
548.988; 5717.050;  225.125;    0.000
549.117; 5612.050;  241.125;    0.000
549.247; 5622.050;  236.125;    0.000
549.376; 5692.050;  220.125;    0.000
549.505; 5730.050;  254.125;    0.000
549.635; 5743.050;  268.125;    0.000
549.764; 5629.050;  194.125;    0.000
549.893; 5740.050;  232.125;    0.000
550.023; 5799.050;  222.125;    0.000
550.152; 5740.050;  223.125;    0.000
550.281; 5702.050;  210.125;    0.000
550.410; 5685.050;  197.125;    0.000
550.539; 5727.050;  222.125;    0.000
550.669; 5844.050;  245.125;    0.000
550.798; 5919.050;  265.125;    0.000
550.927; 5760.050;  249.125;    0.000
551.056; 5857.050;  184.125;    0.000
551.185; 5810.050;  247.125;    0.000
551.314; 5719.050;  258.125;    0.000
551.443; 5840.050;  224.125;    0.000
551.573; 5763.050;  204.125;    0.000
551.702; 5813.050;  220.125;    0.000
551.831; 5710.050;  287.125;    0.000
551.960; 5690.050;  259.125;    0.000
552.089; 5777.050;  222.125;    0.000
552.218; 5932.050;  254.125;    0.000
552.347; 5819.050;  260.125;    0.000
552.476; 5968.050;  251.125;    0.000
552.605; 6092.050;  229.125;    0.000
552.734; 6131.050;  261.125;    0.000
552.863; 6273.050;  225.125;    0.000
552.992; 6416.050;  202.125;    0.000
553.121; 6431.050;  193.125;    0.000
553.249; 6203.050;  224.125;    0.000
553.378; 6354.050;  274.125;    0.000
553.507; 6227.050;  248.125;    0.000
553.636; 6259.050;  203.125;    0.000
553.765; 6146.050;  224.125;    0.000
553.894; 6084.050;  246.125;    0.000
554.023; 6044.050;  229.125;    0.000
554.151; 5974.050;  216.125;    0.000
554.280; 5984.050;  223.125;    0.000
554.409; 5840.050;  240.125;    0.000
554.538; 5811.050;  277.125;    0.000
554.666; 5915.050;  244.125;    0.000
554.795; 5844.050;  240.125;    0.000
554.924; 5837.050;  257.125;    0.000
555.052; 5855.050;  266.125;    0.000
555.181; 5768.050;  244.125;    0.000
555.310; 5832.050;  262.125;    0.000
555.439; 5681.050;  260.125;    0.000
555.567; 5589.050;  234.125;    0.000
555.696; 5676.050;  237.125;    0.000
555.824; 5569.050;  232.125;    0.000
555.953; 5725.050;  279.125;    0.000
556.082; 5599.050;  234.125;    0.000
556.210; 5759.050;  235.125;    0.000
556.339; 5597.050;  198.125;    0.000
556.467; 5445.050;  216.125;    0.000
556.596; 5629.050;  273.125;    0.000
556.724; 5626.050;  245.125;    0.000
556.853; 5574.050;  241.125;    0.000
556.981; 5581.050;  219.125;    0.000
557.110; 5449.050;  242.125;    0.000
557.238; 5469.050;  202.125;    0.000
557.367; 5408.050;  254.125;    0.000
557.495; 5378.050;  260.125;    0.000
557.623; 5469.050;  207.125;    0.000
557.752; 5411.050;  219.125;    0.000
557.880; 5485.050;  209.125;    0.000
558.008; 5521.050;  243.125;    0.000
558.137; 5544.050;  244.125;    0.000
558.265; 5407.050;  221.125;    0.000
558.393; 5576.050;  297.125;    0.000
558.522; 5485.050;  232.125;    0.000
558.650; 5417.050;  299.125;    0.000
558.778; 5513.050;  210.125;    0.000
558.906; 5382.050;  240.125;    0.000
559.035; 5415.050;  252.125;    0.000
559.163; 5557.050;  246.125;    0.000
559.291; 5435.050;  213.125;    0.000
559.419; 5463.050;  221.125;    0.000
559.548; 5502.050;  208.125;    0.000
559.676; 5498.050;  254.125;    0.000
559.804; 5489.050;  213.125;    0.000
559.932; 5578.050;  208.125;    0.000
560.060; 5490.050;  276.125;    0.000
560.188; 5584.050;  278.125;    0.000
560.316; 5646.050;  217.125;    0.000
560.444; 5657.050;  254.125;    0.000
560.572; 5738.050;  226.125;    0.000
560.700; 5702.050;  282.125;    0.000
560.828; 5793.050;  211.125;    0.000
560.956; 5826.050;  264.125;    0.000
561.085; 5747.050;  295.125;    0.000
561.212; 5604.050;  229.125;    0.000
561.340; 5684.050;  259.125;    0.000
561.468; 5671.050;  253.125;    0.000
561.596; 5760.050;  240.125;    0.000
561.724; 5714.050;  259.125;    0.000
561.852; 5647.050;  224.125;    0.000
561.980; 5673.050;  251.125;    0.000
562.108; 5856.050;  214.125;    0.000
562.236; 5785.050;  258.125;    0.000
562.364; 5874.050;  237.125;    0.000
562.492; 5848.050;  228.125;    0.000
562.619; 5907.050;  223.125;    0.000
562.747; 5905.050;  263.125;    0.000
562.875; 5869.050;  257.125;    0.000
563.003; 5924.050;  216.125;    0.000
563.130; 5845.050;  190.125;    0.000
563.258; 5970.050;  225.125;    0.000
563.386; 6123.050;  259.125;    0.000
563.514; 6181.050;  264.125;    0.000
563.641; 6065.050;  230.125;    0.000
563.769; 6333.050;  257.125;    0.000
563.897; 6468.050;  210.125;    0.000
564.024; 6600.050;  221.125;    0.000
564.152; 6555.050;  256.125;    0.000
564.280; 6529.050;  225.125;    0.000
564.407; 6609.050;  262.125;    0.000
564.535; 6687.050;  235.125;    0.000
564.662; 6649.050;  238.125;    0.000
564.790; 6732.050;  248.125;    0.000
564.917; 6655.050;  214.125;    0.000
565.045; 6819.050;  253.125;    0.000
565.173; 6806.050;  225.125;    0.000
565.300; 6929.050;  261.125;    0.000
565.428; 7023.050;  218.125;    0.000
565.555; 7110.050;  245.125;    0.000
565.682; 7224.050;  242.125;    0.000
565.810; 7518.050;  228.125;    0.000
565.937; 7633.050;  230.125;    0.000
566.065; 7774.050;  251.125;    0.000
566.192; 7846.050;  196.125;    0.000
566.320; 8253.050;  217.125;    0.000
566.447; 8330.050;  224.125;    0.000
566.574; 8459.050;  221.125;    0.000
566.702; 8780.050;  221.125;    0.000
566.829; 8896.050;  252.125;    0.000
566.956; 8987.050;  214.125;    0.000
567.083; 9036.050;  204.125;    0.000
567.211; 9004.050;  216.125;    0.000
567.338; 9085.050;  228.125;    0.000
567.465; 9341.050;  208.125;    0.000
567.593; 9308.050;  205.125;    0.000
567.720; 9493.050;  194.125;    0.000
567.847; 9571.050;  268.125;    0.000
567.974; 9479.050;  198.125;    0.000
568.101; 9375.050;  224.125;    0.000
568.228;10029.050;  236.125;    0.000
568.356;10037.050;  207.125;    0.000
568.483; 9416.050;  220.125;    0.000
568.610; 9128.050;  181.125;    0.000
568.737; 9906.050;  216.125;    0.000
568.864;10691.050;  258.125;    0.000
568.991; 9873.050;  203.125;    0.000
569.118; 8805.050;  232.125;    0.000
569.245; 8145.050;  192.125;    0.000
569.372; 7820.050;  226.125;    0.000
569.499; 7604.050;  211.125;    0.000
569.626; 7507.050;  247.125;    0.000
569.753; 7333.050;  248.125;    0.000
569.880; 7141.050;  226.125;    0.000
570.007; 7177.050;  215.125;    0.000
570.134; 7023.050;  205.125;    0.000
570.261; 6924.050;  187.125;    0.000
570.388; 6857.050;  258.125;    0.000
570.515; 6717.050;  241.125;    0.000
570.642; 6871.050;  211.125;    0.000
570.768; 6810.050;  228.125;    0.000
570.895; 6659.050;  229.125;    0.000
571.022; 6623.050;  203.125;    0.000
571.149; 6543.050;  206.125;    0.000
571.276; 6390.050;  191.125;    0.000
571.402; 6476.050;  218.125;    0.000
571.529; 6378.050;  192.125;    0.000
571.656; 6274.050;  209.125;    0.000
571.783; 6244.050;  181.125;    0.000
571.909; 6126.050;  251.125;    0.000
572.036; 6303.050;  225.125;    0.000
572.163; 6088.050;  214.125;    0.000
572.289; 6116.050;  252.125;    0.000
572.416; 5887.050;  220.125;    0.000
572.543; 6056.050;  225.125;    0.000
572.669; 5876.050;  226.125;    0.000
572.796; 5827.050;  231.125;    0.000
572.922; 5879.050;  258.125;    0.000
573.049; 5824.050;  202.125;    0.000
573.176; 5821.050;  254.125;    0.000
573.302; 5755.050;  215.125;    0.000
573.429; 5826.050;  251.125;    0.000
573.555; 5794.050;  221.125;    0.000
573.682; 5667.050;  227.125;    0.000
573.808; 5681.050;  259.125;    0.000
573.935; 5748.050;  233.125;    0.000
574.061; 5700.050;  241.125;    0.000
574.188; 5850.050;  238.125;    0.000
574.314; 5768.050;  221.125;    0.000
574.440; 5689.050;  221.125;    0.000
574.567; 5665.050;  216.125;    0.000
574.693; 5809.050;  224.125;    0.000
574.820; 5816.050;  199.125;    0.000
574.946; 5641.050;  248.125;    0.000
575.072; 5639.050;  220.125;    0.000
575.198; 5697.050;  262.125;    0.000
575.325; 5589.050;  232.125;    0.000
575.451; 5597.050;  225.125;    0.000
575.577; 5533.050;  216.125;    0.000
575.704; 5570.050;  248.125;    0.000
575.830; 5641.050;  227.125;    0.000
575.956; 5535.050;  206.125;    0.000
576.082; 5613.050;  222.125;    0.000
576.208; 5507.050;  206.125;    0.000
576.335; 5562.050;  256.125;    0.000
576.461; 5669.050;  247.125;    0.000
576.587; 5590.050;  219.125;    0.000
576.713; 5623.050;  215.125;    0.000
576.839; 5522.050;  225.125;    0.000
576.965; 5562.050;  230.125;    0.000
577.091; 5477.050;  235.125;    0.000
577.217; 5580.050;  235.125;    0.000
577.343; 5506.050;  233.125;    0.000
577.469; 5576.050;  242.125;    0.000
577.596; 5536.050;  241.125;    0.000
577.722; 5445.050;  255.125;    0.000
577.848; 5463.050;  235.125;    0.000
577.974; 5492.050;  210.125;    0.000
578.099; 5561.050;  239.125;    0.000
578.225; 5555.050;  258.125;    0.000
578.351; 5429.050;  209.125;    0.000
578.477; 5482.050;  255.125;    0.000
578.603; 5537.050;  213.125;    0.000
578.729; 5399.050;  221.125;    0.000
578.855; 5430.050;  209.125;    0.000
578.981; 5455.050;  206.125;    0.000
579.107; 5560.050;  221.125;    0.000
579.232; 5517.050;  206.125;    0.000
579.358; 5488.050;  226.125;    0.000
579.484; 5468.050;  244.125;    0.000
579.610; 5574.050;  261.125;    0.000
579.735; 5477.050;  270.125;    0.000
579.861; 5551.050;  255.125;    0.000
579.987; 5515.050;  249.125;    0.000
580.113; 5593.050;  260.125;    0.000
580.238; 5528.050;  206.125;    0.000
580.364; 5601.050;  249.125;    0.000
580.490; 5546.050;  225.125;    0.000
580.615; 5462.050;  266.125;    0.000
580.741; 5409.050;  224.125;    0.000
580.867; 5601.050;  251.125;    0.000
580.992; 5553.050;  270.125;    0.000
581.118; 5556.050;  248.125;    0.000
581.243; 5626.050;  251.125;    0.000
581.369; 5587.050;  192.125;    0.000
581.494; 5607.050;  259.125;    0.000
581.620; 5485.050;  245.125;    0.000
581.745; 5707.050;  232.125;    0.000
581.871; 5718.050;  243.125;    0.000
581.996; 5686.050;  216.125;    0.000
582.122; 5594.050;  263.125;    0.000
582.247; 5665.050;  254.125;    0.000
582.373; 5746.050;  232.125;    0.000
582.498; 5692.050;  275.125;    0.000
582.624; 5798.050;  260.125;    0.000
582.749; 5788.050;  251.125;    0.000
582.874; 5765.050;  245.125;    0.000
583.000; 5790.050;  278.125;    0.000
583.125; 5811.050;  211.125;    0.000
583.250; 5790.050;  246.125;    0.000
583.376; 5863.050;  259.125;    0.000
583.501; 5965.050;  254.125;    0.000
583.626; 6030.050;  209.125;    0.000
583.751; 5946.050;  239.125;    0.000
583.877; 6080.050;  255.125;    0.000
584.002; 5998.050;  263.125;    0.000
584.127; 6087.050;  205.125;    0.000
584.252; 6094.050;  196.125;    0.000
584.377; 6086.050;  249.125;    0.000
584.503; 6269.050;  219.125;    0.000
584.628; 6300.050;  243.125;    0.000
584.753; 6326.050;  250.125;    0.000
584.878; 6304.050;  208.125;    0.000
585.003; 6406.050;  234.125;    0.000
585.128; 6469.050;  207.125;    0.000
585.253; 6555.050;  219.125;    0.000
585.378; 6686.050;  205.125;    0.000
585.503; 6675.050;  256.125;    0.000
585.628; 6764.050;  217.125;    0.000
585.753; 6793.050;  213.125;    0.000
585.878; 6790.050;  147.125;    0.000
586.003; 7026.050;  256.125;    0.000
586.128; 7152.050;  214.125;    0.000
586.253; 7423.050;  254.125;    0.000
586.378; 7401.050;  252.125;    0.000
586.503; 7568.050;  219.125;    0.000
586.628; 7776.050;  226.125;    0.000
586.753; 8025.050;  237.125;    0.000
586.878; 8296.050;  185.125;    0.000
587.003; 8607.050;  248.125;    0.000
587.127; 8801.050;  237.125;    0.000
587.252; 9099.050;  221.125;    0.000
587.377; 9571.050;  244.125;    0.000
587.502;10001.050;  260.125;    0.000
587.627;10620.050;  232.125;    0.000
587.751;11155.050;  250.125;    0.000
587.876;12078.050;  234.125;    0.000
588.001;13006.050;  248.125;    0.000
588.125;14453.050;  236.125;    0.000
588.250;16331.050;  192.125;    0.000
588.375;18762.051;  265.125;    0.000
588.499;22338.051;  235.125;    0.000
588.624;27948.051;  212.125;    0.000
588.749;37771.051;  214.125;    0.000
588.873;55920.051;  236.125;    0.000
588.998;65261.051;  230.125;    0.000
589.122;65261.051;  231.125;    0.000
589.247;53125.051;  250.125;    0.000
589.372;46202.051;  247.125;    0.000
589.496;55657.051;  230.125;    0.000
589.621;63861.051;  237.125;    0.000
589.745;55270.051;  277.125;    0.000
589.870;39109.051;  283.125;    0.000
589.994;29146.051;  263.125;    0.000
590.118;23517.051;  239.125;    0.000
590.243;19829.051;  218.125;    0.000
590.367;17314.051;  226.125;    0.000
590.492;15637.050;  269.125;    0.000
590.616;14078.050;  205.125;    0.000
590.740;13255.050;  243.125;    0.000
590.865;12395.050;  281.125;    0.000
590.989;11700.050;  233.125;    0.000
591.114;11181.050;  222.125;    0.000
591.238;10570.050;  204.125;    0.000
591.362;10286.050;  283.125;    0.000
591.486; 9676.050;  236.125;    0.000
591.611; 9439.050;  228.125;    0.000
591.735; 9329.050;  249.125;    0.000
591.859; 9088.050;  202.125;    0.000
591.983; 8856.050;  257.125;    0.000
592.107; 8639.050;  230.125;    0.000
592.232; 8702.050;  266.125;    0.000
592.356; 8529.050;  232.125;    0.000
592.480; 8277.050;  245.125;    0.000
592.604; 8345.050;  254.125;    0.000
592.728; 8062.050;  233.125;    0.000
592.852; 8246.050;  213.125;    0.000
592.976; 8257.050;  234.125;    0.000
593.100; 8061.050;  246.125;    0.000
593.224; 8161.050;  305.125;    0.000
593.349; 7994.050;  240.125;    0.000
593.473; 7836.050;  206.125;    0.000
593.597; 7695.050;  243.125;    0.000
593.721; 7703.050;  247.125;    0.000
593.844; 7691.050;  230.125;    0.000
593.968; 7724.050;  226.125;    0.000
594.092; 7531.050;  193.125;    0.000
594.216; 7496.050;  237.125;    0.000
594.340; 7296.050;  235.125;    0.000
594.464; 7282.050;  225.125;    0.000
594.588; 7289.050;  269.125;    0.000
594.712; 6982.050;  242.125;    0.000
594.836; 6971.050;  240.125;    0.000
594.959; 6827.050;  255.125;    0.000
595.083; 6740.050;  258.125;    0.000
595.207; 6655.050;  264.125;    0.000
595.331; 6506.050;  215.125;    0.000
595.455; 6418.050;  234.125;    0.000
595.578; 6438.050;  215.125;    0.000
595.702; 6405.050;  259.125;    0.000
595.826; 6286.050;  232.125;    0.000
595.949; 6166.050;  251.125;    0.000
596.073; 6314.050;  197.125;    0.000
596.197; 6108.050;  239.125;    0.000
596.320; 6127.050;  229.125;    0.000
596.444; 5992.050;  264.125;    0.000
596.568; 5974.050;  207.125;    0.000
596.691; 5886.050;  234.125;    0.000
596.815; 5877.050;  241.125;    0.000
596.938; 5910.050;  244.125;    0.000
597.062; 5769.050;  210.125;    0.000
597.186; 5752.050;  247.125;    0.000
597.309; 5712.050;  215.125;    0.000
597.433; 5763.050;  266.125;    0.000
597.556; 5640.050;  234.125;    0.000
597.680; 5671.050;  261.125;    0.000
597.803; 5631.050;  239.125;    0.000
597.926; 5589.050;  251.125;    0.000
598.050; 5580.050;  227.125;    0.000
598.173; 5463.050;  247.125;    0.000
598.297; 5404.050;  244.125;    0.000
598.420; 5514.050;  243.125;    0.000
598.543; 5465.050;  237.125;    0.000
598.667; 5405.050;  239.125;    0.000
598.790; 5374.050;  217.125;    0.000
598.913; 5459.050;  244.125;    0.000
599.037; 5380.050;  249.125;    0.000
599.160; 5307.050;  222.125;    0.000
599.283; 5303.050;  235.125;    0.000
599.406; 5296.050;  228.125;    0.000
599.530; 5380.050;  234.125;    0.000
599.653; 5245.050;  228.125;    0.000
599.776; 5262.050;  263.125;    0.000
599.899; 5356.050;  197.125;    0.000
600.022; 5267.050;  224.125;    0.000
600.145; 5219.050;  211.125;    0.000
600.269; 5289.050;  246.125;    0.000
600.392; 5254.050;  233.125;    0.000
600.515; 5057.050;  266.125;    0.000
600.638; 5092.050;  246.125;    0.000
600.761; 5110.050;  213.125;    0.000
600.884; 5133.050;  279.125;    0.000
601.007; 5168.050;  268.125;    0.000
601.130; 5059.050;  203.125;    0.000
601.253; 5039.050;  241.125;    0.000
601.376; 4980.050;  248.125;    0.000
601.499; 5073.050;  241.125;    0.000
601.622; 5031.050;  266.125;    0.000
601.745; 5096.050;  237.125;    0.000
601.868; 5048.050;  256.125;    0.000
601.991; 5081.050;  260.125;    0.000
602.113; 5089.050;  246.125;    0.000
602.236; 4966.050;  243.125;    0.000
602.359; 5155.050;  220.125;    0.000
602.482; 4975.050;  236.125;    0.000
602.605; 5057.050;  216.125;    0.000
602.728; 5035.050;  247.125;    0.000
602.850; 5088.050;  255.125;    0.000
602.973; 5024.050;  224.125;    0.000
603.096; 5052.050;  258.125;    0.000
603.219; 4967.050;  222.125;    0.000
603.341; 4984.050;  235.125;    0.000
603.464; 5053.050;  223.125;    0.000
603.587; 5041.050;  250.125;    0.000
603.709; 4989.050;  229.125;    0.000
603.832; 4920.050;  285.125;    0.000
603.955; 4879.050;  225.125;    0.000
604.077; 4969.050;  235.125;    0.000
604.200; 4867.050;  209.125;    0.000
604.323; 4961.050;  240.125;    0.000
604.445; 4905.050;  198.125;    0.000
604.568; 4868.050;  230.125;    0.000
604.690; 4987.050;  225.125;    0.000
604.813; 4936.050;  248.125;    0.000
604.935; 4935.050;  204.125;    0.000
605.058; 4907.050;  191.125;    0.000
605.180; 4855.050;  237.125;    0.000
605.303; 4962.050;  224.125;    0.000
605.425; 4845.050;  244.125;    0.000
605.547; 4806.050;  268.125;    0.000
605.670; 4780.050;  211.125;    0.000
605.792; 4838.050;  266.125;    0.000
605.915; 4810.050;  202.125;    0.000
606.037; 4873.050;  236.125;    0.000
606.159; 4948.050;  234.125;    0.000
606.282; 4859.050;  223.125;    0.000
606.404; 4816.050;  217.125;    0.000
606.526; 4952.050;  221.125;    0.000
606.648; 4751.050;  204.125;    0.000
606.771; 4709.050;  265.125;    0.000
606.893; 4774.050;  211.125;    0.000
607.015; 4759.050;  206.125;    0.000
607.137; 4673.050;  222.125;    0.000
607.260; 4790.050;  228.125;    0.000
607.382; 4843.050;  202.125;    0.000
607.504; 4872.050;  257.125;    0.000
607.626; 4862.050;  249.125;    0.000
607.748; 4769.050;  233.125;    0.000
607.870; 4802.050;  222.125;    0.000
607.992; 4792.050;  227.125;    0.000
608.114; 4659.050;  228.125;    0.000
608.237; 4820.050;  254.125;    0.000
608.359; 4727.050;  216.125;    0.000
608.481; 4742.050;  197.125;    0.000
608.603; 4697.050;  209.125;    0.000
608.725; 4664.050;  220.125;    0.000
608.847; 4763.050;  259.125;    0.000
608.969; 4772.050;  242.125;    0.000
609.090; 4820.050;  218.125;    0.000
609.212; 4717.050;  200.125;    0.000
609.334; 4681.050;  212.125;    0.000
609.456; 4752.050;  231.125;    0.000
609.578; 4691.050;  249.125;    0.000
609.700; 4637.050;  185.125;    0.000
609.822; 4737.050;  200.125;    0.000
609.944; 4749.050;  236.125;    0.000
610.065; 4713.050;  255.125;    0.000
610.187; 4704.050;  208.125;    0.000
610.309; 4669.050;  202.125;    0.000
610.431; 4731.050;  232.125;    0.000
610.552; 4683.050;  232.125;    0.000
610.674; 4827.050;  217.125;    0.000
610.796; 4699.050;  186.125;    0.000
610.918; 4775.050;  211.125;    0.000
611.039; 4774.050;  244.125;    0.000
611.161; 4792.050;  202.125;    0.000
611.282; 4636.050;  212.125;    0.000
611.404; 4678.050;  235.125;    0.000
611.526; 4644.050;  213.125;    0.000
611.647; 4632.050;  248.125;    0.000
611.769; 4785.050;  205.125;    0.000
611.890; 4755.050;  224.125;    0.000
612.012; 4748.050;  189.125;    0.000
612.133; 4613.050;  186.125;    0.000
612.255; 4747.050;  246.125;    0.000
612.377; 4601.050;  230.125;    0.000
612.498; 4544.050;  196.125;    0.000
612.619; 4659.050;  234.125;    0.000
612.741; 4649.050;  221.125;    0.000
612.862; 4712.050;  227.125;    0.000
612.984; 4625.050;  189.125;    0.000
613.105; 4723.050;  232.125;    0.000
613.226; 4590.050;  199.125;    0.000
613.348; 4723.050;  260.125;    0.000
613.469; 4701.050;  217.125;    0.000
613.590; 4545.050;  236.125;    0.000
613.712; 4696.050;  226.125;    0.000
613.833; 4574.050;  231.125;    0.000
613.954; 4662.050;  236.125;    0.000
614.076; 4697.050;  236.125;    0.000
614.197; 4657.050;  228.125;    0.000
614.318; 4693.050;  207.125;    0.000
614.439; 4574.050;  237.125;    0.000
614.560; 4610.050;  202.125;    0.000
614.682; 4705.050;  230.125;    0.000
614.803; 4661.050;  236.125;    0.000
614.924; 4653.050;  257.125;    0.000
615.045; 4736.050;  228.125;    0.000
615.166; 4732.050;  221.125;    0.000
615.287; 4885.050;  199.125;    0.000
615.408; 5129.050;  228.125;    0.000
615.529; 5173.050;  200.125;    0.000
615.650; 4979.050;  224.125;    0.000
615.771; 4823.050;  202.125;    0.000
615.892; 4911.050;  215.125;    0.000
616.013; 5423.050;  246.125;    0.000
616.134; 5723.050;  210.125;    0.000
616.255; 5362.050;  232.125;    0.000
616.376; 5118.050;  241.125;    0.000
616.497; 4966.050;  213.125;    0.000
616.618; 4882.050;  171.125;    0.000
616.739; 4984.050;  221.125;    0.000
616.860; 4870.050;  244.125;    0.000
616.981; 4802.050;  240.125;    0.000
617.102; 4750.050;  234.125;    0.000
617.222; 4862.050;  265.125;    0.000
617.343; 4741.050;  206.125;    0.000
617.464; 4834.050;  246.125;    0.000
617.585; 4598.050;  256.125;    0.000
617.705; 4764.050;  249.125;    0.000
617.826; 4772.050;  218.125;    0.000
617.947; 4729.050;  225.125;    0.000
618.068; 4556.050;  199.125;    0.000
618.188; 4628.050;  202.125;    0.000
618.309; 4747.050;  220.125;    0.000
618.430; 4635.050;  229.125;    0.000
618.550; 4687.050;  252.125;    0.000
618.671; 4609.050;  233.125;    0.000
618.791; 4633.050;  227.125;    0.000
618.912; 4704.050;  236.125;    0.000
619.033; 4688.050;  220.125;    0.000
619.153; 4704.050;  228.125;    0.000
619.274; 4577.050;  208.125;    0.000
619.394; 4659.050;  255.125;    0.000
619.515; 4637.050;  206.125;    0.000
619.635; 4633.050;  204.125;    0.000
619.756; 4547.050;  252.125;    0.000
619.876; 4557.050;  238.125;    0.000
619.996; 4626.050;  249.125;    0.000
620.117; 4565.050;  223.125;    0.000
620.237; 4645.050;  210.125;    0.000
620.358; 4568.050;  264.125;    0.000
620.478; 4459.050;  263.125;    0.000
620.598; 4566.050;  238.125;    0.000
620.719; 4537.050;  225.125;    0.000
620.839; 4473.050;  259.125;    0.000
620.959; 4391.050;  218.125;    0.000
621.079; 4522.050;  253.125;    0.000
621.200; 4414.050;  245.125;    0.000
621.320; 4487.050;  254.125;    0.000
621.440; 4651.050;  233.125;    0.000
621.560; 4354.050;  235.125;    0.000
621.681; 4412.050;  234.125;    0.000
621.801; 4480.050;  240.125;    0.000
621.921; 4472.050;  239.125;    0.000
622.041; 4526.050;  288.125;    0.000
622.161; 4536.050;  229.125;    0.000
622.281; 4529.050;  223.125;    0.000
622.401; 4481.050;  240.125;    0.000
622.521; 4489.050;  267.125;    0.000
622.641; 4366.050;  226.125;    0.000
622.761; 4483.050;  252.125;    0.000
622.882; 4385.050;  207.125;    0.000
623.002; 4451.050;  226.125;    0.000
623.121; 4375.050;  207.125;    0.000
623.241; 4406.050;  215.125;    0.000
623.361; 4376.050;  222.125;    0.000
623.481; 4363.050;  187.125;    0.000
623.601; 4424.050;  283.125;    0.000
623.721; 4394.050;  283.125;    0.000
623.841; 4446.050;  233.125;    0.000
623.961; 4353.050;  215.125;    0.000
624.081; 4384.050;  219.125;    0.000
624.201; 4401.050;  221.125;    0.000
624.320; 4402.050;  215.125;    0.000
624.440; 4386.050;  222.125;    0.000
624.560; 4391.050;  231.125;    0.000
624.680; 4283.050;  225.125;    0.000
624.799; 4345.050;  230.125;    0.000
624.919; 4440.050;  243.125;    0.000
625.039; 4306.050;  203.125;    0.000
625.159; 4316.050;  257.125;    0.000
625.278; 4290.050;  230.125;    0.000
625.398; 4271.050;  195.125;    0.000
625.518; 4281.050;  211.125;    0.000
625.637; 4408.050;  267.125;    0.000
625.757; 4301.050;  228.125;    0.000
625.876; 4318.050;  231.125;    0.000
625.996; 4282.050;  219.125;    0.000
626.115; 4269.050;  235.125;    0.000
626.235; 4319.050;  199.125;    0.000
626.354; 4291.050;  226.125;    0.000
626.474; 4188.050;  225.125;    0.000
626.594; 4268.050;  223.125;    0.000
626.713; 4263.050;  231.125;    0.000
626.832; 4350.050;  287.125;    0.000
626.952; 4198.050;  251.125;    0.000
627.071; 4187.050;  254.125;    0.000
627.191; 4247.050;  193.125;    0.000
627.310; 4312.050;  213.125;    0.000
627.429; 4294.050;  259.125;    0.000
627.549; 4234.050;  243.125;    0.000
627.668; 4340.050;  181.125;    0.000
627.787; 4396.050;  232.125;    0.000
627.907; 4387.050;  222.125;    0.000
628.026; 4188.050;  219.125;    0.000
628.145; 4244.050;  201.125;    0.000
628.264; 4299.050;  198.125;    0.000
628.384; 4183.050;  208.125;    0.000
628.503; 4294.050;  251.125;    0.000
628.622; 4239.050;  195.125;    0.000
628.741; 4257.050;  180.125;    0.000
628.860; 4220.050;  235.125;    0.000
628.980; 4248.050;  222.125;    0.000
629.099; 4236.050;  237.125;    0.000
629.218; 4278.050;  175.125;    0.000
629.337; 4277.050;  194.125;    0.000
629.456; 4299.050;  225.125;    0.000
629.575; 4183.050;  239.125;    0.000
629.694; 4277.050;  230.125;    0.000
629.813; 4236.050;  197.125;    0.000
629.932; 4219.050;  225.125;    0.000
630.051; 4200.050;  238.125;    0.000
630.170; 4184.050;  233.125;    0.000
630.289; 4181.050;  231.125;    0.000
630.408; 4203.050;  204.125;    0.000
630.527; 4248.050;  262.125;    0.000
630.646; 4129.050;  181.125;    0.000
630.764; 4301.050;  218.125;    0.000
630.883; 4225.050;  215.125;    0.000
631.002; 4202.050;  224.125;    0.000
631.121; 4143.050;  209.125;    0.000
631.240; 4229.050;  230.125;    0.000
631.359; 4223.050;  235.125;    0.000
631.477; 4219.050;  223.125;    0.000
631.596; 4282.050;  218.125;    0.000
631.715; 4180.050;  234.125;    0.000
631.834; 4231.050;  215.125;    0.000
631.952; 4256.050;  243.125;    0.000
632.071; 4138.050;  219.125;    0.000
632.190; 4184.050;  235.125;    0.000
632.308; 4313.050;  239.125;    0.000
632.427; 4258.050;  211.125;    0.000
632.546; 4117.050;  233.125;    0.000
632.664; 4068.050;  219.125;    0.000
632.783; 4149.050;  203.125;    0.000
632.901; 4083.050;  221.125;    0.000
633.020; 4154.050;  197.125;    0.000
633.138; 4089.050;  244.125;    0.000
633.257; 4049.050;  205.125;    0.000
633.375; 4211.050;  245.125;    0.000
633.494; 4184.050;  218.125;    0.000
633.612; 4062.050;  222.125;    0.000
633.731; 4067.050;  212.125;    0.000
633.849; 4109.050;  218.125;    0.000
633.968; 4084.050;  236.125;    0.000
634.086; 4141.050;  233.125;    0.000
634.204; 4074.050;  215.125;    0.000
634.323; 4122.050;  230.125;    0.000
634.441; 4161.050;  235.125;    0.000
634.559; 4063.050;  202.125;    0.000
634.678; 4095.050;  218.125;    0.000
634.796; 4154.050;  203.125;    0.000
634.914; 4008.050;  227.125;    0.000
635.032; 4157.050;  279.125;    0.000
635.151; 4076.050;  221.125;    0.000
635.269; 4160.050;  207.125;    0.000
635.387; 4158.050;  195.125;    0.000
635.505; 4147.050;  243.125;    0.000
635.623; 4071.050;  269.125;    0.000
635.742; 4105.050;  232.125;    0.000
635.860; 4171.050;  243.125;    0.000
635.978; 3992.050;  215.125;    0.000
636.096; 4072.050;  225.125;    0.000
636.214; 4086.050;  244.125;    0.000
636.332; 4029.050;  226.125;    0.000
636.450; 4204.050;  227.125;    0.000
636.568; 4191.050;  225.125;    0.000
636.686; 4063.050;  194.125;    0.000
636.804; 4114.050;  234.125;    0.000
636.922; 3975.050;  177.125;    0.000
637.040; 4141.050;  225.125;    0.000
637.158; 4140.050;  194.125;    0.000
637.276; 4152.050;  219.125;    0.000
637.394; 4182.050;  219.125;    0.000
637.512; 4066.050;  210.125;    0.000
637.629; 4047.050;  242.125;    0.000
637.747; 4023.050;  193.125;    0.000
637.865; 4105.050;  219.125;    0.000
637.983; 4030.050;  251.125;    0.000
638.101; 4158.050;  221.125;    0.000
638.218; 4214.050;  193.125;    0.000
638.336; 4150.050;  224.125;    0.000
638.454; 3993.050;  227.125;    0.000
638.572; 4194.050;  245.125;    0.000
638.689; 4140.050;  222.125;    0.000
638.807; 4176.050;  244.125;    0.000
638.925; 4116.050;  238.125;    0.000
639.042; 4137.050;  213.125;    0.000
639.160; 4120.050;  186.125;    0.000
639.278; 3927.050;  203.125;    0.000
639.395; 3999.050;  270.125;    0.000
639.513; 4105.050;  227.125;    0.000
639.630; 4035.050;  200.125;    0.000
639.748; 4015.050;  199.125;    0.000
639.865; 4118.050;  233.125;    0.000
639.983; 4158.050;  181.125;    0.000
640.100; 4123.050;  219.125;    0.000
640.218; 4006.050;  234.125;    0.000
640.335; 4040.050;  233.125;    0.000
640.453; 4162.050;  202.125;    0.000
640.570; 4036.050;  214.125;    0.000
640.688; 4028.050;  215.125;    0.000
640.805; 4058.050;  229.125;    0.000
640.922; 4045.050;  244.125;    0.000
641.040; 4082.050;  233.125;    0.000
641.157; 4021.050;  199.125;    0.000
641.274; 3987.050;  205.125;    0.000
641.391; 4020.050;  244.125;    0.000
641.509; 4047.050;  184.125;    0.000
641.626; 4128.050;  244.125;    0.000
641.743; 4045.050;  221.125;    0.000
641.860; 4082.050;  206.125;    0.000
641.978; 4171.050;  272.125;    0.000
642.095; 4056.050;  218.125;    0.000
642.212; 4025.050;  208.125;    0.000
642.329; 3973.050;  218.125;    0.000
642.446; 4046.050;  197.125;    0.000
642.563; 4100.050;  214.125;    0.000
642.681; 4085.050;  203.125;    0.000
642.798; 4045.050;  236.125;    0.000
642.915; 3979.050;  191.125;    0.000
643.032; 4164.050;  226.125;    0.000
643.149; 4031.050;  231.125;    0.000
643.266; 4053.050;  213.125;    0.000
643.383; 4089.050;  240.125;    0.000
643.500; 4088.050;  185.125;    0.000
643.617; 4067.050;  229.125;    0.000
643.734; 4114.050;  205.125;    0.000
643.850; 4131.050;  222.125;    0.000
643.967; 4099.050;  202.125;    0.000
644.084; 4311.050;  264.125;    0.000
644.201; 4138.050;  214.125;    0.000
644.318; 4116.050;  206.125;    0.000
644.435; 4136.050;  225.125;    0.000
644.552; 4322.050;  203.125;    0.000
644.668; 4200.050;  252.125;    0.000
644.785; 4262.050;  213.125;    0.000
644.902; 4211.050;  233.125;    0.000
645.019; 4339.050;  220.125;    0.000
645.135; 4224.050;  225.125;    0.000
645.252; 4257.050;  218.125;    0.000
645.369; 4302.050;  214.125;    0.000
645.485; 4258.050;  210.125;    0.000
645.602; 4268.050;  198.125;    0.000
645.719; 4287.050;  228.125;    0.000
645.835; 4495.050;  209.125;    0.000
645.952; 4336.050;  213.125;    0.000
646.068; 4258.050;  241.125;    0.000
646.185; 4451.050;  219.125;    0.000
646.302; 4518.050;  246.125;    0.000
646.418; 4358.050;  228.125;    0.000
646.535; 4473.050;  256.125;    0.000
646.651; 4496.050;  222.125;    0.000
646.768; 4512.050;  203.125;    0.000
646.884; 4494.050;  199.125;    0.000
647.000; 4478.050;  194.125;    0.000
647.117; 4525.050;  214.125;    0.000
647.233; 4625.050;  209.125;    0.000
647.350; 4551.050;  235.125;    0.000
647.466; 4648.050;  237.125;    0.000
647.582; 4610.050;  231.125;    0.000
647.699; 4615.050;  219.125;    0.000
647.815; 4731.050;  200.125;    0.000
647.931; 4616.050;  173.125;    0.000
648.047; 4771.050;  184.125;    0.000
648.164; 4816.050;  199.125;    0.000
648.280; 4808.050;  209.125;    0.000
648.396; 4804.050;  220.125;    0.000
648.512; 4853.050;  212.125;    0.000
648.629; 4820.050;  214.125;    0.000
648.745; 4725.050;  197.125;    0.000
648.861; 4931.050;  228.125;    0.000
648.977; 4837.050;  238.125;    0.000
649.093; 4931.050;  208.125;    0.000
649.209; 4871.050;  179.125;    0.000
649.325; 4915.050;  256.125;    0.000
649.441; 4870.050;  224.125;    0.000
649.557; 5059.050;  247.125;    0.000
649.673; 4908.050;  214.125;    0.000
649.789; 4882.050;  213.125;    0.000
649.905; 4860.050;  170.125;    0.000
650.021; 5072.050;  236.125;    0.000
650.137; 4914.050;  229.125;    0.000
650.253; 5053.050;  207.125;    0.000
650.369; 4970.050;  198.125;    0.000
650.485; 4975.050;  225.125;    0.000
650.601; 5077.050;  260.125;    0.000
650.717; 5102.050;  196.125;    0.000
650.833; 5089.050;  219.125;    0.000
650.948; 5046.050;  203.125;    0.000
651.064; 5176.050;  232.125;    0.000
651.180; 5173.050;  252.125;    0.000
651.296; 5252.050;  190.125;    0.000
651.411; 5307.050;  235.125;    0.000
651.527; 5356.050;  227.125;    0.000
651.643; 5287.050;  238.125;    0.000
651.759; 5377.050;  260.125;    0.000
651.874; 5443.050;  217.125;    0.000
651.990; 5464.050;  239.125;    0.000
652.105; 5613.050;  215.125;    0.000
652.221; 5662.050;  237.125;    0.000
652.337; 5653.050;  238.125;    0.000
652.452; 5750.050;  230.125;    0.000
652.568; 5861.050;  201.125;    0.000
652.683; 5845.050;  243.125;    0.000
652.799; 5836.050;  218.125;    0.000
652.914; 5943.050;  189.125;    0.000
653.030; 5996.050;  191.125;    0.000
653.145; 5997.050;  240.125;    0.000
653.261; 6141.050;  225.125;    0.000
653.376; 6271.050;  241.125;    0.000
653.492; 6390.050;  188.125;    0.000
653.607; 6379.050;  219.125;    0.000
653.722; 6757.050;  268.125;    0.000
653.838; 6851.050;  262.125;    0.000
653.953; 6982.050;  188.125;    0.000
654.068; 7016.050;  244.125;    0.000
654.184; 7102.050;  247.125;    0.000
654.299; 7327.050;  228.125;    0.000
654.414; 7558.050;  181.125;    0.000
654.530; 7662.050;  210.125;    0.000
654.645; 7853.050;  240.125;    0.000
654.760; 8144.050;  219.125;    0.000
654.875; 8232.050;  178.125;    0.000
654.990; 8710.050;  222.125;    0.000
655.106; 8914.050;  227.125;    0.000
655.221; 9253.050;  270.125;    0.000
655.336; 9555.050;  199.125;    0.000
655.451; 9887.050;  235.125;    0.000
655.566;10300.050;  251.125;    0.000
655.681;10840.050;  253.125;    0.000
655.796;11399.050;  207.125;    0.000
655.911;12078.050;  213.125;    0.000
656.026;12830.050;  247.125;    0.000
656.141;13639.050;  209.125;    0.000
656.256;14059.050;  226.125;    0.000
656.371;14364.050;  201.125;    0.000
656.486;14236.050;  196.125;    0.000
656.601;13576.050;  239.125;    0.000
656.716;13228.050;  234.125;    0.000
656.831;12720.050;  223.125;    0.000
656.946;12315.050;  246.125;    0.000
657.060;11781.050;  230.125;    0.000
657.175;11395.050;  207.125;    0.000
657.290;11075.050;  213.125;    0.000
657.405;10567.050;  319.125;    0.000
657.520;10262.050;  241.125;    0.000
657.634;10011.050;  235.125;    0.000
657.749; 9616.050;  275.125;    0.000
657.864; 9496.050;  210.125;    0.000
657.979; 9116.050;  227.125;    0.000
658.093; 8852.050;  206.125;    0.000
658.208; 8610.050;  217.125;    0.000
658.323; 8369.050;  227.125;    0.000
658.437; 8279.050;  217.125;    0.000
658.552; 8167.050;  237.125;    0.000
658.666; 7925.050;  233.125;    0.000
658.781; 7840.050;  248.125;    0.000
658.895; 7447.050;  233.125;    0.000
659.010; 7362.050;  238.125;    0.000
659.125; 7274.050;  206.125;    0.000
659.239; 7261.050;  220.125;    0.000
659.353; 7157.050;  236.125;    0.000
659.468; 6946.050;  238.125;    0.000
659.582; 6832.050;  275.125;    0.000
659.697; 6818.050;  239.125;    0.000
659.811; 6605.050;  232.125;    0.000
659.926; 6451.050;  230.125;    0.000
660.040; 6576.050;  257.125;    0.000
660.154; 6493.050;  221.125;    0.000
660.269; 6290.050;  219.125;    0.000
660.383; 6271.050;  228.125;    0.000
660.497; 6150.050;  243.125;    0.000
660.612; 6073.050;  238.125;    0.000
660.726; 6091.050;  260.125;    0.000
660.840; 5980.050;  239.125;    0.000
660.954; 5814.050;  236.125;    0.000
661.068; 5808.050;  239.125;    0.000
661.183; 5749.050;  245.125;    0.000
661.297; 5570.050;  198.125;    0.000
661.411; 5509.050;  203.125;    0.000
661.525; 5538.050;  244.125;    0.000
661.639; 5443.050;  229.125;    0.000
661.753; 5343.050;  238.125;    0.000
661.867; 5370.050;  237.125;    0.000
661.981; 5205.050;  219.125;    0.000
662.095; 5152.050;  232.125;    0.000
662.209; 5162.050;  236.125;    0.000
662.323; 4998.050;  209.125;    0.000
662.437; 4938.050;  206.125;    0.000
662.551; 4907.050;  217.125;    0.000
662.665; 4953.050;  262.125;    0.000
662.779; 4792.050;  234.125;    0.000
662.893; 4910.050;  222.125;    0.000
663.007; 4834.050;  189.125;    0.000
663.121; 4762.050;  258.125;    0.000
663.235; 4641.050;  191.125;    0.000
663.349; 4671.050;  259.125;    0.000
663.462; 4554.050;  209.125;    0.000
663.576; 4506.050;  244.125;    0.000
663.690; 4536.050;  237.125;    0.000
663.804; 4493.050;  205.125;    0.000
663.917; 4468.050;  207.125;    0.000
664.031; 4306.050;  234.125;    0.000
664.145; 4444.050;  216.125;    0.000
664.258; 4459.050;  202.125;    0.000
664.372; 4357.050;  198.125;    0.000
664.486; 4247.050;  181.125;    0.000
664.599; 4262.050;  229.125;    0.000
664.713; 4301.050;  266.125;    0.000
664.827; 4230.050;  185.125;    0.000
664.940; 4211.050;  225.125;    0.000
665.054; 4276.050;  198.125;    0.000
665.167; 4146.050;  208.125;    0.000
665.281; 4179.050;  231.125;    0.000
665.394; 4152.050;  228.125;    0.000
665.508; 4050.050;  204.125;    0.000
665.621; 4091.050;  263.125;    0.000
665.735; 4090.050;  222.125;    0.000
665.848; 4084.050;  237.125;    0.000
665.961; 4085.050;  180.125;    0.000
666.075; 4002.050;  212.125;    0.000
666.188; 4034.050;  229.125;    0.000
666.301; 3846.050;  247.125;    0.000
666.415; 4055.050;  212.125;    0.000
666.528; 3867.050;  268.125;    0.000
666.641; 3972.050;  210.125;    0.000
666.755; 3778.050;  178.125;    0.000
666.868; 3770.050;  227.125;    0.000
666.981; 3858.050;  250.125;    0.000
667.094; 3840.050;  228.125;    0.000
667.207; 3673.050;  235.125;    0.000
667.321; 3752.050;  171.125;    0.000
667.434; 3740.050;  191.125;    0.000
667.547; 3800.050;  279.125;    0.000
667.660; 3721.050;  210.125;    0.000
667.773; 3769.050;  217.125;    0.000
667.886; 3689.050;  209.125;    0.000
667.999; 3773.050;  239.125;    0.000
668.112; 3641.050;  227.125;    0.000
668.225; 3687.050;  185.125;    0.000
668.338; 3623.050;  222.125;    0.000
668.451; 3547.050;  200.125;    0.000
668.564; 3633.050;  237.125;    0.000
668.677; 3555.050;  207.125;    0.000
668.790; 3566.050;  208.125;    0.000
668.903; 3532.050;  243.125;    0.000
669.016; 3544.050;  190.125;    0.000
669.129; 3487.050;  234.125;    0.000
669.242; 3444.050;  185.125;    0.000
669.354; 3480.050;  224.125;    0.000
669.467; 3551.050;  219.125;    0.000
669.580; 3443.050;  249.125;    0.000
669.693; 3358.050;  187.125;    0.000
669.806; 3523.050;  206.125;    0.000
669.918; 3393.050;  192.125;    0.000
670.031; 3452.050;  235.125;    0.000
670.144; 3488.050;  238.125;    0.000
670.256; 3468.050;  237.125;    0.000
670.369; 3432.050;  237.125;    0.000
670.482; 3417.050;  250.125;    0.000
670.594; 3405.050;  273.125;    0.000
670.707; 3375.050;  223.125;    0.000
670.820; 3379.050;  238.125;    0.000
670.932; 3327.050;  224.125;    0.000
671.045; 3443.050;  219.125;    0.000
671.157; 3237.050;  242.125;    0.000
671.270; 3276.050;  235.125;    0.000
671.382; 3332.050;  213.125;    0.000
671.495; 3290.050;  254.125;    0.000
671.607; 3396.050;  253.125;    0.000
671.720; 3281.050;  169.125;    0.000
671.832; 3153.050;  201.125;    0.000
671.944; 3285.050;  250.125;    0.000
672.057; 3214.050;  187.125;    0.000
672.169; 3187.050;  224.125;    0.000
672.281; 3269.050;  238.125;    0.000
672.394; 3215.050;  250.125;    0.000
672.506; 3275.050;  227.125;    0.000
672.618; 3238.050;  223.125;    0.000
672.731; 3220.050;  210.125;    0.000
672.843; 3305.050;  245.125;    0.000
672.955; 3208.050;  263.125;    0.000
673.067; 3240.050;  239.125;    0.000
673.180; 3254.050;  253.125;    0.000
673.292; 3255.050;  243.125;    0.000
673.404; 3167.050;  226.125;    0.000
673.516; 3137.050;  223.125;    0.000
673.628; 3247.050;  223.125;    0.000
673.740; 3182.050;  216.125;    0.000
673.852; 3198.050;  277.125;    0.000
673.964; 3190.050;  211.125;    0.000
674.076; 3193.050;  241.125;    0.000
674.188; 3232.050;  251.125;    0.000
674.300; 3250.050;  268.125;    0.000
674.412; 3132.050;  260.125;    0.000
674.524; 3210.050;  257.125;    0.000
674.636; 3179.050;  222.125;    0.000
674.748; 3149.050;  227.125;    0.000
674.860; 3216.050;  250.125;    0.000
674.972; 3137.050;  240.125;    0.000
675.084; 3134.050;  262.125;    0.000
675.196; 3142.050;  287.125;    0.000
675.307; 3119.050;  257.125;    0.000
675.419; 3003.050;  231.125;    0.000
675.531; 3153.050;  274.125;    0.000
675.643; 3054.050;  235.125;    0.000
675.755; 3058.050;  275.125;    0.000
675.866; 3066.050;  238.125;    0.000
675.978; 3014.050;  209.125;    0.000
676.090; 3033.050;  239.125;    0.000
676.201; 3068.050;  249.125;    0.000
676.313; 2950.050;  237.125;    0.000
676.425; 3004.050;  263.125;    0.000
676.536; 2974.050;  178.125;    0.000
676.648; 3011.050;  245.125;    0.000
676.759; 2985.050;  244.125;    0.000
676.871; 2996.050;  242.125;    0.000
676.983; 3059.050;  245.125;    0.000
677.094; 2924.050;  209.125;    0.000
677.206; 2972.050;  248.125;    0.000
677.317; 2951.050;  260.125;    0.000
677.429; 2947.050;  237.125;    0.000
677.540; 3046.050;  226.125;    0.000
677.651; 2887.050;  226.125;    0.000
677.763; 2931.050;  194.125;    0.000
677.874; 2888.050;  230.125;    0.000
677.986; 2942.050;  202.125;    0.000
678.097; 3012.050;  229.125;    0.000
678.208; 2920.050;  263.125;    0.000
678.320; 2942.050;  243.125;    0.000
678.431; 2925.050;  229.125;    0.000
678.542; 2914.050;  231.125;    0.000
678.653; 2827.050;  224.125;    0.000
678.765; 2925.050;  255.125;    0.000
678.876; 2844.050;  175.125;    0.000
678.987; 2959.050;  204.125;    0.000
679.098; 2912.050;  227.125;    0.000
679.209; 2860.050;  228.125;    0.000
679.320; 2827.050;  223.125;    0.000
679.432; 2909.050;  219.125;    0.000
679.543; 2828.050;  210.125;    0.000
679.654; 2889.050;  249.125;    0.000
679.765; 2817.050;  222.125;    0.000
679.876; 2890.050;  219.125;    0.000
679.987; 2823.050;  213.125;    0.000
680.098; 2841.050;  237.125;    0.000
680.209; 2837.050;  188.125;    0.000
680.320; 2775.050;  243.125;    0.000
680.431; 2796.050;  227.125;    0.000
680.542; 2746.050;  212.125;    0.000
680.653; 2837.050;  266.125;    0.000
680.763; 2841.050;  198.125;    0.000
680.874; 2764.050;  211.125;    0.000
680.985; 2807.050;  207.125;    0.000
681.096; 2776.050;  244.125;    0.000
681.207; 2745.050;  209.125;    0.000
681.318; 2811.050;  215.125;    0.000
681.428; 2769.050;  199.125;    0.000
681.539; 2760.050;  175.125;    0.000
681.650; 2661.050;  224.125;    0.000
681.760; 2745.050;  216.125;    0.000
681.871; 2784.050;  187.125;    0.000
681.982; 2777.050;  237.125;    0.000
682.093; 2735.050;  213.125;    0.000
682.203; 2749.050;  190.125;    0.000
682.314; 2839.050;  230.125;    0.000
682.424; 2715.050;  223.125;    0.000
682.535; 2793.050;  172.125;    0.000
682.646; 2774.050;  268.125;    0.000
682.756; 2861.050;  249.125;    0.000
682.867; 2692.050;  225.125;    0.000
682.977; 2730.050;  211.125;    0.000
683.088; 2763.050;  238.125;    0.000
683.198; 2708.050;  202.125;    0.000
683.308; 2727.050;  196.125;    0.000
683.419; 2783.050;  230.125;    0.000
683.529; 2772.050;  213.125;    0.000
683.640; 2740.050;  225.125;    0.000
683.750; 2673.050;  203.125;    0.000
683.860; 2752.050;  200.125;    0.000
683.971; 2656.050;  269.125;    0.000
684.081; 2699.050;  204.125;    0.000
684.191; 2729.050;  228.125;    0.000
684.301; 2677.050;  219.125;    0.000
684.412; 2741.050;  222.125;    0.000
684.522; 2639.050;  242.125;    0.000
684.632; 2676.050;  234.125;    0.000
684.742; 2703.050;  240.125;    0.000
684.852; 2629.050;  229.125;    0.000
684.963; 2701.050;  237.125;    0.000
685.073; 2736.050;  205.125;    0.000
685.183; 2687.050;  241.125;    0.000
685.293; 2696.050;  202.125;    0.000
685.403; 2733.050;  232.125;    0.000
685.513; 2783.050;  244.125;    0.000
685.623; 2665.050;  224.125;    0.000
685.733; 2684.050;  236.125;    0.000
685.843; 2737.050;  235.125;    0.000
685.953; 2737.050;  216.125;    0.000
686.063; 2706.050;  214.125;    0.000
686.173; 2627.050;  198.125;    0.000
686.283; 2693.050;  250.125;    0.000
686.393; 2697.050;  227.125;    0.000
686.503; 2703.050;  244.125;    0.000
686.612; 2704.050;  247.125;    0.000
686.722; 2744.050;  265.125;    0.000
686.832; 2691.050;  213.125;    0.000
686.942; 2743.050;  241.125;    0.000
687.052; 2620.050;  238.125;    0.000
687.161; 2655.050;  233.125;    0.000
687.271; 2627.050;  232.125;    0.000
687.381; 2736.050;  220.125;    0.000
687.491; 2766.050;  206.125;    0.000
687.600; 2739.050;  283.125;    0.000
687.710; 2624.050;  212.125;    0.000
687.820; 2668.050;  226.125;    0.000
687.929; 2701.050;  202.125;    0.000
688.039; 2632.050;  225.125;    0.000
688.148; 2660.050;  235.125;    0.000
688.258; 2627.050;  224.125;    0.000
688.367; 2641.050;  239.125;    0.000
688.477; 2663.050;  193.125;    0.000
688.586; 2643.050;  226.125;    0.000
688.696; 2621.050;  185.125;    0.000
688.805; 2602.050;  190.125;    0.000
688.915; 2601.050;  209.125;    0.000
689.024; 2636.050;  214.125;    0.000
689.134; 2672.050;  205.125;    0.000
689.243; 2565.050;  190.125;    0.000
689.352; 2622.050;  233.125;    0.000
689.462; 2617.050;  196.125;    0.000
689.571; 2705.050;  227.125;    0.000
689.680; 2641.050;  206.125;    0.000
689.790; 2505.050;  193.125;    0.000
689.899; 2628.050;  204.125;    0.000
690.008; 2653.050;  228.125;    0.000
690.117; 2525.050;  207.125;    0.000
690.227; 2571.050;  231.125;    0.000
690.336; 2555.050;  222.125;    0.000
690.445; 2561.050;  198.125;    0.000
690.554; 2597.050;  202.125;    0.000
690.663; 2619.050;  217.125;    0.000
690.772; 2540.050;  213.125;    0.000
690.881; 2598.050;  225.125;    0.000
690.990; 2585.050;  217.125;    0.000
691.099; 2565.050;  205.125;    0.000
691.209; 2560.050;  220.125;    0.000
691.318; 2591.050;  216.125;    0.000
691.427; 2568.050;  188.125;    0.000
691.536; 2539.050;  224.125;    0.000
691.644; 2661.050;  212.125;    0.000
691.753; 2591.050;  216.125;    0.000
691.862; 2548.050;  250.125;    0.000
691.971; 2533.050;  210.125;    0.000
692.080; 2642.050;  232.125;    0.000
692.189; 2573.050;  218.125;    0.000
692.298; 2496.050;  220.125;    0.000
692.406; 2573.050;  261.125;    0.000
692.515; 2673.050;  253.125;    0.000
692.624; 2566.050;  224.125;    0.000
692.733; 2663.050;  209.125;    0.000
692.842; 2645.050;  214.125;    0.000
692.950; 2527.050;  206.125;    0.000
693.059; 2549.050;  180.125;    0.000
693.168; 2644.050;  220.125;    0.000
693.276; 2538.050;  196.125;    0.000
693.385; 2559.050;  203.125;    0.000
693.494; 2576.050;  263.125;    0.000
693.602; 2631.050;  222.125;    0.000
693.711; 2579.050;  178.125;    0.000
693.819; 2516.050;  230.125;    0.000
693.928; 2574.050;  187.125;    0.000
694.036; 2519.050;  219.125;    0.000
694.145; 2566.050;  223.125;    0.000
694.253; 2506.050;  241.125;    0.000
694.362; 2549.050;  229.125;    0.000
694.470; 2520.050;  223.125;    0.000
694.579; 2564.050;  195.125;    0.000
694.687; 2612.050;  257.125;    0.000
694.795; 2506.050;  230.125;    0.000
694.904; 2549.050;  196.125;    0.000
695.012; 2551.050;  247.125;    0.000
695.120; 2547.050;  215.125;    0.000
695.229; 2553.050;  244.125;    0.000
695.337; 2500.050;  197.125;    0.000
695.445; 2675.050;  270.125;    0.000
695.553; 2532.050;  241.125;    0.000
695.662; 2524.050;  249.125;    0.000
695.770; 2483.050;  244.125;    0.000
695.878; 2653.050;  236.125;    0.000
695.986; 2516.050;  253.125;    0.000
696.094; 2461.050;  242.125;    0.000
696.202; 2517.050;  174.125;    0.000
696.310; 2560.050;  230.125;    0.000
696.419; 2485.050;  218.125;    0.000
696.527; 2459.050;  226.125;    0.000
696.635; 2597.050;  217.125;    0.000
696.743; 2503.050;  221.125;    0.000
696.851; 2599.050;  259.125;    0.000
696.959; 2567.050;  245.125;    0.000
697.067; 2520.050;  235.125;    0.000
697.174; 2551.050;  238.125;    0.000
697.282; 2520.050;  208.125;    0.000
697.390; 2566.050;  265.125;    0.000
697.498; 2508.050;  202.125;    0.000
697.606; 2525.050;  219.125;    0.000
697.714; 2534.050;  245.125;    0.000
697.822; 2561.050;  222.125;    0.000
697.929; 2532.050;  194.125;    0.000
698.037; 2473.050;  223.125;    0.000
698.145; 2541.050;  213.125;    0.000
698.253; 2512.050;  234.125;    0.000
698.360; 2517.050;  211.125;    0.000
698.468; 2531.050;  241.125;    0.000
698.576; 2573.050;  249.125;    0.000
698.683; 2641.050;  268.125;    0.000
698.791; 2445.050;  223.125;    0.000
698.899; 2507.050;  251.125;    0.000
699.006; 2540.050;  216.125;    0.000
699.114; 2543.050;  256.125;    0.000
699.221; 2489.050;  226.125;    0.000
699.329; 2551.050;  255.125;    0.000
699.436; 2486.050;  213.125;    0.000
699.544; 2517.050;  258.125;    0.000
699.651; 2414.050;  214.125;    0.000
699.759; 2555.050;  229.125;    0.000
699.866; 2490.050;  239.125;    0.000
699.974; 2516.050;  224.125;    0.000
700.081; 2469.050;  227.125;    0.000
700.188; 2504.050;  267.125;    0.000
700.296; 2456.050;  222.125;    0.000
700.403; 2470.050;  225.125;    0.000
700.510; 2533.050;  248.125;    0.000
700.618; 2501.050;  223.125;    0.000
700.725; 2533.050;  243.125;    0.000
700.832; 2407.050;  239.125;    0.000
700.940; 2448.050;  284.125;    0.000
701.047; 2401.050;  216.125;    0.000
701.154; 2531.050;  249.125;    0.000
701.261; 2499.050;  229.125;    0.000
701.368; 2476.050;  247.125;    0.000
701.475; 2479.050;  208.125;    0.000
701.582; 2499.050;  262.125;    0.000
701.690; 2458.050;  224.125;    0.000
701.797; 2448.050;  294.125;    0.000
701.904; 2577.050;  303.125;    0.000
702.011; 2560.050;  278.125;    0.000
702.118; 2480.050;  279.125;    0.000
702.225; 2494.050;  342.125;    0.000
702.332; 2463.050;  281.125;    0.000
702.439; 2531.050;  313.125;    0.000
702.546; 2563.050;  295.125;    0.000
702.652; 2493.050;  293.125;    0.000
702.759; 2514.050;  333.125;    0.000
702.866; 2452.050;  272.125;    0.000
702.973; 2544.050;  310.125;    0.000
703.080; 2634.050;  313.125;    0.000
703.187; 2507.050;  316.125;    0.000
703.294; 2508.050;  328.125;    0.000
703.400; 2369.050;  312.125;    0.000
703.507;  573.050;  349.125;    0.000
703.614;  298.050;  298.125;    0.000
703.720;  296.050;  300.125;    0.000
703.827;  333.050;  346.125;    0.000
703.934;  313.050;  308.125;    0.000
704.040;  291.050;  300.125;    0.000
704.147;  346.050;  317.125;    0.000
704.254;  311.050;  350.125;    0.000
704.360;  291.050;  285.125;    0.000
704.467;  333.050;  334.125;    0.000
704.573;  330.050;  330.125;    0.000
704.680;  330.050;  312.125;    0.000
704.786;  350.050;  305.125;    0.000
704.893;  312.050;  330.125;    0.000
704.999;  299.050;  315.125;    0.000
705.106;  320.050;  327.125;    0.000

