
Integration time [ms]:   0.300
Averaging Nr. [scans]: 1
Smoothing Nr. [pixels]: 0
Data measured with spectrometer [name]: NIR
Wave   ;Sample   ;Dark     ;Reference
[nm]   ;[counts] ;[counts] ;[counts] 

691.496;  -55.975;  155.525;    0.000
691.696;  -30.975;  186.525;    0.000
691.896;  -54.975;  113.525;    0.000
692.096;  -27.975;  169.525;    0.000
692.296;  -53.975;  119.525;    0.000
692.496;  -43.975;  182.525;    0.000
692.695;  -80.975;  119.525;    0.000
692.895;  -32.975;  183.525;    0.000
693.095;  -49.975;  119.525;    0.000
693.295;  -34.975;  156.525;    0.000
693.495;  -27.975;  145.525;    0.000
693.695;  -65.975;  144.525;    0.000
693.894;  -43.975;  174.525;    0.000
694.094;  -30.975;  148.525;    0.000
694.294;  -78.975;  114.525;    0.000
694.494;  230.025;  137.525;    0.000
694.693; 2893.025;  112.525;    0.000
694.893; 3338.025;   85.525;    0.000
695.093; 3299.025;  152.525;    0.000
695.293; 3253.025;  159.525;    0.000
695.492; 3335.025;  131.525;    0.000
695.692; 3313.025;  134.525;    0.000
695.891; 3261.025;  161.525;    0.000
696.091; 3398.025;  180.525;    0.000
696.291; 3353.025;  120.525;    0.000
696.490; 3328.025;  146.525;    0.000
696.690; 3379.025;  145.525;    0.000
696.889; 3429.025;  171.525;    0.000
697.089; 3399.025;   98.525;    0.000
697.288; 3361.025;  172.525;    0.000
697.488; 3446.025;  137.525;    0.000
697.687; 3486.025;  171.525;    0.000
697.887; 3395.025;  142.525;    0.000
698.086; 3400.025;  159.525;    0.000
698.286; 3465.025;  122.525;    0.000
698.485; 3489.025;  121.525;    0.000
698.684; 3467.025;   94.525;    0.000
698.884; 3478.025;  131.525;    0.000
699.083; 3400.025;  112.525;    0.000
699.282; 3451.025;  119.525;    0.000
699.482; 3369.025;  117.525;    0.000
699.681; 3504.025;  115.525;    0.000
699.880; 3525.025;  166.525;    0.000
700.080; 3506.025;  194.525;    0.000
700.279; 3384.025;   98.525;    0.000
700.478; 3509.025;  159.525;    0.000
700.677; 3476.025;  134.525;    0.000
700.877; 3485.025;  171.525;    0.000
701.076; 3569.025;  141.525;    0.000
701.275; 3448.025;  119.525;    0.000
701.474; 3483.025;  132.525;    0.000
701.673; 3438.025;  141.525;    0.000
701.872; 3475.025;  158.525;    0.000
702.071; 3569.025;  129.525;    0.000
702.271; 3490.025;  122.525;    0.000
702.470; 3558.025;  158.525;    0.000
702.669; 3503.025;  145.525;    0.000
702.868; 3606.025;  135.525;    0.000
703.067; 3507.025;  169.525;    0.000
703.266; 3495.025;  125.525;    0.000
703.465; 3605.025;  153.525;    0.000
703.664; 3540.025;  113.525;    0.000
703.863; 3599.025;  170.525;    0.000
704.062; 3528.025;  115.525;    0.000
704.260; 3602.025;  133.525;    0.000
704.459; 3699.025;  123.525;    0.000
704.658; 3592.025;  105.525;    0.000
704.857; 3676.025;  125.525;    0.000
705.056; 3494.025;  108.525;    0.000
705.255; 3633.025;  117.525;    0.000
705.454; 3620.025;  126.525;    0.000
705.652; 3584.025;  137.525;    0.000
705.851; 3614.025;   95.525;    0.000
706.050; 3519.025;  120.525;    0.000
706.249; 3571.025;   81.525;    0.000
706.447; 3722.025;  105.525;    0.000
706.646; 3628.025;  107.525;    0.000
706.845; 3637.025;  104.525;    0.000
707.043; 3578.025;  136.525;    0.000
707.242; 3612.025;   89.525;    0.000
707.441; 3729.025;  147.525;    0.000
707.639; 3720.025;  156.525;    0.000
707.838; 3715.025;  114.525;    0.000
708.037; 3655.025;  100.525;    0.000
708.235; 3668.025;  103.525;    0.000
708.434; 3697.025;  102.525;    0.000
708.632; 3650.025;  100.525;    0.000
708.831; 3776.025;  121.525;    0.000
709.029; 3736.025;  102.525;    0.000
709.228; 3710.025;   88.525;    0.000
709.426; 3789.025;  135.525;    0.000
709.625; 3773.025;  128.525;    0.000
709.823; 3776.025;  123.525;    0.000
710.022; 3702.025;  137.525;    0.000
710.220; 3795.025;  134.525;    0.000
710.418; 3823.025;  122.525;    0.000
710.617; 3791.025;   64.525;    0.000
710.815; 3700.025;   94.525;    0.000
711.013; 3919.025;  127.525;    0.000
711.212; 3790.025;  105.525;    0.000
711.410; 3860.025;  117.525;    0.000
711.608; 3920.025;  114.525;    0.000
711.807; 3856.025;  119.525;    0.000
712.005; 3958.025;   92.525;    0.000
712.203; 3923.025;   95.525;    0.000
712.401; 4046.025;  107.525;    0.000
712.599; 3908.025;  127.525;    0.000
712.798; 3966.025;  120.525;    0.000
712.996; 3905.025;   76.525;    0.000
713.194; 3976.025;  118.525;    0.000
713.392; 3873.025;   60.525;    0.000
713.590; 4024.025;   92.525;    0.000
713.788; 3993.025;  110.525;    0.000
713.986; 4013.025;  130.525;    0.000
714.184; 3986.025;   71.525;    0.000
714.382; 4127.025;   86.525;    0.000
714.580; 4126.025;   74.525;    0.000
714.778; 4191.025;  133.525;    0.000
714.976; 4145.025;   81.525;    0.000
715.174; 4327.025;  100.525;    0.000
715.372; 4496.025;  141.525;    0.000
715.570; 4657.025;   73.525;    0.000
715.768; 4940.025;  119.525;    0.000
715.966; 4871.025;   81.525;    0.000
716.164; 4818.025;  130.525;    0.000
716.362; 4806.025;  125.525;    0.000
716.560; 4699.025;  109.525;    0.000
716.758; 4658.025;   96.525;    0.000
716.955; 4550.025;   83.525;    0.000
717.153; 4533.025;   87.525;    0.000
717.351; 4483.025;  123.525;    0.000
717.549; 4276.025;  121.525;    0.000
717.746; 4303.025;  128.525;    0.000
717.944; 4425.025;  132.525;    0.000
718.142; 4353.025;  120.525;    0.000
718.340; 4360.025;   94.525;    0.000
718.537; 4346.025;   95.525;    0.000
718.735; 4462.025;  152.525;    0.000
718.933; 4359.025;  124.525;    0.000
719.130; 4373.025;  114.525;    0.000
719.328; 4290.025;   63.525;    0.000
719.525; 4493.025;  146.525;    0.000
719.723; 4339.025;   96.525;    0.000
719.920; 4276.025;  120.525;    0.000
720.118; 4343.025;   59.525;    0.000
720.316; 4467.025;  116.525;    0.000
720.513; 4419.025;  127.525;    0.000
720.711; 4282.025;  110.525;    0.000
720.908; 4420.025;   92.525;    0.000
721.105; 4388.025;  138.525;    0.000
721.303; 4312.025;   90.525;    0.000
721.500; 4458.025;  126.525;    0.000
721.698; 4321.025;  103.525;    0.000
721.895; 4374.025;  206.525;    0.000
722.092; 4402.025;   63.525;    0.000
722.290; 4254.025;  123.525;    0.000
722.487; 4253.025;  137.525;    0.000
722.684; 4331.025;  126.525;    0.000
722.882; 4283.025;  119.525;    0.000
723.079; 4295.025;  132.525;    0.000
723.276; 4327.025;   98.525;    0.000
723.473; 4323.025;   97.525;    0.000
723.671; 4328.025;   43.525;    0.000
723.868; 4394.025;  142.525;    0.000
724.065; 4458.025;  102.525;    0.000
724.262; 4462.025;  119.525;    0.000
724.459; 4294.025;   73.525;    0.000
724.656; 4488.025;  128.525;    0.000
724.854; 4427.025;  135.525;    0.000
725.051; 4393.025;   81.525;    0.000
725.248; 4511.025;   88.525;    0.000
725.445; 4399.025;  129.525;    0.000
725.642; 4406.025;   76.525;    0.000
725.839; 4382.025;  134.525;    0.000
726.036; 4365.025;  101.525;    0.000
726.233; 4490.025;   68.525;    0.000
726.430; 4508.025;  121.525;    0.000
726.627; 4475.025;  136.525;    0.000
726.824; 4335.025;   87.525;    0.000
727.021; 4513.025;  141.525;    0.000
727.218; 4357.025;   92.525;    0.000
727.414; 4390.025;  121.525;    0.000
727.611; 4464.025;  100.525;    0.000
727.808; 4456.025;  130.525;    0.000
728.005; 4415.025;   83.525;    0.000
728.202; 4509.025;  120.525;    0.000
728.399; 4525.025;   75.525;    0.000
728.595; 4602.025;  148.525;    0.000
728.792; 4524.025;   79.525;    0.000
728.989; 4542.025;   86.525;    0.000
729.186; 4493.025;   80.525;    0.000
729.382; 4615.025;   72.525;    0.000
729.579; 4547.025;  112.525;    0.000
729.776; 4440.025;  106.525;    0.000
729.972; 4539.025;   77.525;    0.000
730.169; 4497.025;  118.525;    0.000
730.366; 4590.025;   92.525;    0.000
730.562; 4572.025;  104.525;    0.000
730.759; 4594.025;   95.525;    0.000
730.955; 4590.025;   85.525;    0.000
731.152; 4573.025;   79.525;    0.000
731.348; 4649.025;   72.525;    0.000
731.545; 4642.025;   56.525;    0.000
731.741; 4533.025;  106.525;    0.000
731.938; 4609.025;  113.525;    0.000
732.134; 4653.025;  106.525;    0.000
732.331; 4541.025;   82.525;    0.000
732.527; 4693.025;   80.525;    0.000
732.724; 4541.025;   97.525;    0.000
732.920; 4693.025;  127.525;    0.000
733.116; 4581.025;  115.525;    0.000
733.313; 4711.025;  153.525;    0.000
733.509; 4727.025;   76.525;    0.000
733.705; 4663.025;  159.525;    0.000
733.902; 4629.025;   82.525;    0.000
734.098; 4677.025;   70.525;    0.000
734.294; 4736.025;  105.525;    0.000
734.490; 4758.025;  110.525;    0.000
734.687; 4674.025;  102.525;    0.000
734.883; 4679.025;   77.525;    0.000
735.079; 4759.025;   93.525;    0.000
735.275; 4720.025;  109.525;    0.000
735.471; 4581.025;   99.525;    0.000
735.667; 4695.025;  107.525;    0.000
735.863; 4764.025;   89.525;    0.000
736.060; 4772.025;  105.525;    0.000
736.256; 4860.025;  113.525;    0.000
736.452; 4787.025;   90.525;    0.000
736.648; 4828.025;   88.525;    0.000
736.844; 4864.025;  129.525;    0.000
737.040; 4808.025;  139.525;    0.000
737.236; 4852.025;  129.525;    0.000
737.432; 4732.025;   67.525;    0.000
737.628; 4818.025;  104.525;    0.000
737.824; 5022.025;  111.525;    0.000
738.019; 4894.025;  116.525;    0.000
738.215; 4986.025;  135.525;    0.000
738.411; 4990.025;  118.525;    0.000
738.607; 4835.025;   58.525;    0.000
738.803; 5003.025;   32.525;    0.000
738.999; 4951.025;  120.525;    0.000
739.195; 4943.025;   76.525;    0.000
739.390; 4985.025;  119.525;    0.000
739.586; 5014.025;   83.525;    0.000
739.782; 5074.025;  134.525;    0.000
739.978; 5004.025;  122.525;    0.000
740.173; 5032.025;   96.525;    0.000
740.369; 5165.025;   86.525;    0.000
740.565; 5123.025;  122.525;    0.000
740.760; 5063.025;   99.525;    0.000
740.956; 5140.025;  137.525;    0.000
741.152; 5168.025;  108.525;    0.000
741.347; 5203.025;   65.525;    0.000
741.543; 5200.025;   73.525;    0.000
741.738; 5344.025;  142.525;    0.000
741.934; 5518.025;  131.525;    0.000
742.129; 5902.025;   66.525;    0.000
742.325; 6550.025;  143.525;    0.000
742.520; 7116.025;  119.525;    0.000
742.716; 6792.025;  109.525;    0.000
742.911; 6289.025;   62.525;    0.000
743.107; 6277.025;  119.525;    0.000
743.302; 6093.025;   78.525;    0.000
743.498; 6336.025;  130.525;    0.000
743.693; 6306.025;   75.525;    0.000
743.888; 6497.025;  135.525;    0.000
744.084; 7441.025;  106.525;    0.000
744.279; 9209.025;  101.525;    0.000
744.474; 9130.025;   91.525;    0.000
744.670; 8243.025;  144.525;    0.000
744.865; 7735.025;  128.525;    0.000
745.060; 7239.025;   63.525;    0.000
745.255; 7073.025;  155.525;    0.000
745.451; 6779.025;  110.525;    0.000
745.646; 6744.025;  150.525;    0.000
745.841; 6688.025;  128.525;    0.000
746.036; 6836.025;  110.525;    0.000
746.231; 6817.025;  126.525;    0.000
746.426; 7254.025;   83.525;    0.000
746.622; 8342.025;  157.525;    0.000
746.817;10998.025;  112.525;    0.000
747.012;12142.025;  115.525;    0.000
747.207;10823.025;  161.525;    0.000
747.402; 9453.025;   88.525;    0.000
747.597; 8833.025;  103.525;    0.000
747.792; 8513.025;  152.525;    0.000
747.987; 8155.025;   80.525;    0.000
748.182; 7716.025;   89.525;    0.000
748.377; 7473.025;  104.525;    0.000
748.572; 7287.025;  138.525;    0.000
748.767; 6927.025;  100.525;    0.000
748.961; 6770.025;  106.525;    0.000
749.156; 6590.025;  113.525;    0.000
749.351; 6553.025;  116.525;    0.000
749.546; 6298.025;  107.525;    0.000
749.741; 6244.025;  102.525;    0.000
749.936; 6267.025;  105.525;    0.000
750.130; 6133.025;  111.525;    0.000
750.325; 6159.025;   72.525;    0.000
750.520; 6017.025;   96.525;    0.000
750.715; 5998.025;  135.525;    0.000
750.909; 5898.025;  107.525;    0.000
751.104; 5923.025;  106.525;    0.000
751.299; 5896.025;  144.525;    0.000
751.493; 5985.025;  116.525;    0.000
751.688; 5771.025;   96.525;    0.000
751.882; 5635.025;   92.525;    0.000
752.077; 5658.025;  109.525;    0.000
752.272; 5706.025;   96.525;    0.000
752.466; 5725.025;  110.525;    0.000
752.661; 5580.025;  120.525;    0.000
752.855; 5560.025;   70.525;    0.000
753.050; 5543.025;  129.525;    0.000
753.244; 5543.025;  126.525;    0.000
753.439; 5509.025;  115.525;    0.000
753.633; 5454.025;  120.525;    0.000
753.828; 5432.025;  129.525;    0.000
754.022; 5474.025;  139.525;    0.000
754.216; 5426.025;  121.525;    0.000
754.411; 5471.025;  108.525;    0.000
754.605; 5299.025;   94.525;    0.000
754.799; 5346.025;  125.525;    0.000
754.994; 5379.025;  160.525;    0.000
755.188; 5397.025;  151.525;    0.000
755.382; 5338.025;  102.525;    0.000
755.576; 5382.025;  103.525;    0.000
755.771; 5279.025;   99.525;    0.000
755.965; 5388.025;  158.525;    0.000
756.159; 5287.025;   96.525;    0.000
756.353; 5239.025;  157.525;    0.000
756.547; 5285.025;  132.525;    0.000
756.742; 5274.025;  106.525;    0.000
756.936; 5362.025;  113.525;    0.000
757.130; 5366.025;  114.525;    0.000
757.324; 5226.025;  111.525;    0.000
757.518; 5323.025;  142.525;    0.000
757.712; 5397.025;  137.525;    0.000
757.906; 5301.025;   93.525;    0.000
758.100; 5283.025;  119.525;    0.000
758.294; 5327.025;  132.525;    0.000
758.488; 5280.025;  153.525;    0.000
758.682; 5199.025;  101.525;    0.000
758.876; 5237.025;  129.525;    0.000
759.070; 5292.025;  168.525;    0.000
759.264; 5300.025;   96.525;    0.000
759.458; 5210.025;  117.525;    0.000
759.651; 5284.025;  135.525;    0.000
759.845; 5325.025;  127.525;    0.000
760.039; 5170.025;  120.525;    0.000
760.233; 5342.025;  124.525;    0.000
760.427; 5333.025;  115.525;    0.000
760.620; 5248.025;  130.525;    0.000
760.814; 5201.025;  102.525;    0.000
761.008; 5273.025;  174.525;    0.000
761.202; 5193.025;  132.525;    0.000
761.395; 5295.025;  126.525;    0.000
761.589; 5260.025;  133.525;    0.000
761.783; 5169.025;  147.525;    0.000
761.976; 5279.025;  147.525;    0.000
762.170; 5171.025;  174.525;    0.000
762.363; 5332.025;   97.525;    0.000
762.557; 5322.025;  141.525;    0.000
762.750; 5261.025;  112.525;    0.000
762.944; 5356.025;  110.525;    0.000
763.138; 5306.025;  125.525;    0.000
763.331; 5276.025;  101.525;    0.000
763.524; 5439.025;  101.525;    0.000
763.718; 5431.025;  156.525;    0.000
763.911; 5416.025;  143.525;    0.000
764.105; 5381.025;  139.525;    0.000
764.298; 5344.025;   89.525;    0.000
764.492; 5358.025;  111.525;    0.000
764.685; 5276.025;  136.525;    0.000
764.878; 5382.025;  146.525;    0.000
765.072; 5423.025;  110.525;    0.000
765.265; 5432.025;  141.525;    0.000
765.458; 5441.025;   82.525;    0.000
765.651; 5506.025;  144.525;    0.000
765.845; 5461.025;   79.525;    0.000
766.038; 5504.025;  123.525;    0.000
766.231; 6268.025;  125.525;    0.000
766.424; 9595.025;  131.525;    0.000
766.617; 9809.025;   62.525;    0.000
766.811; 6117.025;  142.525;    0.000
767.004; 5598.025;  134.525;    0.000
767.197; 5588.025;  147.525;    0.000
767.390; 5496.025;  100.525;    0.000
767.583; 5473.025;  121.525;    0.000
767.776; 5587.025;   91.525;    0.000
767.969; 5489.025;  113.525;    0.000
768.162; 5676.025;  170.525;    0.000
768.355; 5526.025;  134.525;    0.000
768.548; 5639.025;  177.525;    0.000
768.741; 5614.025;   96.525;    0.000
768.934; 5561.025;  143.525;    0.000
769.127; 5690.025;  147.525;    0.000
769.320; 5641.025;   93.525;    0.000
769.513; 5752.025;  137.525;    0.000
769.706; 6723.025;   96.525;    0.000
769.898; 9569.025;  118.525;    0.000
770.091; 7501.025;  138.525;    0.000
770.284; 6009.025;  133.525;    0.000
770.477; 5878.025;  137.525;    0.000
770.670; 5934.025;  124.525;    0.000
770.862; 6009.025;  125.525;    0.000
771.055; 5997.025;  135.525;    0.000
771.248; 6009.025;  109.525;    0.000
771.441; 5937.025;  141.525;    0.000
771.633; 6001.025;  142.525;    0.000
771.826; 6087.025;  123.525;    0.000
772.018; 6199.025;  136.525;    0.000
772.211; 6141.025;  145.525;    0.000
772.404; 6201.025;  127.525;    0.000
772.596; 6385.025;  193.525;    0.000
772.789; 6322.025;   64.525;    0.000
772.981; 6402.025;  142.525;    0.000
773.174; 6607.025;  105.525;    0.000
773.366; 6505.025;  166.525;    0.000
773.559; 6543.025;  125.525;    0.000
773.751; 6845.025;  126.525;    0.000
773.944; 6865.025;  147.525;    0.000
774.136; 7092.025;  155.525;    0.000
774.329; 7073.025;  127.525;    0.000
774.521; 7318.025;  133.525;    0.000
774.713; 7767.025;  139.525;    0.000
774.906; 7811.025;  170.525;    0.000
775.098; 8064.025;  144.525;    0.000
775.290; 8227.025;  162.525;    0.000
775.483; 8895.025;  137.525;    0.000
775.675; 9324.025;  148.525;    0.000
775.867; 9948.025;   81.525;    0.000
776.059;10946.025;  134.525;    0.000
776.251;11850.025;  137.525;    0.000
776.444;13688.025;  155.525;    0.000
776.636;15754.025;  148.525;    0.000
776.828;20054.025;  129.525;    0.000
777.020;28527.025;  133.525;    0.000
777.212;42719.023;  137.525;    0.000
777.404;47642.023;  124.525;    0.000
777.596;43891.023;  142.525;    0.000
777.788;32437.025;  155.525;    0.000
777.980;24494.025;  119.525;    0.000
778.172;19940.025;  129.525;    0.000
778.364;16955.025;  122.525;    0.000
778.556;14988.025;  129.525;    0.000
778.748;13207.025;  178.525;    0.000
778.940;12183.025;  128.525;    0.000
779.132;11210.025;  145.525;    0.000
779.324;10194.025;   89.525;    0.000
779.516; 9712.025;  161.525;    0.000
779.708; 9156.025;  183.525;    0.000
779.900; 8652.025;  124.525;    0.000
780.091; 8439.025;  143.525;    0.000
780.283; 7961.025;  135.525;    0.000
780.475; 7870.025;  129.525;    0.000
780.667; 7524.025;  178.525;    0.000
780.859; 7272.025;  146.525;    0.000
781.050; 7244.025;  156.525;    0.000
781.242; 6899.025;  138.525;    0.000
781.434; 6729.025;  117.525;    0.000
781.625; 6628.025;  161.525;    0.000
781.817; 6516.025;  127.525;    0.000
782.008; 6386.025;  138.525;    0.000
782.200; 6408.025;  139.525;    0.000
782.392; 6351.025;  179.525;    0.000
782.583; 6138.025;  137.525;    0.000
782.775; 6170.025;  162.525;    0.000
782.966; 6115.025;  159.525;    0.000
783.158; 5952.025;  118.525;    0.000
783.349; 5938.025;  160.525;    0.000
783.541; 5757.025;  139.525;    0.000
783.732; 5819.025;  145.525;    0.000
783.924; 5830.025;  146.525;    0.000
784.115; 5678.025;  125.525;    0.000
784.306; 5647.025;  118.525;    0.000
784.498; 5705.025;  144.525;    0.000
784.689; 5710.025;  145.525;    0.000
784.880; 5631.025;  137.525;    0.000
785.072; 5537.025;  157.525;    0.000
785.263; 5578.025;  149.525;    0.000
785.454; 5451.025;  128.525;    0.000
785.645; 5477.025;  131.525;    0.000
785.837; 5464.025;  137.525;    0.000
786.028; 5571.025;  161.525;    0.000
786.219; 5515.025;  155.525;    0.000
786.410; 5344.025;  146.525;    0.000
786.601; 5431.025;  120.525;    0.000
786.792; 5544.025;  179.525;    0.000
786.984; 5430.025;  113.525;    0.000
787.175; 5508.025;  156.525;    0.000
787.366; 5394.025;  131.525;    0.000
787.557; 5468.025;  138.525;    0.000
787.748; 5478.025;  112.525;    0.000
787.939; 5495.025;  115.525;    0.000
788.130; 5568.025;  150.525;    0.000
788.321; 5463.025;  122.525;    0.000
788.512; 5640.025;  147.525;    0.000
788.703; 5591.025;  126.525;    0.000
788.894; 5516.025;   80.525;    0.000
789.084; 5544.025;  127.525;    0.000
789.275; 5528.025;  141.525;    0.000
789.466; 5672.025;  108.525;    0.000
789.657; 5424.025;  137.525;    0.000
789.848; 5716.025;  126.525;    0.000
790.039; 5498.025;  144.525;    0.000
790.229; 5560.025;  105.525;    0.000
790.420; 5478.025;   96.525;    0.000
790.611; 5516.025;  171.525;    0.000
790.801; 5556.025;   89.525;    0.000
790.992; 5659.025;  140.525;    0.000
791.183; 5526.025;  143.525;    0.000
791.373; 5555.025;  128.525;    0.000
791.564; 5574.025;   96.525;    0.000
791.755; 5510.025;  111.525;    0.000
791.945; 5574.025;  112.525;    0.000
792.136; 5553.025;  124.525;    0.000
792.326; 5436.025;   88.525;    0.000
792.517; 5593.025;  130.525;    0.000
792.707; 5647.025;  144.525;    0.000
792.898; 5595.025;  120.525;    0.000
793.088; 5807.025;  106.525;    0.000
793.279; 5756.025;  104.525;    0.000
793.469; 5883.025;  103.525;    0.000
793.660; 5916.025;  120.525;    0.000
793.850; 6028.025;  106.525;    0.000
794.040; 6252.025;  135.525;    0.000
794.231; 6494.025;   80.525;    0.000
794.421; 6972.025;  120.525;    0.000
794.611; 7766.025;  154.525;    0.000
794.802; 9018.025;  103.525;    0.000
794.992; 9624.025;  120.525;    0.000
795.182; 9849.025;  156.525;    0.000
795.372; 9138.025;  104.525;    0.000
795.563; 8523.025;  153.525;    0.000
795.753; 7597.025;  112.525;    0.000
795.943; 7144.025;  128.525;    0.000
796.133; 6753.025;  128.525;    0.000
796.323; 6415.025;  152.525;    0.000
796.513; 6134.025;  123.525;    0.000
796.703; 6115.025;  134.525;    0.000
796.893; 5934.025;  120.525;    0.000
797.083; 5903.025;  136.525;    0.000
797.273; 5662.025;  128.525;    0.000
797.463; 5551.025;  140.525;    0.000
797.653; 5392.025;   75.525;    0.000
797.843; 5479.025;  114.525;    0.000
798.033; 5464.025;   90.525;    0.000
798.223; 5403.025;  136.525;    0.000
798.413; 5306.025;  164.525;    0.000
798.603; 5240.025;  150.525;    0.000
798.793; 5170.025;  137.525;    0.000
798.983; 5052.025;  119.525;    0.000
799.172; 4960.025;  136.525;    0.000
799.362; 5063.025;  138.525;    0.000
799.552; 5032.025;  123.525;    0.000
799.742; 5067.025;  117.525;    0.000
799.932; 4888.025;  108.525;    0.000
800.121; 4954.025;  152.525;    0.000
800.311; 4974.025;  117.525;    0.000
800.501; 4822.025;  100.525;    0.000
800.690; 4882.025;  139.525;    0.000
800.880; 4762.025;  138.525;    0.000
801.070; 4837.025;  120.525;    0.000
801.259; 4793.025;  143.525;    0.000
801.449; 4797.025;  110.525;    0.000
801.638; 4845.025;  140.525;    0.000
801.828; 4751.025;  103.525;    0.000
802.017; 4681.025;   78.525;    0.000
802.207; 4667.025;  126.525;    0.000
802.396; 4671.025;  151.525;    0.000
802.586; 4753.025;  106.525;    0.000
802.775; 4636.025;  152.525;    0.000
802.965; 4741.025;  117.525;    0.000
803.154; 4702.025;  171.525;    0.000
803.343; 4560.025;  126.525;    0.000
803.533; 4685.025;  135.525;    0.000
803.722; 4660.025;  144.525;    0.000
803.911; 4579.025;  109.525;    0.000
804.101; 4579.025;  146.525;    0.000
804.290; 4574.025;  115.525;    0.000
804.479; 4621.025;  128.525;    0.000
804.668; 4610.025;  156.525;    0.000
804.857; 4568.025;  151.525;    0.000
805.047; 4556.025;  131.525;    0.000
805.236; 4647.025;  144.525;    0.000
805.425; 4579.025;  160.525;    0.000
805.614; 4571.025;  112.525;    0.000
805.803; 4596.025;  120.525;    0.000
805.992; 4522.025;  148.525;    0.000
806.181; 4664.025;  108.525;    0.000
806.370; 4582.025;  142.525;    0.000
806.559; 4704.025;  116.525;    0.000
806.748; 4632.025;  108.525;    0.000
806.937; 4595.025;  110.525;    0.000
807.126; 4558.025;  126.525;    0.000
807.315; 4615.025;  121.525;    0.000
807.504; 4492.025;  102.525;    0.000
807.693; 4644.025;  134.525;    0.000
807.882; 4502.025;  135.525;    0.000
808.071; 4631.025;  135.525;    0.000
808.260; 4546.025;   93.525;    0.000
808.448; 4538.025;  151.525;    0.000
808.637; 4558.025;  105.525;    0.000
808.826; 4625.025;  178.525;    0.000
809.015; 4658.025;  152.525;    0.000
809.203; 4793.025;  147.525;    0.000
809.392; 4681.025;  144.525;    0.000
809.581; 4839.025;  167.525;    0.000
809.770; 4623.025;  151.525;    0.000
809.958; 4763.025;  128.525;    0.000
810.147; 4773.025;  152.525;    0.000
810.335; 4883.025;  160.525;    0.000
810.524; 4886.025;  130.525;    0.000
810.713; 4830.025;  128.525;    0.000
810.901; 4852.025;  140.525;    0.000
811.090; 4965.025;  152.525;    0.000
811.278; 4862.025;  126.525;    0.000
811.467; 5139.025;  161.525;    0.000
811.655; 5127.025;  184.525;    0.000
811.844; 5158.025;  148.525;    0.000
812.032; 5101.025;  138.525;    0.000
812.220; 5055.025;  157.525;    0.000
812.409; 5134.025;  143.525;    0.000
812.597; 5152.025;  124.525;    0.000
812.785; 5217.025;  170.525;    0.000
812.974; 5203.025;  135.525;    0.000
813.162; 5324.025;  135.525;    0.000
813.350; 5319.025;  182.525;    0.000
813.539; 5308.025;  126.525;    0.000
813.727; 5377.025;  127.525;    0.000
813.915; 5362.025;  140.525;    0.000
814.103; 5490.025;  176.525;    0.000
814.291; 5386.025;  115.525;    0.000
814.479; 5604.025;  119.525;    0.000
814.668; 5633.025;  134.525;    0.000
814.856; 5679.025;  120.525;    0.000
815.044; 5863.025;  164.525;    0.000
815.232; 6091.025;  146.525;    0.000
815.420; 6040.025;  154.525;    0.000
815.608; 6083.025;  137.525;    0.000
815.796; 6190.025;  108.525;    0.000
815.984; 6284.025;  134.525;    0.000
816.172; 6690.025;  123.525;    0.000
816.360; 6744.025;  181.525;    0.000
816.548; 6888.025;  139.525;    0.000
816.736; 7217.025;  138.525;    0.000
816.924; 7506.025;  151.525;    0.000
817.111; 8005.025;  156.525;    0.000
817.299; 8256.025;  147.525;    0.000
817.487; 9102.025;  188.525;    0.000
817.675;10083.025;  129.525;    0.000
817.863;11597.025;  128.525;    0.000
818.050;15777.025;  110.525;    0.000
818.238;26898.025;  166.525;    0.000
818.426;36971.023;  136.525;    0.000
818.613;27246.025;  143.525;    0.000
818.801;23055.025;  150.525;    0.000
818.989;22025.025;  179.525;    0.000
819.176;23547.025;  123.525;    0.000
819.364;32898.023;  148.525;    0.000
819.552;44823.023;   86.525;    0.000
819.739;33692.023;  169.525;    0.000
819.927;24937.025;  130.525;    0.000
820.114;20704.025;  144.525;    0.000
820.302;18493.025;  166.525;    0.000
820.489;16698.025;  145.525;    0.000
820.677;15548.025;  101.525;    0.000
820.864;14991.025;  149.525;    0.000
821.052;14862.025;  130.525;    0.000
821.239;15377.025;  147.525;    0.000
821.426;15981.025;  121.525;    0.000
821.614;18520.025;  187.525;    0.000
821.801;19622.025;  105.525;    0.000
821.988;17057.025;  167.525;    0.000
822.176;16619.025;  130.525;    0.000
822.363;16609.025;  143.525;    0.000
822.550;15262.025;  108.525;    0.000
822.737;13631.025;  109.525;    0.000
822.924;12761.025;  156.525;    0.000
823.112;12146.025;  123.525;    0.000
823.299;11389.025;  128.525;    0.000
823.486;10721.025;  138.525;    0.000
823.673;10258.025;  125.525;    0.000
823.860;10011.025;  138.525;    0.000
824.047;10043.025;  122.525;    0.000
824.234;11143.025;  134.525;    0.000
824.421;10985.025;   95.525;    0.000
824.608; 9799.025;  151.525;    0.000
824.795; 8896.025;  117.525;    0.000
824.982; 8374.025;  143.525;    0.000
825.169; 7876.025;   83.525;    0.000
825.356; 7657.025;  126.525;    0.000
825.543; 7266.025;   92.525;    0.000
825.730; 6978.025;  113.525;    0.000
825.917; 6755.025;  142.525;    0.000
826.104; 6536.025;  182.525;    0.000
826.290; 6331.025;  137.525;    0.000
826.477; 6179.025;  126.525;    0.000
826.664; 6031.025;  135.525;    0.000
826.851; 6000.025;  139.525;    0.000
827.038; 5692.025;  135.525;    0.000
827.224; 5604.025;  143.525;    0.000
827.411; 5558.025;  153.525;    0.000
827.598; 5580.025;  122.525;    0.000
827.784; 5356.025;  138.525;    0.000
827.971; 5214.025;  134.525;    0.000
828.157; 5258.025;  152.525;    0.000
828.344; 5057.025;  135.525;    0.000
828.531; 4950.025;  137.525;    0.000
828.717; 4976.025;  117.525;    0.000
828.904; 4859.025;  127.525;    0.000
829.090; 4887.025;  172.525;    0.000
829.277; 4727.025;  144.525;    0.000
829.463; 4713.025;  159.525;    0.000
829.650; 4680.025;  187.525;    0.000
829.836; 4538.025;  138.525;    0.000
830.022; 4630.025;  196.525;    0.000
830.209; 4594.025;  118.525;    0.000
830.395; 4457.025;  148.525;    0.000
830.581; 4504.025;  108.525;    0.000
830.768; 4379.025;  137.525;    0.000
830.954; 4315.025;  162.525;    0.000
831.140; 4419.025;  117.525;    0.000
831.327; 4271.025;  176.525;    0.000
831.513; 4250.025;  162.525;    0.000
831.699; 4200.025;  157.525;    0.000
831.885; 4092.025;  153.525;    0.000
832.071; 4152.025;  123.525;    0.000
832.257; 3986.025;  142.525;    0.000
832.444; 4085.025;  165.525;    0.000
832.630; 4032.025;  159.525;    0.000
832.816; 4070.025;  145.525;    0.000
833.002; 4014.025;  120.525;    0.000
833.188; 3985.025;  145.525;    0.000
833.374; 3931.025;  137.525;    0.000
833.560; 3998.025;  152.525;    0.000
833.746; 3891.025;  139.525;    0.000
833.932; 3869.025;  170.525;    0.000
834.118; 3803.025;  111.525;    0.000
834.303; 3778.025;  141.525;    0.000
834.489; 3751.025;  146.525;    0.000
834.675; 3834.025;  156.525;    0.000
834.861; 3725.025;   87.525;    0.000
835.047; 3734.025;  134.525;    0.000
835.233; 3723.025;   89.525;    0.000
835.418; 3604.025;  145.525;    0.000
835.604; 3657.025;  136.525;    0.000
835.790; 3663.025;  132.525;    0.000
835.976; 3595.025;  161.525;    0.000
836.161; 3626.025;  157.525;    0.000
836.347; 3514.025;  147.525;    0.000
836.533; 3617.025;  116.525;    0.000
836.718; 3624.025;  168.525;    0.000
836.904; 3596.025;  199.525;    0.000
837.089; 3635.025;  165.525;    0.000
837.275; 3573.025;  166.525;    0.000
837.460; 3581.025;  144.525;    0.000
837.646; 3604.025;  164.525;    0.000
837.831; 3590.025;  122.525;    0.000
838.017; 3730.025;  163.525;    0.000
838.202; 3577.025;  139.525;    0.000
838.388; 3597.025;  174.525;    0.000
838.573; 3602.025;  140.525;    0.000
838.759; 3541.025;  167.525;    0.000
838.944; 3543.025;  142.525;    0.000
839.129; 3469.025;  164.525;    0.000
839.315; 3553.025;  129.525;    0.000
839.500; 3625.025;  150.525;    0.000
839.685; 3583.025;  118.525;    0.000
839.870; 3556.025;  177.525;    0.000
840.056; 3679.025;  144.525;    0.000
840.241; 3619.025;  121.525;    0.000
840.426; 3625.025;  131.525;    0.000
840.611; 3738.025;  177.525;    0.000
840.796; 3698.025;  173.525;    0.000
840.981; 3638.025;  156.525;    0.000
841.166; 3714.025;  145.525;    0.000
841.352; 3649.025;  150.525;    0.000
841.537; 3717.025;  143.525;    0.000
841.722; 3843.025;  165.525;    0.000
841.907; 3867.025;  184.525;    0.000
842.092; 3867.025;  171.525;    0.000
842.277; 3873.025;  155.525;    0.000
842.461; 4015.025;  152.525;    0.000
842.646; 4024.025;  107.525;    0.000
842.831; 4060.025;  160.525;    0.000
843.016; 4274.025;  160.525;    0.000
843.201; 4303.025;  164.525;    0.000
843.386; 4568.025;  134.525;    0.000
843.571; 4686.025;  132.525;    0.000
843.755; 5042.025;  158.525;    0.000
843.940; 5441.025;  152.525;    0.000
844.125; 6042.025;  154.525;    0.000
844.310; 7260.025;  147.525;    0.000
844.494; 9653.025;  158.525;    0.000
844.679;13689.025;  173.525;    0.000
844.864;13289.025;  152.525;    0.000
845.048;10571.025;  139.525;    0.000
845.233; 8760.025;  200.525;    0.000
845.418; 7555.025;  139.525;    0.000
845.602; 6703.025;  147.525;    0.000
845.787; 6125.025;  148.525;    0.000
845.971; 5662.025;  170.525;    0.000
846.156; 5174.025;  136.525;    0.000
846.340; 4966.025;  146.525;    0.000
846.525; 4724.025;  188.525;    0.000
846.709; 4579.025;  128.525;    0.000
846.893; 4297.025;  151.525;    0.000
847.078; 4197.025;  164.525;    0.000
847.262; 4115.025;  155.525;    0.000
847.447; 3880.025;  114.525;    0.000
847.631; 3836.025;  148.525;    0.000
847.815; 3789.025;  114.525;    0.000
848.000; 3693.025;  134.525;    0.000
848.184; 3676.025;  154.525;    0.000
848.368; 3614.025;  145.525;    0.000
848.552; 3428.025;  122.525;    0.000
848.736; 3559.025;  139.525;    0.000
848.921; 3629.025;  143.525;    0.000
849.105; 3502.025;  145.525;    0.000
849.289; 3421.025;  173.525;    0.000
849.473; 3330.025;  147.525;    0.000
849.657; 3320.025;  144.525;    0.000
849.841; 3333.025;  168.525;    0.000
850.025; 3233.025;  205.525;    0.000
850.209; 3149.025;  171.525;    0.000
850.393; 3195.025;  130.525;    0.000
850.577; 3162.025;  146.525;    0.000
850.761; 3185.025;  188.525;    0.000
850.945; 3211.025;  137.525;    0.000
851.129; 3137.025;  192.525;    0.000
851.313; 3164.025;  199.525;    0.000
851.497; 3225.025;  165.525;    0.000
851.680; 3069.025;  196.525;    0.000
851.864; 3070.025;  169.525;    0.000
852.048; 3021.025;  156.525;    0.000
852.232; 3096.025;  150.525;    0.000
852.416; 3183.025;  219.525;    0.000
852.599; 3053.025;  168.525;    0.000
852.783; 3179.025;  165.525;    0.000
852.967; 3087.025;  166.525;    0.000
853.150; 3038.025;  191.525;    0.000
853.334; 3002.025;  158.525;    0.000
853.518; 3047.025;  168.525;    0.000
853.701; 2974.025;  125.525;    0.000
853.885; 3024.025;  165.525;    0.000
854.068; 2995.025;  142.525;    0.000
854.252; 2985.025;  167.525;    0.000
854.435; 3054.025;  146.525;    0.000
854.619; 3079.025;  163.525;    0.000
854.802; 2952.025;  167.525;    0.000
854.986; 2996.025;  163.525;    0.000
855.169; 2955.025;  146.525;    0.000
855.353; 3097.025;  183.525;    0.000
855.536; 3030.025;  140.525;    0.000
855.719; 3096.025;  168.525;    0.000
855.903; 3042.025;  170.525;    0.000
856.086; 3096.025;  145.525;    0.000
856.269; 3093.025;  126.525;    0.000
856.452; 3145.025;  142.525;    0.000
856.636; 3236.025;  140.525;    0.000
856.819; 3575.025;  127.525;    0.000
857.002; 3508.025;  165.525;    0.000
857.185; 3399.025;  111.525;    0.000
857.368; 3393.025;  143.525;    0.000
857.552; 3308.025;  174.525;    0.000
857.735; 3276.025;  194.525;    0.000
857.918; 3310.025;  171.525;    0.000
858.101; 3212.025;  142.525;    0.000
858.284; 3343.025;  118.525;    0.000
858.467; 3334.025;  163.525;    0.000
858.650; 3392.025;  149.525;    0.000
858.833; 3393.025;  120.525;    0.000
859.016; 3458.025;  169.525;    0.000
859.199; 3488.025;  121.525;    0.000
859.382; 4041.025;  184.525;    0.000
859.564; 4266.025;  139.525;    0.000
859.747; 4219.025;  126.525;    0.000
859.930; 3971.025;  109.525;    0.000
860.113; 3730.025;  137.525;    0.000
860.296; 3721.025;  182.525;    0.000
860.478; 3519.025;  136.525;    0.000
860.661; 3716.025;  157.525;    0.000
860.844; 3582.025;  129.525;    0.000
861.027; 3477.025;  163.525;    0.000
861.209; 3459.025;  151.525;    0.000
861.392; 3618.025;  124.525;    0.000
861.575; 3580.025;  163.525;    0.000
861.757; 3619.025;  205.525;    0.000
861.940; 3607.025;  180.525;    0.000
862.122; 3608.025;  148.525;    0.000
862.305; 3679.025;  128.525;    0.000
862.487; 3852.025;  172.525;    0.000
862.670; 4172.025;  123.525;    0.000
862.852; 4946.025;  126.525;    0.000
863.035; 5980.025;  174.525;    0.000
863.217; 5976.025;  160.525;    0.000
863.400; 5224.025;  164.525;    0.000
863.582; 4952.025;  118.525;    0.000
863.764; 4783.025;  143.525;    0.000
863.947; 4458.025;  137.525;    0.000
864.129; 4308.025;  166.525;    0.000
864.311; 4150.025;  128.525;    0.000
864.493; 4080.025;  153.525;    0.000
864.676; 4050.025;  156.525;    0.000
864.858; 4035.025;  159.525;    0.000
865.040; 4114.025;  163.525;    0.000
865.222; 4075.025;  138.525;    0.000
865.404; 4200.025;  157.525;    0.000
865.587; 4369.025;  184.525;    0.000
865.769; 4592.025;  178.525;    0.000
865.951; 4469.025;  104.525;    0.000
866.133; 4464.025;  147.525;    0.000
866.315; 4440.025;  141.525;    0.000
866.497; 4571.025;  132.525;    0.000
866.679; 4760.025;  139.525;    0.000
866.861; 4725.025;  118.525;    0.000
867.043; 5088.025;  154.525;    0.000
867.225; 5256.025;  147.525;    0.000
867.407; 5738.025;  158.525;    0.000
867.589; 6644.025;  172.525;    0.000
867.770; 8087.025;  159.525;    0.000
867.952;11066.025;  149.525;    0.000
868.134;14516.025;  156.525;    0.000
868.316;14673.025;  171.525;    0.000
868.498;13874.025;  200.525;    0.000
868.679;11818.025;  174.525;    0.000
868.861; 9941.025;  175.525;    0.000
869.043; 8446.025;  174.525;    0.000
869.224; 7345.025;  122.525;    0.000
869.406; 6783.025;  166.525;    0.000
869.588; 6327.025;  143.525;    0.000
869.769; 6031.025;  152.525;    0.000
869.951; 5833.025;  165.525;    0.000
870.132; 5785.025;  115.525;    0.000
870.314; 6472.025;  139.525;    0.000
870.495; 6674.025;  168.525;    0.000
870.677; 6016.025;  188.525;    0.000
870.858; 5837.025;  123.525;    0.000
871.040; 6111.025;  170.525;    0.000
871.221; 6876.025;  148.525;    0.000
871.403; 6551.025;  140.525;    0.000
871.584; 5988.025;  174.525;    0.000
871.765; 6139.025;  168.525;    0.000
871.947; 6616.025;  191.525;    0.000
872.128; 5840.025;  132.525;    0.000
872.309; 5170.025;  140.525;    0.000
872.491; 4692.025;  157.525;    0.000
872.672; 4562.025;  130.525;    0.000
872.853; 4360.025;  148.525;    0.000
873.034; 4160.025;  138.525;    0.000
873.215; 3983.025;  152.525;    0.000
873.396; 3726.025;  149.525;    0.000
873.578; 3697.025;  173.525;    0.000
873.759; 3578.025;  158.525;    0.000
873.940; 3426.025;  147.525;    0.000
874.121; 3338.025;  136.525;    0.000
874.302; 3255.025;  151.525;    0.000
874.483; 3363.025;  137.525;    0.000
874.664; 3333.025;  163.525;    0.000
874.845; 3313.025;  124.525;    0.000
875.026; 3241.025;  134.525;    0.000
875.207; 3096.025;  164.525;    0.000
875.388; 3114.025;  163.525;    0.000
875.568; 3007.025;  176.525;    0.000
875.749; 2975.025;  108.525;    0.000
875.930; 2863.025;  191.525;    0.000
876.111; 2952.025;  170.525;    0.000
876.292; 2909.025;  180.525;    0.000
876.472; 2908.025;  150.525;    0.000
876.653; 2850.025;  162.525;    0.000
876.834; 2774.025;  176.525;    0.000
877.015; 2840.025;  203.525;    0.000
877.195; 2757.025;  178.525;    0.000
877.376; 2786.025;  141.525;    0.000
877.556; 2689.025;  135.525;    0.000
877.737; 2709.025;  174.525;    0.000
877.918; 2720.025;  150.525;    0.000
878.098; 2611.025;  133.525;    0.000
878.279; 2597.025;  129.525;    0.000
878.459; 2585.025;  162.525;    0.000
878.640; 2675.025;  187.525;    0.000
878.820; 2682.025;  151.525;    0.000
879.000; 2574.025;  159.525;    0.000
879.181; 2669.025;  171.525;    0.000
879.361; 2583.025;  167.525;    0.000
879.542; 2542.025;  126.525;    0.000
879.722; 2647.025;  152.525;    0.000
879.902; 2573.025;  144.525;    0.000
880.083; 2655.025;  154.525;    0.000
880.263; 2634.025;  148.525;    0.000
880.443; 2739.025;  185.525;    0.000
880.623; 3018.025;  172.525;    0.000
880.803; 3431.025;  152.525;    0.000
880.984; 3124.025;  165.525;    0.000
881.164; 2887.025;  164.525;    0.000
881.344; 2744.025;  141.525;    0.000
881.524; 2753.025;  160.525;    0.000
881.704; 2840.025;  164.525;    0.000
881.884; 2850.025;  159.525;    0.000
882.064; 3086.025;  158.525;    0.000
882.244; 3100.025;  147.525;    0.000
882.424; 2993.025;  160.525;    0.000
882.604; 2928.025;  150.525;    0.000
882.784; 2803.025;  138.525;    0.000
882.964; 2735.025;  157.525;    0.000
883.144; 2558.025;  128.525;    0.000
883.324; 2625.025;  220.525;    0.000
883.504; 2608.025;  177.525;    0.000
883.683; 2458.025;  159.525;    0.000
883.863; 2462.025;  143.525;    0.000
884.043; 2481.025;  156.525;    0.000
884.223; 2453.025;  152.525;    0.000
884.402; 2454.025;  169.525;    0.000
884.582; 2465.025;  162.525;    0.000
884.762; 2497.025;  172.525;    0.000
884.941; 2495.025;  220.525;    0.000
885.121; 2381.025;  128.525;    0.000
885.301; 2351.025;  141.525;    0.000
885.480; 2429.025;  141.525;    0.000
885.660; 2387.025;  132.525;    0.000
885.839; 2418.025;  146.525;    0.000
886.019; 2419.025;  170.525;    0.000
886.198; 2332.025;  143.525;    0.000
886.378; 2367.025;  159.525;    0.000
886.557; 2298.025;  148.525;    0.000
886.737; 2331.025;  125.525;    0.000
886.916; 2390.025;  177.525;    0.000
887.095; 2370.025;  186.525;    0.000
887.275; 2322.025;  134.525;    0.000
887.454; 2271.025;  148.525;    0.000
887.633; 2320.025;  171.525;    0.000
887.813; 2291.025;  187.525;    0.000
887.992; 2365.025;  157.525;    0.000
888.171; 2331.025;  143.525;    0.000
888.350; 2352.025;  182.525;    0.000
888.530; 2260.025;  142.525;    0.000
888.709; 2284.025;  160.525;    0.000
888.888; 2297.025;  197.525;    0.000
889.067; 2256.025;  126.525;    0.000
889.246; 2326.025;  197.525;    0.000
889.425; 2290.025;  161.525;    0.000
889.604; 2302.025;  180.525;    0.000
889.783; 2321.025;  135.525;    0.000
889.962; 2206.025;  107.525;    0.000
890.141; 2267.025;  167.525;    0.000
890.320; 2265.025;  149.525;    0.000
890.499; 2245.025;  194.525;    0.000
890.678; 2223.025;  138.525;    0.000
890.857; 2185.025;  146.525;    0.000
891.036; 2296.025;  178.525;    0.000
891.214; 2185.025;  151.525;    0.000
891.393; 2225.025;  137.525;    0.000
891.572; 2202.025;  177.525;    0.000
891.751; 2341.025;  149.525;    0.000
891.930; 2266.025;  189.525;    0.000
892.108; 2163.025;  136.525;    0.000
892.287; 2271.025;  129.525;    0.000
892.466; 2197.025;  163.525;    0.000
892.644; 2291.025;  147.525;    0.000
892.823; 2233.025;  127.525;    0.000
893.001; 2324.025;  192.525;    0.000
893.180; 2234.025;  157.525;    0.000
893.359; 2255.025;  176.525;    0.000
893.537; 2242.025;  146.525;    0.000
893.716; 2187.025;  154.525;    0.000
893.894; 2356.025;  166.525;    0.000
894.073; 2285.025;  163.525;    0.000
894.251; 2292.025;  166.525;    0.000
894.429; 2199.025;  149.525;    0.000
894.608; 2272.025;  141.525;    0.000
894.786; 2236.025;  139.525;    0.000
894.964; 2301.025;  180.525;    0.000
895.143; 2274.025;  193.525;    0.000
895.321; 2284.025;  163.525;    0.000
895.499; 2218.025;  163.525;    0.000
895.677; 2236.025;  194.525;    0.000
895.856; 2235.025;  176.525;    0.000
896.034; 2325.025;  173.525;    0.000
896.212; 2262.025;  180.525;    0.000
896.390; 2243.025;  146.525;    0.000
896.568; 2260.025;  167.525;    0.000
896.746; 2318.025;  158.525;    0.000
896.924; 2337.025;  163.525;    0.000
897.102; 2385.025;  170.525;    0.000
897.280; 2230.025;  159.525;    0.000
897.458; 2222.025;  182.525;    0.000
897.636; 2309.025;  151.525;    0.000
897.814; 2223.025;  130.525;    0.000
897.992; 2387.025;  213.525;    0.000
898.170; 2303.025;  164.525;    0.000
898.348; 2267.025;  159.525;    0.000
898.526; 2229.025;  182.525;    0.000
898.704; 2448.025;  209.525;    0.000
898.882; 2270.025;  145.525;    0.000
899.059; 2362.025;  172.525;    0.000
899.237; 2324.025;  172.525;    0.000
899.415; 2395.025;  211.525;    0.000
899.593; 2330.025;  151.525;    0.000
899.770; 2319.025;  147.525;    0.000
899.948; 2399.025;  218.525;    0.000
900.125; 2406.025;  166.525;    0.000
900.303; 2316.025;  146.525;    0.000
900.481; 2309.025;  174.525;    0.000
900.658; 2380.025;  198.525;    0.000
900.836; 2414.025;  125.525;    0.000
901.013; 2417.025;  197.525;    0.000
901.191; 2460.025;  181.525;    0.000
901.368; 2471.025;  185.525;    0.000
901.546; 2504.025;  197.525;    0.000
901.723; 2565.025;  205.525;    0.000
901.901; 2453.025;  187.525;    0.000
902.078; 2678.025;  163.525;    0.000
902.255; 2752.025;  141.525;    0.000
902.433; 2682.025;  183.525;    0.000
902.610; 2659.025;  181.525;    0.000
902.787; 2753.025;  174.525;    0.000
902.964; 2779.025;  174.525;    0.000
903.142; 2808.025;  141.525;    0.000
903.319; 2905.025;  214.525;    0.000
903.496; 2796.025;  187.525;    0.000
903.673; 2975.025;  183.525;    0.000
903.850; 2964.025;  125.525;    0.000
904.027; 3092.025;  197.525;    0.000
904.204; 3303.025;  197.525;    0.000
904.381; 3406.025;  196.525;    0.000
904.558; 3910.025;  176.525;    0.000
904.735; 4458.025;  179.525;    0.000
904.912; 4416.025;  203.525;    0.000
905.089; 4552.025;  159.525;    0.000
905.266; 4173.025;  176.525;    0.000
905.443; 3849.025;  184.525;    0.000
905.620; 3637.025;  168.525;    0.000
905.797; 3434.025;  214.525;    0.000
905.974; 3386.025;  154.525;    0.000
906.151; 3353.025;  132.525;    0.000
906.327; 3275.025;  192.525;    0.000
906.504; 3261.025;  186.525;    0.000
906.681; 3157.025;  171.525;    0.000
906.858; 3093.025;  181.525;    0.000
907.034; 3035.025;  164.525;    0.000
907.211; 2972.025;  184.525;    0.000
907.388; 2975.025;  177.525;    0.000
907.564; 2835.025;  150.525;    0.000
907.741; 2773.025;  195.525;    0.000
907.917; 2752.025;  190.525;    0.000
908.094; 2724.025;  214.525;    0.000
908.271; 2678.025;  173.525;    0.000
908.447; 2654.025;  229.525;    0.000
908.623; 2649.025;  162.525;    0.000
908.800; 2590.025;  195.525;    0.000
908.976; 2638.025;  171.525;    0.000
909.153; 2599.025;  167.525;    0.000
909.329; 2533.025;  227.525;    0.000
909.505; 2493.025;  167.525;    0.000
909.682; 2503.025;  174.525;    0.000
909.858; 2427.025;  158.525;    0.000
910.034; 2504.025;  188.525;    0.000
910.211; 2505.025;  158.525;    0.000
910.387; 2447.025;  208.525;    0.000
910.563; 2488.025;  203.525;    0.000
910.739; 2502.025;  201.525;    0.000
910.915; 2450.025;  170.525;    0.000
911.091; 2509.025;  171.525;    0.000
911.268; 2438.025;  220.525;    0.000
911.444; 2360.025;  202.525;    0.000
911.620; 2369.025;  175.525;    0.000
911.796; 2495.025;  175.525;    0.000
911.972; 2419.025;  164.525;    0.000
912.148; 2415.025;  174.525;    0.000
912.324; 2374.025;  155.525;    0.000
912.500; 2421.025;  156.525;    0.000
912.676; 2376.025;  138.525;    0.000
912.851; 2408.025;  158.525;    0.000
913.027; 2422.025;  161.525;    0.000
913.203; 2351.025;  168.525;    0.000
913.379; 2335.025;  172.525;    0.000
913.555; 2364.025;  193.525;    0.000
913.730; 2326.025;  149.525;    0.000
913.906; 2393.025;  159.525;    0.000
914.082; 2442.025;  184.525;    0.000
914.258; 2392.025;  194.525;    0.000
914.433; 2288.025;  175.525;    0.000
914.609; 2351.025;  175.525;    0.000
914.784; 2321.025;  170.525;    0.000
914.960; 2505.025;  212.525;    0.000
915.136; 2308.025;  157.525;    0.000
915.311; 2442.025;  204.525;    0.000
915.487; 2372.025;  180.525;    0.000
915.662; 2433.025;  203.525;    0.000
915.838; 2355.025;  194.525;    0.000
916.013; 2414.025;  217.525;    0.000
916.189; 2461.025;  196.525;    0.000
916.364; 2390.025;  236.525;    0.000
916.539; 2403.025;  192.525;    0.000
916.715; 2502.025;  181.525;    0.000
916.890; 2459.025;  185.525;    0.000
917.065; 2391.025;  166.525;    0.000
917.240; 2403.025;  182.525;    0.000
917.416; 2434.025;  188.525;    0.000
917.591; 2277.025;  185.525;    0.000
917.766; 2446.025;  187.525;    0.000
917.941; 2402.025;  181.525;    0.000
918.116; 2402.025;  207.525;    0.000
918.292; 2481.025;  140.525;    0.000
918.467; 2477.025;  187.525;    0.000
918.642; 2381.025;  208.525;    0.000
918.817; 2453.025;  203.525;    0.000
918.992; 2339.025;  162.525;    0.000
919.167; 2451.025;  206.525;    0.000
919.342; 2405.025;  188.525;    0.000
919.517; 2493.025;  190.525;    0.000
919.692; 2433.025;  174.525;    0.000
919.867; 2518.025;  181.525;    0.000
920.041; 2544.025;  179.525;    0.000
920.216; 2569.025;  186.525;    0.000
920.391; 2677.025;  209.525;    0.000
920.566; 2635.025;  205.525;    0.000
920.741; 2673.025;  205.525;    0.000
920.915; 2844.025;  206.525;    0.000
921.090; 3125.025;  219.525;    0.000
921.265; 3485.025;  185.525;    0.000
921.439; 3982.025;  171.525;    0.000
921.614; 3565.025;  197.525;    0.000
921.789; 3188.025;  189.525;    0.000
921.963; 3223.025;  210.525;    0.000
922.138; 3015.025;  171.525;    0.000
922.312; 2931.025;  194.525;    0.000
922.487; 2907.025;  231.525;    0.000
922.661; 3136.025;  179.525;    0.000
922.836; 3550.025;  213.525;    0.000
923.010; 3526.025;  182.525;    0.000
923.185; 3248.025;  239.525;    0.000
923.359; 3042.025;  200.525;    0.000
923.534; 3054.025;  232.525;    0.000
923.708; 3215.025;  221.525;    0.000
923.882; 3401.025;  193.525;    0.000
924.057; 3284.025;  204.525;    0.000
924.231; 3079.025;  172.525;    0.000
924.405; 2975.025;  202.525;    0.000
924.579; 2960.025;  207.525;    0.000
924.753; 2957.025;  167.525;    0.000
924.928; 2858.025;  202.525;    0.000
925.102; 2948.025;  200.525;    0.000
925.276; 2890.025;  185.525;    0.000
925.450; 3040.025;  170.525;    0.000
925.624; 3005.025;  176.525;    0.000
925.798; 3101.025;  221.525;    0.000
925.972; 3278.025;  162.525;    0.000
926.146; 3499.025;  207.525;    0.000
926.320; 3704.025;  185.525;    0.000
926.494; 4071.025;  192.525;    0.000
926.668; 4213.025;  179.525;    0.000
926.842; 4333.025;  181.525;    0.000
927.016; 4400.025;  224.525;    0.000
927.190; 4176.025;  193.525;    0.000
927.363; 4144.025;  194.525;    0.000
927.537; 3975.025;  210.525;    0.000
927.711; 3891.025;  153.525;    0.000
927.885; 3834.025;  184.525;    0.000
928.058; 3688.025;  197.525;    0.000
928.232; 3650.025;  219.525;    0.000
928.406; 3524.025;  175.525;    0.000
928.579; 3418.025;  179.525;    0.000
928.753; 3421.025;  208.525;    0.000
928.927; 3240.025;  163.525;    0.000
929.100; 3283.025;  138.525;    0.000
929.274; 3126.025;  160.525;    0.000
929.447; 3161.025;  152.525;    0.000
929.621; 3151.025;  168.525;    0.000
929.794; 3026.025;  152.525;    0.000
929.968; 2946.025;  163.525;    0.000
930.141; 2993.025;  164.525;    0.000
930.315; 2901.025;  170.525;    0.000
930.488; 2906.025;  216.525;    0.000
930.661; 2805.025;  184.525;    0.000
930.835; 2815.025;  156.525;    0.000
931.008; 2705.025;  206.525;    0.000
931.181; 2833.025;  163.525;    0.000
931.354; 2747.025;  198.525;    0.000
931.528; 2679.025;  156.525;    0.000
931.701; 2610.025;  170.525;    0.000
931.874; 2595.025;  167.525;    0.000
932.047; 2561.025;  146.525;    0.000
932.220; 2606.025;  159.525;    0.000
932.393; 2626.025;  186.525;    0.000
932.566; 2459.025;  147.525;    0.000
932.739; 2536.025;  192.525;    0.000
932.912; 2537.025;  197.525;    0.000
933.085; 2459.025;  176.525;    0.000
933.258; 2505.025;  171.525;    0.000
933.431; 2440.025;  150.525;    0.000
933.604; 2580.025;  176.525;    0.000
933.777; 2451.025;  215.525;    0.000
933.950; 2474.025;  164.525;    0.000
934.123; 2487.025;  174.525;    0.000
934.296; 2440.025;  203.525;    0.000
934.468; 2404.025;  208.525;    0.000
934.641; 2326.025;  182.525;    0.000
934.814; 2435.025;  170.525;    0.000
934.987; 2460.025;  183.525;    0.000
935.159; 2484.025;  154.525;    0.000
935.332; 2474.025;  178.525;    0.000
935.505; 2371.025;  213.525;    0.000
935.677; 2344.025;  173.525;    0.000
935.850; 2302.025;  190.525;    0.000
936.022; 2428.025;  205.525;    0.000
936.195; 2369.025;  201.525;    0.000
936.367; 2458.025;  189.525;    0.000
936.540; 2474.025;  179.525;    0.000
936.712; 2439.025;  195.525;    0.000
936.885; 2568.025;  207.525;    0.000
937.057; 2493.025;  163.525;    0.000
937.229; 2453.025;  175.525;    0.000
937.402; 2551.025;  168.525;    0.000
937.574; 2574.025;  136.525;    0.000
937.746; 2650.025;  166.525;    0.000
937.919; 2703.025;  178.525;    0.000
938.091; 2759.025;  192.525;    0.000
938.263; 2918.025;  164.525;    0.000
938.435; 3173.025;  204.525;    0.000
938.608; 3759.025;  153.525;    0.000
938.780; 4292.025;  159.525;    0.000
938.952; 4394.025;  160.525;    0.000
939.124; 4381.025;  156.525;    0.000
939.296; 5139.025;  110.525;    0.000
939.468; 5188.025;  135.525;    0.000
939.640; 4504.025;  144.525;    0.000
939.812; 4131.025;  232.525;    0.000
939.984; 3705.025;  128.525;    0.000
940.156; 3464.025;  195.525;    0.000
940.328; 3386.025;  226.525;    0.000
940.500; 3134.025;  146.525;    0.000
940.672; 2970.025;  190.525;    0.000
940.843; 2875.025;  156.525;    0.000
941.015; 2838.025;  200.525;    0.000
941.187; 2823.025;  159.525;    0.000
941.359; 2715.025;  183.525;    0.000
941.531; 2683.025;  137.525;    0.000
941.702; 2596.025;  186.525;    0.000
941.874; 2589.025;  164.525;    0.000
942.046; 2648.025;  202.525;    0.000
942.217; 2514.025;  146.525;    0.000
942.389; 2588.025;  165.525;    0.000
942.560; 2514.025;  191.525;    0.000
942.732; 2411.025;  240.525;    0.000
942.904; 2394.025;  173.525;    0.000
943.075; 2335.025;  157.525;    0.000
943.247; 2314.025;  155.525;    0.000
943.418; 2237.025;  164.525;    0.000
943.589; 2264.025;  150.525;    0.000
943.761; 2333.025;  143.525;    0.000
943.932; 2344.025;  151.525;    0.000
944.104; 2257.025;  194.525;    0.000
944.275; 2227.025;  154.525;    0.000
944.446; 2282.025;  169.525;    0.000
944.617; 2153.025;  138.525;    0.000
944.789; 2208.025;  158.525;    0.000
944.960; 2197.025;  197.525;    0.000
945.131; 2200.025;  139.525;    0.000
945.302; 2241.025;  169.525;    0.000
945.473; 2227.025;  149.525;    0.000
945.645; 2202.025;  171.525;    0.000
945.816; 2139.025;  167.525;    0.000
945.987; 2242.025;  156.525;    0.000
946.158; 2289.025;  185.525;    0.000
946.329; 2350.025;  201.525;    0.000
946.500; 2201.025;  182.525;    0.000
946.671; 2166.025;  156.525;    0.000
946.842; 2189.025;  190.525;    0.000
947.013; 2133.025;  159.525;    0.000
947.183; 2131.025;  209.525;    0.000
947.354; 2143.025;  171.525;    0.000
947.525; 2075.025;  180.525;    0.000
947.696; 2069.025;  163.525;    0.000
947.867; 2193.025;  168.525;    0.000
948.037; 2050.025;  153.525;    0.000
948.208; 2090.025;  178.525;    0.000
948.379; 2152.025;  192.525;    0.000
948.550; 2083.025;  180.525;    0.000
948.720; 2099.025;  196.525;    0.000
948.891; 2117.025;  173.525;    0.000
949.061; 2077.025;  207.525;    0.000
949.232; 2074.025;  176.525;    0.000
949.403; 2050.025;  152.525;    0.000
949.573; 2026.025;  186.525;    0.000
949.744; 2001.025;  181.525;    0.000
949.914; 2091.025;  174.525;    0.000
950.085; 2049.025;  146.525;    0.000
950.255; 1947.025;  162.525;    0.000
950.425; 2047.025;  189.525;    0.000
950.596; 2055.025;  175.525;    0.000
950.766; 2076.025;  209.525;    0.000
950.936; 2065.025;  201.525;    0.000
951.107; 1998.025;  141.525;    0.000
951.277; 2054.025;  211.525;    0.000
951.447; 2018.025;  218.525;    0.000
951.617; 2002.025;  191.525;    0.000
951.788; 2013.025;  193.525;    0.000
951.958; 2015.025;  217.525;    0.000
952.128; 1945.025;  192.525;    0.000
952.298; 1953.025;  237.525;    0.000
952.468; 1997.025;  194.525;    0.000
952.638; 1941.025;  201.525;    0.000
952.808; 1974.025;  203.525;    0.000
952.978; 1985.025;  216.525;    0.000
953.148; 1939.025;  209.525;    0.000
953.318; 1899.025;  213.525;    0.000
953.488; 2011.025;  161.525;    0.000
953.658; 2017.025;  222.525;    0.000
953.828; 1939.025;  196.525;    0.000
953.998; 1942.025;  227.525;    0.000
954.167; 1864.025;  163.525;    0.000
954.337; 1938.025;  201.525;    0.000
954.507; 1875.025;  227.525;    0.000
954.677; 1938.025;  204.525;    0.000
954.846; 1897.025;  210.525;    0.000
955.016; 1854.025;  198.525;    0.000
955.186; 1887.025;  203.525;    0.000
955.355; 1884.025;  198.525;    0.000
955.525; 1875.025;  198.525;    0.000
955.695; 1817.025;  187.525;    0.000
955.864; 1979.025;  243.525;    0.000
956.034; 1824.025;  192.525;    0.000
956.203; 1918.025;  259.525;    0.000
956.373; 1880.025;  185.525;    0.000
956.542; 1907.025;  230.525;    0.000
956.711; 1816.025;  218.525;    0.000
956.881; 1778.025;  232.525;    0.000
957.050; 1829.025;  246.525;    0.000
957.220; 1870.025;  229.525;    0.000
957.389; 1818.025;  211.525;    0.000
957.558; 1812.025;  173.525;    0.000
957.727; 1841.025;  226.525;    0.000
957.897; 1853.025;  209.525;    0.000
958.066; 1785.025;  217.525;    0.000
958.235; 1817.025;  160.525;    0.000
958.404; 1818.025;  199.525;    0.000
958.573; 1891.025;  223.525;    0.000
958.743; 1813.025;  189.525;    0.000
958.912; 1729.025;  199.525;    0.000
959.081; 1797.025;  216.525;    0.000
959.250; 1757.025;  192.525;    0.000
959.419; 1786.025;  216.525;    0.000
959.588; 1867.025;  209.525;    0.000
959.757; 1775.025;  194.525;    0.000
959.926; 1843.025;  200.525;    0.000
960.094; 1767.025;  174.525;    0.000
960.263; 1711.025;  218.525;    0.000
960.432; 1694.025;  173.525;    0.000
960.601; 1734.025;  177.525;    0.000
960.770; 1754.025;  188.525;    0.000
960.939; 1758.025;  167.525;    0.000
961.107; 1624.025;  195.525;    0.000
961.276; 1697.025;  183.525;    0.000
961.445; 1723.025;  195.525;    0.000
961.613; 1707.025;  198.525;    0.000
961.782; 1777.025;  224.525;    0.000
961.951; 1688.025;  178.525;    0.000
962.119; 1743.025;  214.525;    0.000
962.288; 1686.025;  174.525;    0.000
962.456; 1668.025;  197.525;    0.000
962.625; 1791.025;  212.525;    0.000
962.793; 1690.025;  183.525;    0.000
962.962; 1700.025;  189.525;    0.000
963.130; 1683.025;  151.525;    0.000
963.298; 1774.025;  197.525;    0.000
963.467; 1734.025;  202.525;    0.000
963.635; 1729.025;  172.525;    0.000
963.803; 1640.025;  203.525;    0.000
963.972; 1692.025;  204.525;    0.000
964.140; 1765.025;  193.525;    0.000
964.308; 1673.025;  159.525;    0.000
964.477; 1669.025;  142.525;    0.000
964.645; 1688.025;  202.525;    0.000
964.813; 1758.025;  158.525;    0.000
964.981; 1695.025;  179.525;    0.000
965.149; 1801.025;  176.525;    0.000
965.317; 1715.025;  229.525;    0.000
965.485; 1684.025;  179.525;    0.000
965.653; 1719.025;  205.525;    0.000
965.821; 1672.025;  196.525;    0.000
965.989; 1743.025;  202.525;    0.000
966.157; 1664.025;  199.525;    0.000
966.325; 1684.025;  178.525;    0.000
966.493; 1752.025;  177.525;    0.000
966.661; 1652.025;  172.525;    0.000
966.829; 1700.025;  167.525;    0.000
966.996; 1672.025;  202.525;    0.000
967.164; 1714.025;  175.525;    0.000
967.332; 1686.025;  207.525;    0.000
967.500; 1754.025;  170.525;    0.000
967.667; 1734.025;  222.525;    0.000
967.835; 1760.025;  245.525;    0.000
968.003; 1793.025;  180.525;    0.000
968.170; 1737.025;  222.525;    0.000
968.338; 1769.025;  183.525;    0.000
968.505; 1731.025;  197.525;    0.000
968.673; 1754.025;  209.525;    0.000
968.841; 1665.025;  162.525;    0.000
969.008; 1777.025;  187.525;    0.000
969.175; 1735.025;  204.525;    0.000
969.343; 1646.025;  157.525;    0.000
969.510; 1719.025;  189.525;    0.000
969.678; 1727.025;  153.525;    0.000
969.845; 1775.025;  190.525;    0.000
970.012; 1728.025;  162.525;    0.000
970.180; 1759.025;  223.525;    0.000
970.347; 1736.025;  195.525;    0.000
970.514; 1632.025;  185.525;    0.000
970.681; 1672.025;  187.525;    0.000
970.849; 1750.025;  183.525;    0.000
971.016; 1654.025;  168.525;    0.000
971.183; 1758.025;  160.525;    0.000
971.350; 1732.025;  193.525;    0.000
971.517; 1678.025;  202.525;    0.000
971.684; 1703.025;  242.525;    0.000
971.851; 1691.025;  192.525;    0.000
972.018; 1697.025;  194.525;    0.000
972.185; 1646.025;  193.525;    0.000
972.352; 1803.025;  187.525;    0.000
972.519; 1768.025;  233.525;    0.000
972.686; 1710.025;  186.525;    0.000
972.853; 1713.025;  165.525;    0.000
973.020; 1671.025;  183.525;    0.000
973.186; 1638.025;  186.525;    0.000
973.353; 1692.025;  177.525;    0.000
973.520; 1749.025;  203.525;    0.000
973.687; 1735.025;  211.525;    0.000
973.853; 1700.025;  194.525;    0.000
974.020; 1739.025;  201.525;    0.000
974.187; 1668.025;  187.525;    0.000
974.353; 1691.025;  188.525;    0.000
974.520; 1710.025;  136.525;    0.000
974.687; 1718.025;  169.525;    0.000
974.853; 1714.025;  207.525;    0.000
975.020; 1614.025;  190.525;    0.000
975.186; 1616.025;  182.525;    0.000
975.353; 1697.025;  202.525;    0.000
975.519; 1679.025;  189.525;    0.000
975.685; 1627.025;  176.525;    0.000
975.852; 1645.025;  175.525;    0.000
976.018; 1620.025;  155.525;    0.000
976.184; 1741.025;  179.525;    0.000
976.351; 1664.025;  191.525;    0.000
976.517; 1726.025;  246.525;    0.000
976.683; 1707.025;  222.525;    0.000
976.849; 1660.025;  216.525;    0.000
977.016; 1681.025;  212.525;    0.000
977.182; 1678.025;  192.525;    0.000
977.348; 1649.025;  145.525;    0.000
977.514; 1608.025;  195.525;    0.000
977.680; 1614.025;  210.525;    0.000
977.846; 1595.025;  172.525;    0.000
978.012; 1691.025;  190.525;    0.000
978.178; 1605.025;  201.525;    0.000
978.344; 1630.025;  190.525;    0.000
978.510; 1629.025;  199.525;    0.000
978.676; 1624.025;  174.525;    0.000
978.842; 1626.025;  195.525;    0.000
979.008; 1643.025;  205.525;    0.000
979.174; 1661.025;  187.525;    0.000
979.340; 1639.025;  194.525;    0.000
979.505; 1688.025;  221.525;    0.000
979.671; 1635.025;  178.525;    0.000
979.837; 1658.025;  215.525;    0.000
980.003; 1721.025;  176.525;    0.000
980.168; 1658.025;  185.525;    0.000
980.334; 1642.025;  165.525;    0.000
980.499; 1680.025;  231.525;    0.000
980.665; 1775.025;  238.525;    0.000
980.831; 1705.025;  194.525;    0.000
980.996; 1673.025;  169.525;    0.000
981.162; 1665.025;  199.525;    0.000
981.327; 1696.025;  158.525;    0.000
981.493; 1598.025;  193.525;    0.000
981.658; 1619.025;  181.525;    0.000
981.823; 1651.025;  199.525;    0.000
981.989; 1693.025;  186.525;    0.000
982.154; 1686.025;  225.525;    0.000
982.319; 1669.025;  191.525;    0.000
982.485; 1764.025;  205.525;    0.000
982.650; 1758.025;  234.525;    0.000
982.815; 1753.025;  193.525;    0.000
982.980; 1717.025;  177.525;    0.000
983.146; 1719.025;  212.525;    0.000
983.311; 1642.025;  177.525;    0.000
983.476; 1665.025;  185.525;    0.000
983.641; 1641.025;  149.525;    0.000
983.806; 1685.025;  175.525;    0.000
983.971; 1668.025;  234.525;    0.000
984.136; 1657.025;  191.525;    0.000
984.301; 1689.025;  215.525;    0.000
984.466; 1655.025;  207.525;    0.000
984.631; 1681.025;  206.525;    0.000
984.796; 1650.025;  229.525;    0.000
984.961; 1753.025;  220.525;    0.000
985.126; 1707.025;  204.525;    0.000
985.291; 1654.025;  210.525;    0.000
985.455; 1635.025;  193.525;    0.000
985.620; 1679.025;  207.525;    0.000
985.785; 1601.025;  188.525;    0.000
985.950; 1658.025;  168.525;    0.000
986.114; 1645.025;  239.525;    0.000
986.279; 1648.025;  223.525;    0.000
986.444; 1664.025;  154.525;    0.000
986.608; 1753.025;  232.525;    0.000
986.773; 1657.025;  214.525;    0.000
986.937; 1771.025;  220.525;    0.000
987.102; 1764.025;  224.525;    0.000
987.266; 1762.025;  157.525;    0.000
987.431; 1743.025;  246.525;    0.000
987.595; 1721.025;  203.525;    0.000
987.760; 1680.025;  202.525;    0.000
987.924; 1740.025;  208.525;    0.000
988.088; 1671.025;  169.525;    0.000
988.253; 1668.025;  237.525;    0.000
988.417; 1647.025;  202.525;    0.000
988.581; 1654.025;  215.525;    0.000
988.746; 1678.025;  210.525;    0.000
988.910; 1636.025;  191.525;    0.000
989.074; 1690.025;  197.525;    0.000
989.238; 1668.025;  191.525;    0.000
989.402; 1647.025;  222.525;    0.000
989.566; 1657.025;  221.525;    0.000
989.731; 1678.025;  216.525;    0.000
989.895; 1661.025;  183.525;    0.000
990.059; 1610.025;  150.525;    0.000
990.223; 1624.025;  183.525;    0.000
990.387; 1705.025;  241.525;    0.000
990.551; 1619.025;  198.525;    0.000
990.714; 1625.025;  176.525;    0.000
990.878; 1611.025;  203.525;    0.000
991.042; 1608.025;  146.525;    0.000
991.206; 1645.025;  199.525;    0.000
991.370; 1614.025;  223.525;    0.000
991.534; 1595.025;  158.525;    0.000
991.697; 1718.025;  182.525;    0.000
991.861; 1632.025;  195.525;    0.000
992.025; 1683.025;  206.525;    0.000
992.188; 1605.025;  174.525;    0.000
992.352; 1590.025;  183.525;    0.000
992.516; 1607.025;  181.525;    0.000
992.679; 1564.025;  162.525;    0.000
992.843; 1634.025;  173.525;    0.000
993.006; 1595.025;  189.525;    0.000
993.170; 1647.025;  200.525;    0.000
993.333; 1618.025;  167.525;    0.000
993.497; 1534.025;  217.525;    0.000
993.660; 1639.025;  179.525;    0.000
993.824; 1686.025;  195.525;    0.000
993.987; 1640.025;  186.525;    0.000
994.150; 1581.025;  164.525;    0.000
994.314; 1645.025;  215.525;    0.000
994.477; 1606.025;  186.525;    0.000
994.640; 1571.025;  192.525;    0.000
994.803; 1600.025;  215.525;    0.000
994.967; 1589.025;  208.525;    0.000
995.130; 1659.025;  196.525;    0.000
995.293; 1583.025;  221.525;    0.000
995.456; 1690.025;  164.525;    0.000
995.619; 1608.025;  224.525;    0.000
995.782; 1571.025;  184.525;    0.000
995.945; 1590.025;  220.525;    0.000
996.108; 1596.025;  187.525;    0.000
996.271; 1577.025;  192.525;    0.000
996.434; 1716.025;  162.525;    0.000
996.597; 1568.025;  148.525;    0.000
996.760; 1643.025;  186.525;    0.000
996.923; 1612.025;  154.525;    0.000
997.086; 1601.025;  156.525;    0.000
997.248; 1636.025;  215.525;    0.000
997.411; 1596.025;  160.525;    0.000
997.574; 1554.025;  159.525;    0.000
997.737; 1570.025;  179.525;    0.000
997.899; 1567.025;  184.525;    0.000
998.062; 1638.025;  180.525;    0.000
998.225; 1542.025;  168.525;    0.000
998.387; 1541.025;  192.525;    0.000
998.550; 1575.025;  178.525;    0.000
998.712; 1600.025;  192.525;    0.000
998.875; 1647.025;  230.525;    0.000
999.037; 1591.025;  200.525;    0.000
999.200; 1535.025;  196.525;    0.000
999.362; 1580.025;  173.525;    0.000
999.525; 1616.025;  196.525;    0.000
999.687; 1584.025;  159.525;    0.000
999.849; 1578.025;  180.525;    0.000
1000.012; 1610.025;  210.525;    0.000
1000.174; 1596.025;  175.525;    0.000
1000.336; 1638.025;  174.525;    0.000
1000.499; 1672.025;  180.525;    0.000
1000.661; 1665.025;  204.525;    0.000
1000.823; 1647.025;  181.525;    0.000
1000.985; 1716.025;  178.525;    0.000
1001.147; 1695.025;  215.525;    0.000
1001.309; 1634.025;  212.525;    0.000
1001.471; 1691.025;  192.525;    0.000
1001.633; 1728.025;  207.525;    0.000
1001.796; 1712.025;  211.525;    0.000
1001.958; 1630.025;  200.525;    0.000
1002.119; 1661.025;  210.525;    0.000
1002.281; 1782.025;  204.525;    0.000
1002.443; 1810.025;  230.525;    0.000
1002.605; 1904.025;  178.525;    0.000
1002.767; 1955.025;  228.525;    0.000
1002.929; 2031.025;  199.525;    0.000
1003.091; 2199.025;  220.525;    0.000
1003.252; 2247.025;  219.525;    0.000
1003.414; 2358.025;  213.525;    0.000
1003.576; 2330.025;  202.525;    0.000
1003.738; 2316.025;  184.525;    0.000
1003.899; 2512.025;  218.525;    0.000
1004.061; 2666.025;  210.525;    0.000
1004.222; 2685.025;  179.525;    0.000
1004.384; 2709.025;  183.525;    0.000
1004.546; 2916.025;  206.525;    0.000
1004.707; 2950.025;  191.525;    0.000
1004.869; 2901.025;  197.525;    0.000
1005.030; 2859.025;  186.525;    0.000
1005.191; 2827.025;  188.525;    0.000
1005.353; 2770.025;  215.525;    0.000
1005.514; 2677.025;  184.525;    0.000
1005.675; 2561.025;  209.525;    0.000
1005.837; 2470.025;  239.525;    0.000
1005.998; 2416.025;  218.525;    0.000
1006.159; 2413.025;  212.525;    0.000
1006.321; 2529.025;  220.525;    0.000
1006.482; 2465.025;  201.525;    0.000
1006.643; 2591.025;  222.525;    0.000
1006.804; 2752.025;  191.525;    0.000
1006.965; 2777.025;  214.525;    0.000
1007.126; 2765.025;  214.525;    0.000
1007.287; 2815.025;  243.525;    0.000
1007.448; 2798.025;  251.525;    0.000
1007.609; 2760.025;  244.525;    0.000
1007.770; 2605.025;  211.525;    0.000
1007.931; 2637.025;  225.525;    0.000
1008.092; 2630.025;  188.525;    0.000
1008.253; 2767.025;  224.525;    0.000
1008.414; 2796.025;  198.525;    0.000
1008.575; 2951.025;  244.525;    0.000
1008.736; 2889.025;  219.525;    0.000
1008.896; 2855.025;  206.525;    0.000
1009.057; 2770.025;  258.525;    0.000
1009.218; 2806.025;  209.525;    0.000
1009.379; 2724.025;  204.525;    0.000
1009.539; 2893.025;  242.525;    0.000
1009.700; 2992.025;  205.525;    0.000
1009.860; 2947.025;  211.525;    0.000
1010.021; 2913.025;  219.525;    0.000
1010.182; 2914.025;  206.525;    0.000
1010.342; 2909.025;  219.525;    0.000
1010.503; 3000.025;  231.525;    0.000
1010.663; 3102.025;  260.525;    0.000
1010.823; 3139.025;  200.525;    0.000
1010.984; 3179.025;  189.525;    0.000
1011.144; 3273.025;  234.525;    0.000
1011.305; 3322.025;  212.525;    0.000
1011.465; 3491.025;  202.525;    0.000
1011.625; 3582.025;  236.525;    0.000
1011.785; 3654.025;  203.525;    0.000
1011.946; 3425.025;  195.525;    0.000
1012.106; 3449.025;  176.525;    0.000
1012.266; 3510.025;  211.525;    0.000
1012.426; 3487.025;  244.525;    0.000
1012.586; 3525.025;  202.525;    0.000
1012.746; 3407.025;  234.525;    0.000
1012.906; 3499.025;  246.525;    0.000
1013.066; 3539.025;  232.525;    0.000
1013.226; 3438.025;  248.525;    0.000
1013.386; 3435.025;  231.525;    0.000
1013.546; 3416.025;  233.525;    0.000
1013.706; 3342.025;  211.525;    0.000
1013.866; 3342.025;  240.525;    0.000
1014.026; 3529.025;  188.525;    0.000
1014.186; 3304.025;  186.525;    0.000
1014.346; 3378.025;  203.525;    0.000
1014.505; 3455.025;  238.525;    0.000
1014.665; 3419.025;  206.525;    0.000
1014.825; 3417.025;  200.525;    0.000
1014.985; 3420.025;  215.525;    0.000
1015.144; 3623.025;  250.525;    0.000
1015.304; 3776.025;  195.525;    0.000
1015.464; 3598.025;  237.525;    0.000
1015.623; 3583.025;  232.525;    0.000
1015.783; 3868.025;  220.525;    0.000
1015.942; 4138.025;  219.525;    0.000
1016.102; 4124.025;  202.525;    0.000
1016.261; 4077.025;  225.525;    0.000
1016.420; 4440.025;  246.525;    0.000
1016.580; 4850.025;  226.525;    0.000
1016.739; 4609.025;  214.525;    0.000
1016.899; 4520.025;  205.525;    0.000
1017.058; 4811.025;  217.525;    0.000
1017.217; 5100.025;  199.525;    0.000
1017.376; 4801.025;  219.525;    0.000
1017.536; 4293.025;  209.525;    0.000
1017.695; 4462.025;  213.525;    0.000
1017.854; 4612.025;  187.525;    0.000
1018.013; 4334.025;  222.525;    0.000
1018.172; 4051.025;  204.525;    0.000
1018.331; 4263.025;  195.525;    0.000
1018.490; 4415.025;  213.525;    0.000
1018.649; 4588.025;  216.525;    0.000
1018.808; 4821.025;  227.525;    0.000
1018.967; 4686.025;  206.525;    0.000
1019.126; 4848.025;  206.525;    0.000
1019.285; 4736.025;  219.525;    0.000
1019.444; 4880.025;  218.525;    0.000
1019.603; 4575.025;  206.525;    0.000
1019.762; 4457.025;  189.525;    0.000
1019.921; 4582.025;  217.525;    0.000
1020.079; 4778.025;  200.525;    0.000
1020.238; 5148.025;  219.525;    0.000
1020.397; 4800.025;  227.525;    0.000
1020.555; 4533.025;  207.525;    0.000
1020.714; 4701.025;  253.525;    0.000
1020.873; 5013.025;  230.525;    0.000
1021.031; 5114.025;  232.525;    0.000
1021.190; 4822.025;  226.525;    0.000
1021.348; 4629.025;  224.525;    0.000
1021.507; 5115.025;  215.525;    0.000
1021.665; 5345.025;  233.525;    0.000
1021.824; 4999.025;  196.525;    0.000
1021.982; 4741.025;  215.525;    0.000
1022.141; 4723.025;  200.525;    0.000
1022.299; 5378.025;  200.525;    0.000
1022.457; 5613.025;  179.525;    0.000
1022.616; 5000.025;  226.525;    0.000
1022.774; 4585.025;  216.525;    0.000
1022.932; 4962.025;  212.525;    0.000
1023.090; 5507.025;  220.525;    0.000
1023.249; 5621.025;  194.525;    0.000
1023.407; 5126.025;  227.525;    0.000
1023.565; 4737.025;  190.525;    0.000
1023.723; 5065.025;  190.525;    0.000
1023.881; 5706.025;  214.525;    0.000
1024.039; 5847.025;  179.525;    0.000
1024.197; 5305.025;  274.525;    0.000
1024.355; 4825.025;  269.525;    0.000
1024.513; 4979.025;  259.525;    0.000
1024.671; 5811.025;  211.525;    0.000
1024.829; 5948.025;  230.525;    0.000
1024.987; 5489.025;  239.525;    0.000
1025.145; 4855.025;  231.525;    0.000
1025.302; 5102.025;  212.525;    0.000
1025.460; 5602.025;  224.525;    0.000
1025.618; 5946.025;  217.525;    0.000
1025.776; 5597.025;  232.525;    0.000
1025.933; 4988.025;  212.525;    0.000
1026.091; 5139.025;  214.525;    0.000
1026.249; 5763.025;  224.525;    0.000
1026.406; 6051.025;  219.525;    0.000
1026.564; 5687.025;  262.525;    0.000
1026.721; 5304.025;  206.525;    0.000
1026.879; 5220.025;  227.525;    0.000
1027.036; 5702.025;  234.525;    0.000
1027.194; 6148.025;  256.525;    0.000
1027.351; 5936.025;  229.525;    0.000
1027.509; 5562.025;  253.525;    0.000
1027.666; 5188.025;  248.525;    0.000
1027.823; 5611.025;  215.525;    0.000
1027.981; 6080.025;  248.525;    0.000
1028.138; 6346.025;  257.525;    0.000
1028.295; 5781.025;  215.525;    0.000
1028.452; 5278.025;  236.525;    0.000
1028.609; 5404.025;  240.525;    0.000
1028.767; 5934.025;  258.525;    0.000
1028.924; 6443.025;  211.525;    0.000
1029.081; 6117.025;  226.525;    0.000
1029.238; 5847.025;  228.525;    0.000
1029.395; 5474.025;  264.525;    0.000
1029.552; 5569.025;  227.525;    0.000
1029.709; 6198.025;  232.525;    0.000
1029.866; 6407.025;  223.525;    0.000
1030.023; 6176.025;  220.525;    0.000
1030.180; 5663.025;  222.525;    0.000
1030.337; 5691.025;  224.525;    0.000
1030.494; 5893.025;  228.525;    0.000
1030.650; 6548.025;  242.525;    0.000
1030.807; 6800.025;  214.525;    0.000
1030.964; 6100.025;  207.525;    0.000
1031.121; 5828.025;  236.525;    0.000
1031.277; 5767.025;  206.525;    0.000
1031.434; 6150.025;  249.525;    0.000
1031.591; 6602.025;  253.525;    0.000
1031.747; 6742.025;  240.525;    0.000
1031.904; 6558.025;  212.525;    0.000
1032.060; 6258.025;  185.525;    0.000
1032.217; 6019.025;  201.525;    0.000
1032.373; 6777.025;  207.525;    0.000
1032.530; 6961.025;  226.525;    0.000
1032.686; 7861.025;  226.525;    0.000
1032.843; 7629.025;  203.525;    0.000
1032.999; 7204.025;  233.525;    0.000
1033.155; 7321.025;  232.525;    0.000
1033.312; 7429.025;  239.525;    0.000
1033.468; 8729.025;  207.525;    0.000
1033.624; 9365.025;  238.525;    0.000
1033.780; 9496.025;  255.525;    0.000
1033.937; 9397.025;  188.525;    0.000
1034.093; 8647.025;  244.525;    0.000
1034.249; 8871.025;  182.525;    0.000
1034.405; 8793.025;  251.525;    0.000
1034.561; 9692.025;  250.525;    0.000
1034.717;10407.025;  208.525;    0.000
1034.873;10134.025;  210.525;    0.000
1035.029;10326.025;  245.525;    0.000
1035.185; 9597.025;  230.525;    0.000
1035.341; 9200.025;  209.525;    0.000
1035.497; 9816.025;  244.525;    0.000
1035.653; 9977.025;  229.525;    0.000
1035.809;10943.025;  275.525;    0.000
1035.964;12075.025;  203.525;    0.000
1036.120;10970.025;  215.525;    0.000
1036.276;11372.025;  228.525;    0.000
1036.432;11005.025;  183.525;    0.000
1036.587;10460.025;  214.525;    0.000
1036.743;11580.025;  240.525;    0.000
1036.899;12345.025;  202.525;    0.000
1037.054;12548.025;  182.525;    0.000
1037.210;13633.025;  228.525;    0.000
1037.365;14012.025;  239.525;    0.000
1037.521;12554.025;  230.525;    0.000
1037.676;12823.025;  217.525;    0.000
1037.832;11588.025;  235.525;    0.000
1037.987;11859.025;  210.525;    0.000
1038.143;11976.025;  206.525;    0.000
1038.298;13555.025;  177.525;    0.000
1038.453;13554.025;  215.525;    0.000
1038.609;14850.025;  210.525;    0.000
1038.764;15050.025;  227.525;    0.000
1038.919;14038.025;  197.525;    0.000
1039.074;13992.025;  183.525;    0.000
1039.229;13431.025;  218.525;    0.000
1039.385;13091.025;  251.525;    0.000
1039.540;13371.025;  222.525;    0.000
1039.695;14511.025;  215.525;    0.000
1039.850;15826.025;  204.525;    0.000
1040.005;17358.025;  241.525;    0.000
1040.160;17732.025;  180.525;    0.000
1040.315;17572.025;  197.525;    0.000
1040.470;16764.025;  180.525;    0.000
1040.625;15873.025;  196.525;    0.000
1040.780;15881.025;  245.525;    0.000
1040.935;15818.025;  204.525;    0.000
1041.089;15570.025;  213.525;    0.000
1041.244;18116.025;  200.525;    0.000
1041.399;18589.025;  212.525;    0.000
1041.554;20163.025;  239.525;    0.000
1041.708;21443.025;  238.525;    0.000
1041.863;21081.025;  213.525;    0.000
1042.018;20726.025;  236.525;    0.000
1042.172;20829.025;  238.525;    0.000
1042.327;19384.025;  254.525;    0.000
1042.481;19550.025;  197.525;    0.000
1042.636;19513.025;  205.525;    0.000
1042.791;18873.025;  218.525;    0.000
1042.945;22719.025;  261.525;    0.000
1043.099;24768.025;  201.525;    0.000
1043.254;24813.025;  191.525;    0.000
1043.408;26193.025;  279.525;    0.000
1043.563;26363.025;  203.525;    0.000
1043.717;27034.025;  229.525;    0.000
1043.871;25230.025;  213.525;    0.000
1044.025;23549.025;  240.525;    0.000
1044.180;22637.025;  220.525;    0.000
1044.334;23702.025;  268.525;    0.000
1044.488;24703.025;  261.525;    0.000
1044.642;25937.025;  205.525;    0.000
1044.796;29175.025;  240.525;    0.000
1044.950;32765.025;  258.525;    0.000
1045.104;35019.023;  218.525;    0.000
1045.258;34964.023;  213.525;    0.000
1045.412;33557.023;  223.525;    0.000
1045.566;33530.023;  240.525;    0.000
1045.720;32825.023;  235.525;    0.000
1045.874;30292.025;  221.525;    0.000
1046.028;27128.025;  247.525;    0.000
1046.182;26577.025;  200.525;    0.000
1046.336;28549.025;  220.525;    0.000
1046.489;30933.025;  228.525;    0.000
1046.643;29920.025;  249.525;    0.000
1046.797;33322.023;  230.525;    0.000
1046.951;34099.023;  234.525;    0.000
1047.104;35959.023;  262.525;    0.000
1047.258;37223.023;  210.525;    0.000
1047.411;38290.023;  235.525;    0.000
1047.565;37659.023;  237.525;    0.000
1047.719;37044.023;  237.525;    0.000
1047.872;34842.023;  225.525;    0.000
1048.026;34892.023;  237.525;    0.000
1048.179;35065.023;  220.525;    0.000
1048.332;32238.025;  219.525;    0.000
1048.486;31526.025;  195.525;    0.000
1048.639;33407.023;  213.525;    0.000
1048.792;34172.023;  245.525;    0.000
1048.946;37069.023;  234.525;    0.000
1049.099;40381.023;  226.525;    0.000
1049.252;42273.023;  282.525;    0.000
1049.406;40370.023;  255.525;    0.000
1049.559;40988.023;  223.525;    0.000
1049.712;43717.023;  253.525;    0.000
1049.865;46453.023;  271.525;    0.000
1050.018;46481.023;  241.525;    0.000
1050.171;42303.023;  202.525;    0.000
1050.324;40422.023;  250.525;    0.000
1050.477;42771.023;  251.525;    0.000
1050.630;44353.023;  216.525;    0.000
1050.783;46493.023;  205.525;    0.000
1050.936;43508.023;  219.525;    0.000
1051.089;40823.023;  247.525;    0.000
1051.242;42084.023;  238.525;    0.000
1051.394;45715.023;  252.525;    0.000
1051.547;49701.023;  245.525;    0.000
1051.700;46776.023;  206.525;    0.000
1051.853;46074.023;  270.525;    0.000
1052.005;47610.023;  245.525;    0.000
1052.158;51478.023;  290.525;    0.000
1052.311;56875.023;  237.525;    0.000
1052.463;54566.023;  271.525;    0.000
1052.616;50941.023;  255.525;    0.000
1052.768;45839.023;  257.525;    0.000
1052.921;43517.023;  289.525;    0.000
1053.073;46020.023;  287.525;    0.000
1053.226;52375.023;  268.525;    0.000
1053.378;57697.023;  294.525;    0.000
1053.531;62146.023;  255.525;    0.000
1053.683;59483.023;  293.525;    0.000
1053.835;52526.023;  274.525;    0.000
1053.988;39718.023;  282.525;    0.000
1054.140; 6963.025;  291.525;    0.000
1054.292; 1751.025;  292.525;    0.000
1054.444; 1366.025;  299.525;    0.000
1054.596; 1193.025;  319.525;    0.000
1054.749; 1115.025;  295.525;    0.000
1054.901; 1034.025;  266.525;    0.000
1055.053; 1012.025;  300.525;    0.000
1055.205;  965.025;  290.525;    0.000
1055.357;  979.025;  304.525;    0.000
1055.509;  898.025;  292.525;    0.000
1055.661;  829.025;  339.525;    0.000
1055.813;  860.025;  306.525;    0.000
1055.965;  835.025;  293.525;    0.000
1056.116;  876.025;  300.525;    0.000
1056.268;  767.025;  306.525;    0.000
1056.420;  825.025;  288.525;    0.000

