Pellet-T1_position2_Burst5-n5
Integration time [ms]:   1.000
Averaging Nr. [scans]: 1
Smoothing Nr. [pixels]: 0
Data measured with spectrometer [name]: NIR
Wave   ;Sample   ;Dark     ;Reference
[nm]   ;[counts] ;[counts] ;[counts] 

691.496;   24.875;    0.000;    0.000
691.696;   77.875;    0.000;    0.000
691.896;    0.875;    0.000;    0.000
692.096;   57.875;    0.000;    0.000
692.296;   -9.125;    0.000;    0.000
692.496;   66.875;    0.000;    0.000
692.695;   -8.125;    0.000;    0.000
692.895;   54.875;    0.000;    0.000
693.095;   37.875;    0.000;    0.000
693.295;   49.875;    0.000;    0.000
693.495;   37.875;    0.000;    0.000
693.695;   44.875;    0.000;    0.000
693.894;   43.875;    0.000;    0.000
694.094;   49.875;    0.000;    0.000
694.294;   13.875;    0.000;    0.000
694.494;  141.875;    0.000;    0.000
694.693;  932.875;    0.000;    0.000
694.893;  914.875;    0.000;    0.000
695.093;  961.875;    0.000;    0.000
695.293; 1003.875;    0.000;    0.000
695.492; 1025.875;    0.000;    0.000
695.692;  950.875;    0.000;    0.000
695.891; 1047.875;    0.000;    0.000
696.091; 1023.875;    0.000;    0.000
696.291;  988.875;    0.000;    0.000
696.490; 1009.875;    0.000;    0.000
696.690;  983.875;    0.000;    0.000
696.889; 1054.875;    0.000;    0.000
697.089;  990.875;    0.000;    0.000
697.288; 1040.875;    0.000;    0.000
697.488;  983.875;    0.000;    0.000
697.687;  990.875;    0.000;    0.000
697.887; 1007.875;    0.000;    0.000
698.086; 1005.875;    0.000;    0.000
698.286;  994.875;    0.000;    0.000
698.485; 1004.875;    0.000;    0.000
698.684; 1009.875;    0.000;    0.000
698.884; 1038.875;    0.000;    0.000
699.083; 1037.875;    0.000;    0.000
699.282; 1051.875;    0.000;    0.000
699.482;  980.875;    0.000;    0.000
699.681; 1039.875;    0.000;    0.000
699.880; 1103.875;    0.000;    0.000
700.080; 1059.875;    0.000;    0.000
700.279; 1052.875;    0.000;    0.000
700.478; 1078.875;    0.000;    0.000
700.677;  966.875;    0.000;    0.000
700.877; 1134.875;    0.000;    0.000
701.076; 1112.875;    0.000;    0.000
701.275; 1042.875;    0.000;    0.000
701.474; 1055.875;    0.000;    0.000
701.673; 1023.875;    0.000;    0.000
701.872; 1077.875;    0.000;    0.000
702.071; 1000.875;    0.000;    0.000
702.271; 1143.875;    0.000;    0.000
702.470; 1094.875;    0.000;    0.000
702.669; 1040.875;    0.000;    0.000
702.868; 1103.875;    0.000;    0.000
703.067; 1092.875;    0.000;    0.000
703.266; 1112.875;    0.000;    0.000
703.465; 1057.875;    0.000;    0.000
703.664; 1026.875;    0.000;    0.000
703.863; 1106.875;    0.000;    0.000
704.062; 1098.875;    0.000;    0.000
704.260; 1132.875;    0.000;    0.000
704.459; 1123.875;    0.000;    0.000
704.658; 1043.875;    0.000;    0.000
704.857; 1113.875;    0.000;    0.000
705.056; 1037.875;    0.000;    0.000
705.255; 1094.875;    0.000;    0.000
705.454; 1126.875;    0.000;    0.000
705.652; 1156.875;    0.000;    0.000
705.851; 1097.875;    0.000;    0.000
706.050; 1147.875;    0.000;    0.000
706.249; 1047.875;    0.000;    0.000
706.447; 1131.875;    0.000;    0.000
706.646; 1176.875;    0.000;    0.000
706.845; 1115.875;    0.000;    0.000
707.043; 1084.875;    0.000;    0.000
707.242; 1092.875;    0.000;    0.000
707.441; 1166.875;    0.000;    0.000
707.639; 1172.875;    0.000;    0.000
707.838; 1154.875;    0.000;    0.000
708.037; 1138.875;    0.000;    0.000
708.235; 1158.875;    0.000;    0.000
708.434; 1211.875;    0.000;    0.000
708.632; 1214.875;    0.000;    0.000
708.831; 1181.875;    0.000;    0.000
709.029; 1205.875;    0.000;    0.000
709.228; 1177.875;    0.000;    0.000
709.426; 1206.875;    0.000;    0.000
709.625; 1209.875;    0.000;    0.000
709.823; 1163.875;    0.000;    0.000
710.022; 1165.875;    0.000;    0.000
710.220; 1175.875;    0.000;    0.000
710.418; 1269.875;    0.000;    0.000
710.617; 1195.875;    0.000;    0.000
710.815; 1158.875;    0.000;    0.000
711.013; 1211.875;    0.000;    0.000
711.212; 1172.875;    0.000;    0.000
711.410; 1211.875;    0.000;    0.000
711.608; 1176.875;    0.000;    0.000
711.807; 1169.875;    0.000;    0.000
712.005; 1220.875;    0.000;    0.000
712.203; 1238.875;    0.000;    0.000
712.401; 1208.875;    0.000;    0.000
712.599; 1258.875;    0.000;    0.000
712.798; 1253.875;    0.000;    0.000
712.996; 1264.875;    0.000;    0.000
713.194; 1291.875;    0.000;    0.000
713.392; 1186.875;    0.000;    0.000
713.590; 1259.875;    0.000;    0.000
713.788; 1223.875;    0.000;    0.000
713.986; 1320.875;    0.000;    0.000
714.184; 1262.875;    0.000;    0.000
714.382; 1231.875;    0.000;    0.000
714.580; 1258.875;    0.000;    0.000
714.778; 1270.875;    0.000;    0.000
714.976; 1294.875;    0.000;    0.000
715.174; 1325.875;    0.000;    0.000
715.372; 1386.875;    0.000;    0.000
715.570; 1435.875;    0.000;    0.000
715.768; 1373.875;    0.000;    0.000
715.966; 1431.875;    0.000;    0.000
716.164; 1417.875;    0.000;    0.000
716.362; 1439.875;    0.000;    0.000
716.560; 1462.875;    0.000;    0.000
716.758; 1413.875;    0.000;    0.000
716.955; 1378.875;    0.000;    0.000
717.153; 1427.875;    0.000;    0.000
717.351; 1444.875;    0.000;    0.000
717.549; 1369.875;    0.000;    0.000
717.746; 1379.875;    0.000;    0.000
717.944; 1439.875;    0.000;    0.000
718.142; 1428.875;    0.000;    0.000
718.340; 1358.875;    0.000;    0.000
718.537; 1389.875;    0.000;    0.000
718.735; 1444.875;    0.000;    0.000
718.933; 1410.875;    0.000;    0.000
719.130; 1392.875;    0.000;    0.000
719.328; 1453.875;    0.000;    0.000
719.525; 1403.875;    0.000;    0.000
719.723; 1388.875;    0.000;    0.000
719.920; 1469.875;    0.000;    0.000
720.118; 1384.875;    0.000;    0.000
720.316; 1529.875;    0.000;    0.000
720.513; 1378.875;    0.000;    0.000
720.711; 1342.875;    0.000;    0.000
720.908; 1365.875;    0.000;    0.000
721.105; 1504.875;    0.000;    0.000
721.303; 1373.875;    0.000;    0.000
721.500; 1381.875;    0.000;    0.000
721.698; 1549.875;    0.000;    0.000
721.895; 1423.875;    0.000;    0.000
722.092; 1364.875;    0.000;    0.000
722.290; 1447.875;    0.000;    0.000
722.487; 1461.875;    0.000;    0.000
722.684; 1397.875;    0.000;    0.000
722.882; 1414.875;    0.000;    0.000
723.079; 1384.875;    0.000;    0.000
723.276; 1472.875;    0.000;    0.000
723.473; 1357.875;    0.000;    0.000
723.671; 1381.875;    0.000;    0.000
723.868; 1373.875;    0.000;    0.000
724.065; 1408.875;    0.000;    0.000
724.262; 1472.875;    0.000;    0.000
724.459; 1427.875;    0.000;    0.000
724.656; 1421.875;    0.000;    0.000
724.854; 1471.875;    0.000;    0.000
725.051; 1502.875;    0.000;    0.000
725.248; 1420.875;    0.000;    0.000
725.445; 1450.875;    0.000;    0.000
725.642; 1359.875;    0.000;    0.000
725.839; 1480.875;    0.000;    0.000
726.036; 1489.875;    0.000;    0.000
726.233; 1434.875;    0.000;    0.000
726.430; 1461.875;    0.000;    0.000
726.627; 1490.875;    0.000;    0.000
726.824; 1478.875;    0.000;    0.000
727.021; 1553.875;    0.000;    0.000
727.218; 1445.875;    0.000;    0.000
727.414; 1517.875;    0.000;    0.000
727.611; 1505.875;    0.000;    0.000
727.808; 1491.875;    0.000;    0.000
728.005; 1493.875;    0.000;    0.000
728.202; 1509.875;    0.000;    0.000
728.399; 1501.875;    0.000;    0.000
728.595; 1513.875;    0.000;    0.000
728.792; 1450.875;    0.000;    0.000
728.989; 1533.875;    0.000;    0.000
729.186; 1519.875;    0.000;    0.000
729.382; 1545.875;    0.000;    0.000
729.579; 1525.875;    0.000;    0.000
729.776; 1601.875;    0.000;    0.000
729.972; 1529.875;    0.000;    0.000
730.169; 1556.875;    0.000;    0.000
730.366; 1583.875;    0.000;    0.000
730.562; 1577.875;    0.000;    0.000
730.759; 1509.875;    0.000;    0.000
730.955; 1567.875;    0.000;    0.000
731.152; 1572.875;    0.000;    0.000
731.348; 1636.875;    0.000;    0.000
731.545; 1575.875;    0.000;    0.000
731.741; 1571.875;    0.000;    0.000
731.938; 1620.875;    0.000;    0.000
732.134; 1602.875;    0.000;    0.000
732.331; 1576.875;    0.000;    0.000
732.527; 1628.875;    0.000;    0.000
732.724; 1562.875;    0.000;    0.000
732.920; 1508.875;    0.000;    0.000
733.116; 1619.875;    0.000;    0.000
733.313; 1588.875;    0.000;    0.000
733.509; 1670.875;    0.000;    0.000
733.705; 1587.875;    0.000;    0.000
733.902; 1632.875;    0.000;    0.000
734.098; 1582.875;    0.000;    0.000
734.294; 1648.875;    0.000;    0.000
734.490; 1689.875;    0.000;    0.000
734.687; 1702.875;    0.000;    0.000
734.883; 1580.875;    0.000;    0.000
735.079; 1665.875;    0.000;    0.000
735.275; 1676.875;    0.000;    0.000
735.471; 1697.875;    0.000;    0.000
735.667; 1629.875;    0.000;    0.000
735.863; 1708.875;    0.000;    0.000
736.060; 1651.875;    0.000;    0.000
736.256; 1656.875;    0.000;    0.000
736.452; 1729.875;    0.000;    0.000
736.648; 1691.875;    0.000;    0.000
736.844; 1684.875;    0.000;    0.000
737.040; 1764.875;    0.000;    0.000
737.236; 1732.875;    0.000;    0.000
737.432; 1683.875;    0.000;    0.000
737.628; 1742.875;    0.000;    0.000
737.824; 1750.875;    0.000;    0.000
738.019; 1772.875;    0.000;    0.000
738.215; 1796.875;    0.000;    0.000
738.411; 1724.875;    0.000;    0.000
738.607; 1731.875;    0.000;    0.000
738.803; 1693.875;    0.000;    0.000
738.999; 1820.875;    0.000;    0.000
739.195; 1784.875;    0.000;    0.000
739.390; 1840.875;    0.000;    0.000
739.586; 1810.875;    0.000;    0.000
739.782; 1805.875;    0.000;    0.000
739.978; 1868.875;    0.000;    0.000
740.173; 1844.875;    0.000;    0.000
740.369; 1850.875;    0.000;    0.000
740.565; 1825.875;    0.000;    0.000
740.760; 1969.875;    0.000;    0.000
740.956; 1872.875;    0.000;    0.000
741.152; 1928.875;    0.000;    0.000
741.347; 1877.875;    0.000;    0.000
741.543; 1899.875;    0.000;    0.000
741.738; 1947.875;    0.000;    0.000
741.934; 1998.875;    0.000;    0.000
742.129; 2098.875;    0.000;    0.000
742.325; 2171.875;    0.000;    0.000
742.520; 2234.875;    0.000;    0.000
742.716; 2218.875;    0.000;    0.000
742.911; 2171.875;    0.000;    0.000
743.107; 2177.875;    0.000;    0.000
743.302; 2124.875;    0.000;    0.000
743.498; 2179.875;    0.000;    0.000
743.693; 2245.875;    0.000;    0.000
743.888; 2230.875;    0.000;    0.000
744.084; 2397.875;    0.000;    0.000
744.279; 2680.875;    0.000;    0.000
744.474; 2674.875;    0.000;    0.000
744.670; 2643.875;    0.000;    0.000
744.865; 2437.875;    0.000;    0.000
745.060; 2361.875;    0.000;    0.000
745.255; 2450.875;    0.000;    0.000
745.451; 2473.875;    0.000;    0.000
745.646; 2432.875;    0.000;    0.000
745.841; 2311.875;    0.000;    0.000
746.036; 2419.875;    0.000;    0.000
746.231; 2447.875;    0.000;    0.000
746.426; 2405.875;    0.000;    0.000
746.622; 2804.875;    0.000;    0.000
746.817; 3120.875;    0.000;    0.000
747.012; 3296.875;    0.000;    0.000
747.207; 3072.875;    0.000;    0.000
747.402; 2975.875;    0.000;    0.000
747.597; 2830.875;    0.000;    0.000
747.792; 2804.875;    0.000;    0.000
747.987; 2652.875;    0.000;    0.000
748.182; 2618.875;    0.000;    0.000
748.377; 2614.875;    0.000;    0.000
748.572; 2521.875;    0.000;    0.000
748.767; 2480.875;    0.000;    0.000
748.961; 2514.875;    0.000;    0.000
749.156; 2513.875;    0.000;    0.000
749.351; 2439.875;    0.000;    0.000
749.546; 2401.875;    0.000;    0.000
749.741; 2404.875;    0.000;    0.000
749.936; 2389.875;    0.000;    0.000
750.130; 2325.875;    0.000;    0.000
750.325; 2438.875;    0.000;    0.000
750.520; 2299.875;    0.000;    0.000
750.715; 2402.875;    0.000;    0.000
750.909; 2303.875;    0.000;    0.000
751.104; 2295.875;    0.000;    0.000
751.299; 2305.875;    0.000;    0.000
751.493; 2340.875;    0.000;    0.000
751.688; 2335.875;    0.000;    0.000
751.882; 2274.875;    0.000;    0.000
752.077; 2384.875;    0.000;    0.000
752.272; 2311.875;    0.000;    0.000
752.466; 2308.875;    0.000;    0.000
752.661; 2342.875;    0.000;    0.000
752.855; 2289.875;    0.000;    0.000
753.050; 2246.875;    0.000;    0.000
753.244; 2248.875;    0.000;    0.000
753.439; 2316.875;    0.000;    0.000
753.633; 2279.875;    0.000;    0.000
753.827; 2191.875;    0.000;    0.000
754.022; 2209.875;    0.000;    0.000
754.216; 2218.875;    0.000;    0.000
754.411; 2248.875;    0.000;    0.000
754.605; 2210.875;    0.000;    0.000
754.799; 2166.875;    0.000;    0.000
754.994; 2199.875;    0.000;    0.000
755.188; 2289.875;    0.000;    0.000
755.382; 2252.875;    0.000;    0.000
755.576; 2211.875;    0.000;    0.000
755.771; 2171.875;    0.000;    0.000
755.965; 2228.875;    0.000;    0.000
756.159; 2175.875;    0.000;    0.000
756.353; 2192.875;    0.000;    0.000
756.547; 2256.875;    0.000;    0.000
756.742; 2142.875;    0.000;    0.000
756.936; 2218.875;    0.000;    0.000
757.130; 2214.875;    0.000;    0.000
757.324; 2222.875;    0.000;    0.000
757.518; 2234.875;    0.000;    0.000
757.712; 2253.875;    0.000;    0.000
757.906; 2269.875;    0.000;    0.000
758.100; 2247.875;    0.000;    0.000
758.294; 2225.875;    0.000;    0.000
758.488; 2213.875;    0.000;    0.000
758.682; 2243.875;    0.000;    0.000
758.876; 2235.875;    0.000;    0.000
759.070; 2216.875;    0.000;    0.000
759.264; 2223.875;    0.000;    0.000
759.457; 2231.875;    0.000;    0.000
759.651; 2194.875;    0.000;    0.000
759.845; 2292.875;    0.000;    0.000
760.039; 2226.875;    0.000;    0.000
760.233; 2292.875;    0.000;    0.000
760.427; 2216.875;    0.000;    0.000
760.620; 2207.875;    0.000;    0.000
760.814; 2272.875;    0.000;    0.000
761.008; 2241.875;    0.000;    0.000
761.202; 2294.875;    0.000;    0.000
761.395; 2230.875;    0.000;    0.000
761.589; 2220.875;    0.000;    0.000
761.783; 2308.875;    0.000;    0.000
761.976; 2359.875;    0.000;    0.000
762.170; 2319.875;    0.000;    0.000
762.363; 2329.875;    0.000;    0.000
762.557; 2300.875;    0.000;    0.000
762.750; 2312.875;    0.000;    0.000
762.944; 2324.875;    0.000;    0.000
763.138; 2306.875;    0.000;    0.000
763.331; 2289.875;    0.000;    0.000
763.524; 2360.875;    0.000;    0.000
763.718; 2380.875;    0.000;    0.000
763.911; 2342.875;    0.000;    0.000
764.105; 2323.875;    0.000;    0.000
764.298; 2337.875;    0.000;    0.000
764.492; 2358.875;    0.000;    0.000
764.685; 2444.875;    0.000;    0.000
764.878; 2413.875;    0.000;    0.000
765.072; 2412.875;    0.000;    0.000
765.265; 2381.875;    0.000;    0.000
765.458; 2501.875;    0.000;    0.000
765.651; 2506.875;    0.000;    0.000
765.845; 2589.875;    0.000;    0.000
766.038; 2762.875;    0.000;    0.000
766.231; 4405.875;    0.000;    0.000
766.424; 7599.875;    0.000;    0.000
766.618; 6725.875;    0.000;    0.000
766.811; 3499.875;    0.000;    0.000
767.004; 2719.875;    0.000;    0.000
767.197; 2585.875;    0.000;    0.000
767.390; 2458.875;    0.000;    0.000
767.583; 2481.875;    0.000;    0.000
767.776; 2456.875;    0.000;    0.000
767.969; 2462.875;    0.000;    0.000
768.162; 2523.875;    0.000;    0.000
768.355; 2575.875;    0.000;    0.000
768.548; 2537.875;    0.000;    0.000
768.741; 2544.875;    0.000;    0.000
768.934; 2591.875;    0.000;    0.000
769.127; 2692.875;    0.000;    0.000
769.320; 2706.875;    0.000;    0.000
769.513; 3009.875;    0.000;    0.000
769.706; 4796.875;    0.000;    0.000
769.898; 6318.875;    0.000;    0.000
770.091; 4708.875;    0.000;    0.000
770.284; 2939.875;    0.000;    0.000
770.477; 2715.875;    0.000;    0.000
770.670; 2782.875;    0.000;    0.000
770.862; 2803.875;    0.000;    0.000
771.055; 2766.875;    0.000;    0.000
771.248; 2704.875;    0.000;    0.000
771.441; 2816.875;    0.000;    0.000
771.633; 2757.875;    0.000;    0.000
771.826; 2774.875;    0.000;    0.000
772.018; 2717.875;    0.000;    0.000
772.211; 2828.875;    0.000;    0.000
772.404; 2758.875;    0.000;    0.000
772.596; 2959.875;    0.000;    0.000
772.789; 2935.875;    0.000;    0.000
772.981; 2891.875;    0.000;    0.000
773.174; 2892.875;    0.000;    0.000
773.366; 3077.875;    0.000;    0.000
773.559; 3042.875;    0.000;    0.000
773.751; 3038.875;    0.000;    0.000
773.944; 3140.875;    0.000;    0.000
774.136; 3208.875;    0.000;    0.000
774.329; 3217.875;    0.000;    0.000
774.521; 3399.875;    0.000;    0.000
774.713; 3425.875;    0.000;    0.000
774.906; 3322.875;    0.000;    0.000
775.098; 3572.875;    0.000;    0.000
775.290; 3749.875;    0.000;    0.000
775.483; 3774.875;    0.000;    0.000
775.675; 3975.875;    0.000;    0.000
775.867; 4215.875;    0.000;    0.000
776.059; 4414.875;    0.000;    0.000
776.251; 4845.875;    0.000;    0.000
776.444; 5409.875;    0.000;    0.000
776.636; 6176.875;    0.000;    0.000
776.828; 7242.875;    0.000;    0.000
777.020; 9515.875;    0.000;    0.000
777.212;11921.875;    0.000;    0.000
777.404;13047.875;    0.000;    0.000
777.596;11882.875;    0.000;    0.000
777.788; 9869.875;    0.000;    0.000
777.980; 8026.875;    0.000;    0.000
778.172; 7101.875;    0.000;    0.000
778.364; 6230.875;    0.000;    0.000
778.556; 5743.875;    0.000;    0.000
778.748; 5247.875;    0.000;    0.000
778.940; 5025.875;    0.000;    0.000
779.132; 4751.875;    0.000;    0.000
779.324; 4431.875;    0.000;    0.000
779.516; 4188.875;    0.000;    0.000
779.708; 4108.875;    0.000;    0.000
779.900; 3835.875;    0.000;    0.000
780.091; 3746.875;    0.000;    0.000
780.283; 3612.875;    0.000;    0.000
780.475; 3518.875;    0.000;    0.000
780.667; 3510.875;    0.000;    0.000
780.859; 3330.875;    0.000;    0.000
781.050; 3307.875;    0.000;    0.000
781.242; 3294.875;    0.000;    0.000
781.434; 3233.875;    0.000;    0.000
781.625; 3165.875;    0.000;    0.000
781.817; 3089.875;    0.000;    0.000
782.009; 3076.875;    0.000;    0.000
782.200; 3037.875;    0.000;    0.000
782.392; 2915.875;    0.000;    0.000
782.583; 2975.875;    0.000;    0.000
782.775; 3017.875;    0.000;    0.000
782.966; 2878.875;    0.000;    0.000
783.158; 2815.875;    0.000;    0.000
783.349; 2812.875;    0.000;    0.000
783.541; 2820.875;    0.000;    0.000
783.732; 2841.875;    0.000;    0.000
783.924; 2883.875;    0.000;    0.000
784.115; 2728.875;    0.000;    0.000
784.306; 2734.875;    0.000;    0.000
784.498; 2756.875;    0.000;    0.000
784.689; 2829.875;    0.000;    0.000
784.880; 2848.875;    0.000;    0.000
785.072; 2698.875;    0.000;    0.000
785.263; 2785.875;    0.000;    0.000
785.454; 2768.875;    0.000;    0.000
785.645; 2547.875;    0.000;    0.000
785.837; 2558.875;    0.000;    0.000
786.028; 2651.875;    0.000;    0.000
786.219; 2613.875;    0.000;    0.000
786.410; 2572.875;    0.000;    0.000
786.601; 2582.875;    0.000;    0.000
786.793; 2639.875;    0.000;    0.000
786.984; 2564.875;    0.000;    0.000
787.175; 2597.875;    0.000;    0.000
787.366; 2688.875;    0.000;    0.000
787.557; 2605.875;    0.000;    0.000
787.748; 2578.875;    0.000;    0.000
787.939; 2590.875;    0.000;    0.000
788.130; 2567.875;    0.000;    0.000
788.321; 2524.875;    0.000;    0.000
788.512; 2703.875;    0.000;    0.000
788.703; 2587.875;    0.000;    0.000
788.894; 2589.875;    0.000;    0.000
789.084; 2618.875;    0.000;    0.000
789.275; 2534.875;    0.000;    0.000
789.466; 2696.875;    0.000;    0.000
789.657; 2612.875;    0.000;    0.000
789.848; 2605.875;    0.000;    0.000
790.039; 2535.875;    0.000;    0.000
790.229; 2611.875;    0.000;    0.000
790.420; 2574.875;    0.000;    0.000
790.611; 2610.875;    0.000;    0.000
790.801; 2581.875;    0.000;    0.000
790.992; 2570.875;    0.000;    0.000
791.183; 2620.875;    0.000;    0.000
791.373; 2615.875;    0.000;    0.000
791.564; 2527.875;    0.000;    0.000
791.755; 2649.875;    0.000;    0.000
791.945; 2615.875;    0.000;    0.000
792.136; 2570.875;    0.000;    0.000
792.326; 2582.875;    0.000;    0.000
792.517; 2570.875;    0.000;    0.000
792.707; 2701.875;    0.000;    0.000
792.898; 2576.875;    0.000;    0.000
793.088; 2657.875;    0.000;    0.000
793.279; 2729.875;    0.000;    0.000
793.469; 2677.875;    0.000;    0.000
793.660; 2757.875;    0.000;    0.000
793.850; 2850.875;    0.000;    0.000
794.040; 2867.875;    0.000;    0.000
794.231; 2879.875;    0.000;    0.000
794.421; 3075.875;    0.000;    0.000
794.611; 3247.875;    0.000;    0.000
794.802; 3545.875;    0.000;    0.000
794.992; 3562.875;    0.000;    0.000
795.182; 3508.875;    0.000;    0.000
795.372; 3430.875;    0.000;    0.000
795.563; 3294.875;    0.000;    0.000
795.753; 3125.875;    0.000;    0.000
795.943; 3149.875;    0.000;    0.000
796.133; 2956.875;    0.000;    0.000
796.323; 2993.875;    0.000;    0.000
796.513; 2911.875;    0.000;    0.000
796.703; 2885.875;    0.000;    0.000
796.893; 2863.875;    0.000;    0.000
797.083; 2902.875;    0.000;    0.000
797.273; 2935.875;    0.000;    0.000
797.463; 2876.875;    0.000;    0.000
797.653; 2857.875;    0.000;    0.000
797.843; 2740.875;    0.000;    0.000
798.033; 2747.875;    0.000;    0.000
798.223; 2722.875;    0.000;    0.000
798.413; 2598.875;    0.000;    0.000
798.603; 2593.875;    0.000;    0.000
798.793; 2552.875;    0.000;    0.000
798.983; 2586.875;    0.000;    0.000
799.172; 2609.875;    0.000;    0.000
799.362; 2503.875;    0.000;    0.000
799.552; 2567.875;    0.000;    0.000
799.742; 2544.875;    0.000;    0.000
799.932; 2493.875;    0.000;    0.000
800.121; 2575.875;    0.000;    0.000
800.311; 2514.875;    0.000;    0.000
800.501; 2508.875;    0.000;    0.000
800.690; 2522.875;    0.000;    0.000
800.880; 2521.875;    0.000;    0.000
801.070; 2462.875;    0.000;    0.000
801.259; 2489.875;    0.000;    0.000
801.449; 2466.875;    0.000;    0.000
801.638; 2539.875;    0.000;    0.000
801.828; 2467.875;    0.000;    0.000
802.017; 2463.875;    0.000;    0.000
802.207; 2435.875;    0.000;    0.000
802.396; 2395.875;    0.000;    0.000
802.586; 2482.875;    0.000;    0.000
802.775; 2522.875;    0.000;    0.000
802.965; 2482.875;    0.000;    0.000
803.154; 2488.875;    0.000;    0.000
803.343; 2508.875;    0.000;    0.000
803.533; 2499.875;    0.000;    0.000
803.722; 2517.875;    0.000;    0.000
803.911; 2481.875;    0.000;    0.000
804.101; 2462.875;    0.000;    0.000
804.290; 2504.875;    0.000;    0.000
804.479; 2522.875;    0.000;    0.000
804.668; 2565.875;    0.000;    0.000
804.857; 2473.875;    0.000;    0.000
805.047; 2427.875;    0.000;    0.000
805.236; 2586.875;    0.000;    0.000
805.425; 2619.875;    0.000;    0.000
805.614; 2499.875;    0.000;    0.000
805.803; 2517.875;    0.000;    0.000
805.992; 2502.875;    0.000;    0.000
806.181; 2501.875;    0.000;    0.000
806.370; 2480.875;    0.000;    0.000
806.559; 2508.875;    0.000;    0.000
806.748; 2537.875;    0.000;    0.000
806.937; 2661.875;    0.000;    0.000
807.126; 2537.875;    0.000;    0.000
807.315; 2602.875;    0.000;    0.000
807.504; 2638.875;    0.000;    0.000
807.693; 2589.875;    0.000;    0.000
807.882; 2553.875;    0.000;    0.000
808.071; 2625.875;    0.000;    0.000
808.260; 2477.875;    0.000;    0.000
808.448; 2653.875;    0.000;    0.000
808.637; 2615.875;    0.000;    0.000
808.826; 2743.875;    0.000;    0.000
809.015; 2697.875;    0.000;    0.000
809.203; 2749.875;    0.000;    0.000
809.392; 2679.875;    0.000;    0.000
809.581; 2818.875;    0.000;    0.000
809.770; 2708.875;    0.000;    0.000
809.958; 2763.875;    0.000;    0.000
810.147; 2789.875;    0.000;    0.000
810.335; 2786.875;    0.000;    0.000
810.524; 2877.875;    0.000;    0.000
810.713; 2778.875;    0.000;    0.000
810.901; 2864.875;    0.000;    0.000
811.090; 2933.875;    0.000;    0.000
811.278; 2929.875;    0.000;    0.000
811.467; 3015.875;    0.000;    0.000
811.655; 3035.875;    0.000;    0.000
811.844; 3076.875;    0.000;    0.000
812.032; 3103.875;    0.000;    0.000
812.220; 3091.875;    0.000;    0.000
812.409; 3132.875;    0.000;    0.000
812.597; 3216.875;    0.000;    0.000
812.785; 3198.875;    0.000;    0.000
812.974; 3294.875;    0.000;    0.000
813.162; 3260.875;    0.000;    0.000
813.350; 3242.875;    0.000;    0.000
813.539; 3300.875;    0.000;    0.000
813.727; 3495.875;    0.000;    0.000
813.915; 3513.875;    0.000;    0.000
814.103; 3536.875;    0.000;    0.000
814.291; 3583.875;    0.000;    0.000
814.480; 3634.875;    0.000;    0.000
814.668; 3634.875;    0.000;    0.000
814.856; 3831.875;    0.000;    0.000
815.044; 3902.875;    0.000;    0.000
815.232; 4036.875;    0.000;    0.000
815.420; 4191.875;    0.000;    0.000
815.608; 4243.875;    0.000;    0.000
815.796; 4406.875;    0.000;    0.000
815.984; 4597.875;    0.000;    0.000
816.172; 4720.875;    0.000;    0.000
816.360; 5012.875;    0.000;    0.000
816.548; 5168.875;    0.000;    0.000
816.736; 5583.875;    0.000;    0.000
816.924; 5957.875;    0.000;    0.000
817.111; 6610.875;    0.000;    0.000
817.299; 7128.875;    0.000;    0.000
817.487; 8124.875;    0.000;    0.000
817.675; 9402.875;    0.000;    0.000
817.863;11855.875;    0.000;    0.000
818.050;19143.875;    0.000;    0.000
818.238;31776.875;    0.000;    0.000
818.426;36060.875;    0.000;    0.000
818.613;28391.875;    0.000;    0.000
818.801;22078.875;    0.000;    0.000
818.989;21656.875;    0.000;    0.000
819.176;26564.875;    0.000;    0.000
819.364;39410.875;    0.000;    0.000
819.552;44812.875;    0.000;    0.000
819.739;36665.875;    0.000;    0.000
819.927;26746.875;    0.000;    0.000
820.114;21294.875;    0.000;    0.000
820.302;17979.875;    0.000;    0.000
820.489;15498.875;    0.000;    0.000
820.677;13677.875;    0.000;    0.000
820.864;12523.875;    0.000;    0.000
821.051;11457.875;    0.000;    0.000
821.239;10834.875;    0.000;    0.000
821.426;10587.875;    0.000;    0.000
821.614;10285.875;    0.000;    0.000
821.801;10036.875;    0.000;    0.000
821.988; 9183.875;    0.000;    0.000
822.176; 8955.875;    0.000;    0.000
822.363; 8650.875;    0.000;    0.000
822.550; 8063.875;    0.000;    0.000
822.737; 7636.875;    0.000;    0.000
822.924; 7250.875;    0.000;    0.000
823.112; 6964.875;    0.000;    0.000
823.299; 6743.875;    0.000;    0.000
823.486; 6388.875;    0.000;    0.000
823.673; 6132.875;    0.000;    0.000
823.860; 5961.875;    0.000;    0.000
824.047; 6004.875;    0.000;    0.000
824.234; 5882.875;    0.000;    0.000
824.421; 5562.875;    0.000;    0.000
824.608; 5476.875;    0.000;    0.000
824.795; 5063.875;    0.000;    0.000
824.982; 5032.875;    0.000;    0.000
825.169; 4727.875;    0.000;    0.000
825.356; 4635.875;    0.000;    0.000
825.543; 4472.875;    0.000;    0.000
825.730; 4312.875;    0.000;    0.000
825.917; 4242.875;    0.000;    0.000
826.104; 4220.875;    0.000;    0.000
826.290; 3970.875;    0.000;    0.000
826.477; 4058.875;    0.000;    0.000
826.664; 3904.875;    0.000;    0.000
826.851; 3747.875;    0.000;    0.000
827.038; 3724.875;    0.000;    0.000
827.224; 3751.875;    0.000;    0.000
827.411; 3619.875;    0.000;    0.000
827.598; 3474.875;    0.000;    0.000
827.784; 3500.875;    0.000;    0.000
827.971; 3402.875;    0.000;    0.000
828.157; 3464.875;    0.000;    0.000
828.344; 3318.875;    0.000;    0.000
828.531; 3223.875;    0.000;    0.000
828.717; 3160.875;    0.000;    0.000
828.904; 3161.875;    0.000;    0.000
829.090; 3174.875;    0.000;    0.000
829.277; 3123.875;    0.000;    0.000
829.463; 3072.875;    0.000;    0.000
829.650; 3104.875;    0.000;    0.000
829.836; 2975.875;    0.000;    0.000
830.022; 3009.875;    0.000;    0.000
830.209; 2988.875;    0.000;    0.000
830.395; 2914.875;    0.000;    0.000
830.581; 2888.875;    0.000;    0.000
830.768; 2816.875;    0.000;    0.000
830.954; 2817.875;    0.000;    0.000
831.140; 2786.875;    0.000;    0.000
831.327; 2863.875;    0.000;    0.000
831.513; 2744.875;    0.000;    0.000
831.699; 2734.875;    0.000;    0.000
831.885; 2655.875;    0.000;    0.000
832.071; 2685.875;    0.000;    0.000
832.257; 2662.875;    0.000;    0.000
832.444; 2622.875;    0.000;    0.000
832.630; 2605.875;    0.000;    0.000
832.816; 2580.875;    0.000;    0.000
833.002; 2603.875;    0.000;    0.000
833.188; 2521.875;    0.000;    0.000
833.374; 2595.875;    0.000;    0.000
833.560; 2505.875;    0.000;    0.000
833.746; 2526.875;    0.000;    0.000
833.932; 2424.875;    0.000;    0.000
834.118; 2457.875;    0.000;    0.000
834.303; 2416.875;    0.000;    0.000
834.489; 2345.875;    0.000;    0.000
834.675; 2313.875;    0.000;    0.000
834.861; 2380.875;    0.000;    0.000
835.047; 2415.875;    0.000;    0.000
835.233; 2358.875;    0.000;    0.000
835.418; 2447.875;    0.000;    0.000
835.604; 2289.875;    0.000;    0.000
835.790; 2268.875;    0.000;    0.000
835.976; 2288.875;    0.000;    0.000
836.161; 2309.875;    0.000;    0.000
836.347; 2192.875;    0.000;    0.000
836.533; 2217.875;    0.000;    0.000
836.718; 2232.875;    0.000;    0.000
836.904; 2318.875;    0.000;    0.000
837.089; 2257.875;    0.000;    0.000
837.275; 2276.875;    0.000;    0.000
837.460; 2227.875;    0.000;    0.000
837.646; 2150.875;    0.000;    0.000
837.831; 2183.875;    0.000;    0.000
838.017; 2235.875;    0.000;    0.000
838.202; 2252.875;    0.000;    0.000
838.388; 2234.875;    0.000;    0.000
838.573; 2197.875;    0.000;    0.000
838.759; 2280.875;    0.000;    0.000
838.944; 2236.875;    0.000;    0.000
839.129; 2230.875;    0.000;    0.000
839.315; 2199.875;    0.000;    0.000
839.500; 2215.875;    0.000;    0.000
839.685; 2114.875;    0.000;    0.000
839.870; 2202.875;    0.000;    0.000
840.056; 2179.875;    0.000;    0.000
840.241; 2084.875;    0.000;    0.000
840.426; 2180.875;    0.000;    0.000
840.611; 2177.875;    0.000;    0.000
840.796; 2109.875;    0.000;    0.000
840.981; 2138.875;    0.000;    0.000
841.166; 2216.875;    0.000;    0.000
841.352; 2188.875;    0.000;    0.000
841.537; 2197.875;    0.000;    0.000
841.722; 2187.875;    0.000;    0.000
841.907; 2203.875;    0.000;    0.000
842.092; 2256.875;    0.000;    0.000
842.277; 2218.875;    0.000;    0.000
842.462; 2281.875;    0.000;    0.000
842.646; 2318.875;    0.000;    0.000
842.831; 2384.875;    0.000;    0.000
843.016; 2342.875;    0.000;    0.000
843.201; 2355.875;    0.000;    0.000
843.386; 2431.875;    0.000;    0.000
843.571; 2483.875;    0.000;    0.000
843.755; 2524.875;    0.000;    0.000
843.940; 2629.875;    0.000;    0.000
844.125; 2852.875;    0.000;    0.000
844.310; 3182.875;    0.000;    0.000
844.494; 3686.875;    0.000;    0.000
844.679; 4238.875;    0.000;    0.000
844.864; 4085.875;    0.000;    0.000
845.048; 3702.875;    0.000;    0.000
845.233; 3393.875;    0.000;    0.000
845.418; 3125.875;    0.000;    0.000
845.602; 2935.875;    0.000;    0.000
845.787; 2787.875;    0.000;    0.000
845.971; 2651.875;    0.000;    0.000
846.156; 2469.875;    0.000;    0.000
846.340; 2433.875;    0.000;    0.000
846.525; 2406.875;    0.000;    0.000
846.709; 2302.875;    0.000;    0.000
846.894; 2302.875;    0.000;    0.000
847.078; 2231.875;    0.000;    0.000
847.262; 2301.875;    0.000;    0.000
847.447; 2207.875;    0.000;    0.000
847.631; 2157.875;    0.000;    0.000
847.815; 2159.875;    0.000;    0.000
848.000; 2098.875;    0.000;    0.000
848.184; 2115.875;    0.000;    0.000
848.368; 2042.875;    0.000;    0.000
848.552; 2039.875;    0.000;    0.000
848.736; 2066.875;    0.000;    0.000
848.921; 2071.875;    0.000;    0.000
849.105; 2012.875;    0.000;    0.000
849.289; 2031.875;    0.000;    0.000
849.473; 1952.875;    0.000;    0.000
849.657; 1989.875;    0.000;    0.000
849.841; 1898.875;    0.000;    0.000
850.025; 1958.875;    0.000;    0.000
850.209; 1934.875;    0.000;    0.000
850.393; 1898.875;    0.000;    0.000
850.577; 1937.875;    0.000;    0.000
850.761; 1815.875;    0.000;    0.000
850.945; 1847.875;    0.000;    0.000
851.129; 1917.875;    0.000;    0.000
851.313; 1863.875;    0.000;    0.000
851.497; 1805.875;    0.000;    0.000
851.680; 1862.875;    0.000;    0.000
851.864; 1890.875;    0.000;    0.000
852.048; 1829.875;    0.000;    0.000
852.232; 1782.875;    0.000;    0.000
852.416; 1901.875;    0.000;    0.000
852.599; 1861.875;    0.000;    0.000
852.783; 1893.875;    0.000;    0.000
852.967; 1821.875;    0.000;    0.000
853.150; 1843.875;    0.000;    0.000
853.334; 1837.875;    0.000;    0.000
853.518; 1835.875;    0.000;    0.000
853.701; 1857.875;    0.000;    0.000
853.885; 1897.875;    0.000;    0.000
854.068; 1838.875;    0.000;    0.000
854.252; 1799.875;    0.000;    0.000
854.435; 1860.875;    0.000;    0.000
854.619; 1815.875;    0.000;    0.000
854.802; 1789.875;    0.000;    0.000
854.986; 1689.875;    0.000;    0.000
855.169; 1752.875;    0.000;    0.000
855.353; 1800.875;    0.000;    0.000
855.536; 1698.875;    0.000;    0.000
855.719; 1771.875;    0.000;    0.000
855.903; 1769.875;    0.000;    0.000
856.086; 1808.875;    0.000;    0.000
856.269; 1764.875;    0.000;    0.000
856.452; 1847.875;    0.000;    0.000
856.636; 1864.875;    0.000;    0.000
856.819; 1931.875;    0.000;    0.000
857.002; 1828.875;    0.000;    0.000
857.185; 1878.875;    0.000;    0.000
857.368; 1856.875;    0.000;    0.000
857.552; 1834.875;    0.000;    0.000
857.735; 1950.875;    0.000;    0.000
857.918; 1844.875;    0.000;    0.000
858.101; 1821.875;    0.000;    0.000
858.284; 1882.875;    0.000;    0.000
858.467; 1789.875;    0.000;    0.000
858.650; 1841.875;    0.000;    0.000
858.833; 1882.875;    0.000;    0.000
859.016; 1917.875;    0.000;    0.000
859.199; 1895.875;    0.000;    0.000
859.382; 2045.875;    0.000;    0.000
859.564; 1959.875;    0.000;    0.000
859.747; 1991.875;    0.000;    0.000
859.930; 1981.875;    0.000;    0.000
860.113; 1954.875;    0.000;    0.000
860.296; 1975.875;    0.000;    0.000
860.478; 1982.875;    0.000;    0.000
860.661; 1868.875;    0.000;    0.000
860.844; 1835.875;    0.000;    0.000
861.027; 1947.875;    0.000;    0.000
861.209; 1894.875;    0.000;    0.000
861.392; 1911.875;    0.000;    0.000
861.575; 1890.875;    0.000;    0.000
861.757; 1996.875;    0.000;    0.000
861.940; 1952.875;    0.000;    0.000
862.122; 2035.875;    0.000;    0.000
862.305; 1932.875;    0.000;    0.000
862.487; 2073.875;    0.000;    0.000
862.670; 2152.875;    0.000;    0.000
862.852; 2272.875;    0.000;    0.000
863.035; 2384.875;    0.000;    0.000
863.217; 2434.875;    0.000;    0.000
863.400; 2367.875;    0.000;    0.000
863.582; 2318.875;    0.000;    0.000
863.764; 2284.875;    0.000;    0.000
863.947; 2224.875;    0.000;    0.000
864.129; 2229.875;    0.000;    0.000
864.311; 2140.875;    0.000;    0.000
864.493; 2155.875;    0.000;    0.000
864.676; 2210.875;    0.000;    0.000
864.858; 2104.875;    0.000;    0.000
865.040; 2153.875;    0.000;    0.000
865.222; 2186.875;    0.000;    0.000
865.404; 2076.875;    0.000;    0.000
865.587; 2185.875;    0.000;    0.000
865.769; 2262.875;    0.000;    0.000
865.951; 2279.875;    0.000;    0.000
866.133; 2257.875;    0.000;    0.000
866.315; 2376.875;    0.000;    0.000
866.497; 2305.875;    0.000;    0.000
866.679; 2415.875;    0.000;    0.000
866.861; 2380.875;    0.000;    0.000
867.043; 2497.875;    0.000;    0.000
867.225; 2586.875;    0.000;    0.000
867.407; 2711.875;    0.000;    0.000
867.589; 2954.875;    0.000;    0.000
867.770; 3298.875;    0.000;    0.000
867.952; 3975.875;    0.000;    0.000
868.134; 4475.875;    0.000;    0.000
868.316; 4600.875;    0.000;    0.000
868.498; 4439.875;    0.000;    0.000
868.679; 3971.875;    0.000;    0.000
868.861; 3588.875;    0.000;    0.000
869.043; 3266.875;    0.000;    0.000
869.224; 3068.875;    0.000;    0.000
869.406; 2948.875;    0.000;    0.000
869.588; 2816.875;    0.000;    0.000
869.769; 2692.875;    0.000;    0.000
869.951; 2787.875;    0.000;    0.000
870.132; 2732.875;    0.000;    0.000
870.314; 2850.875;    0.000;    0.000
870.495; 2830.875;    0.000;    0.000
870.677; 2682.875;    0.000;    0.000
870.858; 2672.875;    0.000;    0.000
871.040; 2772.875;    0.000;    0.000
871.221; 2793.875;    0.000;    0.000
871.403; 2767.875;    0.000;    0.000
871.584; 2767.875;    0.000;    0.000
871.765; 2960.875;    0.000;    0.000
871.947; 2868.875;    0.000;    0.000
872.128; 2601.875;    0.000;    0.000
872.309; 2474.875;    0.000;    0.000
872.491; 2412.875;    0.000;    0.000
872.672; 2236.875;    0.000;    0.000
872.853; 2212.875;    0.000;    0.000
873.034; 2157.875;    0.000;    0.000
873.215; 2215.875;    0.000;    0.000
873.396; 2032.875;    0.000;    0.000
873.578; 2030.875;    0.000;    0.000
873.759; 2020.875;    0.000;    0.000
873.940; 2075.875;    0.000;    0.000
874.121; 1968.875;    0.000;    0.000
874.302; 1978.875;    0.000;    0.000
874.483; 1921.875;    0.000;    0.000
874.664; 1930.875;    0.000;    0.000
874.845; 1854.875;    0.000;    0.000
875.026; 1814.875;    0.000;    0.000
875.207; 1891.875;    0.000;    0.000
875.388; 1859.875;    0.000;    0.000
875.568; 1855.875;    0.000;    0.000
875.749; 1869.875;    0.000;    0.000
875.930; 1843.875;    0.000;    0.000
876.111; 1878.875;    0.000;    0.000
876.292; 1814.875;    0.000;    0.000
876.472; 1744.875;    0.000;    0.000
876.653; 1917.875;    0.000;    0.000
876.834; 1726.875;    0.000;    0.000
877.015; 1841.875;    0.000;    0.000
877.195; 1755.875;    0.000;    0.000
877.376; 1720.875;    0.000;    0.000
877.556; 1747.875;    0.000;    0.000
877.737; 1779.875;    0.000;    0.000
877.918; 1779.875;    0.000;    0.000
878.098; 1674.875;    0.000;    0.000
878.279; 1694.875;    0.000;    0.000
878.459; 1758.875;    0.000;    0.000
878.640; 1770.875;    0.000;    0.000
878.820; 1732.875;    0.000;    0.000
879.000; 1731.875;    0.000;    0.000
879.181; 1693.875;    0.000;    0.000
879.361; 1817.875;    0.000;    0.000
879.542; 1745.875;    0.000;    0.000
879.722; 1690.875;    0.000;    0.000
879.902; 1676.875;    0.000;    0.000
880.083; 1669.875;    0.000;    0.000
880.263; 1723.875;    0.000;    0.000
880.443; 1839.875;    0.000;    0.000
880.623; 2003.875;    0.000;    0.000
880.803; 2040.875;    0.000;    0.000
880.984; 1933.875;    0.000;    0.000
881.164; 1834.875;    0.000;    0.000
881.344; 1826.875;    0.000;    0.000
881.524; 1786.875;    0.000;    0.000
881.704; 1820.875;    0.000;    0.000
881.884; 1823.875;    0.000;    0.000
882.064; 1857.875;    0.000;    0.000
882.244; 1825.875;    0.000;    0.000
882.424; 1861.875;    0.000;    0.000
882.604; 1816.875;    0.000;    0.000
882.784; 1770.875;    0.000;    0.000
882.964; 1765.875;    0.000;    0.000
883.144; 1707.875;    0.000;    0.000
883.324; 1785.875;    0.000;    0.000
883.504; 1682.875;    0.000;    0.000
883.683; 1715.875;    0.000;    0.000
883.863; 1741.875;    0.000;    0.000
884.043; 1604.875;    0.000;    0.000
884.223; 1649.875;    0.000;    0.000
884.402; 1687.875;    0.000;    0.000
884.582; 1722.875;    0.000;    0.000
884.762; 1687.875;    0.000;    0.000
884.941; 1750.875;    0.000;    0.000
885.121; 1665.875;    0.000;    0.000
885.301; 1714.875;    0.000;    0.000
885.480; 1691.875;    0.000;    0.000
885.660; 1642.875;    0.000;    0.000
885.839; 1677.875;    0.000;    0.000
886.019; 1731.875;    0.000;    0.000
886.198; 1645.875;    0.000;    0.000
886.378; 1618.875;    0.000;    0.000
886.557; 1681.875;    0.000;    0.000
886.737; 1623.875;    0.000;    0.000
886.916; 1712.875;    0.000;    0.000
887.095; 1711.875;    0.000;    0.000
887.275; 1715.875;    0.000;    0.000
887.454; 1679.875;    0.000;    0.000
887.633; 1696.875;    0.000;    0.000
887.813; 1724.875;    0.000;    0.000
887.992; 1674.875;    0.000;    0.000
888.171; 1642.875;    0.000;    0.000
888.350; 1702.875;    0.000;    0.000
888.530; 1642.875;    0.000;    0.000
888.709; 1594.875;    0.000;    0.000
888.888; 1649.875;    0.000;    0.000
889.067; 1675.875;    0.000;    0.000
889.246; 1665.875;    0.000;    0.000
889.425; 1693.875;    0.000;    0.000
889.604; 1679.875;    0.000;    0.000
889.783; 1627.875;    0.000;    0.000
889.962; 1656.875;    0.000;    0.000
890.141; 1659.875;    0.000;    0.000
890.320; 1675.875;    0.000;    0.000
890.499; 1678.875;    0.000;    0.000
890.678; 1678.875;    0.000;    0.000
890.857; 1610.875;    0.000;    0.000
891.036; 1742.875;    0.000;    0.000
891.214; 1636.875;    0.000;    0.000
891.393; 1619.875;    0.000;    0.000
891.572; 1651.875;    0.000;    0.000
891.751; 1643.875;    0.000;    0.000
891.930; 1661.875;    0.000;    0.000
892.108; 1650.875;    0.000;    0.000
892.287; 1666.875;    0.000;    0.000
892.466; 1664.875;    0.000;    0.000
892.644; 1672.875;    0.000;    0.000
892.823; 1683.875;    0.000;    0.000
893.001; 1625.875;    0.000;    0.000
893.180; 1631.875;    0.000;    0.000
893.359; 1680.875;    0.000;    0.000
893.537; 1672.875;    0.000;    0.000
893.716; 1606.875;    0.000;    0.000
893.894; 1669.875;    0.000;    0.000
894.073; 1596.875;    0.000;    0.000
894.251; 1584.875;    0.000;    0.000
894.429; 1558.875;    0.000;    0.000
894.608; 1641.875;    0.000;    0.000
894.786; 1621.875;    0.000;    0.000
894.964; 1660.875;    0.000;    0.000
895.143; 1650.875;    0.000;    0.000
895.321; 1565.875;    0.000;    0.000
895.499; 1621.875;    0.000;    0.000
895.677; 1623.875;    0.000;    0.000
895.856; 1666.875;    0.000;    0.000
896.034; 1601.875;    0.000;    0.000
896.212; 1693.875;    0.000;    0.000
896.390; 1689.875;    0.000;    0.000
896.568; 1646.875;    0.000;    0.000
896.746; 1653.875;    0.000;    0.000
896.924; 1693.875;    0.000;    0.000
897.102; 1675.875;    0.000;    0.000
897.280; 1675.875;    0.000;    0.000
897.458; 1701.875;    0.000;    0.000
897.636; 1657.875;    0.000;    0.000
897.814; 1665.875;    0.000;    0.000
897.992; 1716.875;    0.000;    0.000
898.170; 1690.875;    0.000;    0.000
898.348; 1603.875;    0.000;    0.000
898.526; 1693.875;    0.000;    0.000
898.704; 1769.875;    0.000;    0.000
898.882; 1594.875;    0.000;    0.000
899.059; 1659.875;    0.000;    0.000
899.237; 1652.875;    0.000;    0.000
899.415; 1717.875;    0.000;    0.000
899.593; 1681.875;    0.000;    0.000
899.770; 1727.875;    0.000;    0.000
899.948; 1572.875;    0.000;    0.000
900.125; 1710.875;    0.000;    0.000
900.303; 1699.875;    0.000;    0.000
900.481; 1663.875;    0.000;    0.000
900.658; 1732.875;    0.000;    0.000
900.836; 1704.875;    0.000;    0.000
901.013; 1725.875;    0.000;    0.000
901.191; 1686.875;    0.000;    0.000
901.368; 1692.875;    0.000;    0.000
901.546; 1730.875;    0.000;    0.000
901.723; 1730.875;    0.000;    0.000
901.901; 1721.875;    0.000;    0.000
902.078; 1787.875;    0.000;    0.000
902.255; 1734.875;    0.000;    0.000
902.433; 1753.875;    0.000;    0.000
902.610; 1807.875;    0.000;    0.000
902.787; 1705.875;    0.000;    0.000
902.964; 1806.875;    0.000;    0.000
903.142; 1877.875;    0.000;    0.000
903.319; 1883.875;    0.000;    0.000
903.496; 1858.875;    0.000;    0.000
903.673; 1999.875;    0.000;    0.000
903.850; 1761.875;    0.000;    0.000
904.027; 1871.875;    0.000;    0.000
904.204; 1976.875;    0.000;    0.000
904.381; 1995.875;    0.000;    0.000
904.558; 2078.875;    0.000;    0.000
904.735; 2207.875;    0.000;    0.000
904.912; 2186.875;    0.000;    0.000
905.089; 2194.875;    0.000;    0.000
905.266; 2088.875;    0.000;    0.000
905.443; 2063.875;    0.000;    0.000
905.620; 1996.875;    0.000;    0.000
905.797; 1917.875;    0.000;    0.000
905.974; 1869.875;    0.000;    0.000
906.151; 1896.875;    0.000;    0.000
906.327; 1988.875;    0.000;    0.000
906.504; 1944.875;    0.000;    0.000
906.681; 1903.875;    0.000;    0.000
906.858; 1867.875;    0.000;    0.000
907.034; 1958.875;    0.000;    0.000
907.211; 1906.875;    0.000;    0.000
907.388; 1972.875;    0.000;    0.000
907.564; 1922.875;    0.000;    0.000
907.741; 1878.875;    0.000;    0.000
907.917; 1881.875;    0.000;    0.000
908.094; 1871.875;    0.000;    0.000
908.270; 1902.875;    0.000;    0.000
908.447; 1909.875;    0.000;    0.000
908.623; 1887.875;    0.000;    0.000
908.800; 1861.875;    0.000;    0.000
908.976; 1836.875;    0.000;    0.000
909.153; 1843.875;    0.000;    0.000
909.329; 1837.875;    0.000;    0.000
909.505; 1770.875;    0.000;    0.000
909.682; 1833.875;    0.000;    0.000
909.858; 1766.875;    0.000;    0.000
910.034; 1864.875;    0.000;    0.000
910.211; 1765.875;    0.000;    0.000
910.387; 1825.875;    0.000;    0.000
910.563; 1755.875;    0.000;    0.000
910.739; 1819.875;    0.000;    0.000
910.915; 1754.875;    0.000;    0.000
911.091; 1793.875;    0.000;    0.000
911.268; 1803.875;    0.000;    0.000
911.444; 1768.875;    0.000;    0.000
911.620; 1744.875;    0.000;    0.000
911.796; 1785.875;    0.000;    0.000
911.972; 1761.875;    0.000;    0.000
912.148; 1756.875;    0.000;    0.000
912.324; 1840.875;    0.000;    0.000
912.500; 1820.875;    0.000;    0.000
912.676; 1763.875;    0.000;    0.000
912.851; 1765.875;    0.000;    0.000
913.027; 1776.875;    0.000;    0.000
913.203; 1748.875;    0.000;    0.000
913.379; 1726.875;    0.000;    0.000
913.555; 1794.875;    0.000;    0.000
913.730; 1783.875;    0.000;    0.000
913.906; 1782.875;    0.000;    0.000
914.082; 1848.875;    0.000;    0.000
914.258; 1779.875;    0.000;    0.000
914.433; 1743.875;    0.000;    0.000
914.609; 1734.875;    0.000;    0.000
914.785; 1783.875;    0.000;    0.000
914.960; 1826.875;    0.000;    0.000
915.136; 1700.875;    0.000;    0.000
915.311; 1758.875;    0.000;    0.000
915.487; 1717.875;    0.000;    0.000
915.662; 1838.875;    0.000;    0.000
915.838; 1773.875;    0.000;    0.000
916.013; 1816.875;    0.000;    0.000
916.189; 1769.875;    0.000;    0.000
916.364; 1805.875;    0.000;    0.000
916.539; 1815.875;    0.000;    0.000
916.715; 1761.875;    0.000;    0.000
916.890; 1776.875;    0.000;    0.000
917.065; 1715.875;    0.000;    0.000
917.240; 1743.875;    0.000;    0.000
917.416; 1734.875;    0.000;    0.000
917.591; 1815.875;    0.000;    0.000
917.766; 1848.875;    0.000;    0.000
917.941; 1746.875;    0.000;    0.000
918.116; 1804.875;    0.000;    0.000
918.292; 1777.875;    0.000;    0.000
918.467; 1798.875;    0.000;    0.000
918.642; 1792.875;    0.000;    0.000
918.817; 1749.875;    0.000;    0.000
918.992; 1726.875;    0.000;    0.000
919.167; 1809.875;    0.000;    0.000
919.342; 1843.875;    0.000;    0.000
919.517; 1854.875;    0.000;    0.000
919.692; 1763.875;    0.000;    0.000
919.867; 1869.875;    0.000;    0.000
920.041; 1783.875;    0.000;    0.000
920.216; 1852.875;    0.000;    0.000
920.391; 1923.875;    0.000;    0.000
920.566; 1908.875;    0.000;    0.000
920.741; 1897.875;    0.000;    0.000
920.915; 2084.875;    0.000;    0.000
921.090; 2194.875;    0.000;    0.000
921.265; 2306.875;    0.000;    0.000
921.439; 2412.875;    0.000;    0.000
921.614; 2323.875;    0.000;    0.000
921.789; 2240.875;    0.000;    0.000
921.963; 2223.875;    0.000;    0.000
922.138; 2005.875;    0.000;    0.000
922.312; 2112.875;    0.000;    0.000
922.487; 2116.875;    0.000;    0.000
922.661; 2224.875;    0.000;    0.000
922.836; 2268.875;    0.000;    0.000
923.010; 2257.875;    0.000;    0.000
923.185; 2242.875;    0.000;    0.000
923.359; 2188.875;    0.000;    0.000
923.534; 2282.875;    0.000;    0.000
923.708; 2194.875;    0.000;    0.000
923.882; 2177.875;    0.000;    0.000
924.057; 2163.875;    0.000;    0.000
924.231; 2110.875;    0.000;    0.000
924.405; 2075.875;    0.000;    0.000
924.579; 2173.875;    0.000;    0.000
924.753; 2051.875;    0.000;    0.000
924.928; 2058.875;    0.000;    0.000
925.102; 1995.875;    0.000;    0.000
925.276; 2044.875;    0.000;    0.000
925.450; 1937.875;    0.000;    0.000
925.624; 1962.875;    0.000;    0.000
925.798; 2011.875;    0.000;    0.000
925.972; 1990.875;    0.000;    0.000
926.146; 2056.875;    0.000;    0.000
926.320; 2031.875;    0.000;    0.000
926.494; 2141.875;    0.000;    0.000
926.668; 2184.875;    0.000;    0.000
926.842; 2205.875;    0.000;    0.000
927.016; 2194.875;    0.000;    0.000
927.190; 2276.875;    0.000;    0.000
927.363; 2203.875;    0.000;    0.000
927.537; 2192.875;    0.000;    0.000
927.711; 2165.875;    0.000;    0.000
927.885; 2145.875;    0.000;    0.000
928.058; 2140.875;    0.000;    0.000
928.232; 2194.875;    0.000;    0.000
928.406; 2090.875;    0.000;    0.000
928.579; 2177.875;    0.000;    0.000
928.753; 2097.875;    0.000;    0.000
928.927; 2118.875;    0.000;    0.000
929.100; 2003.875;    0.000;    0.000
929.274; 2003.875;    0.000;    0.000
929.447; 2005.875;    0.000;    0.000
929.621; 1971.875;    0.000;    0.000
929.794; 2007.875;    0.000;    0.000
929.968; 1962.875;    0.000;    0.000
930.141; 1988.875;    0.000;    0.000
930.315; 2003.875;    0.000;    0.000
930.488; 1968.875;    0.000;    0.000
930.661; 1918.875;    0.000;    0.000
930.835; 1855.875;    0.000;    0.000
931.008; 1916.875;    0.000;    0.000
931.181; 1918.875;    0.000;    0.000
931.354; 1906.875;    0.000;    0.000
931.528; 1885.875;    0.000;    0.000
931.701; 1858.875;    0.000;    0.000
931.874; 1844.875;    0.000;    0.000
932.047; 1839.875;    0.000;    0.000
932.220; 1871.875;    0.000;    0.000
932.393; 1857.875;    0.000;    0.000
932.566; 1819.875;    0.000;    0.000
932.739; 1896.875;    0.000;    0.000
932.912; 1882.875;    0.000;    0.000
933.085; 1926.875;    0.000;    0.000
933.258; 1871.875;    0.000;    0.000
933.431; 1880.875;    0.000;    0.000
933.604; 1880.875;    0.000;    0.000
933.777; 1803.875;    0.000;    0.000
933.950; 1783.875;    0.000;    0.000
934.123; 1792.875;    0.000;    0.000
934.296; 1798.875;    0.000;    0.000
934.468; 1838.875;    0.000;    0.000
934.641; 1844.875;    0.000;    0.000
934.814; 1832.875;    0.000;    0.000
934.987; 1796.875;    0.000;    0.000
935.159; 1805.875;    0.000;    0.000
935.332; 1833.875;    0.000;    0.000
935.505; 1848.875;    0.000;    0.000
935.677; 1798.875;    0.000;    0.000
935.850; 1810.875;    0.000;    0.000
936.022; 1869.875;    0.000;    0.000
936.195; 1845.875;    0.000;    0.000
936.367; 1844.875;    0.000;    0.000
936.540; 1883.875;    0.000;    0.000
936.712; 1819.875;    0.000;    0.000
936.885; 1881.875;    0.000;    0.000
937.057; 1847.875;    0.000;    0.000
937.229; 1850.875;    0.000;    0.000
937.402; 1842.875;    0.000;    0.000
937.574; 1884.875;    0.000;    0.000
937.746; 1879.875;    0.000;    0.000
937.919; 1916.875;    0.000;    0.000
938.091; 1925.875;    0.000;    0.000
938.263; 1937.875;    0.000;    0.000
938.435; 2016.875;    0.000;    0.000
938.608; 2038.875;    0.000;    0.000
938.780; 2130.875;    0.000;    0.000
938.952; 2181.875;    0.000;    0.000
939.124; 2233.875;    0.000;    0.000
939.296; 2216.875;    0.000;    0.000
939.468; 2243.875;    0.000;    0.000
939.640; 2287.875;    0.000;    0.000
939.812; 2137.875;    0.000;    0.000
939.984; 2055.875;    0.000;    0.000
940.156; 2046.875;    0.000;    0.000
940.328; 2086.875;    0.000;    0.000
940.500; 1986.875;    0.000;    0.000
940.672; 1901.875;    0.000;    0.000
940.843; 1920.875;    0.000;    0.000
941.015; 1953.875;    0.000;    0.000
941.187; 1931.875;    0.000;    0.000
941.359; 1919.875;    0.000;    0.000
941.531; 1949.875;    0.000;    0.000
941.702; 1978.875;    0.000;    0.000
941.874; 1989.875;    0.000;    0.000
942.046; 1942.875;    0.000;    0.000
942.217; 1872.875;    0.000;    0.000
942.389; 1919.875;    0.000;    0.000
942.560; 1819.875;    0.000;    0.000
942.732; 1889.875;    0.000;    0.000
942.904; 1835.875;    0.000;    0.000
943.075; 1750.875;    0.000;    0.000
943.247; 1802.875;    0.000;    0.000
943.418; 1790.875;    0.000;    0.000
943.589; 1785.875;    0.000;    0.000
943.761; 1864.875;    0.000;    0.000
943.932; 1849.875;    0.000;    0.000
944.104; 1839.875;    0.000;    0.000
944.275; 1813.875;    0.000;    0.000
944.446; 1843.875;    0.000;    0.000
944.617; 1718.875;    0.000;    0.000
944.789; 1715.875;    0.000;    0.000
944.960; 1790.875;    0.000;    0.000
945.131; 1775.875;    0.000;    0.000
945.302; 1936.875;    0.000;    0.000
945.473; 1765.875;    0.000;    0.000
945.645; 1826.875;    0.000;    0.000
945.816; 1831.875;    0.000;    0.000
945.987; 1862.875;    0.000;    0.000
946.158; 1766.875;    0.000;    0.000
946.329; 1849.875;    0.000;    0.000
946.500; 1849.875;    0.000;    0.000
946.671; 1808.875;    0.000;    0.000
946.842; 1833.875;    0.000;    0.000
947.013; 1831.875;    0.000;    0.000
947.183; 1869.875;    0.000;    0.000
947.354; 1827.875;    0.000;    0.000
947.525; 1826.875;    0.000;    0.000
947.696; 1731.875;    0.000;    0.000
947.867; 1826.875;    0.000;    0.000
948.037; 1829.875;    0.000;    0.000
948.208; 1794.875;    0.000;    0.000
948.379; 1813.875;    0.000;    0.000
948.550; 1838.875;    0.000;    0.000
948.720; 1793.875;    0.000;    0.000
948.891; 1757.875;    0.000;    0.000
949.061; 1783.875;    0.000;    0.000
949.232; 1679.875;    0.000;    0.000
949.403; 1713.875;    0.000;    0.000
949.573; 1763.875;    0.000;    0.000
949.744; 1719.875;    0.000;    0.000
949.914; 1660.875;    0.000;    0.000
950.085; 1694.875;    0.000;    0.000
950.255; 1791.875;    0.000;    0.000
950.425; 1770.875;    0.000;    0.000
950.596; 1736.875;    0.000;    0.000
950.766; 1790.875;    0.000;    0.000
950.936; 1825.875;    0.000;    0.000
951.107; 1730.875;    0.000;    0.000
951.277; 1765.875;    0.000;    0.000
951.447; 1834.875;    0.000;    0.000
951.617; 1833.875;    0.000;    0.000
951.788; 1751.875;    0.000;    0.000
951.958; 1757.875;    0.000;    0.000
952.128; 1727.875;    0.000;    0.000
952.298; 1747.875;    0.000;    0.000
952.468; 1883.875;    0.000;    0.000
952.638; 1788.875;    0.000;    0.000
952.808; 1777.875;    0.000;    0.000
952.978; 1846.875;    0.000;    0.000
953.148; 1764.875;    0.000;    0.000
953.318; 1788.875;    0.000;    0.000
953.488; 1688.875;    0.000;    0.000
953.658; 1721.875;    0.000;    0.000
953.828; 1765.875;    0.000;    0.000
953.998; 1712.875;    0.000;    0.000
954.167; 1818.875;    0.000;    0.000
954.337; 1730.875;    0.000;    0.000
954.507; 1837.875;    0.000;    0.000
954.677; 1779.875;    0.000;    0.000
954.846; 1882.875;    0.000;    0.000
955.016; 1795.875;    0.000;    0.000
955.186; 1887.875;    0.000;    0.000
955.355; 1775.875;    0.000;    0.000
955.525; 1826.875;    0.000;    0.000
955.695; 1811.875;    0.000;    0.000
955.864; 1862.875;    0.000;    0.000
956.034; 1788.875;    0.000;    0.000
956.203; 1922.875;    0.000;    0.000
956.373; 1723.875;    0.000;    0.000
956.542; 1806.875;    0.000;    0.000
956.712; 1829.875;    0.000;    0.000
956.881; 1736.875;    0.000;    0.000
957.050; 1841.875;    0.000;    0.000
957.220; 1758.875;    0.000;    0.000
957.389; 1849.875;    0.000;    0.000
957.558; 1821.875;    0.000;    0.000
957.727; 1792.875;    0.000;    0.000
957.897; 1763.875;    0.000;    0.000
958.066; 1847.875;    0.000;    0.000
958.235; 1821.875;    0.000;    0.000
958.404; 1857.875;    0.000;    0.000
958.573; 1760.875;    0.000;    0.000
958.743; 1766.875;    0.000;    0.000
958.912; 1788.875;    0.000;    0.000
959.081; 1693.875;    0.000;    0.000
959.250; 1757.875;    0.000;    0.000
959.419; 1852.875;    0.000;    0.000
959.588; 1801.875;    0.000;    0.000
959.757; 1846.875;    0.000;    0.000
959.926; 1809.875;    0.000;    0.000
960.094; 1773.875;    0.000;    0.000
960.263; 1782.875;    0.000;    0.000
960.432; 1755.875;    0.000;    0.000
960.601; 1711.875;    0.000;    0.000
960.770; 1707.875;    0.000;    0.000
960.939; 1791.875;    0.000;    0.000
961.107; 1725.875;    0.000;    0.000
961.276; 1816.875;    0.000;    0.000
961.445; 1834.875;    0.000;    0.000
961.613; 1798.875;    0.000;    0.000
961.782; 1806.875;    0.000;    0.000
961.951; 1733.875;    0.000;    0.000
962.119; 1802.875;    0.000;    0.000
962.288; 1771.875;    0.000;    0.000
962.456; 1699.875;    0.000;    0.000
962.625; 1829.875;    0.000;    0.000
962.793; 1793.875;    0.000;    0.000
962.962; 1811.875;    0.000;    0.000
963.130; 1784.875;    0.000;    0.000
963.298; 1744.875;    0.000;    0.000
963.467; 1831.875;    0.000;    0.000
963.635; 1789.875;    0.000;    0.000
963.803; 1836.875;    0.000;    0.000
963.972; 1824.875;    0.000;    0.000
964.140; 1766.875;    0.000;    0.000
964.308; 1766.875;    0.000;    0.000
964.476; 1825.875;    0.000;    0.000
964.645; 1800.875;    0.000;    0.000
964.813; 1818.875;    0.000;    0.000
964.981; 1815.875;    0.000;    0.000
965.149; 1837.875;    0.000;    0.000
965.317; 1863.875;    0.000;    0.000
965.485; 1810.875;    0.000;    0.000
965.653; 1831.875;    0.000;    0.000
965.821; 1804.875;    0.000;    0.000
965.989; 1825.875;    0.000;    0.000
966.157; 1718.875;    0.000;    0.000
966.325; 1783.875;    0.000;    0.000
966.493; 1822.875;    0.000;    0.000
966.661; 1812.875;    0.000;    0.000
966.829; 1781.875;    0.000;    0.000
966.996; 1833.875;    0.000;    0.000
967.164; 1836.875;    0.000;    0.000
967.332; 1853.875;    0.000;    0.000
967.500; 1756.875;    0.000;    0.000
967.667; 1875.875;    0.000;    0.000
967.835; 1863.875;    0.000;    0.000
968.003; 1790.875;    0.000;    0.000
968.170; 1709.875;    0.000;    0.000
968.338; 1774.875;    0.000;    0.000
968.505; 1772.875;    0.000;    0.000
968.673; 1858.875;    0.000;    0.000
968.841; 1745.875;    0.000;    0.000
969.008; 1749.875;    0.000;    0.000
969.175; 1781.875;    0.000;    0.000
969.343; 1738.875;    0.000;    0.000
969.510; 1703.875;    0.000;    0.000
969.678; 1763.875;    0.000;    0.000
969.845; 1829.875;    0.000;    0.000
970.012; 1839.875;    0.000;    0.000
970.180; 1835.875;    0.000;    0.000
970.347; 1794.875;    0.000;    0.000
970.514; 1786.875;    0.000;    0.000
970.681; 1879.875;    0.000;    0.000
970.849; 1832.875;    0.000;    0.000
971.016; 1884.875;    0.000;    0.000
971.183; 1841.875;    0.000;    0.000
971.350; 1831.875;    0.000;    0.000
971.517; 1822.875;    0.000;    0.000
971.684; 1874.875;    0.000;    0.000
971.851; 1938.875;    0.000;    0.000
972.018; 1881.875;    0.000;    0.000
972.185; 1842.875;    0.000;    0.000
972.352; 1887.875;    0.000;    0.000
972.519; 1859.875;    0.000;    0.000
972.686; 1901.875;    0.000;    0.000
972.853; 1935.875;    0.000;    0.000
973.020; 1859.875;    0.000;    0.000
973.186; 1826.875;    0.000;    0.000
973.353; 1810.875;    0.000;    0.000
973.520; 1911.875;    0.000;    0.000
973.687; 1844.875;    0.000;    0.000
973.853; 1940.875;    0.000;    0.000
974.020; 1919.875;    0.000;    0.000
974.187; 1777.875;    0.000;    0.000
974.353; 1924.875;    0.000;    0.000
974.520; 1818.875;    0.000;    0.000
974.687; 1874.875;    0.000;    0.000
974.853; 1814.875;    0.000;    0.000
975.020; 1947.875;    0.000;    0.000
975.186; 1898.875;    0.000;    0.000
975.353; 1863.875;    0.000;    0.000
975.519; 1865.875;    0.000;    0.000
975.685; 1871.875;    0.000;    0.000
975.852; 1932.875;    0.000;    0.000
976.018; 1833.875;    0.000;    0.000
976.184; 1902.875;    0.000;    0.000
976.351; 1815.875;    0.000;    0.000
976.517; 1864.875;    0.000;    0.000
976.683; 1784.875;    0.000;    0.000
976.849; 1815.875;    0.000;    0.000
977.016; 1845.875;    0.000;    0.000
977.182; 1880.875;    0.000;    0.000
977.348; 1826.875;    0.000;    0.000
977.514; 1898.875;    0.000;    0.000
977.680; 1780.875;    0.000;    0.000
977.846; 1753.875;    0.000;    0.000
978.012; 1904.875;    0.000;    0.000
978.178; 1921.875;    0.000;    0.000
978.344; 1843.875;    0.000;    0.000
978.510; 1786.875;    0.000;    0.000
978.676; 1793.875;    0.000;    0.000
978.842; 1780.875;    0.000;    0.000
979.008; 1793.875;    0.000;    0.000
979.174; 1834.875;    0.000;    0.000
979.340; 1853.875;    0.000;    0.000
979.505; 1807.875;    0.000;    0.000
979.671; 1764.875;    0.000;    0.000
979.837; 1853.875;    0.000;    0.000
980.003; 1811.875;    0.000;    0.000
980.168; 1813.875;    0.000;    0.000
980.334; 1770.875;    0.000;    0.000
980.499; 1856.875;    0.000;    0.000
980.665; 1909.875;    0.000;    0.000
980.831; 1860.875;    0.000;    0.000
980.996; 1905.875;    0.000;    0.000
981.162; 1979.875;    0.000;    0.000
981.327; 1772.875;    0.000;    0.000
981.493; 1931.875;    0.000;    0.000
981.658; 1898.875;    0.000;    0.000
981.823; 1865.875;    0.000;    0.000
981.989; 1934.875;    0.000;    0.000
982.154; 1962.875;    0.000;    0.000
982.319; 1928.875;    0.000;    0.000
982.485; 1959.875;    0.000;    0.000
982.650; 1919.875;    0.000;    0.000
982.815; 1871.875;    0.000;    0.000
982.980; 1781.875;    0.000;    0.000
983.146; 1922.875;    0.000;    0.000
983.311; 1890.875;    0.000;    0.000
983.476; 1848.875;    0.000;    0.000
983.641; 1864.875;    0.000;    0.000
983.806; 1821.875;    0.000;    0.000
983.971; 1899.875;    0.000;    0.000
984.136; 1823.875;    0.000;    0.000
984.301; 1892.875;    0.000;    0.000
984.466; 1878.875;    0.000;    0.000
984.631; 1917.875;    0.000;    0.000
984.796; 1886.875;    0.000;    0.000
984.961; 1816.875;    0.000;    0.000
985.126; 1918.875;    0.000;    0.000
985.291; 1841.875;    0.000;    0.000
985.455; 1849.875;    0.000;    0.000
985.620; 1861.875;    0.000;    0.000
985.785; 1828.875;    0.000;    0.000
985.950; 1837.875;    0.000;    0.000
986.114; 1849.875;    0.000;    0.000
986.279; 1829.875;    0.000;    0.000
986.444; 1855.875;    0.000;    0.000
986.608; 1830.875;    0.000;    0.000
986.773; 1869.875;    0.000;    0.000
986.937; 1913.875;    0.000;    0.000
987.102; 1809.875;    0.000;    0.000
987.266; 1838.875;    0.000;    0.000
987.431; 1959.875;    0.000;    0.000
987.595; 1903.875;    0.000;    0.000
987.760; 1943.875;    0.000;    0.000
987.924; 1913.875;    0.000;    0.000
988.088; 1905.875;    0.000;    0.000
988.253; 1906.875;    0.000;    0.000
988.417; 1854.875;    0.000;    0.000
988.581; 1846.875;    0.000;    0.000
988.746; 1835.875;    0.000;    0.000
988.910; 1907.875;    0.000;    0.000
989.074; 1941.875;    0.000;    0.000
989.238; 1955.875;    0.000;    0.000
989.402; 1941.875;    0.000;    0.000
989.566; 1908.875;    0.000;    0.000
989.731; 1924.875;    0.000;    0.000
989.895; 1881.875;    0.000;    0.000
990.059; 1882.875;    0.000;    0.000
990.223; 1931.875;    0.000;    0.000
990.387; 1860.875;    0.000;    0.000
990.551; 1990.875;    0.000;    0.000
990.714; 1899.875;    0.000;    0.000
990.878; 1903.875;    0.000;    0.000
991.042; 1818.875;    0.000;    0.000
991.206; 1890.875;    0.000;    0.000
991.370; 1929.875;    0.000;    0.000
991.534; 1866.875;    0.000;    0.000
991.697; 1910.875;    0.000;    0.000
991.861; 1989.875;    0.000;    0.000
992.025; 1971.875;    0.000;    0.000
992.188; 1899.875;    0.000;    0.000
992.352; 1873.875;    0.000;    0.000
992.516; 1865.875;    0.000;    0.000
992.679; 1899.875;    0.000;    0.000
992.843; 1944.875;    0.000;    0.000
993.006; 1970.875;    0.000;    0.000
993.170; 1913.875;    0.000;    0.000
993.333; 1847.875;    0.000;    0.000
993.497; 1848.875;    0.000;    0.000
993.660; 1858.875;    0.000;    0.000
993.824; 1947.875;    0.000;    0.000
993.987; 1969.875;    0.000;    0.000
994.150; 1876.875;    0.000;    0.000
994.314; 1940.875;    0.000;    0.000
994.477; 1883.875;    0.000;    0.000
994.640; 1988.875;    0.000;    0.000
994.803; 1917.875;    0.000;    0.000
994.967; 1910.875;    0.000;    0.000
995.130; 1960.875;    0.000;    0.000
995.293; 1912.875;    0.000;    0.000
995.456; 1916.875;    0.000;    0.000
995.619; 1953.875;    0.000;    0.000
995.782; 1889.875;    0.000;    0.000
995.945; 1916.875;    0.000;    0.000
996.108; 1934.875;    0.000;    0.000
996.271; 1864.875;    0.000;    0.000
996.434; 1917.875;    0.000;    0.000
996.597; 1935.875;    0.000;    0.000
996.760; 1934.875;    0.000;    0.000
996.923; 1951.875;    0.000;    0.000
997.086; 1934.875;    0.000;    0.000
997.248; 1911.875;    0.000;    0.000
997.411; 1848.875;    0.000;    0.000
997.574; 1829.875;    0.000;    0.000
997.737; 1846.875;    0.000;    0.000
997.899; 1923.875;    0.000;    0.000
998.062; 1822.875;    0.000;    0.000
998.225; 1916.875;    0.000;    0.000
998.387; 1957.875;    0.000;    0.000
998.550; 1953.875;    0.000;    0.000
998.712; 1904.875;    0.000;    0.000
998.875; 1953.875;    0.000;    0.000
999.037; 1990.875;    0.000;    0.000
999.200; 1961.875;    0.000;    0.000
999.362; 1977.875;    0.000;    0.000
999.525; 2024.875;    0.000;    0.000
999.687; 1971.875;    0.000;    0.000
999.849; 1969.875;    0.000;    0.000
1000.012; 1965.875;    0.000;    0.000
1000.174; 1973.875;    0.000;    0.000
1000.336; 1974.875;    0.000;    0.000
1000.499; 1946.875;    0.000;    0.000
1000.661; 1937.875;    0.000;    0.000
1000.823; 2061.875;    0.000;    0.000
1000.985; 1963.875;    0.000;    0.000
1001.147; 2111.875;    0.000;    0.000
1001.309; 2065.875;    0.000;    0.000
1001.471; 2051.875;    0.000;    0.000
1001.633; 2059.875;    0.000;    0.000
1001.796; 1998.875;    0.000;    0.000
1001.957; 2058.875;    0.000;    0.000
1002.119; 2187.875;    0.000;    0.000
1002.281; 2064.875;    0.000;    0.000
1002.443; 2136.875;    0.000;    0.000
1002.605; 2183.875;    0.000;    0.000
1002.767; 2189.875;    0.000;    0.000
1002.929; 2228.875;    0.000;    0.000
1003.091; 2414.875;    0.000;    0.000
1003.252; 2418.875;    0.000;    0.000
1003.414; 2496.875;    0.000;    0.000
1003.576; 2585.875;    0.000;    0.000
1003.738; 2590.875;    0.000;    0.000
1003.899; 2719.875;    0.000;    0.000
1004.061; 2675.875;    0.000;    0.000
1004.222; 2732.875;    0.000;    0.000
1004.384; 2879.875;    0.000;    0.000
1004.546; 2805.875;    0.000;    0.000
1004.707; 2818.875;    0.000;    0.000
1004.869; 2852.875;    0.000;    0.000
1005.030; 2760.875;    0.000;    0.000
1005.191; 2780.875;    0.000;    0.000
1005.353; 2707.875;    0.000;    0.000
1005.514; 2637.875;    0.000;    0.000
1005.675; 2584.875;    0.000;    0.000
1005.837; 2662.875;    0.000;    0.000
1005.998; 2622.875;    0.000;    0.000
1006.159; 2660.875;    0.000;    0.000
1006.321; 2553.875;    0.000;    0.000
1006.482; 2688.875;    0.000;    0.000
1006.643; 2741.875;    0.000;    0.000
1006.804; 2739.875;    0.000;    0.000
1006.965; 2804.875;    0.000;    0.000
1007.126; 2783.875;    0.000;    0.000
1007.287; 2756.875;    0.000;    0.000
1007.448; 2807.875;    0.000;    0.000
1007.609; 2762.875;    0.000;    0.000
1007.770; 2754.875;    0.000;    0.000
1007.931; 2804.875;    0.000;    0.000
1008.092; 2670.875;    0.000;    0.000
1008.253; 2814.875;    0.000;    0.000
1008.414; 2759.875;    0.000;    0.000
1008.575; 2849.875;    0.000;    0.000
1008.736; 2878.875;    0.000;    0.000
1008.896; 2899.875;    0.000;    0.000
1009.057; 2889.875;    0.000;    0.000
1009.218; 2784.875;    0.000;    0.000
1009.379; 2849.875;    0.000;    0.000
1009.539; 2819.875;    0.000;    0.000
1009.700; 2912.875;    0.000;    0.000
1009.860; 2847.875;    0.000;    0.000
1010.021; 2810.875;    0.000;    0.000
1010.182; 2869.875;    0.000;    0.000
1010.342; 2802.875;    0.000;    0.000
1010.503; 2848.875;    0.000;    0.000
1010.663; 2902.875;    0.000;    0.000
1010.823; 2879.875;    0.000;    0.000
1010.984; 2979.875;    0.000;    0.000
1011.144; 2889.875;    0.000;    0.000
1011.305; 2970.875;    0.000;    0.000
1011.465; 2983.875;    0.000;    0.000
1011.625; 3000.875;    0.000;    0.000
1011.785; 3016.875;    0.000;    0.000
1011.946; 2979.875;    0.000;    0.000
1012.106; 3031.875;    0.000;    0.000
1012.266; 3080.875;    0.000;    0.000
1012.426; 3044.875;    0.000;    0.000
1012.586; 3084.875;    0.000;    0.000
1012.746; 3006.875;    0.000;    0.000
1012.906; 2978.875;    0.000;    0.000
1013.066; 3054.875;    0.000;    0.000
1013.226; 3096.875;    0.000;    0.000
1013.386; 3110.875;    0.000;    0.000
1013.546; 3025.875;    0.000;    0.000
1013.706; 2985.875;    0.000;    0.000
1013.866; 3081.875;    0.000;    0.000
1014.026; 3034.875;    0.000;    0.000
1014.186; 3007.875;    0.000;    0.000
1014.346; 3013.875;    0.000;    0.000
1014.505; 3027.875;    0.000;    0.000
1014.665; 2935.875;    0.000;    0.000
1014.825; 3005.875;    0.000;    0.000
1014.985; 3068.875;    0.000;    0.000
1015.144; 3185.875;    0.000;    0.000
1015.304; 3306.875;    0.000;    0.000
1015.463; 3248.875;    0.000;    0.000
1015.623; 3251.875;    0.000;    0.000
1015.783; 3424.875;    0.000;    0.000
1015.942; 3571.875;    0.000;    0.000
1016.102; 3595.875;    0.000;    0.000
1016.261; 3386.875;    0.000;    0.000
1016.420; 3666.875;    0.000;    0.000
1016.580; 4034.875;    0.000;    0.000
1016.739; 3862.875;    0.000;    0.000
1016.899; 3736.875;    0.000;    0.000
1017.058; 3807.875;    0.000;    0.000
1017.217; 4161.875;    0.000;    0.000
1017.376; 4071.875;    0.000;    0.000
1017.536; 3671.875;    0.000;    0.000
1017.695; 3702.875;    0.000;    0.000
1017.854; 3872.875;    0.000;    0.000
1018.013; 3785.875;    0.000;    0.000
1018.172; 3492.875;    0.000;    0.000
1018.331; 3596.875;    0.000;    0.000
1018.490; 3695.875;    0.000;    0.000
1018.649; 3798.875;    0.000;    0.000
1018.808; 4015.875;    0.000;    0.000
1018.967; 3836.875;    0.000;    0.000
1019.126; 3950.875;    0.000;    0.000
1019.285; 4246.875;    0.000;    0.000
1019.444; 4155.875;    0.000;    0.000
1019.603; 4036.875;    0.000;    0.000
1019.762; 3690.875;    0.000;    0.000
1019.921; 3805.875;    0.000;    0.000
1020.079; 3949.875;    0.000;    0.000
1020.238; 4196.875;    0.000;    0.000
1020.397; 4158.875;    0.000;    0.000
1020.556; 3853.875;    0.000;    0.000
1020.714; 4035.875;    0.000;    0.000
1020.873; 4135.875;    0.000;    0.000
1021.031; 4008.875;    0.000;    0.000
1021.190; 3923.875;    0.000;    0.000
1021.348; 3803.875;    0.000;    0.000
1021.507; 4118.875;    0.000;    0.000
1021.665; 4358.875;    0.000;    0.000
1021.824; 4232.875;    0.000;    0.000
1021.982; 4058.875;    0.000;    0.000
1022.141; 3982.875;    0.000;    0.000
1022.299; 4395.875;    0.000;    0.000
1022.457; 4675.875;    0.000;    0.000
1022.616; 4300.875;    0.000;    0.000
1022.774; 3845.875;    0.000;    0.000
1022.932; 4047.875;    0.000;    0.000
1023.090; 4502.875;    0.000;    0.000
1023.249; 4696.875;    0.000;    0.000
1023.407; 4370.875;    0.000;    0.000
1023.565; 4001.875;    0.000;    0.000
1023.723; 4238.875;    0.000;    0.000
1023.881; 4655.875;    0.000;    0.000
1024.039; 4604.875;    0.000;    0.000
1024.197; 4499.875;    0.000;    0.000
1024.355; 4209.875;    0.000;    0.000
1024.513; 4161.875;    0.000;    0.000
1024.671; 4620.875;    0.000;    0.000
1024.829; 4640.875;    0.000;    0.000
1024.987; 4546.875;    0.000;    0.000
1025.145; 4013.875;    0.000;    0.000
1025.302; 4079.875;    0.000;    0.000
1025.460; 4320.875;    0.000;    0.000
1025.618; 4604.875;    0.000;    0.000
1025.776; 4687.875;    0.000;    0.000
1025.933; 4221.875;    0.000;    0.000
1026.091; 4262.875;    0.000;    0.000
1026.249; 4474.875;    0.000;    0.000
1026.406; 4804.875;    0.000;    0.000
1026.564; 4838.875;    0.000;    0.000
1026.721; 4529.875;    0.000;    0.000
1026.879; 4341.875;    0.000;    0.000
1027.036; 4431.875;    0.000;    0.000
1027.194; 4842.875;    0.000;    0.000
1027.351; 5097.875;    0.000;    0.000
1027.509; 4765.875;    0.000;    0.000
1027.666; 4525.875;    0.000;    0.000
1027.823; 4674.875;    0.000;    0.000
1027.981; 4745.875;    0.000;    0.000
1028.138; 5023.875;    0.000;    0.000
1028.295; 4729.875;    0.000;    0.000
1028.452; 4587.875;    0.000;    0.000
1028.610; 4485.875;    0.000;    0.000
1028.767; 4779.875;    0.000;    0.000
1028.924; 4818.875;    0.000;    0.000
1029.081; 4973.875;    0.000;    0.000
1029.238; 4804.875;    0.000;    0.000
1029.395; 4725.875;    0.000;    0.000
1029.552; 4666.875;    0.000;    0.000
1029.709; 4909.875;    0.000;    0.000
1029.866; 4945.875;    0.000;    0.000
1030.023; 4820.875;    0.000;    0.000
1030.180; 4587.875;    0.000;    0.000
1030.337; 4809.875;    0.000;    0.000
1030.494; 4821.875;    0.000;    0.000
1030.650; 5039.875;    0.000;    0.000
1030.807; 5336.875;    0.000;    0.000
1030.964; 4938.875;    0.000;    0.000
1031.121; 4983.875;    0.000;    0.000
1031.277; 4991.875;    0.000;    0.000
1031.434; 5140.875;    0.000;    0.000
1031.591; 5442.875;    0.000;    0.000
1031.747; 5443.875;    0.000;    0.000
1031.904; 5174.875;    0.000;    0.000
1032.060; 5062.875;    0.000;    0.000
1032.217; 4730.875;    0.000;    0.000
1032.373; 5377.875;    0.000;    0.000
1032.530; 5608.875;    0.000;    0.000
1032.686; 6047.875;    0.000;    0.000
1032.843; 6027.875;    0.000;    0.000
1032.999; 5519.875;    0.000;    0.000
1033.155; 5533.875;    0.000;    0.000
1033.312; 5608.875;    0.000;    0.000
1033.468; 6150.875;    0.000;    0.000
1033.624; 7026.875;    0.000;    0.000
1033.780; 6856.875;    0.000;    0.000
1033.937; 6961.875;    0.000;    0.000
1034.093; 6380.875;    0.000;    0.000
1034.249; 6289.875;    0.000;    0.000
1034.405; 6571.875;    0.000;    0.000
1034.561; 6932.875;    0.000;    0.000
1034.717; 7435.875;    0.000;    0.000
1034.873; 7510.875;    0.000;    0.000
1035.029; 7521.875;    0.000;    0.000
1035.185; 7180.875;    0.000;    0.000
1035.341; 6738.875;    0.000;    0.000
1035.497; 6928.875;    0.000;    0.000
1035.653; 7421.875;    0.000;    0.000
1035.809; 7747.875;    0.000;    0.000
1035.964; 8958.875;    0.000;    0.000
1036.120; 8465.875;    0.000;    0.000
1036.276; 8234.875;    0.000;    0.000
1036.432; 8263.875;    0.000;    0.000
1036.587; 7354.875;    0.000;    0.000
1036.743; 7367.875;    0.000;    0.000
1036.899; 8521.875;    0.000;    0.000
1037.054; 8443.875;    0.000;    0.000
1037.210; 9232.875;    0.000;    0.000
1037.365; 9639.875;    0.000;    0.000
1037.521; 8818.875;    0.000;    0.000
1037.676; 8793.875;    0.000;    0.000
1037.832; 8294.875;    0.000;    0.000
1037.987; 7836.875;    0.000;    0.000
1038.143; 7974.875;    0.000;    0.000
1038.298; 8981.875;    0.000;    0.000
1038.453; 9377.875;    0.000;    0.000
1038.609; 9887.875;    0.000;    0.000
1038.764;10920.875;    0.000;    0.000
1038.919; 9541.875;    0.000;    0.000
1039.074; 9573.875;    0.000;    0.000
1039.229; 9353.875;    0.000;    0.000
1039.385; 8378.875;    0.000;    0.000
1039.540; 8664.875;    0.000;    0.000
1039.695; 9329.875;    0.000;    0.000
1039.850;10273.875;    0.000;    0.000
1040.005;10639.875;    0.000;    0.000
1040.160;11697.875;    0.000;    0.000
1040.315;11898.875;    0.000;    0.000
1040.470;10121.875;    0.000;    0.000
1040.625;10347.875;    0.000;    0.000
1040.780; 9714.875;    0.000;    0.000
1040.935; 9437.875;    0.000;    0.000
1041.089; 9765.875;    0.000;    0.000
1041.244;10769.875;    0.000;    0.000
1041.399;12278.875;    0.000;    0.000
1041.554;12347.875;    0.000;    0.000
1041.708;13395.875;    0.000;    0.000
1041.863;14905.875;    0.000;    0.000
1042.018;12481.875;    0.000;    0.000
1042.172;12245.875;    0.000;    0.000
1042.327;12288.875;    0.000;    0.000
1042.481;11246.875;    0.000;    0.000
1042.636;11505.875;    0.000;    0.000
1042.790;11495.875;    0.000;    0.000
1042.945;12937.875;    0.000;    0.000
1043.099;15252.875;    0.000;    0.000
1043.254;14463.875;    0.000;    0.000
1043.408;14931.875;    0.000;    0.000
1043.563;17328.875;    0.000;    0.000
1043.717;16327.875;    0.000;    0.000
1043.871;14510.875;    0.000;    0.000
1044.025;14866.875;    0.000;    0.000
1044.180;14212.875;    0.000;    0.000
1044.334;13664.875;    0.000;    0.000
1044.488;14582.875;    0.000;    0.000
1044.642;14671.875;    0.000;    0.000
1044.796;15947.875;    0.000;    0.000
1044.950;19194.875;    0.000;    0.000
1045.104;20214.875;    0.000;    0.000
1045.258;20823.875;    0.000;    0.000
1045.412;21222.875;    0.000;    0.000
1045.566;20518.875;    0.000;    0.000
1045.720;19153.875;    0.000;    0.000
1045.874;18119.875;    0.000;    0.000
1046.028;17684.875;    0.000;    0.000
1046.182;16447.875;    0.000;    0.000
1046.336;16555.875;    0.000;    0.000
1046.489;17929.875;    0.000;    0.000
1046.643;19368.875;    0.000;    0.000
1046.797;19118.875;    0.000;    0.000
1046.951;21356.875;    0.000;    0.000
1047.104;22644.875;    0.000;    0.000
1047.258;22353.875;    0.000;    0.000
1047.411;22614.875;    0.000;    0.000
1047.565;23607.875;    0.000;    0.000
1047.719;24234.875;    0.000;    0.000
1047.872;23532.875;    0.000;    0.000
1048.026;21835.875;    0.000;    0.000
1048.179;21167.875;    0.000;    0.000
1048.332;20916.875;    0.000;    0.000
1048.486;20897.875;    0.000;    0.000
1048.639;21416.875;    0.000;    0.000
1048.792;21624.875;    0.000;    0.000
1048.946;22716.875;    0.000;    0.000
1049.099;23274.875;    0.000;    0.000
1049.252;24853.875;    0.000;    0.000
1049.405;24406.875;    0.000;    0.000
1049.559;24098.875;    0.000;    0.000
1049.712;27224.875;    0.000;    0.000
1049.865;30313.875;    0.000;    0.000
1050.018;29515.875;    0.000;    0.000
1050.171;26609.875;    0.000;    0.000
1050.324;24637.875;    0.000;    0.000
1050.477;26996.875;    0.000;    0.000
1050.630;29423.875;    0.000;    0.000
1050.783;31966.875;    0.000;    0.000
1050.936;29923.875;    0.000;    0.000
1051.089;27399.875;    0.000;    0.000
1051.242;26490.875;    0.000;    0.000
1051.394;28764.875;    0.000;    0.000
1051.547;32849.875;    0.000;    0.000
1051.700;33936.875;    0.000;    0.000
1051.853;34014.875;    0.000;    0.000
1052.005;31679.875;    0.000;    0.000
1052.158;33460.875;    0.000;    0.000
1052.311;36609.875;    0.000;    0.000
1052.463;37366.875;    0.000;    0.000
1052.616;35369.875;    0.000;    0.000
1052.768;33534.875;    0.000;    0.000
1052.921;31760.875;    0.000;    0.000
1053.073;33409.875;    0.000;    0.000
1053.226;33755.875;    0.000;    0.000
1053.378;39857.875;    0.000;    0.000
1053.531;42945.875;    0.000;    0.000
1053.683;44704.875;    0.000;    0.000
1053.835;40003.875;    0.000;    0.000
1053.988;30542.875;    0.000;    0.000
1054.140; 5351.875;    0.000;    0.000
1054.292; 1235.875;    0.000;    0.000
1054.444;  976.875;    0.000;    0.000
1054.596;  936.875;    0.000;    0.000
1054.749;  871.875;    0.000;    0.000
1054.901;  770.875;    0.000;    0.000
1055.053;  718.875;    0.000;    0.000
1055.205;  682.875;    0.000;    0.000
1055.357;  694.875;    0.000;    0.000
1055.509;  608.875;    0.000;    0.000
1055.661;  715.875;    0.000;    0.000
1055.813;  657.875;    0.000;    0.000
1055.965;  649.875;    0.000;    0.000
1056.116;  647.875;    0.000;    0.000
1056.268;  610.875;    0.000;    0.000
1056.420;  660.875;    0.000;    0.000

