
Integration time [ms]:   1.000
Averaging Nr. [scans]: 1
Smoothing Nr. [pixels]: 0
Data measured with spectrometer [name]: VIS
Wave   ;Sample   ;Dark     ;Reference
[nm]   ;[counts] ;[counts] ;[counts] 

450.961;  190.400;    0.000;    0.000
451.100;  213.400;    0.000;    0.000
451.239;  200.400;    0.000;    0.000
451.377;  258.400;    0.000;    0.000
451.516;  178.400;    0.000;    0.000
451.655;  214.400;    0.000;    0.000
451.794;  203.400;    0.000;    0.000
451.932;  261.400;    0.000;    0.000
452.071;  230.400;    0.000;    0.000
452.210;  206.400;    0.000;    0.000
452.348;  204.400;    0.000;    0.000
452.487;  194.400;    0.000;    0.000
452.626;  201.400;    0.000;    0.000
452.764;  210.400;    0.000;    0.000
452.903;  200.400;    0.000;    0.000
453.042;  239.400;    0.000;    0.000
453.180; 3156.400;    0.000;    0.000
453.319; 3177.400;    0.000;    0.000
453.458; 3302.400;    0.000;    0.000
453.596; 3255.400;    0.000;    0.000
453.735; 3232.400;    0.000;    0.000
453.873; 3263.400;    0.000;    0.000
454.012; 3185.400;    0.000;    0.000
454.150; 3310.400;    0.000;    0.000
454.289; 3322.400;    0.000;    0.000
454.427; 3425.400;    0.000;    0.000
454.566; 3410.400;    0.000;    0.000
454.704; 3427.400;    0.000;    0.000
454.843; 3464.400;    0.000;    0.000
454.981; 3526.400;    0.000;    0.000
455.120; 3445.400;    0.000;    0.000
455.258; 3632.400;    0.000;    0.000
455.397; 3560.400;    0.000;    0.000
455.535; 3605.400;    0.000;    0.000
455.674; 3618.400;    0.000;    0.000
455.812; 3751.400;    0.000;    0.000
455.951; 3683.400;    0.000;    0.000
456.089; 3743.400;    0.000;    0.000
456.227; 3799.400;    0.000;    0.000
456.366; 3800.400;    0.000;    0.000
456.504; 3844.400;    0.000;    0.000
456.642; 3886.400;    0.000;    0.000
456.781; 3756.400;    0.000;    0.000
456.919; 3728.400;    0.000;    0.000
457.057; 3691.400;    0.000;    0.000
457.196; 3799.400;    0.000;    0.000
457.334; 3800.400;    0.000;    0.000
457.472; 3849.400;    0.000;    0.000
457.610; 3953.400;    0.000;    0.000
457.749; 3960.400;    0.000;    0.000
457.887; 4060.400;    0.000;    0.000
458.025; 4149.400;    0.000;    0.000
458.163; 4287.400;    0.000;    0.000
458.301; 4209.400;    0.000;    0.000
458.440; 4139.400;    0.000;    0.000
458.578; 4321.400;    0.000;    0.000
458.716; 4311.400;    0.000;    0.000
458.854; 4362.400;    0.000;    0.000
458.992; 4431.400;    0.000;    0.000
459.130; 4500.400;    0.000;    0.000
459.269; 4517.400;    0.000;    0.000
459.407; 4522.400;    0.000;    0.000
459.545; 4534.400;    0.000;    0.000
459.683; 4620.400;    0.000;    0.000
459.821; 4613.400;    0.000;    0.000
459.959; 4717.400;    0.000;    0.000
460.097; 4772.400;    0.000;    0.000
460.235; 4766.400;    0.000;    0.000
460.373; 4809.400;    0.000;    0.000
460.511; 4843.400;    0.000;    0.000
460.649; 4799.400;    0.000;    0.000
460.787; 4901.400;    0.000;    0.000
460.925; 4896.400;    0.000;    0.000
461.063; 4973.400;    0.000;    0.000
461.201; 4814.400;    0.000;    0.000
461.339; 5016.400;    0.000;    0.000
461.477; 5063.400;    0.000;    0.000
461.615; 5015.400;    0.000;    0.000
461.753; 5103.400;    0.000;    0.000
461.891; 5120.400;    0.000;    0.000
462.029; 5311.400;    0.000;    0.000
462.166; 5242.400;    0.000;    0.000
462.304; 5294.400;    0.000;    0.000
462.442; 5480.400;    0.000;    0.000
462.580; 5319.400;    0.000;    0.000
462.718; 5408.400;    0.000;    0.000
462.856; 5478.400;    0.000;    0.000
462.993; 5402.400;    0.000;    0.000
463.131; 5369.400;    0.000;    0.000
463.269; 5514.400;    0.000;    0.000
463.407; 5481.400;    0.000;    0.000
463.545; 5314.400;    0.000;    0.000
463.682; 5472.400;    0.000;    0.000
463.820; 5493.400;    0.000;    0.000
463.958; 5678.400;    0.000;    0.000
464.095; 5695.400;    0.000;    0.000
464.233; 5646.400;    0.000;    0.000
464.371; 5745.400;    0.000;    0.000
464.509; 5579.400;    0.000;    0.000
464.646; 5684.400;    0.000;    0.000
464.784; 5722.400;    0.000;    0.000
464.921; 5542.400;    0.000;    0.000
465.059; 5533.400;    0.000;    0.000
465.197; 5512.400;    0.000;    0.000
465.334; 5351.400;    0.000;    0.000
465.472; 5462.400;    0.000;    0.000
465.609; 5460.400;    0.000;    0.000
465.747; 5327.400;    0.000;    0.000
465.885; 5311.400;    0.000;    0.000
466.022; 5396.400;    0.000;    0.000
466.160; 5268.400;    0.000;    0.000
466.297; 5365.400;    0.000;    0.000
466.435; 5354.400;    0.000;    0.000
466.572; 5334.400;    0.000;    0.000
466.710; 5295.400;    0.000;    0.000
466.847; 5397.400;    0.000;    0.000
466.985; 5325.400;    0.000;    0.000
467.122; 5362.400;    0.000;    0.000
467.260; 5310.400;    0.000;    0.000
467.397; 5278.400;    0.000;    0.000
467.534; 5213.400;    0.000;    0.000
467.672; 5299.400;    0.000;    0.000
467.809; 5142.400;    0.000;    0.000
467.947; 5232.400;    0.000;    0.000
468.084; 5220.400;    0.000;    0.000
468.221; 5259.400;    0.000;    0.000
468.359; 5336.400;    0.000;    0.000
468.496; 5258.400;    0.000;    0.000
468.633; 5257.400;    0.000;    0.000
468.771; 5269.400;    0.000;    0.000
468.908; 5232.400;    0.000;    0.000
469.045; 5233.400;    0.000;    0.000
469.183; 5318.400;    0.000;    0.000
469.320; 5363.400;    0.000;    0.000
469.457; 5391.400;    0.000;    0.000
469.594; 5387.400;    0.000;    0.000
469.732; 5339.400;    0.000;    0.000
469.869; 5442.400;    0.000;    0.000
470.006; 5426.400;    0.000;    0.000
470.143; 5584.400;    0.000;    0.000
470.280; 5662.400;    0.000;    0.000
470.417; 5614.400;    0.000;    0.000
470.555; 5566.400;    0.000;    0.000
470.692; 5556.400;    0.000;    0.000
470.829; 5529.400;    0.000;    0.000
470.966; 5544.400;    0.000;    0.000
471.103; 5562.400;    0.000;    0.000
471.240; 5440.400;    0.000;    0.000
471.377; 5481.400;    0.000;    0.000
471.514; 5443.400;    0.000;    0.000
471.651; 5359.400;    0.000;    0.000
471.789; 5468.400;    0.000;    0.000
471.926; 5439.400;    0.000;    0.000
472.063; 5441.400;    0.000;    0.000
472.200; 5458.400;    0.000;    0.000
472.337; 5346.400;    0.000;    0.000
472.474; 5395.400;    0.000;    0.000
472.611; 5272.400;    0.000;    0.000
472.748; 5401.400;    0.000;    0.000
472.884; 5420.400;    0.000;    0.000
473.021; 5304.400;    0.000;    0.000
473.158; 5138.400;    0.000;    0.000
473.295; 5377.400;    0.000;    0.000
473.432; 5317.400;    0.000;    0.000
473.569; 5407.400;    0.000;    0.000
473.706; 5251.400;    0.000;    0.000
473.843; 5322.400;    0.000;    0.000
473.980; 5315.400;    0.000;    0.000
474.117; 5347.400;    0.000;    0.000
474.253; 5368.400;    0.000;    0.000
474.390; 5336.400;    0.000;    0.000
474.527; 5300.400;    0.000;    0.000
474.664; 5238.400;    0.000;    0.000
474.801; 5436.400;    0.000;    0.000
474.937; 5285.400;    0.000;    0.000
475.074; 5383.400;    0.000;    0.000
475.211; 5451.400;    0.000;    0.000
475.348; 5456.400;    0.000;    0.000
475.484; 5463.400;    0.000;    0.000
475.621; 5355.400;    0.000;    0.000
475.758; 5410.400;    0.000;    0.000
475.894; 5438.400;    0.000;    0.000
476.031; 5273.400;    0.000;    0.000
476.168; 5434.400;    0.000;    0.000
476.304; 5464.400;    0.000;    0.000
476.441; 5476.400;    0.000;    0.000
476.578; 5384.400;    0.000;    0.000
476.714; 5455.400;    0.000;    0.000
476.851; 5434.400;    0.000;    0.000
476.987; 5517.400;    0.000;    0.000
477.124; 5521.400;    0.000;    0.000
477.261; 5643.400;    0.000;    0.000
477.397; 5530.400;    0.000;    0.000
477.534; 5566.400;    0.000;    0.000
477.670; 5671.400;    0.000;    0.000
477.807; 5613.400;    0.000;    0.000
477.943; 5688.400;    0.000;    0.000
478.080; 5716.400;    0.000;    0.000
478.216; 5654.400;    0.000;    0.000
478.353; 5760.400;    0.000;    0.000
478.489; 5745.400;    0.000;    0.000
478.626; 5829.400;    0.000;    0.000
478.762; 5891.400;    0.000;    0.000
478.898; 5904.400;    0.000;    0.000
479.035; 5947.400;    0.000;    0.000
479.171; 5825.400;    0.000;    0.000
479.308; 5875.400;    0.000;    0.000
479.444; 5772.400;    0.000;    0.000
479.580; 5927.400;    0.000;    0.000
479.717; 5894.400;    0.000;    0.000
479.853; 5867.400;    0.000;    0.000
479.989; 5884.400;    0.000;    0.000
480.126; 5887.400;    0.000;    0.000
480.262; 6008.400;    0.000;    0.000
480.398; 5966.400;    0.000;    0.000
480.535; 5962.400;    0.000;    0.000
480.671; 5885.400;    0.000;    0.000
480.807; 5898.400;    0.000;    0.000
480.943; 5943.400;    0.000;    0.000
481.080; 5802.400;    0.000;    0.000
481.216; 5930.400;    0.000;    0.000
481.352; 5861.400;    0.000;    0.000
481.488; 5872.400;    0.000;    0.000
481.624; 5826.400;    0.000;    0.000
481.760; 5910.400;    0.000;    0.000
481.897; 5764.400;    0.000;    0.000
482.033; 5955.400;    0.000;    0.000
482.169; 5931.400;    0.000;    0.000
482.305; 5718.400;    0.000;    0.000
482.441; 5762.400;    0.000;    0.000
482.577; 5887.400;    0.000;    0.000
482.713; 5900.400;    0.000;    0.000
482.849; 5854.400;    0.000;    0.000
482.985; 5898.400;    0.000;    0.000
483.121; 5888.400;    0.000;    0.000
483.258; 6038.400;    0.000;    0.000
483.394; 5895.400;    0.000;    0.000
483.530; 5820.400;    0.000;    0.000
483.665; 5816.400;    0.000;    0.000
483.801; 5841.400;    0.000;    0.000
483.937; 5780.400;    0.000;    0.000
484.073; 5886.400;    0.000;    0.000
484.209; 5877.400;    0.000;    0.000
484.345; 5891.400;    0.000;    0.000
484.481; 5931.400;    0.000;    0.000
484.617; 5809.400;    0.000;    0.000
484.753; 5870.400;    0.000;    0.000
484.889; 6145.400;    0.000;    0.000
485.025; 5880.400;    0.000;    0.000
485.161; 5860.400;    0.000;    0.000
485.296; 5947.400;    0.000;    0.000
485.432; 5944.400;    0.000;    0.000
485.568; 5953.400;    0.000;    0.000
485.704; 5899.400;    0.000;    0.000
485.840; 5777.400;    0.000;    0.000
485.975; 6032.400;    0.000;    0.000
486.111; 5837.400;    0.000;    0.000
486.247; 6005.400;    0.000;    0.000
486.383; 5956.400;    0.000;    0.000
486.518; 5989.400;    0.000;    0.000
486.654; 5859.400;    0.000;    0.000
486.790; 5991.400;    0.000;    0.000
486.926; 5945.400;    0.000;    0.000
487.061; 5903.400;    0.000;    0.000
487.197; 5933.400;    0.000;    0.000
487.333; 5902.400;    0.000;    0.000
487.468; 5948.400;    0.000;    0.000
487.604; 6069.400;    0.000;    0.000
487.740; 5992.400;    0.000;    0.000
487.875; 6063.400;    0.000;    0.000
488.011; 5992.400;    0.000;    0.000
488.146; 5903.400;    0.000;    0.000
488.282; 5967.400;    0.000;    0.000
488.417; 6021.400;    0.000;    0.000
488.553; 6076.400;    0.000;    0.000
488.688; 6025.400;    0.000;    0.000
488.824; 6040.400;    0.000;    0.000
488.960; 6108.400;    0.000;    0.000
489.095; 6083.400;    0.000;    0.000
489.230; 6221.400;    0.000;    0.000
489.366; 6105.400;    0.000;    0.000
489.501; 6113.400;    0.000;    0.000
489.637; 5999.400;    0.000;    0.000
489.772; 6046.400;    0.000;    0.000
489.908; 5969.400;    0.000;    0.000
490.043; 6205.400;    0.000;    0.000
490.178; 6127.400;    0.000;    0.000
490.314; 6134.400;    0.000;    0.000
490.449; 6130.400;    0.000;    0.000
490.585; 6073.400;    0.000;    0.000
490.720; 6159.400;    0.000;    0.000
490.855; 5998.400;    0.000;    0.000
490.991; 6084.400;    0.000;    0.000
491.126; 6194.400;    0.000;    0.000
491.261; 6201.400;    0.000;    0.000
491.396; 6104.400;    0.000;    0.000
491.532; 5962.400;    0.000;    0.000
491.667; 6059.400;    0.000;    0.000
491.802; 6148.400;    0.000;    0.000
491.937; 6157.400;    0.000;    0.000
492.073; 6275.400;    0.000;    0.000
492.208; 6176.400;    0.000;    0.000
492.343; 6260.400;    0.000;    0.000
492.478; 6219.400;    0.000;    0.000
492.613; 6103.400;    0.000;    0.000
492.749; 6170.400;    0.000;    0.000
492.884; 6197.400;    0.000;    0.000
493.019; 6191.400;    0.000;    0.000
493.154; 6168.400;    0.000;    0.000
493.289; 6102.400;    0.000;    0.000
493.424; 6290.400;    0.000;    0.000
493.559; 6167.400;    0.000;    0.000
493.694; 6172.400;    0.000;    0.000
493.829; 6177.400;    0.000;    0.000
493.964; 6340.400;    0.000;    0.000
494.099; 6288.400;    0.000;    0.000
494.234; 6274.400;    0.000;    0.000
494.369; 6225.400;    0.000;    0.000
494.504; 6265.400;    0.000;    0.000
494.639; 6283.400;    0.000;    0.000
494.774; 6197.400;    0.000;    0.000
494.909; 6230.400;    0.000;    0.000
495.044; 6177.400;    0.000;    0.000
495.179; 6225.400;    0.000;    0.000
495.314; 6152.400;    0.000;    0.000
495.449; 6301.400;    0.000;    0.000
495.584; 6378.400;    0.000;    0.000
495.719; 6215.400;    0.000;    0.000
495.854; 6291.400;    0.000;    0.000
495.988; 6405.400;    0.000;    0.000
496.123; 6203.400;    0.000;    0.000
496.258; 6366.400;    0.000;    0.000
496.393; 6444.400;    0.000;    0.000
496.528; 6410.400;    0.000;    0.000
496.663; 6487.400;    0.000;    0.000
496.797; 6542.400;    0.000;    0.000
496.932; 6638.400;    0.000;    0.000
497.067; 6625.400;    0.000;    0.000
497.202; 6698.400;    0.000;    0.000
497.336; 6728.400;    0.000;    0.000
497.471; 6908.400;    0.000;    0.000
497.606; 6872.400;    0.000;    0.000
497.740; 7181.400;    0.000;    0.000
497.875; 7374.400;    0.000;    0.000
498.010; 7395.400;    0.000;    0.000
498.144; 7577.400;    0.000;    0.000
498.279; 7679.400;    0.000;    0.000
498.414; 7901.400;    0.000;    0.000
498.548; 7674.400;    0.000;    0.000
498.683; 7734.400;    0.000;    0.000
498.817; 7807.400;    0.000;    0.000
498.952; 7846.400;    0.000;    0.000
499.087; 8093.400;    0.000;    0.000
499.221; 8156.400;    0.000;    0.000
499.356; 8256.400;    0.000;    0.000
499.490; 8256.400;    0.000;    0.000
499.625; 8448.400;    0.000;    0.000
499.759; 8503.400;    0.000;    0.000
499.894; 8741.400;    0.000;    0.000
500.028; 8759.400;    0.000;    0.000
500.162; 8913.400;    0.000;    0.000
500.297; 8947.400;    0.000;    0.000
500.431; 9028.400;    0.000;    0.000
500.566; 8963.400;    0.000;    0.000
500.700; 9044.400;    0.000;    0.000
500.835; 8747.400;    0.000;    0.000
500.969; 8594.400;    0.000;    0.000
501.103; 8481.400;    0.000;    0.000
501.238; 8512.400;    0.000;    0.000
501.372; 8195.400;    0.000;    0.000
501.506; 8058.400;    0.000;    0.000
501.641; 7796.400;    0.000;    0.000
501.775; 7739.400;    0.000;    0.000
501.909; 7549.400;    0.000;    0.000
502.043; 7478.400;    0.000;    0.000
502.178; 7314.400;    0.000;    0.000
502.312; 7211.400;    0.000;    0.000
502.446; 7032.400;    0.000;    0.000
502.580; 6813.400;    0.000;    0.000
502.715; 6934.400;    0.000;    0.000
502.849; 7032.400;    0.000;    0.000
502.983; 6798.400;    0.000;    0.000
503.117; 6815.400;    0.000;    0.000
503.251; 6623.400;    0.000;    0.000
503.385; 6674.400;    0.000;    0.000
503.520; 6435.400;    0.000;    0.000
503.654; 6262.400;    0.000;    0.000
503.788; 6370.400;    0.000;    0.000
503.922; 6276.400;    0.000;    0.000
504.056; 6352.400;    0.000;    0.000
504.190; 6242.400;    0.000;    0.000
504.324; 6136.400;    0.000;    0.000
504.458; 6074.400;    0.000;    0.000
504.592; 5957.400;    0.000;    0.000
504.726; 5957.400;    0.000;    0.000
504.860; 5994.400;    0.000;    0.000
504.994; 5703.400;    0.000;    0.000
505.128; 5848.400;    0.000;    0.000
505.262; 5759.400;    0.000;    0.000
505.396; 5599.400;    0.000;    0.000
505.530; 5630.400;    0.000;    0.000
505.664; 5576.400;    0.000;    0.000
505.798; 5469.400;    0.000;    0.000
505.932; 5378.400;    0.000;    0.000
506.066; 5396.400;    0.000;    0.000
506.199; 5410.400;    0.000;    0.000
506.333; 5257.400;    0.000;    0.000
506.467; 5269.400;    0.000;    0.000
506.601; 5164.400;    0.000;    0.000
506.735; 5257.400;    0.000;    0.000
506.869; 5166.400;    0.000;    0.000
507.002; 5139.400;    0.000;    0.000
507.136; 5145.400;    0.000;    0.000
507.270; 5029.400;    0.000;    0.000
507.404; 5147.400;    0.000;    0.000
507.537; 5070.400;    0.000;    0.000
507.671; 5100.400;    0.000;    0.000
507.805; 5033.400;    0.000;    0.000
507.939; 5003.400;    0.000;    0.000
508.072; 5044.400;    0.000;    0.000
508.206; 4896.400;    0.000;    0.000
508.340; 4929.400;    0.000;    0.000
508.473; 4863.400;    0.000;    0.000
508.607; 4970.400;    0.000;    0.000
508.740; 4831.400;    0.000;    0.000
508.874; 4953.400;    0.000;    0.000
509.008; 4853.400;    0.000;    0.000
509.141; 4902.400;    0.000;    0.000
509.275; 4766.400;    0.000;    0.000
509.408; 4864.400;    0.000;    0.000
509.542; 4747.400;    0.000;    0.000
509.675; 4769.400;    0.000;    0.000
509.809; 4706.400;    0.000;    0.000
509.942; 4918.400;    0.000;    0.000
510.076; 4817.400;    0.000;    0.000
510.209; 4846.400;    0.000;    0.000
510.343; 4797.400;    0.000;    0.000
510.476; 4750.400;    0.000;    0.000
510.610; 4700.400;    0.000;    0.000
510.743; 4643.400;    0.000;    0.000
510.877; 4508.400;    0.000;    0.000
511.010; 4741.400;    0.000;    0.000
511.143; 4712.400;    0.000;    0.000
511.277; 4675.400;    0.000;    0.000
511.410; 4650.400;    0.000;    0.000
511.543; 4611.400;    0.000;    0.000
511.677; 4683.400;    0.000;    0.000
511.810; 4647.400;    0.000;    0.000
511.943; 4638.400;    0.000;    0.000
512.077; 4588.400;    0.000;    0.000
512.210; 4614.400;    0.000;    0.000
512.343; 4484.400;    0.000;    0.000
512.476; 4680.400;    0.000;    0.000
512.610; 4710.400;    0.000;    0.000
512.743; 4687.400;    0.000;    0.000
512.876; 4672.400;    0.000;    0.000
513.009; 4597.400;    0.000;    0.000
513.142; 4449.400;    0.000;    0.000
513.276; 4586.400;    0.000;    0.000
513.409; 4698.400;    0.000;    0.000
513.542; 4575.400;    0.000;    0.000
513.675; 4515.400;    0.000;    0.000
513.808; 4615.400;    0.000;    0.000
513.941; 4672.400;    0.000;    0.000
514.074; 4558.400;    0.000;    0.000
514.207; 4730.400;    0.000;    0.000
514.340; 4618.400;    0.000;    0.000
514.474; 4662.400;    0.000;    0.000
514.607; 4669.400;    0.000;    0.000
514.740; 4596.400;    0.000;    0.000
514.873; 4772.400;    0.000;    0.000
515.006; 4930.400;    0.000;    0.000
515.139; 4888.400;    0.000;    0.000
515.272; 4931.400;    0.000;    0.000
515.404; 5081.400;    0.000;    0.000
515.537; 5117.400;    0.000;    0.000
515.670; 4918.400;    0.000;    0.000
515.803; 4985.400;    0.000;    0.000
515.936; 4910.400;    0.000;    0.000
516.069; 4987.400;    0.000;    0.000
516.202; 5099.400;    0.000;    0.000
516.335; 5174.400;    0.000;    0.000
516.468; 5511.400;    0.000;    0.000
516.600; 6972.400;    0.000;    0.000
516.733; 8976.400;    0.000;    0.000
516.866; 8826.400;    0.000;    0.000
516.999; 7612.400;    0.000;    0.000
517.132;10436.400;    0.000;    0.000
517.264;15463.400;    0.000;    0.000
517.397;14601.400;    0.000;    0.000
517.530;10058.400;    0.000;    0.000
517.663; 8095.400;    0.000;    0.000
517.795; 7307.400;    0.000;    0.000
517.928; 7010.400;    0.000;    0.000
518.061; 7365.400;    0.000;    0.000
518.193;11038.400;    0.000;    0.000
518.326;19190.400;    0.000;    0.000
518.459;20292.400;    0.000;    0.000
518.591;13588.400;    0.000;    0.000
518.724; 9389.400;    0.000;    0.000
518.857; 7862.400;    0.000;    0.000
518.989; 7188.400;    0.000;    0.000
519.122; 6607.400;    0.000;    0.000
519.254; 6289.400;    0.000;    0.000
519.387; 5965.400;    0.000;    0.000
519.519; 5770.400;    0.000;    0.000
519.652; 5495.400;    0.000;    0.000
519.784; 5440.400;    0.000;    0.000
519.917; 5297.400;    0.000;    0.000
520.049; 5037.400;    0.000;    0.000
520.182; 4960.400;    0.000;    0.000
520.314; 5064.400;    0.000;    0.000
520.447; 4795.400;    0.000;    0.000
520.579; 4825.400;    0.000;    0.000
520.712; 4803.400;    0.000;    0.000
520.844; 4793.400;    0.000;    0.000
520.976; 4643.400;    0.000;    0.000
521.109; 4564.400;    0.000;    0.000
521.241; 4649.400;    0.000;    0.000
521.373; 4568.400;    0.000;    0.000
521.506; 4479.400;    0.000;    0.000
521.638; 4546.400;    0.000;    0.000
521.770; 4495.400;    0.000;    0.000
521.903; 4477.400;    0.000;    0.000
522.035; 4387.400;    0.000;    0.000
522.167; 4374.400;    0.000;    0.000
522.300; 4408.400;    0.000;    0.000
522.432; 4320.400;    0.000;    0.000
522.564; 4351.400;    0.000;    0.000
522.696; 4272.400;    0.000;    0.000
522.828; 4194.400;    0.000;    0.000
522.961; 4191.400;    0.000;    0.000
523.093; 4185.400;    0.000;    0.000
523.225; 4116.400;    0.000;    0.000
523.357; 4235.400;    0.000;    0.000
523.489; 4180.400;    0.000;    0.000
523.621; 4206.400;    0.000;    0.000
523.753; 4119.400;    0.000;    0.000
523.885; 4011.400;    0.000;    0.000
524.018; 4110.400;    0.000;    0.000
524.150; 4121.400;    0.000;    0.000
524.282; 4110.400;    0.000;    0.000
524.414; 4046.400;    0.000;    0.000
524.546; 3966.400;    0.000;    0.000
524.678; 4018.400;    0.000;    0.000
524.810; 4043.400;    0.000;    0.000
524.942; 3960.400;    0.000;    0.000
525.074; 3940.400;    0.000;    0.000
525.206; 3920.400;    0.000;    0.000
525.338; 3986.400;    0.000;    0.000
525.469; 3876.400;    0.000;    0.000
525.601; 3985.400;    0.000;    0.000
525.733; 3887.400;    0.000;    0.000
525.865; 3953.400;    0.000;    0.000
525.997; 3812.400;    0.000;    0.000
526.129; 3867.400;    0.000;    0.000
526.261; 3813.400;    0.000;    0.000
526.393; 3832.400;    0.000;    0.000
526.524; 3891.400;    0.000;    0.000
526.656; 3717.400;    0.000;    0.000
526.788; 3778.400;    0.000;    0.000
526.920; 3873.400;    0.000;    0.000
527.052; 3723.400;    0.000;    0.000
527.183; 3732.400;    0.000;    0.000
527.315; 3829.400;    0.000;    0.000
527.447; 3834.400;    0.000;    0.000
527.578; 3745.400;    0.000;    0.000
527.710; 3676.400;    0.000;    0.000
527.842; 3703.400;    0.000;    0.000
527.973; 3867.400;    0.000;    0.000
528.105; 3750.400;    0.000;    0.000
528.237; 3759.400;    0.000;    0.000
528.368; 3741.400;    0.000;    0.000
528.500; 3864.400;    0.000;    0.000
528.632; 3700.400;    0.000;    0.000
528.763; 3756.400;    0.000;    0.000
528.895; 3856.400;    0.000;    0.000
529.026; 3681.400;    0.000;    0.000
529.158; 3745.400;    0.000;    0.000
529.289; 3689.400;    0.000;    0.000
529.421; 3749.400;    0.000;    0.000
529.552; 3745.400;    0.000;    0.000
529.684; 3851.400;    0.000;    0.000
529.815; 3887.400;    0.000;    0.000
529.947; 3775.400;    0.000;    0.000
530.078; 3739.400;    0.000;    0.000
530.210; 3705.400;    0.000;    0.000
530.341; 3788.400;    0.000;    0.000
530.472; 3608.400;    0.000;    0.000
530.604; 3656.400;    0.000;    0.000
530.735; 3776.400;    0.000;    0.000
530.867; 3719.400;    0.000;    0.000
530.998; 3815.400;    0.000;    0.000
531.129; 3749.400;    0.000;    0.000
531.260; 3811.400;    0.000;    0.000
531.392; 3819.400;    0.000;    0.000
531.523; 3826.400;    0.000;    0.000
531.654; 3764.400;    0.000;    0.000
531.786; 3853.400;    0.000;    0.000
531.917; 3868.400;    0.000;    0.000
532.048; 3828.400;    0.000;    0.000
532.179; 3888.400;    0.000;    0.000
532.311; 3821.400;    0.000;    0.000
532.442; 3885.400;    0.000;    0.000
532.573; 3847.400;    0.000;    0.000
532.704; 3879.400;    0.000;    0.000
532.835; 3767.400;    0.000;    0.000
532.966; 3805.400;    0.000;    0.000
533.097; 3787.400;    0.000;    0.000
533.229; 3782.400;    0.000;    0.000
533.360; 3690.400;    0.000;    0.000
533.491; 3660.400;    0.000;    0.000
533.622; 3857.400;    0.000;    0.000
533.753; 3710.400;    0.000;    0.000
533.884; 3774.400;    0.000;    0.000
534.015; 3780.400;    0.000;    0.000
534.146; 3793.400;    0.000;    0.000
534.277; 3921.400;    0.000;    0.000
534.408; 3782.400;    0.000;    0.000
534.539; 3814.400;    0.000;    0.000
534.670; 3727.400;    0.000;    0.000
534.801; 3835.400;    0.000;    0.000
534.932; 3677.400;    0.000;    0.000
535.063; 3740.400;    0.000;    0.000
535.194; 3780.400;    0.000;    0.000
535.324; 3764.400;    0.000;    0.000
535.455; 3698.400;    0.000;    0.000
535.586; 3771.400;    0.000;    0.000
535.717; 3663.400;    0.000;    0.000
535.848; 3771.400;    0.000;    0.000
535.979; 3681.400;    0.000;    0.000
536.109; 3624.400;    0.000;    0.000
536.240; 3730.400;    0.000;    0.000
536.371; 3710.400;    0.000;    0.000
536.502; 3714.400;    0.000;    0.000
536.632; 3689.400;    0.000;    0.000
536.763; 3691.400;    0.000;    0.000
536.894; 3616.400;    0.000;    0.000
537.025; 3586.400;    0.000;    0.000
537.155; 3638.400;    0.000;    0.000
537.286; 3735.400;    0.000;    0.000
537.417; 3646.400;    0.000;    0.000
537.547; 3655.400;    0.000;    0.000
537.678; 3740.400;    0.000;    0.000
537.808; 3642.400;    0.000;    0.000
537.939; 3686.400;    0.000;    0.000
538.070; 3630.400;    0.000;    0.000
538.200; 3628.400;    0.000;    0.000
538.331; 3539.400;    0.000;    0.000
538.461; 3546.400;    0.000;    0.000
538.592; 3702.400;    0.000;    0.000
538.722; 3648.400;    0.000;    0.000
538.853; 3575.400;    0.000;    0.000
538.983; 3562.400;    0.000;    0.000
539.114; 3668.400;    0.000;    0.000
539.244; 3622.400;    0.000;    0.000
539.375; 3663.400;    0.000;    0.000
539.505; 3698.400;    0.000;    0.000
539.636; 3664.400;    0.000;    0.000
539.766; 3647.400;    0.000;    0.000
539.896; 3586.400;    0.000;    0.000
540.027; 3692.400;    0.000;    0.000
540.157; 3590.400;    0.000;    0.000
540.287; 3609.400;    0.000;    0.000
540.418; 3740.400;    0.000;    0.000
540.548; 3598.400;    0.000;    0.000
540.678; 3645.400;    0.000;    0.000
540.809; 3712.400;    0.000;    0.000
540.939; 3675.400;    0.000;    0.000
541.069; 3679.400;    0.000;    0.000
541.200; 3716.400;    0.000;    0.000
541.330; 3761.400;    0.000;    0.000
541.460; 3763.400;    0.000;    0.000
541.590; 3810.400;    0.000;    0.000
541.720; 3676.400;    0.000;    0.000
541.851; 3649.400;    0.000;    0.000
541.981; 3757.400;    0.000;    0.000
542.111; 3880.400;    0.000;    0.000
542.241; 3796.400;    0.000;    0.000
542.371; 3899.400;    0.000;    0.000
542.501; 3927.400;    0.000;    0.000
542.631; 3977.400;    0.000;    0.000
542.761; 3873.400;    0.000;    0.000
542.891; 3801.400;    0.000;    0.000
543.021; 3908.400;    0.000;    0.000
543.151; 4006.400;    0.000;    0.000
543.281; 3901.400;    0.000;    0.000
543.411; 3801.400;    0.000;    0.000
543.542; 3773.400;    0.000;    0.000
543.671; 3801.400;    0.000;    0.000
543.801; 3776.400;    0.000;    0.000
543.931; 3855.400;    0.000;    0.000
544.061; 3861.400;    0.000;    0.000
544.191; 3823.400;    0.000;    0.000
544.321; 3889.400;    0.000;    0.000
544.451; 3819.400;    0.000;    0.000
544.581; 3984.400;    0.000;    0.000
544.711; 3951.400;    0.000;    0.000
544.841; 3918.400;    0.000;    0.000
544.970; 4049.400;    0.000;    0.000
545.100; 3956.400;    0.000;    0.000
545.230; 3987.400;    0.000;    0.000
545.360; 4094.400;    0.000;    0.000
545.490; 3928.400;    0.000;    0.000
545.619; 3919.400;    0.000;    0.000
545.749; 3887.400;    0.000;    0.000
545.879; 3828.400;    0.000;    0.000
546.009; 3934.400;    0.000;    0.000
546.138; 3941.400;    0.000;    0.000
546.268; 3796.400;    0.000;    0.000
546.398; 3746.400;    0.000;    0.000
546.527; 3733.400;    0.000;    0.000
546.657; 3872.400;    0.000;    0.000
546.786; 3835.400;    0.000;    0.000
546.916; 3813.400;    0.000;    0.000
547.046; 3886.400;    0.000;    0.000
547.175; 3859.400;    0.000;    0.000
547.305; 3759.400;    0.000;    0.000
547.434; 3710.400;    0.000;    0.000
547.564; 3891.400;    0.000;    0.000
547.693; 3864.400;    0.000;    0.000
547.823; 3828.400;    0.000;    0.000
547.953; 3858.400;    0.000;    0.000
548.082; 3896.400;    0.000;    0.000
548.211; 3818.400;    0.000;    0.000
548.341; 3801.400;    0.000;    0.000
548.470; 3813.400;    0.000;    0.000
548.600; 3848.400;    0.000;    0.000
548.729; 3901.400;    0.000;    0.000
548.859; 3840.400;    0.000;    0.000
548.988; 3895.400;    0.000;    0.000
549.117; 3841.400;    0.000;    0.000
549.247; 3869.400;    0.000;    0.000
549.376; 3833.400;    0.000;    0.000
549.505; 3913.400;    0.000;    0.000
549.635; 3820.400;    0.000;    0.000
549.764; 3785.400;    0.000;    0.000
549.893; 3843.400;    0.000;    0.000
550.023; 3869.400;    0.000;    0.000
550.152; 3879.400;    0.000;    0.000
550.281; 3885.400;    0.000;    0.000
550.410; 3893.400;    0.000;    0.000
550.539; 3926.400;    0.000;    0.000
550.669; 3919.400;    0.000;    0.000
550.798; 3996.400;    0.000;    0.000
550.927; 4005.400;    0.000;    0.000
551.056; 3875.400;    0.000;    0.000
551.185; 3982.400;    0.000;    0.000
551.314; 3800.400;    0.000;    0.000
551.443; 3859.400;    0.000;    0.000
551.573; 4057.400;    0.000;    0.000
551.702; 3976.400;    0.000;    0.000
551.831; 3946.400;    0.000;    0.000
551.960; 3929.400;    0.000;    0.000
552.089; 3884.400;    0.000;    0.000
552.218; 4067.400;    0.000;    0.000
552.347; 3997.400;    0.000;    0.000
552.476; 4112.400;    0.000;    0.000
552.605; 4077.400;    0.000;    0.000
552.734; 4323.400;    0.000;    0.000
552.863; 4380.400;    0.000;    0.000
552.992; 4379.400;    0.000;    0.000
553.121; 4295.400;    0.000;    0.000
553.249; 4257.400;    0.000;    0.000
553.378; 4160.400;    0.000;    0.000
553.507; 4083.400;    0.000;    0.000
553.636; 4092.400;    0.000;    0.000
553.765; 4130.400;    0.000;    0.000
553.894; 4141.400;    0.000;    0.000
554.023; 4079.400;    0.000;    0.000
554.151; 4080.400;    0.000;    0.000
554.280; 4021.400;    0.000;    0.000
554.409; 4010.400;    0.000;    0.000
554.538; 3997.400;    0.000;    0.000
554.666; 4032.400;    0.000;    0.000
554.795; 3921.400;    0.000;    0.000
554.924; 3985.400;    0.000;    0.000
555.052; 4080.400;    0.000;    0.000
555.181; 3973.400;    0.000;    0.000
555.310; 3937.400;    0.000;    0.000
555.439; 4043.400;    0.000;    0.000
555.567; 3995.400;    0.000;    0.000
555.696; 3949.400;    0.000;    0.000
555.824; 3843.400;    0.000;    0.000
555.953; 3969.400;    0.000;    0.000
556.082; 3980.400;    0.000;    0.000
556.210; 4010.400;    0.000;    0.000
556.339; 4057.400;    0.000;    0.000
556.467; 3960.400;    0.000;    0.000
556.596; 3991.400;    0.000;    0.000
556.724; 4043.400;    0.000;    0.000
556.853; 3970.400;    0.000;    0.000
556.981; 3907.400;    0.000;    0.000
557.110; 3877.400;    0.000;    0.000
557.238; 3924.400;    0.000;    0.000
557.367; 3964.400;    0.000;    0.000
557.495; 3884.400;    0.000;    0.000
557.623; 3894.400;    0.000;    0.000
557.752; 3909.400;    0.000;    0.000
557.880; 3857.400;    0.000;    0.000
558.008; 3869.400;    0.000;    0.000
558.137; 3965.400;    0.000;    0.000
558.265; 3966.400;    0.000;    0.000
558.393; 3967.400;    0.000;    0.000
558.522; 3933.400;    0.000;    0.000
558.650; 3937.400;    0.000;    0.000
558.778; 3859.400;    0.000;    0.000
558.906; 4052.400;    0.000;    0.000
559.035; 3996.400;    0.000;    0.000
559.163; 4049.400;    0.000;    0.000
559.291; 3949.400;    0.000;    0.000
559.419; 4012.400;    0.000;    0.000
559.548; 3975.400;    0.000;    0.000
559.676; 4067.400;    0.000;    0.000
559.804; 4097.400;    0.000;    0.000
559.932; 3987.400;    0.000;    0.000
560.060; 4039.400;    0.000;    0.000
560.188; 4074.400;    0.000;    0.000
560.316; 4100.400;    0.000;    0.000
560.444; 4051.400;    0.000;    0.000
560.572; 4012.400;    0.000;    0.000
560.700; 4240.400;    0.000;    0.000
560.828; 4258.400;    0.000;    0.000
560.956; 4273.400;    0.000;    0.000
561.085; 4170.400;    0.000;    0.000
561.212; 4219.400;    0.000;    0.000
561.340; 4245.400;    0.000;    0.000
561.468; 4274.400;    0.000;    0.000
561.596; 4173.400;    0.000;    0.000
561.724; 4216.400;    0.000;    0.000
561.852; 4220.400;    0.000;    0.000
561.980; 4323.400;    0.000;    0.000
562.108; 4196.400;    0.000;    0.000
562.236; 4241.400;    0.000;    0.000
562.364; 4327.400;    0.000;    0.000
562.492; 4387.400;    0.000;    0.000
562.619; 4404.400;    0.000;    0.000
562.747; 4357.400;    0.000;    0.000
562.875; 4377.400;    0.000;    0.000
563.003; 4470.400;    0.000;    0.000
563.130; 4590.400;    0.000;    0.000
563.258; 4509.400;    0.000;    0.000
563.386; 4551.400;    0.000;    0.000
563.514; 4577.400;    0.000;    0.000
563.641; 4660.400;    0.000;    0.000
563.769; 4692.400;    0.000;    0.000
563.897; 4739.400;    0.000;    0.000
564.024; 4748.400;    0.000;    0.000
564.152; 4905.400;    0.000;    0.000
564.280; 4833.400;    0.000;    0.000
564.407; 4723.400;    0.000;    0.000
564.535; 4944.400;    0.000;    0.000
564.662; 4951.400;    0.000;    0.000
564.790; 4995.400;    0.000;    0.000
564.917; 4973.400;    0.000;    0.000
565.045; 5064.400;    0.000;    0.000
565.173; 4973.400;    0.000;    0.000
565.300; 5262.400;    0.000;    0.000
565.428; 5220.400;    0.000;    0.000
565.555; 5299.400;    0.000;    0.000
565.682; 5255.400;    0.000;    0.000
565.810; 5207.400;    0.000;    0.000
565.937; 5518.400;    0.000;    0.000
566.065; 5569.400;    0.000;    0.000
566.192; 5640.400;    0.000;    0.000
566.320; 5770.400;    0.000;    0.000
566.447; 5720.400;    0.000;    0.000
566.574; 5878.400;    0.000;    0.000
566.702; 5987.400;    0.000;    0.000
566.829; 6161.400;    0.000;    0.000
566.956; 6080.400;    0.000;    0.000
567.083; 6155.400;    0.000;    0.000
567.211; 6182.400;    0.000;    0.000
567.338; 6316.400;    0.000;    0.000
567.465; 6255.400;    0.000;    0.000
567.593; 6209.400;    0.000;    0.000
567.720; 6228.400;    0.000;    0.000
567.847; 6234.400;    0.000;    0.000
567.974; 6251.400;    0.000;    0.000
568.101; 6814.400;    0.000;    0.000
568.228; 8021.400;    0.000;    0.000
568.356; 8363.400;    0.000;    0.000
568.483; 7948.400;    0.000;    0.000
568.610; 8130.400;    0.000;    0.000
568.737; 9456.400;    0.000;    0.000
568.864;10711.400;    0.000;    0.000
568.991;10178.400;    0.000;    0.000
569.118; 8837.400;    0.000;    0.000
569.245; 7976.400;    0.000;    0.000
569.372; 7531.400;    0.000;    0.000
569.499; 6976.400;    0.000;    0.000
569.626; 6820.400;    0.000;    0.000
569.753; 6599.400;    0.000;    0.000
569.880; 6377.400;    0.000;    0.000
570.007; 6222.400;    0.000;    0.000
570.134; 6145.400;    0.000;    0.000
570.261; 5957.400;    0.000;    0.000
570.388; 5930.400;    0.000;    0.000
570.515; 5821.400;    0.000;    0.000
570.642; 5696.400;    0.000;    0.000
570.768; 5667.400;    0.000;    0.000
570.895; 5647.400;    0.000;    0.000
571.022; 5606.400;    0.000;    0.000
571.149; 5569.400;    0.000;    0.000
571.276; 5455.400;    0.000;    0.000
571.402; 5430.400;    0.000;    0.000
571.529; 5290.400;    0.000;    0.000
571.656; 5294.400;    0.000;    0.000
571.783; 5309.400;    0.000;    0.000
571.909; 5232.400;    0.000;    0.000
572.036; 5254.400;    0.000;    0.000
572.163; 5156.400;    0.000;    0.000
572.289; 5200.400;    0.000;    0.000
572.416; 5153.400;    0.000;    0.000
572.543; 5145.400;    0.000;    0.000
572.669; 5176.400;    0.000;    0.000
572.796; 5203.400;    0.000;    0.000
572.922; 5135.400;    0.000;    0.000
573.049; 5029.400;    0.000;    0.000
573.176; 5017.400;    0.000;    0.000
573.302; 5081.400;    0.000;    0.000
573.429; 5148.400;    0.000;    0.000
573.555; 5024.400;    0.000;    0.000
573.682; 5015.400;    0.000;    0.000
573.808; 4899.400;    0.000;    0.000
573.935; 5023.400;    0.000;    0.000
574.061; 4981.400;    0.000;    0.000
574.188; 4933.400;    0.000;    0.000
574.314; 5006.400;    0.000;    0.000
574.440; 4792.400;    0.000;    0.000
574.567; 4838.400;    0.000;    0.000
574.693; 4815.400;    0.000;    0.000
574.820; 4909.400;    0.000;    0.000
574.946; 4924.400;    0.000;    0.000
575.072; 4929.400;    0.000;    0.000
575.198; 4858.400;    0.000;    0.000
575.325; 4876.400;    0.000;    0.000
575.451; 4917.400;    0.000;    0.000
575.577; 4823.400;    0.000;    0.000
575.704; 4823.400;    0.000;    0.000
575.830; 4936.400;    0.000;    0.000
575.956; 4895.400;    0.000;    0.000
576.082; 4855.400;    0.000;    0.000
576.208; 4740.400;    0.000;    0.000
576.335; 4860.400;    0.000;    0.000
576.461; 4791.400;    0.000;    0.000
576.587; 4898.400;    0.000;    0.000
576.713; 4790.400;    0.000;    0.000
576.839; 4903.400;    0.000;    0.000
576.965; 4835.400;    0.000;    0.000
577.091; 4780.400;    0.000;    0.000
577.217; 4896.400;    0.000;    0.000
577.343; 4758.400;    0.000;    0.000
577.469; 4920.400;    0.000;    0.000
577.596; 4804.400;    0.000;    0.000
577.722; 4847.400;    0.000;    0.000
577.848; 4831.400;    0.000;    0.000
577.974; 4830.400;    0.000;    0.000
578.099; 4793.400;    0.000;    0.000
578.225; 4869.400;    0.000;    0.000
578.351; 4924.400;    0.000;    0.000
578.477; 4974.400;    0.000;    0.000
578.603; 4856.400;    0.000;    0.000
578.729; 4869.400;    0.000;    0.000
578.855; 4917.400;    0.000;    0.000
578.981; 4869.400;    0.000;    0.000
579.107; 4930.400;    0.000;    0.000
579.232; 4961.400;    0.000;    0.000
579.358; 4875.400;    0.000;    0.000
579.484; 4871.400;    0.000;    0.000
579.610; 4993.400;    0.000;    0.000
579.735; 5068.400;    0.000;    0.000
579.861; 5015.400;    0.000;    0.000
579.987; 5058.400;    0.000;    0.000
580.113; 5032.400;    0.000;    0.000
580.238; 5089.400;    0.000;    0.000
580.364; 5013.400;    0.000;    0.000
580.490; 5064.400;    0.000;    0.000
580.615; 5086.400;    0.000;    0.000
580.741; 5107.400;    0.000;    0.000
580.867; 5067.400;    0.000;    0.000
580.992; 5231.400;    0.000;    0.000
581.118; 5211.400;    0.000;    0.000
581.243; 5234.400;    0.000;    0.000
581.369; 5140.400;    0.000;    0.000
581.494; 5280.400;    0.000;    0.000
581.620; 5338.400;    0.000;    0.000
581.745; 5408.400;    0.000;    0.000
581.871; 5378.400;    0.000;    0.000
581.996; 5453.400;    0.000;    0.000
582.122; 5459.400;    0.000;    0.000
582.247; 5532.400;    0.000;    0.000
582.373; 5553.400;    0.000;    0.000
582.498; 5626.400;    0.000;    0.000
582.624; 5737.400;    0.000;    0.000
582.749; 5658.400;    0.000;    0.000
582.874; 5733.400;    0.000;    0.000
583.000; 5739.400;    0.000;    0.000
583.125; 5790.400;    0.000;    0.000
583.250; 5889.400;    0.000;    0.000
583.376; 6062.400;    0.000;    0.000
583.501; 6035.400;    0.000;    0.000
583.626; 6110.400;    0.000;    0.000
583.751; 6204.400;    0.000;    0.000
583.877; 6121.400;    0.000;    0.000
584.002; 6424.400;    0.000;    0.000
584.127; 6494.400;    0.000;    0.000
584.252; 6590.400;    0.000;    0.000
584.377; 6625.400;    0.000;    0.000
584.503; 6745.400;    0.000;    0.000
584.628; 6835.400;    0.000;    0.000
584.753; 7014.400;    0.000;    0.000
584.878; 7054.400;    0.000;    0.000
585.003; 7267.400;    0.000;    0.000
585.128; 7737.400;    0.000;    0.000
585.253; 8104.400;    0.000;    0.000
585.378; 8028.400;    0.000;    0.000
585.503; 7758.400;    0.000;    0.000
585.628; 8018.400;    0.000;    0.000
585.753; 8143.400;    0.000;    0.000
585.878; 8177.400;    0.000;    0.000
586.003; 8453.400;    0.000;    0.000
586.128; 8896.400;    0.000;    0.000
586.253; 9088.400;    0.000;    0.000
586.378; 9170.400;    0.000;    0.000
586.503; 9779.400;    0.000;    0.000
586.628; 9999.400;    0.000;    0.000
586.753;10435.400;    0.000;    0.000
586.878;10935.400;    0.000;    0.000
587.003;11458.400;    0.000;    0.000
587.127;12084.400;    0.000;    0.000
587.252;12714.400;    0.000;    0.000
587.377;13620.400;    0.000;    0.000
587.502;14622.400;    0.000;    0.000
587.627;15766.400;    0.000;    0.000
587.751;17109.400;    0.000;    0.000
587.876;18850.400;    0.000;    0.000
588.001;20895.400;    0.000;    0.000
588.125;23586.400;    0.000;    0.000
588.250;27482.400;    0.000;    0.000
588.375;32355.400;    0.000;    0.000
588.499;38622.398;    0.000;    0.000
588.624;48238.398;    0.000;    0.000
588.749;62942.398;    0.000;    0.000
588.873;65261.398;    0.000;    0.000
588.998;65261.398;    0.000;    0.000
589.122;65261.398;    0.000;    0.000
589.247;65261.398;    0.000;    0.000
589.372;65261.398;    0.000;    0.000
589.496;65261.398;    0.000;    0.000
589.621;65261.398;    0.000;    0.000
589.745;65261.398;    0.000;    0.000
589.870;62670.398;    0.000;    0.000
589.994;48400.398;    0.000;    0.000
590.118;39131.398;    0.000;    0.000
590.243;32859.398;    0.000;    0.000
590.367;28417.400;    0.000;    0.000
590.492;25188.400;    0.000;    0.000
590.616;22341.400;    0.000;    0.000
590.740;20336.400;    0.000;    0.000
590.865;18618.400;    0.000;    0.000
590.989;17077.400;    0.000;    0.000
591.114;16009.400;    0.000;    0.000
591.238;15161.400;    0.000;    0.000
591.362;14205.400;    0.000;    0.000
591.486;13436.400;    0.000;    0.000
591.611;12829.400;    0.000;    0.000
591.735;12331.400;    0.000;    0.000
591.859;11721.400;    0.000;    0.000
591.983;11397.400;    0.000;    0.000
592.107;10787.400;    0.000;    0.000
592.232;10335.400;    0.000;    0.000
592.356;10222.400;    0.000;    0.000
592.480; 9887.400;    0.000;    0.000
592.604; 9691.400;    0.000;    0.000
592.728; 9332.400;    0.000;    0.000
592.852; 9110.400;    0.000;    0.000
592.976; 8856.400;    0.000;    0.000
593.100; 8640.400;    0.000;    0.000
593.224; 8574.400;    0.000;    0.000
593.349; 8203.400;    0.000;    0.000
593.473; 8108.400;    0.000;    0.000
593.597; 7971.400;    0.000;    0.000
593.721; 8001.400;    0.000;    0.000
593.844; 7636.400;    0.000;    0.000
593.968; 7646.400;    0.000;    0.000
594.092; 7265.400;    0.000;    0.000
594.216; 7320.400;    0.000;    0.000
594.340; 7253.400;    0.000;    0.000
594.464; 7179.400;    0.000;    0.000
594.588; 7084.400;    0.000;    0.000
594.712; 7105.400;    0.000;    0.000
594.836; 6949.400;    0.000;    0.000
594.959; 6771.400;    0.000;    0.000
595.083; 6578.400;    0.000;    0.000
595.207; 6601.400;    0.000;    0.000
595.331; 6585.400;    0.000;    0.000
595.455; 6467.400;    0.000;    0.000
595.578; 6372.400;    0.000;    0.000
595.702; 6362.400;    0.000;    0.000
595.826; 6145.400;    0.000;    0.000
595.949; 6293.400;    0.000;    0.000
596.073; 6062.400;    0.000;    0.000
596.197; 6073.400;    0.000;    0.000
596.320; 6092.400;    0.000;    0.000
596.444; 6051.400;    0.000;    0.000
596.568; 5925.400;    0.000;    0.000
596.691; 5788.400;    0.000;    0.000
596.815; 5877.400;    0.000;    0.000
596.938; 5793.400;    0.000;    0.000
597.062; 5646.400;    0.000;    0.000
597.186; 5607.400;    0.000;    0.000
597.309; 5621.400;    0.000;    0.000
597.433; 5637.400;    0.000;    0.000
597.556; 5511.400;    0.000;    0.000
597.680; 5582.400;    0.000;    0.000
597.803; 5606.400;    0.000;    0.000
597.926; 5365.400;    0.000;    0.000
598.050; 5451.400;    0.000;    0.000
598.173; 5608.400;    0.000;    0.000
598.297; 5484.400;    0.000;    0.000
598.420; 5514.400;    0.000;    0.000
598.543; 5327.400;    0.000;    0.000
598.667; 5308.400;    0.000;    0.000
598.790; 5257.400;    0.000;    0.000
598.913; 5269.400;    0.000;    0.000
599.037; 5172.400;    0.000;    0.000
599.160; 5244.400;    0.000;    0.000
599.283; 5217.400;    0.000;    0.000
599.406; 5265.400;    0.000;    0.000
599.530; 5095.400;    0.000;    0.000
599.653; 5097.400;    0.000;    0.000
599.776; 5127.400;    0.000;    0.000
599.899; 5147.400;    0.000;    0.000
600.022; 5053.400;    0.000;    0.000
600.145; 5102.400;    0.000;    0.000
600.269; 5041.400;    0.000;    0.000
600.392; 5070.400;    0.000;    0.000
600.515; 5022.400;    0.000;    0.000
600.638; 5079.400;    0.000;    0.000
600.761; 5020.400;    0.000;    0.000
600.884; 4891.400;    0.000;    0.000
601.007; 4932.400;    0.000;    0.000
601.130; 5028.400;    0.000;    0.000
601.253; 4930.400;    0.000;    0.000
601.376; 4913.400;    0.000;    0.000
601.499; 4894.400;    0.000;    0.000
601.622; 4795.400;    0.000;    0.000
601.745; 4793.400;    0.000;    0.000
601.868; 4860.400;    0.000;    0.000
601.991; 4817.400;    0.000;    0.000
602.113; 4828.400;    0.000;    0.000
602.236; 4762.400;    0.000;    0.000
602.359; 4885.400;    0.000;    0.000
602.482; 4843.400;    0.000;    0.000
602.605; 4689.400;    0.000;    0.000
602.728; 4725.400;    0.000;    0.000
602.850; 4704.400;    0.000;    0.000
602.973; 4735.400;    0.000;    0.000
603.096; 4794.400;    0.000;    0.000
603.219; 4713.400;    0.000;    0.000
603.341; 4675.400;    0.000;    0.000
603.464; 4731.400;    0.000;    0.000
603.587; 4624.400;    0.000;    0.000
603.709; 4694.400;    0.000;    0.000
603.832; 4513.400;    0.000;    0.000
603.955; 4632.400;    0.000;    0.000
604.077; 4436.400;    0.000;    0.000
604.200; 4419.400;    0.000;    0.000
604.323; 4500.400;    0.000;    0.000
604.445; 4401.400;    0.000;    0.000
604.568; 4523.400;    0.000;    0.000
604.690; 4539.400;    0.000;    0.000
604.813; 4516.400;    0.000;    0.000
604.935; 4499.400;    0.000;    0.000
605.058; 4365.400;    0.000;    0.000
605.180; 4522.400;    0.000;    0.000
605.303; 4510.400;    0.000;    0.000
605.425; 4445.400;    0.000;    0.000
605.547; 4426.400;    0.000;    0.000
605.670; 4503.400;    0.000;    0.000
605.792; 4430.400;    0.000;    0.000
605.915; 4480.400;    0.000;    0.000
606.037; 4421.400;    0.000;    0.000
606.159; 4340.400;    0.000;    0.000
606.282; 4232.400;    0.000;    0.000
606.404; 4436.400;    0.000;    0.000
606.526; 4339.400;    0.000;    0.000
606.648; 4357.400;    0.000;    0.000
606.771; 4267.400;    0.000;    0.000
606.893; 4287.400;    0.000;    0.000
607.015; 4349.400;    0.000;    0.000
607.137; 4404.400;    0.000;    0.000
607.260; 4389.400;    0.000;    0.000
607.382; 4298.400;    0.000;    0.000
607.504; 4404.400;    0.000;    0.000
607.626; 4329.400;    0.000;    0.000
607.748; 4263.400;    0.000;    0.000
607.870; 4311.400;    0.000;    0.000
607.992; 4396.400;    0.000;    0.000
608.114; 4417.400;    0.000;    0.000
608.237; 4469.400;    0.000;    0.000
608.359; 4312.400;    0.000;    0.000
608.481; 4290.400;    0.000;    0.000
608.603; 4223.400;    0.000;    0.000
608.725; 4315.400;    0.000;    0.000
608.847; 4291.400;    0.000;    0.000
608.969; 4273.400;    0.000;    0.000
609.090; 4248.400;    0.000;    0.000
609.212; 4326.400;    0.000;    0.000
609.334; 4216.400;    0.000;    0.000
609.456; 4286.400;    0.000;    0.000
609.578; 4305.400;    0.000;    0.000
609.700; 4109.400;    0.000;    0.000
609.822; 4294.400;    0.000;    0.000
609.944; 4319.400;    0.000;    0.000
610.065; 4274.400;    0.000;    0.000
610.187; 4285.400;    0.000;    0.000
610.309; 4341.400;    0.000;    0.000
610.431; 4300.400;    0.000;    0.000
610.552; 4334.400;    0.000;    0.000
610.674; 4296.400;    0.000;    0.000
610.796; 4331.400;    0.000;    0.000
610.918; 4239.400;    0.000;    0.000
611.039; 4257.400;    0.000;    0.000
611.161; 4310.400;    0.000;    0.000
611.282; 4195.400;    0.000;    0.000
611.404; 4270.400;    0.000;    0.000
611.526; 4168.400;    0.000;    0.000
611.647; 4279.400;    0.000;    0.000
611.769; 4250.400;    0.000;    0.000
611.890; 4308.400;    0.000;    0.000
612.012; 4204.400;    0.000;    0.000
612.133; 4263.400;    0.000;    0.000
612.255; 4122.400;    0.000;    0.000
612.377; 4260.400;    0.000;    0.000
612.498; 4177.400;    0.000;    0.000
612.619; 4219.400;    0.000;    0.000
612.741; 4190.400;    0.000;    0.000
612.862; 4150.400;    0.000;    0.000
612.984; 4327.400;    0.000;    0.000
613.105; 4219.400;    0.000;    0.000
613.226; 4150.400;    0.000;    0.000
613.348; 4352.400;    0.000;    0.000
613.469; 4322.400;    0.000;    0.000
613.590; 4260.400;    0.000;    0.000
613.712; 4260.400;    0.000;    0.000
613.833; 4292.400;    0.000;    0.000
613.954; 4241.400;    0.000;    0.000
614.076; 4346.400;    0.000;    0.000
614.197; 4359.400;    0.000;    0.000
614.318; 4441.400;    0.000;    0.000
614.439; 4253.400;    0.000;    0.000
614.560; 4465.400;    0.000;    0.000
614.682; 4478.400;    0.000;    0.000
614.803; 4384.400;    0.000;    0.000
614.924; 4395.400;    0.000;    0.000
615.045; 4385.400;    0.000;    0.000
615.166; 4475.400;    0.000;    0.000
615.287; 4668.400;    0.000;    0.000
615.408; 5115.400;    0.000;    0.000
615.529; 5270.400;    0.000;    0.000
615.650; 4981.400;    0.000;    0.000
615.771; 4808.400;    0.000;    0.000
615.892; 4913.400;    0.000;    0.000
616.013; 5642.400;    0.000;    0.000
616.134; 6272.400;    0.000;    0.000
616.255; 5823.400;    0.000;    0.000
616.376; 5021.400;    0.000;    0.000
616.497; 4783.400;    0.000;    0.000
616.618; 4612.400;    0.000;    0.000
616.739; 4495.400;    0.000;    0.000
616.860; 4458.400;    0.000;    0.000
616.981; 4429.400;    0.000;    0.000
617.102; 4326.400;    0.000;    0.000
617.222; 4271.400;    0.000;    0.000
617.343; 4282.400;    0.000;    0.000
617.464; 4304.400;    0.000;    0.000
617.585; 4119.400;    0.000;    0.000
617.705; 4314.400;    0.000;    0.000
617.826; 4146.400;    0.000;    0.000
617.947; 4214.400;    0.000;    0.000
618.068; 4123.400;    0.000;    0.000
618.188; 4144.400;    0.000;    0.000
618.309; 4228.400;    0.000;    0.000
618.430; 4078.400;    0.000;    0.000
618.550; 4150.400;    0.000;    0.000
618.671; 4014.400;    0.000;    0.000
618.791; 4001.400;    0.000;    0.000
618.912; 4019.400;    0.000;    0.000
619.033; 4150.400;    0.000;    0.000
619.153; 4086.400;    0.000;    0.000
619.274; 3962.400;    0.000;    0.000
619.394; 4079.400;    0.000;    0.000
619.515; 4040.400;    0.000;    0.000
619.635; 3956.400;    0.000;    0.000
619.756; 4040.400;    0.000;    0.000
619.876; 4036.400;    0.000;    0.000
619.996; 4018.400;    0.000;    0.000
620.117; 4059.400;    0.000;    0.000
620.237; 3973.400;    0.000;    0.000
620.358; 3965.400;    0.000;    0.000
620.478; 4071.400;    0.000;    0.000
620.598; 4036.400;    0.000;    0.000
620.719; 3984.400;    0.000;    0.000
620.839; 4015.400;    0.000;    0.000
620.959; 4027.400;    0.000;    0.000
621.079; 3992.400;    0.000;    0.000
621.200; 4039.400;    0.000;    0.000
621.320; 3879.400;    0.000;    0.000
621.440; 3930.400;    0.000;    0.000
621.560; 3916.400;    0.000;    0.000
621.681; 3973.400;    0.000;    0.000
621.801; 3898.400;    0.000;    0.000
621.921; 3932.400;    0.000;    0.000
622.041; 4044.400;    0.000;    0.000
622.161; 3943.400;    0.000;    0.000
622.281; 3983.400;    0.000;    0.000
622.401; 4058.400;    0.000;    0.000
622.521; 3961.400;    0.000;    0.000
622.641; 3971.400;    0.000;    0.000
622.761; 4014.400;    0.000;    0.000
622.882; 4072.400;    0.000;    0.000
623.002; 3922.400;    0.000;    0.000
623.121; 3937.400;    0.000;    0.000
623.241; 3996.400;    0.000;    0.000
623.361; 3880.400;    0.000;    0.000
623.481; 3973.400;    0.000;    0.000
623.601; 4006.400;    0.000;    0.000
623.721; 4025.400;    0.000;    0.000
623.841; 3997.400;    0.000;    0.000
623.961; 3961.400;    0.000;    0.000
624.081; 3887.400;    0.000;    0.000
624.201; 3934.400;    0.000;    0.000
624.320; 3959.400;    0.000;    0.000
624.440; 3989.400;    0.000;    0.000
624.560; 3933.400;    0.000;    0.000
624.680; 3824.400;    0.000;    0.000
624.799; 3836.400;    0.000;    0.000
624.919; 3870.400;    0.000;    0.000
625.039; 3879.400;    0.000;    0.000
625.159; 3851.400;    0.000;    0.000
625.278; 3953.400;    0.000;    0.000
625.398; 3897.400;    0.000;    0.000
625.518; 3848.400;    0.000;    0.000
625.637; 3852.400;    0.000;    0.000
625.757; 3938.400;    0.000;    0.000
625.876; 3761.400;    0.000;    0.000
625.996; 3811.400;    0.000;    0.000
626.115; 3841.400;    0.000;    0.000
626.235; 3831.400;    0.000;    0.000
626.354; 3868.400;    0.000;    0.000
626.474; 3897.400;    0.000;    0.000
626.594; 3838.400;    0.000;    0.000
626.713; 3771.400;    0.000;    0.000
626.832; 3766.400;    0.000;    0.000
626.952; 3875.400;    0.000;    0.000
627.071; 3855.400;    0.000;    0.000
627.191; 3850.400;    0.000;    0.000
627.310; 3786.400;    0.000;    0.000
627.429; 3780.400;    0.000;    0.000
627.549; 3794.400;    0.000;    0.000
627.668; 3798.400;    0.000;    0.000
627.787; 3906.400;    0.000;    0.000
627.907; 3710.400;    0.000;    0.000
628.026; 3775.400;    0.000;    0.000
628.145; 3738.400;    0.000;    0.000
628.264; 3712.400;    0.000;    0.000
628.384; 3674.400;    0.000;    0.000
628.503; 3696.400;    0.000;    0.000
628.622; 3798.400;    0.000;    0.000
628.741; 3746.400;    0.000;    0.000
628.860; 3767.400;    0.000;    0.000
628.980; 3774.400;    0.000;    0.000
629.099; 3737.400;    0.000;    0.000
629.218; 3688.400;    0.000;    0.000
629.337; 3754.400;    0.000;    0.000
629.456; 3710.400;    0.000;    0.000
629.575; 3632.400;    0.000;    0.000
629.694; 3721.400;    0.000;    0.000
629.813; 3621.400;    0.000;    0.000
629.932; 3748.400;    0.000;    0.000
630.051; 3766.400;    0.000;    0.000
630.170; 3641.400;    0.000;    0.000
630.289; 3745.400;    0.000;    0.000
630.408; 3699.400;    0.000;    0.000
630.527; 3657.400;    0.000;    0.000
630.646; 3712.400;    0.000;    0.000
630.764; 3681.400;    0.000;    0.000
630.883; 3655.400;    0.000;    0.000
631.002; 3704.400;    0.000;    0.000
631.121; 3671.400;    0.000;    0.000
631.240; 3635.400;    0.000;    0.000
631.359; 3605.400;    0.000;    0.000
631.477; 3718.400;    0.000;    0.000
631.596; 3705.400;    0.000;    0.000
631.715; 3714.400;    0.000;    0.000
631.834; 3626.400;    0.000;    0.000
631.952; 3577.400;    0.000;    0.000
632.071; 3678.400;    0.000;    0.000
632.190; 3645.400;    0.000;    0.000
632.308; 3590.400;    0.000;    0.000
632.427; 3630.400;    0.000;    0.000
632.546; 3569.400;    0.000;    0.000
632.664; 3618.400;    0.000;    0.000
632.783; 3649.400;    0.000;    0.000
632.901; 3728.400;    0.000;    0.000
633.020; 3584.400;    0.000;    0.000
633.138; 3657.400;    0.000;    0.000
633.257; 3628.400;    0.000;    0.000
633.375; 3603.400;    0.000;    0.000
633.494; 3595.400;    0.000;    0.000
633.612; 3637.400;    0.000;    0.000
633.731; 3599.400;    0.000;    0.000
633.849; 3629.400;    0.000;    0.000
633.968; 3772.400;    0.000;    0.000
634.086; 3612.400;    0.000;    0.000
634.204; 3631.400;    0.000;    0.000
634.323; 3602.400;    0.000;    0.000
634.441; 3581.400;    0.000;    0.000
634.559; 3645.400;    0.000;    0.000
634.678; 3673.400;    0.000;    0.000
634.796; 3574.400;    0.000;    0.000
634.914; 3542.400;    0.000;    0.000
635.032; 3561.400;    0.000;    0.000
635.151; 3621.400;    0.000;    0.000
635.269; 3529.400;    0.000;    0.000
635.387; 3598.400;    0.000;    0.000
635.505; 3456.400;    0.000;    0.000
635.623; 3607.400;    0.000;    0.000
635.742; 3633.400;    0.000;    0.000
635.860; 3553.400;    0.000;    0.000
635.978; 3518.400;    0.000;    0.000
636.096; 3591.400;    0.000;    0.000
636.214; 3552.400;    0.000;    0.000
636.332; 3549.400;    0.000;    0.000
636.450; 3571.400;    0.000;    0.000
636.568; 3548.400;    0.000;    0.000
636.686; 3390.400;    0.000;    0.000
636.804; 3519.400;    0.000;    0.000
636.922; 3543.400;    0.000;    0.000
637.040; 3484.400;    0.000;    0.000
637.158; 3455.400;    0.000;    0.000
637.276; 3522.400;    0.000;    0.000
637.394; 3466.400;    0.000;    0.000
637.512; 3566.400;    0.000;    0.000
637.629; 3593.400;    0.000;    0.000
637.747; 3462.400;    0.000;    0.000
637.865; 3514.400;    0.000;    0.000
637.983; 3434.400;    0.000;    0.000
638.101; 3468.400;    0.000;    0.000
638.218; 3491.400;    0.000;    0.000
638.336; 3510.400;    0.000;    0.000
638.454; 3536.400;    0.000;    0.000
638.572; 3416.400;    0.000;    0.000
638.689; 3463.400;    0.000;    0.000
638.807; 3412.400;    0.000;    0.000
638.925; 3502.400;    0.000;    0.000
639.042; 3441.400;    0.000;    0.000
639.160; 3373.400;    0.000;    0.000
639.278; 3338.400;    0.000;    0.000
639.395; 3569.400;    0.000;    0.000
639.513; 3462.400;    0.000;    0.000
639.630; 3451.400;    0.000;    0.000
639.748; 3461.400;    0.000;    0.000
639.865; 3496.400;    0.000;    0.000
639.983; 3503.400;    0.000;    0.000
640.100; 3444.400;    0.000;    0.000
640.218; 3430.400;    0.000;    0.000
640.335; 3477.400;    0.000;    0.000
640.453; 3477.400;    0.000;    0.000
640.570; 3506.400;    0.000;    0.000
640.688; 3439.400;    0.000;    0.000
640.805; 3496.400;    0.000;    0.000
640.922; 3529.400;    0.000;    0.000
641.040; 3537.400;    0.000;    0.000
641.157; 3454.400;    0.000;    0.000
641.274; 3420.400;    0.000;    0.000
641.391; 3349.400;    0.000;    0.000
641.509; 3491.400;    0.000;    0.000
641.626; 3579.400;    0.000;    0.000
641.743; 3400.400;    0.000;    0.000
641.860; 3453.400;    0.000;    0.000
641.978; 3449.400;    0.000;    0.000
642.095; 3354.400;    0.000;    0.000
642.212; 3412.400;    0.000;    0.000
642.329; 3389.400;    0.000;    0.000
642.446; 3463.400;    0.000;    0.000
642.563; 3441.400;    0.000;    0.000
642.681; 3496.400;    0.000;    0.000
642.798; 3499.400;    0.000;    0.000
642.915; 3427.400;    0.000;    0.000
643.032; 3376.400;    0.000;    0.000
643.149; 3561.400;    0.000;    0.000
643.266; 3451.400;    0.000;    0.000
643.383; 3512.400;    0.000;    0.000
643.500; 3466.400;    0.000;    0.000
643.617; 3519.400;    0.000;    0.000
643.734; 3535.400;    0.000;    0.000
643.850; 3420.400;    0.000;    0.000
643.967; 3541.400;    0.000;    0.000
644.084; 3496.400;    0.000;    0.000
644.201; 3430.400;    0.000;    0.000
644.318; 3396.400;    0.000;    0.000
644.435; 3575.400;    0.000;    0.000
644.552; 3559.400;    0.000;    0.000
644.668; 3563.400;    0.000;    0.000
644.785; 3532.400;    0.000;    0.000
644.902; 3657.400;    0.000;    0.000
645.019; 3520.400;    0.000;    0.000
645.135; 3468.400;    0.000;    0.000
645.252; 3544.400;    0.000;    0.000
645.369; 3521.400;    0.000;    0.000
645.485; 3535.400;    0.000;    0.000
645.602; 3493.400;    0.000;    0.000
645.719; 3615.400;    0.000;    0.000
645.835; 3621.400;    0.000;    0.000
645.952; 3537.400;    0.000;    0.000
646.068; 3614.400;    0.000;    0.000
646.185; 3537.400;    0.000;    0.000
646.302; 3694.400;    0.000;    0.000
646.418; 3599.400;    0.000;    0.000
646.535; 3607.400;    0.000;    0.000
646.651; 3550.400;    0.000;    0.000
646.768; 3587.400;    0.000;    0.000
646.884; 3532.400;    0.000;    0.000
647.000; 3586.400;    0.000;    0.000
647.117; 3556.400;    0.000;    0.000
647.233; 3630.400;    0.000;    0.000
647.350; 3634.400;    0.000;    0.000
647.466; 3651.400;    0.000;    0.000
647.582; 3734.400;    0.000;    0.000
647.699; 3589.400;    0.000;    0.000
647.815; 3596.400;    0.000;    0.000
647.931; 3640.400;    0.000;    0.000
648.047; 3634.400;    0.000;    0.000
648.164; 3668.400;    0.000;    0.000
648.280; 3635.400;    0.000;    0.000
648.396; 3611.400;    0.000;    0.000
648.512; 3669.400;    0.000;    0.000
648.629; 3652.400;    0.000;    0.000
648.745; 3737.400;    0.000;    0.000
648.861; 3774.400;    0.000;    0.000
648.977; 3644.400;    0.000;    0.000
649.093; 3775.400;    0.000;    0.000
649.209; 3821.400;    0.000;    0.000
649.325; 3813.400;    0.000;    0.000
649.441; 3766.400;    0.000;    0.000
649.557; 3729.400;    0.000;    0.000
649.673; 3830.400;    0.000;    0.000
649.789; 3759.400;    0.000;    0.000
649.905; 3785.400;    0.000;    0.000
650.021; 3762.400;    0.000;    0.000
650.137; 3865.400;    0.000;    0.000
650.253; 3766.400;    0.000;    0.000
650.369; 3814.400;    0.000;    0.000
650.485; 3815.400;    0.000;    0.000
650.601; 3842.400;    0.000;    0.000
650.717; 3873.400;    0.000;    0.000
650.833; 3810.400;    0.000;    0.000
650.948; 3904.400;    0.000;    0.000
651.064; 3916.400;    0.000;    0.000
651.180; 3918.400;    0.000;    0.000
651.296; 3859.400;    0.000;    0.000
651.411; 3886.400;    0.000;    0.000
651.527; 3865.400;    0.000;    0.000
651.643; 3915.400;    0.000;    0.000
651.759; 4010.400;    0.000;    0.000
651.874; 3940.400;    0.000;    0.000
651.990; 4088.400;    0.000;    0.000
652.105; 3961.400;    0.000;    0.000
652.221; 4010.400;    0.000;    0.000
652.337; 3996.400;    0.000;    0.000
652.452; 4013.400;    0.000;    0.000
652.568; 3993.400;    0.000;    0.000
652.683; 4091.400;    0.000;    0.000
652.799; 4134.400;    0.000;    0.000
652.914; 4037.400;    0.000;    0.000
653.030; 4163.400;    0.000;    0.000
653.145; 4213.400;    0.000;    0.000
653.261; 4162.400;    0.000;    0.000
653.376; 4288.400;    0.000;    0.000
653.492; 4143.400;    0.000;    0.000
653.607; 4376.400;    0.000;    0.000
653.722; 4345.400;    0.000;    0.000
653.838; 4510.400;    0.000;    0.000
653.953; 4347.400;    0.000;    0.000
654.068; 4506.400;    0.000;    0.000
654.184; 4545.400;    0.000;    0.000
654.299; 4645.400;    0.000;    0.000
654.414; 4636.400;    0.000;    0.000
654.530; 4654.400;    0.000;    0.000
654.645; 4714.400;    0.000;    0.000
654.760; 4787.400;    0.000;    0.000
654.875; 4889.400;    0.000;    0.000
654.990; 5073.400;    0.000;    0.000
655.106; 5010.400;    0.000;    0.000
655.221; 5170.400;    0.000;    0.000
655.336; 5230.400;    0.000;    0.000
655.451; 5353.400;    0.000;    0.000
655.566; 5349.400;    0.000;    0.000
655.681; 5462.400;    0.000;    0.000
655.796; 5730.400;    0.000;    0.000
655.911; 5974.400;    0.000;    0.000
656.026; 5959.400;    0.000;    0.000
656.141; 6223.400;    0.000;    0.000
656.256; 6284.400;    0.000;    0.000
656.371; 6352.400;    0.000;    0.000
656.486; 6382.400;    0.000;    0.000
656.601; 6350.400;    0.000;    0.000
656.716; 6302.400;    0.000;    0.000
656.831; 6039.400;    0.000;    0.000
656.946; 6087.400;    0.000;    0.000
657.060; 5938.400;    0.000;    0.000
657.175; 5954.400;    0.000;    0.000
657.290; 5682.400;    0.000;    0.000
657.405; 5658.400;    0.000;    0.000
657.520; 5602.400;    0.000;    0.000
657.634; 5516.400;    0.000;    0.000
657.749; 5434.400;    0.000;    0.000
657.864; 5302.400;    0.000;    0.000
657.979; 5186.400;    0.000;    0.000
658.093; 5226.400;    0.000;    0.000
658.208; 5261.400;    0.000;    0.000
658.323; 5050.400;    0.000;    0.000
658.437; 4974.400;    0.000;    0.000
658.552; 4936.400;    0.000;    0.000
658.666; 4864.400;    0.000;    0.000
658.781; 4883.400;    0.000;    0.000
658.895; 4862.400;    0.000;    0.000
659.010; 4752.400;    0.000;    0.000
659.125; 4623.400;    0.000;    0.000
659.239; 4543.400;    0.000;    0.000
659.353; 4584.400;    0.000;    0.000
659.468; 4544.400;    0.000;    0.000
659.582; 4493.400;    0.000;    0.000
659.697; 4520.400;    0.000;    0.000
659.811; 4556.400;    0.000;    0.000
659.926; 4497.400;    0.000;    0.000
660.040; 4425.400;    0.000;    0.000
660.154; 4375.400;    0.000;    0.000
660.269; 4389.400;    0.000;    0.000
660.383; 4341.400;    0.000;    0.000
660.497; 4315.400;    0.000;    0.000
660.612; 4329.400;    0.000;    0.000
660.726; 4230.400;    0.000;    0.000
660.840; 4169.400;    0.000;    0.000
660.954; 4145.400;    0.000;    0.000
661.068; 4128.400;    0.000;    0.000
661.183; 4195.400;    0.000;    0.000
661.297; 4080.400;    0.000;    0.000
661.411; 3935.400;    0.000;    0.000
661.525; 4089.400;    0.000;    0.000
661.639; 4001.400;    0.000;    0.000
661.753; 3896.400;    0.000;    0.000
661.867; 3941.400;    0.000;    0.000
661.981; 3930.400;    0.000;    0.000
662.095; 3843.400;    0.000;    0.000
662.209; 3973.400;    0.000;    0.000
662.323; 3885.400;    0.000;    0.000
662.437; 3769.400;    0.000;    0.000
662.551; 3804.400;    0.000;    0.000
662.665; 3770.400;    0.000;    0.000
662.779; 3717.400;    0.000;    0.000
662.893; 3825.400;    0.000;    0.000
663.007; 3705.400;    0.000;    0.000
663.121; 3805.400;    0.000;    0.000
663.235; 3678.400;    0.000;    0.000
663.349; 3715.400;    0.000;    0.000
663.462; 3633.400;    0.000;    0.000
663.576; 3615.400;    0.000;    0.000
663.690; 3567.400;    0.000;    0.000
663.804; 3632.400;    0.000;    0.000
663.917; 3570.400;    0.000;    0.000
664.031; 3599.400;    0.000;    0.000
664.145; 3588.400;    0.000;    0.000
664.258; 3522.400;    0.000;    0.000
664.372; 3513.400;    0.000;    0.000
664.486; 3514.400;    0.000;    0.000
664.599; 3402.400;    0.000;    0.000
664.713; 3489.400;    0.000;    0.000
664.827; 3478.400;    0.000;    0.000
664.940; 3423.400;    0.000;    0.000
665.054; 3456.400;    0.000;    0.000
665.167; 3406.400;    0.000;    0.000
665.281; 3441.400;    0.000;    0.000
665.394; 3504.400;    0.000;    0.000
665.508; 3310.400;    0.000;    0.000
665.621; 3381.400;    0.000;    0.000
665.735; 3402.400;    0.000;    0.000
665.848; 3451.400;    0.000;    0.000
665.961; 3353.400;    0.000;    0.000
666.075; 3328.400;    0.000;    0.000
666.188; 3453.400;    0.000;    0.000
666.301; 3368.400;    0.000;    0.000
666.415; 3356.400;    0.000;    0.000
666.528; 3385.400;    0.000;    0.000
666.641; 3377.400;    0.000;    0.000
666.755; 3329.400;    0.000;    0.000
666.868; 3331.400;    0.000;    0.000
666.981; 3411.400;    0.000;    0.000
667.094; 3209.400;    0.000;    0.000
667.207; 3241.400;    0.000;    0.000
667.321; 3213.400;    0.000;    0.000
667.434; 3264.400;    0.000;    0.000
667.547; 3280.400;    0.000;    0.000
667.660; 3233.400;    0.000;    0.000
667.773; 3247.400;    0.000;    0.000
667.886; 3205.400;    0.000;    0.000
667.999; 3209.400;    0.000;    0.000
668.112; 3221.400;    0.000;    0.000
668.225; 3187.400;    0.000;    0.000
668.338; 3216.400;    0.000;    0.000
668.451; 3233.400;    0.000;    0.000
668.564; 3211.400;    0.000;    0.000
668.677; 3187.400;    0.000;    0.000
668.790; 3284.400;    0.000;    0.000
668.903; 3217.400;    0.000;    0.000
669.016; 3145.400;    0.000;    0.000
669.129; 3080.400;    0.000;    0.000
669.242; 3100.400;    0.000;    0.000
669.354; 3031.400;    0.000;    0.000
669.467; 3087.400;    0.000;    0.000
669.580; 3169.400;    0.000;    0.000
669.693; 3075.400;    0.000;    0.000
669.806; 3067.400;    0.000;    0.000
669.918; 3004.400;    0.000;    0.000
670.031; 3156.400;    0.000;    0.000
670.144; 3101.400;    0.000;    0.000
670.256; 2982.400;    0.000;    0.000
670.369; 3136.400;    0.000;    0.000
670.482; 3057.400;    0.000;    0.000
670.594; 3015.400;    0.000;    0.000
670.707; 3139.400;    0.000;    0.000
670.820; 3124.400;    0.000;    0.000
670.932; 3065.400;    0.000;    0.000
671.045; 3057.400;    0.000;    0.000
671.157; 3110.400;    0.000;    0.000
671.270; 3080.400;    0.000;    0.000
671.382; 2939.400;    0.000;    0.000
671.495; 3051.400;    0.000;    0.000
671.607; 2997.400;    0.000;    0.000
671.720; 3024.400;    0.000;    0.000
671.832; 3031.400;    0.000;    0.000
671.944; 2974.400;    0.000;    0.000
672.057; 2964.400;    0.000;    0.000
672.169; 2929.400;    0.000;    0.000
672.281; 3053.400;    0.000;    0.000
672.394; 3012.400;    0.000;    0.000
672.506; 3042.400;    0.000;    0.000
672.618; 2935.400;    0.000;    0.000
672.731; 3023.400;    0.000;    0.000
672.843; 2941.400;    0.000;    0.000
672.955; 3029.400;    0.000;    0.000
673.067; 3016.400;    0.000;    0.000
673.180; 2942.400;    0.000;    0.000
673.292; 2872.400;    0.000;    0.000
673.404; 2859.400;    0.000;    0.000
673.516; 2899.400;    0.000;    0.000
673.628; 2887.400;    0.000;    0.000
673.740; 2960.400;    0.000;    0.000
673.852; 2895.400;    0.000;    0.000
673.964; 3056.400;    0.000;    0.000
674.076; 2796.400;    0.000;    0.000
674.188; 2878.400;    0.000;    0.000
674.300; 2925.400;    0.000;    0.000
674.412; 3010.400;    0.000;    0.000
674.524; 3001.400;    0.000;    0.000
674.636; 2883.400;    0.000;    0.000
674.748; 2850.400;    0.000;    0.000
674.860; 2897.400;    0.000;    0.000
674.972; 2846.400;    0.000;    0.000
675.084; 2887.400;    0.000;    0.000
675.196; 2874.400;    0.000;    0.000
675.307; 2918.400;    0.000;    0.000
675.419; 2827.400;    0.000;    0.000
675.531; 2986.400;    0.000;    0.000
675.643; 2906.400;    0.000;    0.000
675.755; 2776.400;    0.000;    0.000
675.866; 2842.400;    0.000;    0.000
675.978; 2944.400;    0.000;    0.000
676.090; 2838.400;    0.000;    0.000
676.201; 2942.400;    0.000;    0.000
676.313; 2769.400;    0.000;    0.000
676.425; 2846.400;    0.000;    0.000
676.536; 2825.400;    0.000;    0.000
676.648; 2912.400;    0.000;    0.000
676.759; 2796.400;    0.000;    0.000
676.871; 2775.400;    0.000;    0.000
676.983; 2810.400;    0.000;    0.000
677.094; 2791.400;    0.000;    0.000
677.206; 2893.400;    0.000;    0.000
677.317; 2869.400;    0.000;    0.000
677.429; 2804.400;    0.000;    0.000
677.540; 2760.400;    0.000;    0.000
677.651; 2810.400;    0.000;    0.000
677.763; 2801.400;    0.000;    0.000
677.874; 2797.400;    0.000;    0.000
677.986; 2801.400;    0.000;    0.000
678.097; 2789.400;    0.000;    0.000
678.208; 2814.400;    0.000;    0.000
678.320; 2817.400;    0.000;    0.000
678.431; 2747.400;    0.000;    0.000
678.542; 2827.400;    0.000;    0.000
678.653; 2653.400;    0.000;    0.000
678.765; 2708.400;    0.000;    0.000
678.876; 2809.400;    0.000;    0.000
678.987; 2718.400;    0.000;    0.000
679.098; 2684.400;    0.000;    0.000
679.209; 2743.400;    0.000;    0.000
679.320; 2679.400;    0.000;    0.000
679.432; 2747.400;    0.000;    0.000
679.543; 2726.400;    0.000;    0.000
679.654; 2707.400;    0.000;    0.000
679.765; 2746.400;    0.000;    0.000
679.876; 2662.400;    0.000;    0.000
679.987; 2748.400;    0.000;    0.000
680.098; 2698.400;    0.000;    0.000
680.209; 2728.400;    0.000;    0.000
680.320; 2712.400;    0.000;    0.000
680.431; 2690.400;    0.000;    0.000
680.542; 2725.400;    0.000;    0.000
680.653; 2778.400;    0.000;    0.000
680.763; 2701.400;    0.000;    0.000
680.874; 2767.400;    0.000;    0.000
680.985; 2740.400;    0.000;    0.000
681.096; 2725.400;    0.000;    0.000
681.207; 2618.400;    0.000;    0.000
681.318; 2731.400;    0.000;    0.000
681.428; 2726.400;    0.000;    0.000
681.539; 2601.400;    0.000;    0.000
681.650; 2723.400;    0.000;    0.000
681.760; 2712.400;    0.000;    0.000
681.871; 2666.400;    0.000;    0.000
681.982; 2624.400;    0.000;    0.000
682.093; 2769.400;    0.000;    0.000
682.203; 2632.400;    0.000;    0.000
682.314; 2745.400;    0.000;    0.000
682.424; 2630.400;    0.000;    0.000
682.535; 2717.400;    0.000;    0.000
682.646; 2695.400;    0.000;    0.000
682.756; 2713.400;    0.000;    0.000
682.867; 2697.400;    0.000;    0.000
682.977; 2668.400;    0.000;    0.000
683.088; 2655.400;    0.000;    0.000
683.198; 2634.400;    0.000;    0.000
683.308; 2639.400;    0.000;    0.000
683.419; 2691.400;    0.000;    0.000
683.529; 2573.400;    0.000;    0.000
683.640; 2740.400;    0.000;    0.000
683.750; 2586.400;    0.000;    0.000
683.860; 2670.400;    0.000;    0.000
683.971; 2742.400;    0.000;    0.000
684.081; 2717.400;    0.000;    0.000
684.191; 2623.400;    0.000;    0.000
684.301; 2682.400;    0.000;    0.000
684.412; 2642.400;    0.000;    0.000
684.522; 2664.400;    0.000;    0.000
684.632; 2643.400;    0.000;    0.000
684.742; 2712.400;    0.000;    0.000
684.852; 2638.400;    0.000;    0.000
684.963; 2672.400;    0.000;    0.000
685.073; 2635.400;    0.000;    0.000
685.183; 2722.400;    0.000;    0.000
685.293; 2669.400;    0.000;    0.000
685.403; 2718.400;    0.000;    0.000
685.513; 2799.400;    0.000;    0.000
685.623; 2670.400;    0.000;    0.000
685.733; 2690.400;    0.000;    0.000
685.843; 2681.400;    0.000;    0.000
685.953; 2650.400;    0.000;    0.000
686.063; 2622.400;    0.000;    0.000
686.173; 2616.400;    0.000;    0.000
686.283; 2638.400;    0.000;    0.000
686.393; 2659.400;    0.000;    0.000
686.503; 2698.400;    0.000;    0.000
686.612; 2668.400;    0.000;    0.000
686.722; 2693.400;    0.000;    0.000
686.832; 2614.400;    0.000;    0.000
686.942; 2730.400;    0.000;    0.000
687.052; 2772.400;    0.000;    0.000
687.161; 2587.400;    0.000;    0.000
687.271; 2591.400;    0.000;    0.000
687.381; 2566.400;    0.000;    0.000
687.491; 2634.400;    0.000;    0.000
687.600; 2713.400;    0.000;    0.000
687.710; 2592.400;    0.000;    0.000
687.820; 2696.400;    0.000;    0.000
687.929; 2564.400;    0.000;    0.000
688.039; 2682.400;    0.000;    0.000
688.148; 2621.400;    0.000;    0.000
688.258; 2559.400;    0.000;    0.000
688.367; 2613.400;    0.000;    0.000
688.477; 2613.400;    0.000;    0.000
688.586; 2628.400;    0.000;    0.000
688.696; 2685.400;    0.000;    0.000
688.805; 2616.400;    0.000;    0.000
688.915; 2659.400;    0.000;    0.000
689.024; 2615.400;    0.000;    0.000
689.134; 2679.400;    0.000;    0.000
689.243; 2585.400;    0.000;    0.000
689.352; 2675.400;    0.000;    0.000
689.462; 2604.400;    0.000;    0.000
689.571; 2604.400;    0.000;    0.000
689.680; 2680.400;    0.000;    0.000
689.790; 2515.400;    0.000;    0.000
689.899; 2552.400;    0.000;    0.000
690.008; 2579.400;    0.000;    0.000
690.117; 2627.400;    0.000;    0.000
690.227; 2703.400;    0.000;    0.000
690.336; 2600.400;    0.000;    0.000
690.445; 2607.400;    0.000;    0.000
690.554; 2588.400;    0.000;    0.000
690.663; 2630.400;    0.000;    0.000
690.772; 2642.400;    0.000;    0.000
690.881; 2589.400;    0.000;    0.000
690.990; 2694.400;    0.000;    0.000
691.099; 2577.400;    0.000;    0.000
691.209; 2608.400;    0.000;    0.000
691.318; 2618.400;    0.000;    0.000
691.427; 2555.400;    0.000;    0.000
691.536; 2674.400;    0.000;    0.000
691.644; 2563.400;    0.000;    0.000
691.753; 2573.400;    0.000;    0.000
691.862; 2650.400;    0.000;    0.000
691.971; 2628.400;    0.000;    0.000
692.080; 2586.400;    0.000;    0.000
692.189; 2634.400;    0.000;    0.000
692.298; 2605.400;    0.000;    0.000
692.406; 2590.400;    0.000;    0.000
692.515; 2677.400;    0.000;    0.000
692.624; 2602.400;    0.000;    0.000
692.733; 2598.400;    0.000;    0.000
692.842; 2621.400;    0.000;    0.000
692.950; 2614.400;    0.000;    0.000
693.059; 2579.400;    0.000;    0.000
693.168; 2664.400;    0.000;    0.000
693.276; 2608.400;    0.000;    0.000
693.385; 2569.400;    0.000;    0.000
693.494; 2618.400;    0.000;    0.000
693.602; 2648.400;    0.000;    0.000
693.711; 2613.400;    0.000;    0.000
693.819; 2587.400;    0.000;    0.000
693.928; 2543.400;    0.000;    0.000
694.036; 2580.400;    0.000;    0.000
694.145; 2591.400;    0.000;    0.000
694.253; 2697.400;    0.000;    0.000
694.362; 2646.400;    0.000;    0.000
694.470; 2606.400;    0.000;    0.000
694.579; 2533.400;    0.000;    0.000
694.687; 2576.400;    0.000;    0.000
694.795; 2609.400;    0.000;    0.000
694.904; 2494.400;    0.000;    0.000
695.012; 2622.400;    0.000;    0.000
695.120; 2589.400;    0.000;    0.000
695.229; 2705.400;    0.000;    0.000
695.337; 2557.400;    0.000;    0.000
695.445; 2564.400;    0.000;    0.000
695.553; 2648.400;    0.000;    0.000
695.662; 2647.400;    0.000;    0.000
695.770; 2579.400;    0.000;    0.000
695.878; 2591.400;    0.000;    0.000
695.986; 2613.400;    0.000;    0.000
696.094; 2617.400;    0.000;    0.000
696.202; 2564.400;    0.000;    0.000
696.310; 2646.400;    0.000;    0.000
696.419; 2564.400;    0.000;    0.000
696.527; 2629.400;    0.000;    0.000
696.635; 2643.400;    0.000;    0.000
696.743; 2599.400;    0.000;    0.000
696.851; 2684.400;    0.000;    0.000
696.959; 2729.400;    0.000;    0.000
697.067; 2511.400;    0.000;    0.000
697.174; 2662.400;    0.000;    0.000
697.282; 2586.400;    0.000;    0.000
697.390; 2571.400;    0.000;    0.000
697.498; 2621.400;    0.000;    0.000
697.606; 2630.400;    0.000;    0.000
697.714; 2578.400;    0.000;    0.000
697.822; 2660.400;    0.000;    0.000
697.929; 2624.400;    0.000;    0.000
698.037; 2595.400;    0.000;    0.000
698.145; 2694.400;    0.000;    0.000
698.253; 2590.400;    0.000;    0.000
698.360; 2623.400;    0.000;    0.000
698.468; 2599.400;    0.000;    0.000
698.576; 2702.400;    0.000;    0.000
698.683; 2622.400;    0.000;    0.000
698.791; 2640.400;    0.000;    0.000
698.899; 2656.400;    0.000;    0.000
699.006; 2596.400;    0.000;    0.000
699.114; 2646.400;    0.000;    0.000
699.221; 2600.400;    0.000;    0.000
699.329; 2639.400;    0.000;    0.000
699.436; 2657.400;    0.000;    0.000
699.544; 2583.400;    0.000;    0.000
699.651; 2578.400;    0.000;    0.000
699.759; 2613.400;    0.000;    0.000
699.866; 2666.400;    0.000;    0.000
699.974; 2625.400;    0.000;    0.000
700.081; 2564.400;    0.000;    0.000
700.188; 2680.400;    0.000;    0.000
700.296; 2675.400;    0.000;    0.000
700.403; 2636.400;    0.000;    0.000
700.510; 2539.400;    0.000;    0.000
700.618; 2655.400;    0.000;    0.000
700.725; 2601.400;    0.000;    0.000
700.832; 2540.400;    0.000;    0.000
700.940; 2617.400;    0.000;    0.000
701.047; 2556.400;    0.000;    0.000
701.154; 2570.400;    0.000;    0.000
701.261; 2627.400;    0.000;    0.000
701.368; 2591.400;    0.000;    0.000
701.475; 2671.400;    0.000;    0.000
701.582; 2621.400;    0.000;    0.000
701.690; 2574.400;    0.000;    0.000
701.797; 2694.400;    0.000;    0.000
701.904; 2658.400;    0.000;    0.000
702.011; 2644.400;    0.000;    0.000
702.118; 2689.400;    0.000;    0.000
702.225; 2600.400;    0.000;    0.000
702.332; 2530.400;    0.000;    0.000
702.439; 2588.400;    0.000;    0.000
702.546; 2615.400;    0.000;    0.000
702.652; 2663.400;    0.000;    0.000
702.759; 2609.400;    0.000;    0.000
702.866; 2634.400;    0.000;    0.000
702.973; 2641.400;    0.000;    0.000
703.080; 2640.400;    0.000;    0.000
703.187; 2554.400;    0.000;    0.000
703.294; 2727.400;    0.000;    0.000
703.400; 2484.400;    0.000;    0.000
703.507;  583.400;    0.000;    0.000
703.614;  331.400;    0.000;    0.000
703.720;  326.400;    0.000;    0.000
703.827;  324.400;    0.000;    0.000
703.934;  295.400;    0.000;    0.000
704.040;  300.400;    0.000;    0.000
704.147;  344.400;    0.000;    0.000
704.254;  350.400;    0.000;    0.000
704.360;  303.400;    0.000;    0.000
704.467;  346.400;    0.000;    0.000
704.573;  339.400;    0.000;    0.000
704.680;  331.400;    0.000;    0.000
704.786;  348.400;    0.000;    0.000
704.893;  322.400;    0.000;    0.000
704.999;  308.400;    0.000;    0.000
705.106;  320.400;    0.000;    0.000

