
Integration time [ms]:   1.000
Averaging Nr. [scans]: 1
Smoothing Nr. [pixels]: 0
Data measured with spectrometer [name]: VIS
Wave   ;Sample   ;Dark     ;Reference
[nm]   ;[counts] ;[counts] ;[counts] 

450.961;  169.850;    0.000;    0.000
451.100;  235.850;    0.000;    0.000
451.239;  212.850;    0.000;    0.000
451.377;  238.850;    0.000;    0.000
451.516;  184.850;    0.000;    0.000
451.655;  231.850;    0.000;    0.000
451.794;  184.850;    0.000;    0.000
451.932;  231.850;    0.000;    0.000
452.071;  200.850;    0.000;    0.000
452.210;  217.850;    0.000;    0.000
452.348;  208.850;    0.000;    0.000
452.487;  257.850;    0.000;    0.000
452.626;  208.850;    0.000;    0.000
452.764;  223.850;    0.000;    0.000
452.903;  205.850;    0.000;    0.000
453.042;  231.850;    0.000;    0.000
453.180; 1869.850;    0.000;    0.000
453.319; 1991.850;    0.000;    0.000
453.458; 1920.850;    0.000;    0.000
453.596; 1991.850;    0.000;    0.000
453.735; 2018.850;    0.000;    0.000
453.873; 2059.850;    0.000;    0.000
454.012; 2022.850;    0.000;    0.000
454.150; 2021.850;    0.000;    0.000
454.289; 2158.850;    0.000;    0.000
454.427; 2162.850;    0.000;    0.000
454.566; 2134.850;    0.000;    0.000
454.704; 2166.850;    0.000;    0.000
454.843; 2131.850;    0.000;    0.000
454.981; 2146.850;    0.000;    0.000
455.120; 2122.850;    0.000;    0.000
455.258; 2276.850;    0.000;    0.000
455.397; 2166.850;    0.000;    0.000
455.535; 2212.850;    0.000;    0.000
455.674; 2176.850;    0.000;    0.000
455.812; 2242.850;    0.000;    0.000
455.951; 2253.850;    0.000;    0.000
456.089; 2330.850;    0.000;    0.000
456.227; 2231.850;    0.000;    0.000
456.366; 2367.850;    0.000;    0.000
456.504; 2362.850;    0.000;    0.000
456.642; 2335.850;    0.000;    0.000
456.781; 2304.850;    0.000;    0.000
456.919; 2214.850;    0.000;    0.000
457.057; 2224.850;    0.000;    0.000
457.196; 2326.850;    0.000;    0.000
457.334; 2336.850;    0.000;    0.000
457.472; 2385.850;    0.000;    0.000
457.610; 2318.850;    0.000;    0.000
457.749; 2429.850;    0.000;    0.000
457.887; 2512.850;    0.000;    0.000
458.025; 2485.850;    0.000;    0.000
458.163; 2581.850;    0.000;    0.000
458.301; 2562.850;    0.000;    0.000
458.440; 2461.850;    0.000;    0.000
458.578; 2659.850;    0.000;    0.000
458.716; 2549.850;    0.000;    0.000
458.854; 2673.850;    0.000;    0.000
458.992; 2652.850;    0.000;    0.000
459.130; 2727.850;    0.000;    0.000
459.269; 2704.850;    0.000;    0.000
459.407; 2799.850;    0.000;    0.000
459.545; 2637.850;    0.000;    0.000
459.683; 2769.850;    0.000;    0.000
459.821; 2818.850;    0.000;    0.000
459.959; 2805.850;    0.000;    0.000
460.097; 2826.850;    0.000;    0.000
460.235; 2843.850;    0.000;    0.000
460.373; 2907.850;    0.000;    0.000
460.511; 2944.850;    0.000;    0.000
460.649; 2889.850;    0.000;    0.000
460.787; 2960.850;    0.000;    0.000
460.925; 2932.850;    0.000;    0.000
461.063; 2914.850;    0.000;    0.000
461.201; 2953.850;    0.000;    0.000
461.339; 2959.850;    0.000;    0.000
461.477; 2981.850;    0.000;    0.000
461.615; 3015.850;    0.000;    0.000
461.753; 3042.850;    0.000;    0.000
461.891; 3093.850;    0.000;    0.000
462.029; 3206.850;    0.000;    0.000
462.166; 3131.850;    0.000;    0.000
462.304; 3112.850;    0.000;    0.000
462.442; 3222.850;    0.000;    0.000
462.580; 3315.850;    0.000;    0.000
462.718; 3244.850;    0.000;    0.000
462.856; 3296.850;    0.000;    0.000
462.993; 3245.850;    0.000;    0.000
463.131; 3218.850;    0.000;    0.000
463.269; 3236.850;    0.000;    0.000
463.407; 3307.850;    0.000;    0.000
463.545; 3243.850;    0.000;    0.000
463.682; 3299.850;    0.000;    0.000
463.820; 3330.850;    0.000;    0.000
463.958; 3297.850;    0.000;    0.000
464.095; 3378.850;    0.000;    0.000
464.233; 3428.850;    0.000;    0.000
464.371; 3326.850;    0.000;    0.000
464.509; 3322.850;    0.000;    0.000
464.646; 3423.850;    0.000;    0.000
464.784; 3408.850;    0.000;    0.000
464.921; 3393.850;    0.000;    0.000
465.059; 3356.850;    0.000;    0.000
465.197; 3316.850;    0.000;    0.000
465.334; 3276.850;    0.000;    0.000
465.472; 3217.850;    0.000;    0.000
465.609; 3397.850;    0.000;    0.000
465.747; 3253.850;    0.000;    0.000
465.885; 3271.850;    0.000;    0.000
466.022; 3239.850;    0.000;    0.000
466.160; 3327.850;    0.000;    0.000
466.297; 3229.850;    0.000;    0.000
466.435; 3167.850;    0.000;    0.000
466.572; 3244.850;    0.000;    0.000
466.710; 3218.850;    0.000;    0.000
466.847; 3308.850;    0.000;    0.000
466.985; 3311.850;    0.000;    0.000
467.122; 3196.850;    0.000;    0.000
467.260; 3159.850;    0.000;    0.000
467.397; 3226.850;    0.000;    0.000
467.534; 3257.850;    0.000;    0.000
467.672; 3158.850;    0.000;    0.000
467.809; 3167.850;    0.000;    0.000
467.947; 3166.850;    0.000;    0.000
468.084; 3182.850;    0.000;    0.000
468.221; 3205.850;    0.000;    0.000
468.359; 3236.850;    0.000;    0.000
468.496; 3168.850;    0.000;    0.000
468.633; 3148.850;    0.000;    0.000
468.771; 3232.850;    0.000;    0.000
468.908; 3127.850;    0.000;    0.000
469.045; 3243.850;    0.000;    0.000
469.183; 3331.850;    0.000;    0.000
469.320; 3319.850;    0.000;    0.000
469.457; 3305.850;    0.000;    0.000
469.594; 3238.850;    0.000;    0.000
469.732; 3362.850;    0.000;    0.000
469.869; 3270.850;    0.000;    0.000
470.006; 3298.850;    0.000;    0.000
470.143; 3291.850;    0.000;    0.000
470.280; 3298.850;    0.000;    0.000
470.417; 3292.850;    0.000;    0.000
470.555; 3348.850;    0.000;    0.000
470.692; 3344.850;    0.000;    0.000
470.829; 3396.850;    0.000;    0.000
470.966; 3382.850;    0.000;    0.000
471.103; 3365.850;    0.000;    0.000
471.240; 3243.850;    0.000;    0.000
471.377; 3335.850;    0.000;    0.000
471.514; 3379.850;    0.000;    0.000
471.651; 3284.850;    0.000;    0.000
471.789; 3309.850;    0.000;    0.000
471.926; 3262.850;    0.000;    0.000
472.063; 3254.850;    0.000;    0.000
472.200; 3186.850;    0.000;    0.000
472.337; 3213.850;    0.000;    0.000
472.474; 3155.850;    0.000;    0.000
472.611; 3220.850;    0.000;    0.000
472.748; 3216.850;    0.000;    0.000
472.884; 3302.850;    0.000;    0.000
473.021; 3209.850;    0.000;    0.000
473.158; 3212.850;    0.000;    0.000
473.295; 3245.850;    0.000;    0.000
473.432; 3067.850;    0.000;    0.000
473.569; 3166.850;    0.000;    0.000
473.706; 3175.850;    0.000;    0.000
473.843; 3081.850;    0.000;    0.000
473.980; 3207.850;    0.000;    0.000
474.117; 3112.850;    0.000;    0.000
474.253; 3130.850;    0.000;    0.000
474.390; 3216.850;    0.000;    0.000
474.527; 3219.850;    0.000;    0.000
474.664; 3322.850;    0.000;    0.000
474.801; 3287.850;    0.000;    0.000
474.937; 3352.850;    0.000;    0.000
475.074; 3199.850;    0.000;    0.000
475.211; 3238.850;    0.000;    0.000
475.348; 3210.850;    0.000;    0.000
475.484; 3248.850;    0.000;    0.000
475.621; 3203.850;    0.000;    0.000
475.758; 3252.850;    0.000;    0.000
475.894; 3184.850;    0.000;    0.000
476.031; 3284.850;    0.000;    0.000
476.168; 3193.850;    0.000;    0.000
476.304; 3218.850;    0.000;    0.000
476.441; 3355.850;    0.000;    0.000
476.578; 3295.850;    0.000;    0.000
476.714; 3215.850;    0.000;    0.000
476.851; 3283.850;    0.000;    0.000
476.987; 3352.850;    0.000;    0.000
477.124; 3318.850;    0.000;    0.000
477.261; 3330.850;    0.000;    0.000
477.397; 3270.850;    0.000;    0.000
477.534; 3314.850;    0.000;    0.000
477.670; 3281.850;    0.000;    0.000
477.807; 3358.850;    0.000;    0.000
477.943; 3478.850;    0.000;    0.000
478.080; 3416.850;    0.000;    0.000
478.216; 3348.850;    0.000;    0.000
478.353; 3419.850;    0.000;    0.000
478.489; 3418.850;    0.000;    0.000
478.626; 3404.850;    0.000;    0.000
478.762; 3631.850;    0.000;    0.000
478.898; 3737.850;    0.000;    0.000
479.035; 3706.850;    0.000;    0.000
479.171; 3568.850;    0.000;    0.000
479.308; 3459.850;    0.000;    0.000
479.444; 3462.850;    0.000;    0.000
479.580; 3423.850;    0.000;    0.000
479.717; 3480.850;    0.000;    0.000
479.853; 3509.850;    0.000;    0.000
479.989; 3558.850;    0.000;    0.000
480.126; 3552.850;    0.000;    0.000
480.262; 3660.850;    0.000;    0.000
480.398; 3483.850;    0.000;    0.000
480.535; 3569.850;    0.000;    0.000
480.671; 3590.850;    0.000;    0.000
480.807; 3541.850;    0.000;    0.000
480.943; 3473.850;    0.000;    0.000
481.080; 3440.850;    0.000;    0.000
481.216; 3527.850;    0.000;    0.000
481.352; 3528.850;    0.000;    0.000
481.488; 3547.850;    0.000;    0.000
481.624; 3445.850;    0.000;    0.000
481.760; 3469.850;    0.000;    0.000
481.897; 3426.850;    0.000;    0.000
482.033; 3527.850;    0.000;    0.000
482.169; 3418.850;    0.000;    0.000
482.305; 3507.850;    0.000;    0.000
482.441; 3533.850;    0.000;    0.000
482.577; 3426.850;    0.000;    0.000
482.713; 3446.850;    0.000;    0.000
482.849; 3430.850;    0.000;    0.000
482.985; 3484.850;    0.000;    0.000
483.121; 3433.850;    0.000;    0.000
483.258; 3464.850;    0.000;    0.000
483.394; 3480.850;    0.000;    0.000
483.530; 3464.850;    0.000;    0.000
483.665; 3471.850;    0.000;    0.000
483.801; 3427.850;    0.000;    0.000
483.937; 3493.850;    0.000;    0.000
484.073; 3467.850;    0.000;    0.000
484.209; 3467.850;    0.000;    0.000
484.345; 3468.850;    0.000;    0.000
484.481; 3530.850;    0.000;    0.000
484.617; 3439.850;    0.000;    0.000
484.753; 3448.850;    0.000;    0.000
484.889; 3552.850;    0.000;    0.000
485.025; 3459.850;    0.000;    0.000
485.161; 3506.850;    0.000;    0.000
485.296; 3584.850;    0.000;    0.000
485.432; 3511.850;    0.000;    0.000
485.568; 3533.850;    0.000;    0.000
485.704; 3556.850;    0.000;    0.000
485.840; 3630.850;    0.000;    0.000
485.975; 3619.850;    0.000;    0.000
486.111; 3546.850;    0.000;    0.000
486.247; 3595.850;    0.000;    0.000
486.383; 3537.850;    0.000;    0.000
486.518; 3552.850;    0.000;    0.000
486.654; 3614.850;    0.000;    0.000
486.790; 3550.850;    0.000;    0.000
486.926; 3600.850;    0.000;    0.000
487.061; 3565.850;    0.000;    0.000
487.197; 3601.850;    0.000;    0.000
487.333; 3560.850;    0.000;    0.000
487.468; 3616.850;    0.000;    0.000
487.604; 3529.850;    0.000;    0.000
487.740; 3621.850;    0.000;    0.000
487.875; 3591.850;    0.000;    0.000
488.011; 3613.850;    0.000;    0.000
488.146; 3515.850;    0.000;    0.000
488.282; 3457.850;    0.000;    0.000
488.417; 3597.850;    0.000;    0.000
488.553; 3626.850;    0.000;    0.000
488.688; 3565.850;    0.000;    0.000
488.824; 3612.850;    0.000;    0.000
488.960; 3523.850;    0.000;    0.000
489.095; 3587.850;    0.000;    0.000
489.230; 3616.850;    0.000;    0.000
489.366; 3663.850;    0.000;    0.000
489.501; 3583.850;    0.000;    0.000
489.637; 3572.850;    0.000;    0.000
489.772; 3682.850;    0.000;    0.000
489.908; 3617.850;    0.000;    0.000
490.043; 3698.850;    0.000;    0.000
490.178; 3582.850;    0.000;    0.000
490.314; 3613.850;    0.000;    0.000
490.449; 3756.850;    0.000;    0.000
490.585; 3673.850;    0.000;    0.000
490.720; 3724.850;    0.000;    0.000
490.855; 3670.850;    0.000;    0.000
490.991; 3657.850;    0.000;    0.000
491.126; 3715.850;    0.000;    0.000
491.261; 3635.850;    0.000;    0.000
491.396; 3629.850;    0.000;    0.000
491.532; 3620.850;    0.000;    0.000
491.667; 3649.850;    0.000;    0.000
491.802; 3656.850;    0.000;    0.000
491.937; 3708.850;    0.000;    0.000
492.073; 3747.850;    0.000;    0.000
492.208; 3829.850;    0.000;    0.000
492.343; 3741.850;    0.000;    0.000
492.478; 3825.850;    0.000;    0.000
492.613; 3773.850;    0.000;    0.000
492.749; 3756.850;    0.000;    0.000
492.884; 3767.850;    0.000;    0.000
493.019; 3771.850;    0.000;    0.000
493.154; 3765.850;    0.000;    0.000
493.289; 3741.850;    0.000;    0.000
493.424; 3815.850;    0.000;    0.000
493.559; 3766.850;    0.000;    0.000
493.694; 3848.850;    0.000;    0.000
493.829; 3863.850;    0.000;    0.000
493.964; 3681.850;    0.000;    0.000
494.099; 3766.850;    0.000;    0.000
494.234; 3776.850;    0.000;    0.000
494.369; 3781.850;    0.000;    0.000
494.504; 3730.850;    0.000;    0.000
494.639; 3703.850;    0.000;    0.000
494.774; 3776.850;    0.000;    0.000
494.909; 3721.850;    0.000;    0.000
495.044; 3719.850;    0.000;    0.000
495.179; 3760.850;    0.000;    0.000
495.314; 3764.850;    0.000;    0.000
495.449; 3883.850;    0.000;    0.000
495.584; 3733.850;    0.000;    0.000
495.719; 3832.850;    0.000;    0.000
495.854; 3759.850;    0.000;    0.000
495.988; 3835.850;    0.000;    0.000
496.123; 3860.850;    0.000;    0.000
496.258; 3951.850;    0.000;    0.000
496.393; 3829.850;    0.000;    0.000
496.528; 3918.850;    0.000;    0.000
496.663; 3932.850;    0.000;    0.000
496.797; 4073.850;    0.000;    0.000
496.932; 3946.850;    0.000;    0.000
497.067; 4099.850;    0.000;    0.000
497.202; 4138.850;    0.000;    0.000
497.336; 4181.850;    0.000;    0.000
497.471; 4261.850;    0.000;    0.000
497.606; 4198.850;    0.000;    0.000
497.740; 4340.850;    0.000;    0.000
497.875; 4470.850;    0.000;    0.000
498.010; 4629.850;    0.000;    0.000
498.144; 4805.850;    0.000;    0.000
498.279; 4736.850;    0.000;    0.000
498.414; 4869.850;    0.000;    0.000
498.548; 4820.850;    0.000;    0.000
498.683; 4753.850;    0.000;    0.000
498.817; 4789.850;    0.000;    0.000
498.952; 4827.850;    0.000;    0.000
499.087; 4813.850;    0.000;    0.000
499.221; 4877.850;    0.000;    0.000
499.356; 4891.850;    0.000;    0.000
499.490; 4875.850;    0.000;    0.000
499.625; 5162.850;    0.000;    0.000
499.759; 5089.850;    0.000;    0.000
499.894; 5149.850;    0.000;    0.000
500.028; 5218.850;    0.000;    0.000
500.162; 5346.850;    0.000;    0.000
500.297; 5338.850;    0.000;    0.000
500.431; 5367.850;    0.000;    0.000
500.566; 5457.850;    0.000;    0.000
500.700; 5364.850;    0.000;    0.000
500.835; 5338.850;    0.000;    0.000
500.969; 5198.850;    0.000;    0.000
501.103; 5056.850;    0.000;    0.000
501.238; 5035.850;    0.000;    0.000
501.372; 4953.850;    0.000;    0.000
501.506; 4800.850;    0.000;    0.000
501.641; 4604.850;    0.000;    0.000
501.775; 4569.850;    0.000;    0.000
501.909; 4370.850;    0.000;    0.000
502.043; 4549.850;    0.000;    0.000
502.178; 4509.850;    0.000;    0.000
502.312; 4337.850;    0.000;    0.000
502.446; 4375.850;    0.000;    0.000
502.580; 4154.850;    0.000;    0.000
502.715; 4251.850;    0.000;    0.000
502.849; 4135.850;    0.000;    0.000
502.983; 4241.850;    0.000;    0.000
503.117; 4078.850;    0.000;    0.000
503.251; 3962.850;    0.000;    0.000
503.385; 3944.850;    0.000;    0.000
503.520; 3914.850;    0.000;    0.000
503.654; 3767.850;    0.000;    0.000
503.788; 3860.850;    0.000;    0.000
503.922; 3802.850;    0.000;    0.000
504.056; 3821.850;    0.000;    0.000
504.190; 3720.850;    0.000;    0.000
504.324; 3786.850;    0.000;    0.000
504.458; 3741.850;    0.000;    0.000
504.592; 3574.850;    0.000;    0.000
504.726; 3625.850;    0.000;    0.000
504.860; 3563.850;    0.000;    0.000
504.994; 3580.850;    0.000;    0.000
505.128; 3477.850;    0.000;    0.000
505.262; 3482.850;    0.000;    0.000
505.396; 3403.850;    0.000;    0.000
505.530; 3394.850;    0.000;    0.000
505.664; 3379.850;    0.000;    0.000
505.798; 3337.850;    0.000;    0.000
505.932; 3358.850;    0.000;    0.000
506.066; 3368.850;    0.000;    0.000
506.199; 3272.850;    0.000;    0.000
506.333; 3284.850;    0.000;    0.000
506.467; 3173.850;    0.000;    0.000
506.601; 3172.850;    0.000;    0.000
506.735; 3261.850;    0.000;    0.000
506.869; 3169.850;    0.000;    0.000
507.002; 3155.850;    0.000;    0.000
507.136; 3193.850;    0.000;    0.000
507.270; 3041.850;    0.000;    0.000
507.404; 3121.850;    0.000;    0.000
507.537; 3171.850;    0.000;    0.000
507.671; 3126.850;    0.000;    0.000
507.805; 2983.850;    0.000;    0.000
507.939; 3071.850;    0.000;    0.000
508.072; 3089.850;    0.000;    0.000
508.206; 3088.850;    0.000;    0.000
508.340; 3010.850;    0.000;    0.000
508.473; 2990.850;    0.000;    0.000
508.607; 3032.850;    0.000;    0.000
508.740; 3007.850;    0.000;    0.000
508.874; 2957.850;    0.000;    0.000
509.008; 3030.850;    0.000;    0.000
509.141; 3008.850;    0.000;    0.000
509.275; 2951.850;    0.000;    0.000
509.408; 3012.850;    0.000;    0.000
509.542; 2937.850;    0.000;    0.000
509.675; 2984.850;    0.000;    0.000
509.809; 2965.850;    0.000;    0.000
509.942; 2990.850;    0.000;    0.000
510.076; 2869.850;    0.000;    0.000
510.209; 2965.850;    0.000;    0.000
510.343; 2931.850;    0.000;    0.000
510.476; 2915.850;    0.000;    0.000
510.610; 2890.850;    0.000;    0.000
510.743; 2891.850;    0.000;    0.000
510.877; 2861.850;    0.000;    0.000
511.010; 2870.850;    0.000;    0.000
511.143; 2934.850;    0.000;    0.000
511.277; 2808.850;    0.000;    0.000
511.410; 2934.850;    0.000;    0.000
511.543; 2909.850;    0.000;    0.000
511.677; 2784.850;    0.000;    0.000
511.810; 2774.850;    0.000;    0.000
511.943; 2803.850;    0.000;    0.000
512.077; 2830.850;    0.000;    0.000
512.210; 2807.850;    0.000;    0.000
512.343; 2875.850;    0.000;    0.000
512.476; 2844.850;    0.000;    0.000
512.610; 2850.850;    0.000;    0.000
512.743; 2832.850;    0.000;    0.000
512.876; 2866.850;    0.000;    0.000
513.009; 2896.850;    0.000;    0.000
513.142; 2925.850;    0.000;    0.000
513.276; 2824.850;    0.000;    0.000
513.409; 2887.850;    0.000;    0.000
513.542; 2810.850;    0.000;    0.000
513.675; 2829.850;    0.000;    0.000
513.808; 2855.850;    0.000;    0.000
513.941; 2825.850;    0.000;    0.000
514.074; 2904.850;    0.000;    0.000
514.207; 2856.850;    0.000;    0.000
514.340; 2857.850;    0.000;    0.000
514.474; 2858.850;    0.000;    0.000
514.607; 2897.850;    0.000;    0.000
514.740; 2889.850;    0.000;    0.000
514.873; 2947.850;    0.000;    0.000
515.006; 3111.850;    0.000;    0.000
515.139; 3008.850;    0.000;    0.000
515.272; 3049.850;    0.000;    0.000
515.404; 3167.850;    0.000;    0.000
515.537; 3180.850;    0.000;    0.000
515.670; 3018.850;    0.000;    0.000
515.803; 3195.850;    0.000;    0.000
515.936; 3003.850;    0.000;    0.000
516.069; 2976.850;    0.000;    0.000
516.202; 3119.850;    0.000;    0.000
516.335; 3178.850;    0.000;    0.000
516.468; 3234.850;    0.000;    0.000
516.600; 3912.850;    0.000;    0.000
516.733; 4769.850;    0.000;    0.000
516.866; 4818.850;    0.000;    0.000
516.999; 4304.850;    0.000;    0.000
517.132; 5650.850;    0.000;    0.000
517.264; 7885.850;    0.000;    0.000
517.397; 7523.850;    0.000;    0.000
517.530; 5400.850;    0.000;    0.000
517.663; 4577.850;    0.000;    0.000
517.795; 4168.850;    0.000;    0.000
517.928; 4099.850;    0.000;    0.000
518.061; 4252.850;    0.000;    0.000
518.193; 5859.850;    0.000;    0.000
518.326; 9733.850;    0.000;    0.000
518.459;10273.850;    0.000;    0.000
518.591; 7066.850;    0.000;    0.000
518.724; 5333.850;    0.000;    0.000
518.857; 4430.850;    0.000;    0.000
518.989; 4035.850;    0.000;    0.000
519.122; 3861.850;    0.000;    0.000
519.254; 3796.850;    0.000;    0.000
519.387; 3523.850;    0.000;    0.000
519.519; 3334.850;    0.000;    0.000
519.652; 3406.850;    0.000;    0.000
519.784; 3277.850;    0.000;    0.000
519.917; 3213.850;    0.000;    0.000
520.049; 3210.850;    0.000;    0.000
520.182; 3050.850;    0.000;    0.000
520.314; 2998.850;    0.000;    0.000
520.447; 2971.850;    0.000;    0.000
520.579; 3001.850;    0.000;    0.000
520.712; 2970.850;    0.000;    0.000
520.844; 2974.850;    0.000;    0.000
520.976; 2980.850;    0.000;    0.000
521.109; 2774.850;    0.000;    0.000
521.241; 2943.850;    0.000;    0.000
521.373; 2772.850;    0.000;    0.000
521.506; 2788.850;    0.000;    0.000
521.638; 2789.850;    0.000;    0.000
521.770; 2758.850;    0.000;    0.000
521.903; 2732.850;    0.000;    0.000
522.035; 2757.850;    0.000;    0.000
522.167; 2695.850;    0.000;    0.000
522.300; 2665.850;    0.000;    0.000
522.432; 2722.850;    0.000;    0.000
522.564; 2583.850;    0.000;    0.000
522.696; 2671.850;    0.000;    0.000
522.828; 2654.850;    0.000;    0.000
522.961; 2697.850;    0.000;    0.000
523.093; 2702.850;    0.000;    0.000
523.225; 2606.850;    0.000;    0.000
523.357; 2640.850;    0.000;    0.000
523.489; 2514.850;    0.000;    0.000
523.621; 2605.850;    0.000;    0.000
523.753; 2496.850;    0.000;    0.000
523.885; 2476.850;    0.000;    0.000
524.018; 2601.850;    0.000;    0.000
524.150; 2628.850;    0.000;    0.000
524.282; 2529.850;    0.000;    0.000
524.414; 2595.850;    0.000;    0.000
524.546; 2487.850;    0.000;    0.000
524.678; 2515.850;    0.000;    0.000
524.810; 2453.850;    0.000;    0.000
524.942; 2541.850;    0.000;    0.000
525.074; 2460.850;    0.000;    0.000
525.206; 2456.850;    0.000;    0.000
525.338; 2470.850;    0.000;    0.000
525.469; 2453.850;    0.000;    0.000
525.601; 2431.850;    0.000;    0.000
525.733; 2413.850;    0.000;    0.000
525.865; 2439.850;    0.000;    0.000
525.997; 2412.850;    0.000;    0.000
526.129; 2405.850;    0.000;    0.000
526.261; 2412.850;    0.000;    0.000
526.393; 2453.850;    0.000;    0.000
526.524; 2402.850;    0.000;    0.000
526.656; 2361.850;    0.000;    0.000
526.788; 2435.850;    0.000;    0.000
526.920; 2361.850;    0.000;    0.000
527.052; 2385.850;    0.000;    0.000
527.183; 2408.850;    0.000;    0.000
527.315; 2435.850;    0.000;    0.000
527.447; 2350.850;    0.000;    0.000
527.578; 2427.850;    0.000;    0.000
527.710; 2391.850;    0.000;    0.000
527.842; 2387.850;    0.000;    0.000
527.973; 2394.850;    0.000;    0.000
528.105; 2364.850;    0.000;    0.000
528.237; 2334.850;    0.000;    0.000
528.368; 2460.850;    0.000;    0.000
528.500; 2406.850;    0.000;    0.000
528.632; 2298.850;    0.000;    0.000
528.763; 2295.850;    0.000;    0.000
528.895; 2382.850;    0.000;    0.000
529.026; 2305.850;    0.000;    0.000
529.158; 2338.850;    0.000;    0.000
529.289; 2356.850;    0.000;    0.000
529.421; 2366.850;    0.000;    0.000
529.552; 2392.850;    0.000;    0.000
529.684; 2387.850;    0.000;    0.000
529.815; 2466.850;    0.000;    0.000
529.947; 2285.850;    0.000;    0.000
530.078; 2386.850;    0.000;    0.000
530.210; 2319.850;    0.000;    0.000
530.341; 2394.850;    0.000;    0.000
530.472; 2222.850;    0.000;    0.000
530.604; 2369.850;    0.000;    0.000
530.735; 2388.850;    0.000;    0.000
530.867; 2360.850;    0.000;    0.000
530.998; 2450.850;    0.000;    0.000
531.129; 2440.850;    0.000;    0.000
531.260; 2355.850;    0.000;    0.000
531.392; 2443.850;    0.000;    0.000
531.523; 2357.850;    0.000;    0.000
531.654; 2470.850;    0.000;    0.000
531.786; 2373.850;    0.000;    0.000
531.917; 2430.850;    0.000;    0.000
532.048; 2392.850;    0.000;    0.000
532.179; 2347.850;    0.000;    0.000
532.311; 2350.850;    0.000;    0.000
532.442; 2419.850;    0.000;    0.000
532.573; 2386.850;    0.000;    0.000
532.704; 2365.850;    0.000;    0.000
532.835; 2360.850;    0.000;    0.000
532.966; 2448.850;    0.000;    0.000
533.097; 2312.850;    0.000;    0.000
533.229; 2322.850;    0.000;    0.000
533.360; 2389.850;    0.000;    0.000
533.491; 2435.850;    0.000;    0.000
533.622; 2427.850;    0.000;    0.000
533.753; 2399.850;    0.000;    0.000
533.884; 2410.850;    0.000;    0.000
534.015; 2421.850;    0.000;    0.000
534.146; 2430.850;    0.000;    0.000
534.277; 2444.850;    0.000;    0.000
534.408; 2404.850;    0.000;    0.000
534.539; 2432.850;    0.000;    0.000
534.670; 2335.850;    0.000;    0.000
534.801; 2354.850;    0.000;    0.000
534.932; 2375.850;    0.000;    0.000
535.063; 2323.850;    0.000;    0.000
535.194; 2393.850;    0.000;    0.000
535.324; 2426.850;    0.000;    0.000
535.455; 2268.850;    0.000;    0.000
535.586; 2446.850;    0.000;    0.000
535.717; 2326.850;    0.000;    0.000
535.848; 2371.850;    0.000;    0.000
535.979; 2348.850;    0.000;    0.000
536.109; 2387.850;    0.000;    0.000
536.240; 2324.850;    0.000;    0.000
536.371; 2346.850;    0.000;    0.000
536.502; 2376.850;    0.000;    0.000
536.632; 2315.850;    0.000;    0.000
536.763; 2340.850;    0.000;    0.000
536.894; 2351.850;    0.000;    0.000
537.025; 2232.850;    0.000;    0.000
537.155; 2367.850;    0.000;    0.000
537.286; 2340.850;    0.000;    0.000
537.417; 2383.850;    0.000;    0.000
537.547; 2306.850;    0.000;    0.000
537.678; 2335.850;    0.000;    0.000
537.808; 2322.850;    0.000;    0.000
537.939; 2385.850;    0.000;    0.000
538.070; 2346.850;    0.000;    0.000
538.200; 2332.850;    0.000;    0.000
538.331; 2290.850;    0.000;    0.000
538.461; 2294.850;    0.000;    0.000
538.592; 2353.850;    0.000;    0.000
538.722; 2346.850;    0.000;    0.000
538.853; 2263.850;    0.000;    0.000
538.983; 2240.850;    0.000;    0.000
539.114; 2286.850;    0.000;    0.000
539.244; 2315.850;    0.000;    0.000
539.375; 2294.850;    0.000;    0.000
539.505; 2230.850;    0.000;    0.000
539.636; 2259.850;    0.000;    0.000
539.766; 2370.850;    0.000;    0.000
539.896; 2274.850;    0.000;    0.000
540.027; 2322.850;    0.000;    0.000
540.157; 2358.850;    0.000;    0.000
540.287; 2386.850;    0.000;    0.000
540.418; 2276.850;    0.000;    0.000
540.548; 2338.850;    0.000;    0.000
540.678; 2340.850;    0.000;    0.000
540.809; 2334.850;    0.000;    0.000
540.939; 2368.850;    0.000;    0.000
541.069; 2395.850;    0.000;    0.000
541.200; 2302.850;    0.000;    0.000
541.330; 2421.850;    0.000;    0.000
541.460; 2396.850;    0.000;    0.000
541.590; 2377.850;    0.000;    0.000
541.720; 2316.850;    0.000;    0.000
541.851; 2348.850;    0.000;    0.000
541.981; 2369.850;    0.000;    0.000
542.111; 2405.850;    0.000;    0.000
542.241; 2363.850;    0.000;    0.000
542.371; 2429.850;    0.000;    0.000
542.501; 2429.850;    0.000;    0.000
542.631; 2477.850;    0.000;    0.000
542.761; 2449.850;    0.000;    0.000
542.891; 2532.850;    0.000;    0.000
543.021; 2453.850;    0.000;    0.000
543.151; 2545.850;    0.000;    0.000
543.281; 2455.850;    0.000;    0.000
543.411; 2497.850;    0.000;    0.000
543.542; 2399.850;    0.000;    0.000
543.671; 2507.850;    0.000;    0.000
543.801; 2435.850;    0.000;    0.000
543.931; 2522.850;    0.000;    0.000
544.061; 2473.850;    0.000;    0.000
544.191; 2484.850;    0.000;    0.000
544.321; 2386.850;    0.000;    0.000
544.451; 2482.850;    0.000;    0.000
544.581; 2484.850;    0.000;    0.000
544.711; 2505.850;    0.000;    0.000
544.841; 2513.850;    0.000;    0.000
544.970; 2600.850;    0.000;    0.000
545.100; 2638.850;    0.000;    0.000
545.230; 2557.850;    0.000;    0.000
545.360; 2501.850;    0.000;    0.000
545.490; 2527.850;    0.000;    0.000
545.619; 2381.850;    0.000;    0.000
545.749; 2400.850;    0.000;    0.000
545.879; 2413.850;    0.000;    0.000
546.009; 2453.850;    0.000;    0.000
546.138; 2450.850;    0.000;    0.000
546.268; 2421.850;    0.000;    0.000
546.398; 2423.850;    0.000;    0.000
546.527; 2449.850;    0.000;    0.000
546.657; 2387.850;    0.000;    0.000
546.786; 2416.850;    0.000;    0.000
546.916; 2407.850;    0.000;    0.000
547.046; 2466.850;    0.000;    0.000
547.175; 2425.850;    0.000;    0.000
547.305; 2418.850;    0.000;    0.000
547.434; 2405.850;    0.000;    0.000
547.564; 2354.850;    0.000;    0.000
547.693; 2458.850;    0.000;    0.000
547.823; 2397.850;    0.000;    0.000
547.953; 2434.850;    0.000;    0.000
548.082; 2397.850;    0.000;    0.000
548.211; 2392.850;    0.000;    0.000
548.341; 2448.850;    0.000;    0.000
548.470; 2433.850;    0.000;    0.000
548.600; 2400.850;    0.000;    0.000
548.729; 2427.850;    0.000;    0.000
548.859; 2457.850;    0.000;    0.000
548.988; 2527.850;    0.000;    0.000
549.117; 2421.850;    0.000;    0.000
549.247; 2447.850;    0.000;    0.000
549.376; 2422.850;    0.000;    0.000
549.505; 2479.850;    0.000;    0.000
549.635; 2486.850;    0.000;    0.000
549.764; 2431.850;    0.000;    0.000
549.893; 2464.850;    0.000;    0.000
550.023; 2388.850;    0.000;    0.000
550.152; 2424.850;    0.000;    0.000
550.281; 2506.850;    0.000;    0.000
550.410; 2438.850;    0.000;    0.000
550.539; 2581.850;    0.000;    0.000
550.669; 2433.850;    0.000;    0.000
550.798; 2549.850;    0.000;    0.000
550.927; 2506.850;    0.000;    0.000
551.056; 2532.850;    0.000;    0.000
551.185; 2387.850;    0.000;    0.000
551.314; 2545.850;    0.000;    0.000
551.443; 2505.850;    0.000;    0.000
551.573; 2514.850;    0.000;    0.000
551.702; 2457.850;    0.000;    0.000
551.831; 2526.850;    0.000;    0.000
551.960; 2455.850;    0.000;    0.000
552.089; 2519.850;    0.000;    0.000
552.218; 2476.850;    0.000;    0.000
552.347; 2619.850;    0.000;    0.000
552.476; 2596.850;    0.000;    0.000
552.605; 2588.850;    0.000;    0.000
552.734; 2646.850;    0.000;    0.000
552.863; 2687.850;    0.000;    0.000
552.992; 2770.850;    0.000;    0.000
553.121; 2727.850;    0.000;    0.000
553.249; 2611.850;    0.000;    0.000
553.378; 2600.850;    0.000;    0.000
553.507; 2538.850;    0.000;    0.000
553.636; 2574.850;    0.000;    0.000
553.765; 2518.850;    0.000;    0.000
553.894; 2496.850;    0.000;    0.000
554.023; 2603.850;    0.000;    0.000
554.151; 2582.850;    0.000;    0.000
554.280; 2508.850;    0.000;    0.000
554.409; 2564.850;    0.000;    0.000
554.538; 2569.850;    0.000;    0.000
554.666; 2550.850;    0.000;    0.000
554.795; 2504.850;    0.000;    0.000
554.924; 2563.850;    0.000;    0.000
555.052; 2563.850;    0.000;    0.000
555.181; 2577.850;    0.000;    0.000
555.310; 2570.850;    0.000;    0.000
555.439; 2529.850;    0.000;    0.000
555.567; 2444.850;    0.000;    0.000
555.696; 2610.850;    0.000;    0.000
555.824; 2543.850;    0.000;    0.000
555.953; 2572.850;    0.000;    0.000
556.082; 2673.850;    0.000;    0.000
556.210; 2567.850;    0.000;    0.000
556.339; 2548.850;    0.000;    0.000
556.467; 2512.850;    0.000;    0.000
556.596; 2515.850;    0.000;    0.000
556.724; 2595.850;    0.000;    0.000
556.853; 2532.850;    0.000;    0.000
556.981; 2533.850;    0.000;    0.000
557.110; 2481.850;    0.000;    0.000
557.238; 2498.850;    0.000;    0.000
557.367; 2526.850;    0.000;    0.000
557.495; 2531.850;    0.000;    0.000
557.623; 2485.850;    0.000;    0.000
557.752; 2519.850;    0.000;    0.000
557.880; 2616.850;    0.000;    0.000
558.008; 2492.850;    0.000;    0.000
558.137; 2564.850;    0.000;    0.000
558.265; 2607.850;    0.000;    0.000
558.393; 2608.850;    0.000;    0.000
558.522; 2545.850;    0.000;    0.000
558.650; 2551.850;    0.000;    0.000
558.778; 2529.850;    0.000;    0.000
558.906; 2606.850;    0.000;    0.000
559.035; 2573.850;    0.000;    0.000
559.163; 2621.850;    0.000;    0.000
559.291; 2572.850;    0.000;    0.000
559.419; 2605.850;    0.000;    0.000
559.548; 2570.850;    0.000;    0.000
559.676; 2601.850;    0.000;    0.000
559.804; 2559.850;    0.000;    0.000
559.932; 2579.850;    0.000;    0.000
560.060; 2699.850;    0.000;    0.000
560.188; 2638.850;    0.000;    0.000
560.316; 2655.850;    0.000;    0.000
560.444; 2634.850;    0.000;    0.000
560.572; 2652.850;    0.000;    0.000
560.700; 2718.850;    0.000;    0.000
560.828; 2720.850;    0.000;    0.000
560.956; 2678.850;    0.000;    0.000
561.085; 2734.850;    0.000;    0.000
561.212; 2757.850;    0.000;    0.000
561.340; 2712.850;    0.000;    0.000
561.468; 2681.850;    0.000;    0.000
561.596; 2652.850;    0.000;    0.000
561.724; 2690.850;    0.000;    0.000
561.852; 2747.850;    0.000;    0.000
561.980; 2765.850;    0.000;    0.000
562.108; 2771.850;    0.000;    0.000
562.236; 2845.850;    0.000;    0.000
562.364; 2870.850;    0.000;    0.000
562.492; 2832.850;    0.000;    0.000
562.619; 2827.850;    0.000;    0.000
562.747; 2848.850;    0.000;    0.000
562.875; 2959.850;    0.000;    0.000
563.003; 2860.850;    0.000;    0.000
563.130; 2913.850;    0.000;    0.000
563.258; 2896.850;    0.000;    0.000
563.386; 2979.850;    0.000;    0.000
563.514; 3020.850;    0.000;    0.000
563.641; 2999.850;    0.000;    0.000
563.769; 3095.850;    0.000;    0.000
563.897; 3065.850;    0.000;    0.000
564.024; 3152.850;    0.000;    0.000
564.152; 3187.850;    0.000;    0.000
564.280; 3178.850;    0.000;    0.000
564.407; 3156.850;    0.000;    0.000
564.535; 3271.850;    0.000;    0.000
564.662; 3323.850;    0.000;    0.000
564.790; 3328.850;    0.000;    0.000
564.917; 3340.850;    0.000;    0.000
565.045; 3427.850;    0.000;    0.000
565.173; 3462.850;    0.000;    0.000
565.300; 3514.850;    0.000;    0.000
565.428; 3539.850;    0.000;    0.000
565.555; 3471.850;    0.000;    0.000
565.682; 3582.850;    0.000;    0.000
565.810; 3678.850;    0.000;    0.000
565.937; 3744.850;    0.000;    0.000
566.065; 3810.850;    0.000;    0.000
566.192; 3874.850;    0.000;    0.000
566.320; 3840.850;    0.000;    0.000
566.447; 4030.850;    0.000;    0.000
566.574; 4017.850;    0.000;    0.000
566.702; 4268.850;    0.000;    0.000
566.829; 4178.850;    0.000;    0.000
566.956; 4141.850;    0.000;    0.000
567.083; 4266.850;    0.000;    0.000
567.211; 4305.850;    0.000;    0.000
567.338; 4301.850;    0.000;    0.000
567.465; 4276.850;    0.000;    0.000
567.593; 4433.850;    0.000;    0.000
567.720; 4422.850;    0.000;    0.000
567.847; 4425.850;    0.000;    0.000
567.974; 4507.850;    0.000;    0.000
568.101; 4955.850;    0.000;    0.000
568.228; 5957.850;    0.000;    0.000
568.356; 6336.850;    0.000;    0.000
568.483; 6193.850;    0.000;    0.000
568.610; 6244.850;    0.000;    0.000
568.737; 7254.850;    0.000;    0.000
568.864; 8473.850;    0.000;    0.000
568.991; 7981.850;    0.000;    0.000
569.118; 6937.850;    0.000;    0.000
569.245; 6277.850;    0.000;    0.000
569.372; 5722.850;    0.000;    0.000
569.499; 5585.850;    0.000;    0.000
569.626; 5265.850;    0.000;    0.000
569.753; 5081.850;    0.000;    0.000
569.880; 4819.850;    0.000;    0.000
570.007; 4594.850;    0.000;    0.000
570.134; 4557.850;    0.000;    0.000
570.261; 4415.850;    0.000;    0.000
570.388; 4413.850;    0.000;    0.000
570.515; 4330.850;    0.000;    0.000
570.642; 4248.850;    0.000;    0.000
570.768; 4291.850;    0.000;    0.000
570.895; 4192.850;    0.000;    0.000
571.022; 4081.850;    0.000;    0.000
571.149; 4054.850;    0.000;    0.000
571.276; 4051.850;    0.000;    0.000
571.402; 3976.850;    0.000;    0.000
571.529; 3927.850;    0.000;    0.000
571.656; 3953.850;    0.000;    0.000
571.783; 3872.850;    0.000;    0.000
571.909; 3838.850;    0.000;    0.000
572.036; 3805.850;    0.000;    0.000
572.163; 3794.850;    0.000;    0.000
572.289; 3785.850;    0.000;    0.000
572.416; 3837.850;    0.000;    0.000
572.543; 3786.850;    0.000;    0.000
572.669; 3767.850;    0.000;    0.000
572.796; 3694.850;    0.000;    0.000
572.922; 3753.850;    0.000;    0.000
573.049; 3757.850;    0.000;    0.000
573.176; 3670.850;    0.000;    0.000
573.302; 3738.850;    0.000;    0.000
573.429; 3758.850;    0.000;    0.000
573.555; 3687.850;    0.000;    0.000
573.682; 3675.850;    0.000;    0.000
573.808; 3620.850;    0.000;    0.000
573.935; 3704.850;    0.000;    0.000
574.061; 3686.850;    0.000;    0.000
574.188; 3612.850;    0.000;    0.000
574.314; 3636.850;    0.000;    0.000
574.440; 3575.850;    0.000;    0.000
574.567; 3705.850;    0.000;    0.000
574.693; 3624.850;    0.000;    0.000
574.820; 3657.850;    0.000;    0.000
574.946; 3691.850;    0.000;    0.000
575.072; 3618.850;    0.000;    0.000
575.198; 3661.850;    0.000;    0.000
575.325; 3581.850;    0.000;    0.000
575.451; 3603.850;    0.000;    0.000
575.577; 3710.850;    0.000;    0.000
575.704; 3614.850;    0.000;    0.000
575.830; 3595.850;    0.000;    0.000
575.956; 3533.850;    0.000;    0.000
576.082; 3506.850;    0.000;    0.000
576.208; 3614.850;    0.000;    0.000
576.335; 3568.850;    0.000;    0.000
576.461; 3628.850;    0.000;    0.000
576.587; 3567.850;    0.000;    0.000
576.713; 3466.850;    0.000;    0.000
576.839; 3580.850;    0.000;    0.000
576.965; 3565.850;    0.000;    0.000
577.091; 3549.850;    0.000;    0.000
577.217; 3684.850;    0.000;    0.000
577.343; 3744.850;    0.000;    0.000
577.469; 3721.850;    0.000;    0.000
577.596; 3635.850;    0.000;    0.000
577.722; 3567.850;    0.000;    0.000
577.848; 3619.850;    0.000;    0.000
577.974; 3609.850;    0.000;    0.000
578.099; 3643.850;    0.000;    0.000
578.225; 3640.850;    0.000;    0.000
578.351; 3730.850;    0.000;    0.000
578.477; 3690.850;    0.000;    0.000
578.603; 3721.850;    0.000;    0.000
578.729; 3690.850;    0.000;    0.000
578.855; 3709.850;    0.000;    0.000
578.981; 3820.850;    0.000;    0.000
579.107; 3740.850;    0.000;    0.000
579.232; 3735.850;    0.000;    0.000
579.358; 3620.850;    0.000;    0.000
579.484; 3747.850;    0.000;    0.000
579.610; 3705.850;    0.000;    0.000
579.735; 3787.850;    0.000;    0.000
579.861; 3746.850;    0.000;    0.000
579.987; 3741.850;    0.000;    0.000
580.113; 3832.850;    0.000;    0.000
580.238; 3809.850;    0.000;    0.000
580.364; 3802.850;    0.000;    0.000
580.490; 3834.850;    0.000;    0.000
580.615; 3895.850;    0.000;    0.000
580.741; 3879.850;    0.000;    0.000
580.867; 3965.850;    0.000;    0.000
580.992; 4022.850;    0.000;    0.000
581.118; 3950.850;    0.000;    0.000
581.243; 3908.850;    0.000;    0.000
581.369; 4036.850;    0.000;    0.000
581.494; 3985.850;    0.000;    0.000
581.620; 4030.850;    0.000;    0.000
581.745; 4076.850;    0.000;    0.000
581.871; 4191.850;    0.000;    0.000
581.996; 4235.850;    0.000;    0.000
582.122; 4145.850;    0.000;    0.000
582.247; 4182.850;    0.000;    0.000
582.373; 4351.850;    0.000;    0.000
582.498; 4378.850;    0.000;    0.000
582.624; 4380.850;    0.000;    0.000
582.749; 4533.850;    0.000;    0.000
582.874; 4610.850;    0.000;    0.000
583.000; 4606.850;    0.000;    0.000
583.125; 4586.850;    0.000;    0.000
583.250; 4615.850;    0.000;    0.000
583.376; 4691.850;    0.000;    0.000
583.501; 4684.850;    0.000;    0.000
583.626; 4930.850;    0.000;    0.000
583.751; 4944.850;    0.000;    0.000
583.877; 5040.850;    0.000;    0.000
584.002; 5076.850;    0.000;    0.000
584.127; 5171.850;    0.000;    0.000
584.252; 5230.850;    0.000;    0.000
584.377; 5495.850;    0.000;    0.000
584.503; 5501.850;    0.000;    0.000
584.628; 5715.850;    0.000;    0.000
584.753; 5728.850;    0.000;    0.000
584.878; 5940.850;    0.000;    0.000
585.003; 6072.850;    0.000;    0.000
585.128; 6509.850;    0.000;    0.000
585.253; 7110.850;    0.000;    0.000
585.378; 6907.850;    0.000;    0.000
585.503; 6535.850;    0.000;    0.000
585.628; 6737.850;    0.000;    0.000
585.753; 6843.850;    0.000;    0.000
585.878; 7078.850;    0.000;    0.000
586.003; 7412.850;    0.000;    0.000
586.128; 7532.850;    0.000;    0.000
586.253; 7807.850;    0.000;    0.000
586.378; 8096.850;    0.000;    0.000
586.503; 8262.850;    0.000;    0.000
586.628; 8777.850;    0.000;    0.000
586.753; 9163.850;    0.000;    0.000
586.878; 9706.850;    0.000;    0.000
587.003;10335.850;    0.000;    0.000
587.127;10798.850;    0.000;    0.000
587.252;11743.850;    0.000;    0.000
587.377;12340.850;    0.000;    0.000
587.502;13386.850;    0.000;    0.000
587.627;14528.850;    0.000;    0.000
587.751;15850.850;    0.000;    0.000
587.876;17712.850;    0.000;    0.000
588.001;19419.850;    0.000;    0.000
588.125;21866.850;    0.000;    0.000
588.250;25391.850;    0.000;    0.000
588.375;30006.850;    0.000;    0.000
588.499;35757.852;    0.000;    0.000
588.624;44004.852;    0.000;    0.000
588.749;54080.852;    0.000;    0.000
588.873;58062.852;    0.000;    0.000
588.998;59996.852;    0.000;    0.000
589.122;65157.852;    0.000;    0.000
589.247;65261.852;    0.000;    0.000
589.372;61871.852;    0.000;    0.000
589.496;60102.852;    0.000;    0.000
589.621;61441.852;    0.000;    0.000
589.745;62279.852;    0.000;    0.000
589.870;53844.852;    0.000;    0.000
589.994;42972.852;    0.000;    0.000
590.118;35122.852;    0.000;    0.000
590.243;29949.850;    0.000;    0.000
590.367;25738.850;    0.000;    0.000
590.492;22803.850;    0.000;    0.000
590.616;20367.850;    0.000;    0.000
590.740;18490.850;    0.000;    0.000
590.865;16889.850;    0.000;    0.000
590.989;15254.850;    0.000;    0.000
591.114;14040.850;    0.000;    0.000
591.238;13438.850;    0.000;    0.000
591.362;12414.850;    0.000;    0.000
591.486;11871.850;    0.000;    0.000
591.611;11186.850;    0.000;    0.000
591.735;10673.850;    0.000;    0.000
591.859;10000.850;    0.000;    0.000
591.983; 9716.850;    0.000;    0.000
592.107; 9206.850;    0.000;    0.000
592.232; 8934.850;    0.000;    0.000
592.356; 8583.850;    0.000;    0.000
592.480; 8317.850;    0.000;    0.000
592.604; 7971.850;    0.000;    0.000
592.728; 7704.850;    0.000;    0.000
592.852; 7748.850;    0.000;    0.000
592.976; 7464.850;    0.000;    0.000
593.100; 7187.850;    0.000;    0.000
593.224; 7036.850;    0.000;    0.000
593.349; 6939.850;    0.000;    0.000
593.473; 6809.850;    0.000;    0.000
593.597; 6699.850;    0.000;    0.000
593.721; 6544.850;    0.000;    0.000
593.844; 6339.850;    0.000;    0.000
593.968; 6250.850;    0.000;    0.000
594.092; 6009.850;    0.000;    0.000
594.216; 6122.850;    0.000;    0.000
594.340; 5917.850;    0.000;    0.000
594.464; 5810.850;    0.000;    0.000
594.588; 5694.850;    0.000;    0.000
594.712; 5631.850;    0.000;    0.000
594.836; 5558.850;    0.000;    0.000
594.959; 5535.850;    0.000;    0.000
595.083; 5318.850;    0.000;    0.000
595.207; 5274.850;    0.000;    0.000
595.331; 5192.850;    0.000;    0.000
595.455; 5206.850;    0.000;    0.000
595.578; 5144.850;    0.000;    0.000
595.702; 5062.850;    0.000;    0.000
595.826; 5050.850;    0.000;    0.000
595.949; 4981.850;    0.000;    0.000
596.073; 4842.850;    0.000;    0.000
596.197; 4839.850;    0.000;    0.000
596.320; 4814.850;    0.000;    0.000
596.444; 4794.850;    0.000;    0.000
596.568; 4547.850;    0.000;    0.000
596.691; 4564.850;    0.000;    0.000
596.815; 4572.850;    0.000;    0.000
596.938; 4496.850;    0.000;    0.000
597.062; 4430.850;    0.000;    0.000
597.186; 4338.850;    0.000;    0.000
597.309; 4361.850;    0.000;    0.000
597.433; 4403.850;    0.000;    0.000
597.556; 4341.850;    0.000;    0.000
597.680; 4388.850;    0.000;    0.000
597.803; 4308.850;    0.000;    0.000
597.926; 4313.850;    0.000;    0.000
598.050; 4214.850;    0.000;    0.000
598.173; 4309.850;    0.000;    0.000
598.297; 4179.850;    0.000;    0.000
598.420; 4187.850;    0.000;    0.000
598.543; 4241.850;    0.000;    0.000
598.667; 4208.850;    0.000;    0.000
598.790; 4133.850;    0.000;    0.000
598.913; 4092.850;    0.000;    0.000
599.037; 4078.850;    0.000;    0.000
599.160; 4069.850;    0.000;    0.000
599.283; 4037.850;    0.000;    0.000
599.406; 3971.850;    0.000;    0.000
599.530; 3943.850;    0.000;    0.000
599.653; 3930.850;    0.000;    0.000
599.776; 3995.850;    0.000;    0.000
599.899; 3899.850;    0.000;    0.000
600.022; 3944.850;    0.000;    0.000
600.145; 3928.850;    0.000;    0.000
600.269; 4010.850;    0.000;    0.000
600.392; 3844.850;    0.000;    0.000
600.515; 3854.850;    0.000;    0.000
600.638; 4005.850;    0.000;    0.000
600.761; 3827.850;    0.000;    0.000
600.884; 3760.850;    0.000;    0.000
601.007; 3839.850;    0.000;    0.000
601.130; 3736.850;    0.000;    0.000
601.253; 3861.850;    0.000;    0.000
601.376; 3798.850;    0.000;    0.000
601.499; 3715.850;    0.000;    0.000
601.622; 3816.850;    0.000;    0.000
601.745; 3767.850;    0.000;    0.000
601.868; 3641.850;    0.000;    0.000
601.991; 3760.850;    0.000;    0.000
602.113; 3720.850;    0.000;    0.000
602.236; 3655.850;    0.000;    0.000
602.359; 3666.850;    0.000;    0.000
602.482; 3741.850;    0.000;    0.000
602.605; 3665.850;    0.000;    0.000
602.728; 3619.850;    0.000;    0.000
602.850; 3610.850;    0.000;    0.000
602.973; 3664.850;    0.000;    0.000
603.096; 3553.850;    0.000;    0.000
603.219; 3595.850;    0.000;    0.000
603.341; 3538.850;    0.000;    0.000
603.464; 3542.850;    0.000;    0.000
603.587; 3583.850;    0.000;    0.000
603.709; 3547.850;    0.000;    0.000
603.832; 3486.850;    0.000;    0.000
603.955; 3464.850;    0.000;    0.000
604.077; 3496.850;    0.000;    0.000
604.200; 3490.850;    0.000;    0.000
604.323; 3404.850;    0.000;    0.000
604.445; 3452.850;    0.000;    0.000
604.568; 3395.850;    0.000;    0.000
604.690; 3397.850;    0.000;    0.000
604.813; 3382.850;    0.000;    0.000
604.935; 3435.850;    0.000;    0.000
605.058; 3371.850;    0.000;    0.000
605.180; 3512.850;    0.000;    0.000
605.303; 3419.850;    0.000;    0.000
605.425; 3372.850;    0.000;    0.000
605.547; 3374.850;    0.000;    0.000
605.670; 3388.850;    0.000;    0.000
605.792; 3315.850;    0.000;    0.000
605.915; 3288.850;    0.000;    0.000
606.037; 3271.850;    0.000;    0.000
606.159; 3250.850;    0.000;    0.000
606.282; 3265.850;    0.000;    0.000
606.404; 3240.850;    0.000;    0.000
606.526; 3329.850;    0.000;    0.000
606.648; 3222.850;    0.000;    0.000
606.771; 3158.850;    0.000;    0.000
606.893; 3197.850;    0.000;    0.000
607.015; 3137.850;    0.000;    0.000
607.137; 3261.850;    0.000;    0.000
607.260; 3216.850;    0.000;    0.000
607.382; 3268.850;    0.000;    0.000
607.504; 3187.850;    0.000;    0.000
607.626; 3229.850;    0.000;    0.000
607.748; 3303.850;    0.000;    0.000
607.870; 3191.850;    0.000;    0.000
607.992; 3277.850;    0.000;    0.000
608.114; 3310.850;    0.000;    0.000
608.237; 3295.850;    0.000;    0.000
608.359; 3210.850;    0.000;    0.000
608.481; 3230.850;    0.000;    0.000
608.603; 3199.850;    0.000;    0.000
608.725; 3230.850;    0.000;    0.000
608.847; 3324.850;    0.000;    0.000
608.969; 3340.850;    0.000;    0.000
609.090; 3290.850;    0.000;    0.000
609.212; 3282.850;    0.000;    0.000
609.334; 3278.850;    0.000;    0.000
609.456; 3191.850;    0.000;    0.000
609.578; 3197.850;    0.000;    0.000
609.700; 3250.850;    0.000;    0.000
609.822; 3182.850;    0.000;    0.000
609.944; 3372.850;    0.000;    0.000
610.065; 3284.850;    0.000;    0.000
610.187; 3303.850;    0.000;    0.000
610.309; 3252.850;    0.000;    0.000
610.431; 3250.850;    0.000;    0.000
610.552; 3261.850;    0.000;    0.000
610.674; 3233.850;    0.000;    0.000
610.796; 3208.850;    0.000;    0.000
610.918; 3185.850;    0.000;    0.000
611.039; 3322.850;    0.000;    0.000
611.161; 3245.850;    0.000;    0.000
611.282; 3241.850;    0.000;    0.000
611.404; 3329.850;    0.000;    0.000
611.526; 3351.850;    0.000;    0.000
611.647; 3282.850;    0.000;    0.000
611.769; 3205.850;    0.000;    0.000
611.890; 3283.850;    0.000;    0.000
612.012; 3255.850;    0.000;    0.000
612.133; 3308.850;    0.000;    0.000
612.255; 3266.850;    0.000;    0.000
612.377; 3181.850;    0.000;    0.000
612.498; 3160.850;    0.000;    0.000
612.619; 3132.850;    0.000;    0.000
612.741; 3091.850;    0.000;    0.000
612.862; 3196.850;    0.000;    0.000
612.984; 3161.850;    0.000;    0.000
613.105; 3175.850;    0.000;    0.000
613.226; 3107.850;    0.000;    0.000
613.348; 3332.850;    0.000;    0.000
613.469; 3195.850;    0.000;    0.000
613.590; 3297.850;    0.000;    0.000
613.712; 3290.850;    0.000;    0.000
613.833; 3372.850;    0.000;    0.000
613.954; 3241.850;    0.000;    0.000
614.076; 3262.850;    0.000;    0.000
614.197; 3383.850;    0.000;    0.000
614.318; 3358.850;    0.000;    0.000
614.439; 3385.850;    0.000;    0.000
614.560; 3353.850;    0.000;    0.000
614.682; 3352.850;    0.000;    0.000
614.803; 3284.850;    0.000;    0.000
614.924; 3352.850;    0.000;    0.000
615.045; 3335.850;    0.000;    0.000
615.166; 3485.850;    0.000;    0.000
615.287; 3567.850;    0.000;    0.000
615.408; 4123.850;    0.000;    0.000
615.529; 4137.850;    0.000;    0.000
615.650; 3892.850;    0.000;    0.000
615.771; 3697.850;    0.000;    0.000
615.892; 3726.850;    0.000;    0.000
616.013; 4468.850;    0.000;    0.000
616.134; 5017.850;    0.000;    0.000
616.255; 4551.850;    0.000;    0.000
616.376; 3987.850;    0.000;    0.000
616.497; 3746.850;    0.000;    0.000
616.618; 3549.850;    0.000;    0.000
616.739; 3413.850;    0.000;    0.000
616.860; 3366.850;    0.000;    0.000
616.981; 3298.850;    0.000;    0.000
617.102; 3270.850;    0.000;    0.000
617.222; 3331.850;    0.000;    0.000
617.343; 3223.850;    0.000;    0.000
617.464; 3256.850;    0.000;    0.000
617.585; 3168.850;    0.000;    0.000
617.705; 3178.850;    0.000;    0.000
617.826; 3196.850;    0.000;    0.000
617.947; 3090.850;    0.000;    0.000
618.068; 3025.850;    0.000;    0.000
618.188; 3085.850;    0.000;    0.000
618.309; 3018.850;    0.000;    0.000
618.430; 2995.850;    0.000;    0.000
618.550; 3046.850;    0.000;    0.000
618.671; 2993.850;    0.000;    0.000
618.791; 3057.850;    0.000;    0.000
618.912; 2988.850;    0.000;    0.000
619.033; 2978.850;    0.000;    0.000
619.153; 2974.850;    0.000;    0.000
619.274; 3071.850;    0.000;    0.000
619.394; 3067.850;    0.000;    0.000
619.515; 2941.850;    0.000;    0.000
619.635; 2934.850;    0.000;    0.000
619.756; 3014.850;    0.000;    0.000
619.876; 2928.850;    0.000;    0.000
619.996; 2900.850;    0.000;    0.000
620.117; 2931.850;    0.000;    0.000
620.237; 2938.850;    0.000;    0.000
620.358; 3092.850;    0.000;    0.000
620.478; 2925.850;    0.000;    0.000
620.598; 2979.850;    0.000;    0.000
620.719; 2978.850;    0.000;    0.000
620.839; 2984.850;    0.000;    0.000
620.959; 2905.850;    0.000;    0.000
621.079; 2971.850;    0.000;    0.000
621.200; 2922.850;    0.000;    0.000
621.320; 2950.850;    0.000;    0.000
621.440; 2915.850;    0.000;    0.000
621.560; 2991.850;    0.000;    0.000
621.681; 2958.850;    0.000;    0.000
621.801; 2990.850;    0.000;    0.000
621.921; 3054.850;    0.000;    0.000
622.041; 3032.850;    0.000;    0.000
622.161; 2998.850;    0.000;    0.000
622.281; 3028.850;    0.000;    0.000
622.401; 2956.850;    0.000;    0.000
622.521; 2956.850;    0.000;    0.000
622.641; 3079.850;    0.000;    0.000
622.761; 3148.850;    0.000;    0.000
622.882; 3047.850;    0.000;    0.000
623.002; 2941.850;    0.000;    0.000
623.121; 3031.850;    0.000;    0.000
623.241; 3088.850;    0.000;    0.000
623.361; 3027.850;    0.000;    0.000
623.481; 2952.850;    0.000;    0.000
623.601; 3039.850;    0.000;    0.000
623.721; 3048.850;    0.000;    0.000
623.841; 3071.850;    0.000;    0.000
623.961; 3122.850;    0.000;    0.000
624.081; 2909.850;    0.000;    0.000
624.201; 3000.850;    0.000;    0.000
624.320; 3017.850;    0.000;    0.000
624.440; 2944.850;    0.000;    0.000
624.560; 2964.850;    0.000;    0.000
624.680; 2931.850;    0.000;    0.000
624.799; 2937.850;    0.000;    0.000
624.919; 2947.850;    0.000;    0.000
625.039; 2889.850;    0.000;    0.000
625.159; 2875.850;    0.000;    0.000
625.278; 2918.850;    0.000;    0.000
625.398; 2849.850;    0.000;    0.000
625.518; 2870.850;    0.000;    0.000
625.637; 2831.850;    0.000;    0.000
625.757; 2834.850;    0.000;    0.000
625.876; 2822.850;    0.000;    0.000
625.996; 2915.850;    0.000;    0.000
626.115; 2826.850;    0.000;    0.000
626.235; 2826.850;    0.000;    0.000
626.354; 2894.850;    0.000;    0.000
626.474; 2850.850;    0.000;    0.000
626.594; 2876.850;    0.000;    0.000
626.713; 2900.850;    0.000;    0.000
626.832; 2826.850;    0.000;    0.000
626.952; 2922.850;    0.000;    0.000
627.071; 2940.850;    0.000;    0.000
627.191; 2825.850;    0.000;    0.000
627.310; 2907.850;    0.000;    0.000
627.429; 2848.850;    0.000;    0.000
627.549; 2846.850;    0.000;    0.000
627.668; 2843.850;    0.000;    0.000
627.787; 2919.850;    0.000;    0.000
627.907; 2800.850;    0.000;    0.000
628.026; 2813.850;    0.000;    0.000
628.145; 2756.850;    0.000;    0.000
628.264; 2772.850;    0.000;    0.000
628.384; 2746.850;    0.000;    0.000
628.503; 2769.850;    0.000;    0.000
628.622; 2685.850;    0.000;    0.000
628.741; 2765.850;    0.000;    0.000
628.860; 2801.850;    0.000;    0.000
628.980; 2692.850;    0.000;    0.000
629.099; 2829.850;    0.000;    0.000
629.218; 2715.850;    0.000;    0.000
629.337; 2771.850;    0.000;    0.000
629.456; 2697.850;    0.000;    0.000
629.575; 2663.850;    0.000;    0.000
629.694; 2689.850;    0.000;    0.000
629.813; 2770.850;    0.000;    0.000
629.932; 2636.850;    0.000;    0.000
630.051; 2721.850;    0.000;    0.000
630.170; 2766.850;    0.000;    0.000
630.289; 2729.850;    0.000;    0.000
630.408; 2550.850;    0.000;    0.000
630.527; 2711.850;    0.000;    0.000
630.646; 2623.850;    0.000;    0.000
630.764; 2786.850;    0.000;    0.000
630.883; 2713.850;    0.000;    0.000
631.002; 2654.850;    0.000;    0.000
631.121; 2708.850;    0.000;    0.000
631.240; 2656.850;    0.000;    0.000
631.359; 2710.850;    0.000;    0.000
631.477; 2713.850;    0.000;    0.000
631.596; 2676.850;    0.000;    0.000
631.715; 2749.850;    0.000;    0.000
631.834; 2743.850;    0.000;    0.000
631.952; 2790.850;    0.000;    0.000
632.071; 2653.850;    0.000;    0.000
632.190; 2689.850;    0.000;    0.000
632.308; 2643.850;    0.000;    0.000
632.427; 2646.850;    0.000;    0.000
632.546; 2646.850;    0.000;    0.000
632.664; 2697.850;    0.000;    0.000
632.783; 2601.850;    0.000;    0.000
632.901; 2676.850;    0.000;    0.000
633.020; 2682.850;    0.000;    0.000
633.138; 2704.850;    0.000;    0.000
633.257; 2671.850;    0.000;    0.000
633.375; 2685.850;    0.000;    0.000
633.494; 2591.850;    0.000;    0.000
633.612; 2676.850;    0.000;    0.000
633.731; 2627.850;    0.000;    0.000
633.849; 2764.850;    0.000;    0.000
633.968; 2649.850;    0.000;    0.000
634.086; 2636.850;    0.000;    0.000
634.204; 2689.850;    0.000;    0.000
634.323; 2626.850;    0.000;    0.000
634.441; 2627.850;    0.000;    0.000
634.559; 2619.850;    0.000;    0.000
634.678; 2609.850;    0.000;    0.000
634.796; 2563.850;    0.000;    0.000
634.914; 2560.850;    0.000;    0.000
635.032; 2642.850;    0.000;    0.000
635.151; 2514.850;    0.000;    0.000
635.269; 2503.850;    0.000;    0.000
635.387; 2614.850;    0.000;    0.000
635.505; 2671.850;    0.000;    0.000
635.623; 2562.850;    0.000;    0.000
635.742; 2552.850;    0.000;    0.000
635.860; 2510.850;    0.000;    0.000
635.978; 2562.850;    0.000;    0.000
636.096; 2538.850;    0.000;    0.000
636.214; 2486.850;    0.000;    0.000
636.332; 2523.850;    0.000;    0.000
636.450; 2542.850;    0.000;    0.000
636.568; 2552.850;    0.000;    0.000
636.686; 2598.850;    0.000;    0.000
636.804; 2600.850;    0.000;    0.000
636.922; 2594.850;    0.000;    0.000
637.040; 2554.850;    0.000;    0.000
637.158; 2523.850;    0.000;    0.000
637.276; 2546.850;    0.000;    0.000
637.394; 2589.850;    0.000;    0.000
637.512; 2510.850;    0.000;    0.000
637.629; 2582.850;    0.000;    0.000
637.747; 2468.850;    0.000;    0.000
637.865; 2518.850;    0.000;    0.000
637.983; 2585.850;    0.000;    0.000
638.101; 2496.850;    0.000;    0.000
638.218; 2536.850;    0.000;    0.000
638.336; 2531.850;    0.000;    0.000
638.454; 2468.850;    0.000;    0.000
638.572; 2433.850;    0.000;    0.000
638.689; 2455.850;    0.000;    0.000
638.807; 2441.850;    0.000;    0.000
638.925; 2536.850;    0.000;    0.000
639.042; 2421.850;    0.000;    0.000
639.160; 2419.850;    0.000;    0.000
639.278; 2448.850;    0.000;    0.000
639.395; 2443.850;    0.000;    0.000
639.513; 2419.850;    0.000;    0.000
639.630; 2405.850;    0.000;    0.000
639.748; 2402.850;    0.000;    0.000
639.865; 2389.850;    0.000;    0.000
639.983; 2402.850;    0.000;    0.000
640.100; 2496.850;    0.000;    0.000
640.218; 2513.850;    0.000;    0.000
640.335; 2480.850;    0.000;    0.000
640.453; 2473.850;    0.000;    0.000
640.570; 2402.850;    0.000;    0.000
640.688; 2497.850;    0.000;    0.000
640.805; 2471.850;    0.000;    0.000
640.922; 2483.850;    0.000;    0.000
641.040; 2473.850;    0.000;    0.000
641.157; 2396.850;    0.000;    0.000
641.274; 2465.850;    0.000;    0.000
641.391; 2468.850;    0.000;    0.000
641.509; 2436.850;    0.000;    0.000
641.626; 2455.850;    0.000;    0.000
641.743; 2471.850;    0.000;    0.000
641.860; 2457.850;    0.000;    0.000
641.978; 2443.850;    0.000;    0.000
642.095; 2461.850;    0.000;    0.000
642.212; 2444.850;    0.000;    0.000
642.329; 2432.850;    0.000;    0.000
642.446; 2351.850;    0.000;    0.000
642.563; 2422.850;    0.000;    0.000
642.681; 2435.850;    0.000;    0.000
642.798; 2441.850;    0.000;    0.000
642.915; 2471.850;    0.000;    0.000
643.032; 2424.850;    0.000;    0.000
643.149; 2434.850;    0.000;    0.000
643.266; 2500.850;    0.000;    0.000
643.383; 2459.850;    0.000;    0.000
643.500; 2432.850;    0.000;    0.000
643.617; 2461.850;    0.000;    0.000
643.734; 2462.850;    0.000;    0.000
643.850; 2411.850;    0.000;    0.000
643.967; 2444.850;    0.000;    0.000
644.084; 2497.850;    0.000;    0.000
644.201; 2423.850;    0.000;    0.000
644.318; 2362.850;    0.000;    0.000
644.435; 2380.850;    0.000;    0.000
644.552; 2433.850;    0.000;    0.000
644.668; 2387.850;    0.000;    0.000
644.785; 2520.850;    0.000;    0.000
644.902; 2450.850;    0.000;    0.000
645.019; 2479.850;    0.000;    0.000
645.135; 2403.850;    0.000;    0.000
645.252; 2538.850;    0.000;    0.000
645.369; 2459.850;    0.000;    0.000
645.485; 2444.850;    0.000;    0.000
645.602; 2466.850;    0.000;    0.000
645.719; 2462.850;    0.000;    0.000
645.835; 2438.850;    0.000;    0.000
645.952; 2486.850;    0.000;    0.000
646.068; 2459.850;    0.000;    0.000
646.185; 2588.850;    0.000;    0.000
646.302; 2556.850;    0.000;    0.000
646.418; 2458.850;    0.000;    0.000
646.535; 2544.850;    0.000;    0.000
646.651; 2598.850;    0.000;    0.000
646.768; 2505.850;    0.000;    0.000
646.884; 2427.850;    0.000;    0.000
647.000; 2452.850;    0.000;    0.000
647.117; 2515.850;    0.000;    0.000
647.233; 2500.850;    0.000;    0.000
647.350; 2497.850;    0.000;    0.000
647.466; 2474.850;    0.000;    0.000
647.582; 2437.850;    0.000;    0.000
647.699; 2482.850;    0.000;    0.000
647.815; 2481.850;    0.000;    0.000
647.931; 2481.850;    0.000;    0.000
648.047; 2438.850;    0.000;    0.000
648.164; 2417.850;    0.000;    0.000
648.280; 2468.850;    0.000;    0.000
648.396; 2447.850;    0.000;    0.000
648.512; 2461.850;    0.000;    0.000
648.629; 2468.850;    0.000;    0.000
648.745; 2483.850;    0.000;    0.000
648.861; 2435.850;    0.000;    0.000
648.977; 2484.850;    0.000;    0.000
649.093; 2517.850;    0.000;    0.000
649.209; 2583.850;    0.000;    0.000
649.325; 2526.850;    0.000;    0.000
649.441; 2562.850;    0.000;    0.000
649.557; 2531.850;    0.000;    0.000
649.673; 2551.850;    0.000;    0.000
649.789; 2534.850;    0.000;    0.000
649.905; 2496.850;    0.000;    0.000
650.021; 2608.850;    0.000;    0.000
650.137; 2480.850;    0.000;    0.000
650.253; 2538.850;    0.000;    0.000
650.369; 2486.850;    0.000;    0.000
650.485; 2497.850;    0.000;    0.000
650.601; 2513.850;    0.000;    0.000
650.717; 2477.850;    0.000;    0.000
650.833; 2644.850;    0.000;    0.000
650.948; 2524.850;    0.000;    0.000
651.064; 2485.850;    0.000;    0.000
651.180; 2549.850;    0.000;    0.000
651.296; 2465.850;    0.000;    0.000
651.411; 2499.850;    0.000;    0.000
651.527; 2501.850;    0.000;    0.000
651.643; 2523.850;    0.000;    0.000
651.759; 2573.850;    0.000;    0.000
651.874; 2555.850;    0.000;    0.000
651.990; 2582.850;    0.000;    0.000
652.105; 2609.850;    0.000;    0.000
652.221; 2644.850;    0.000;    0.000
652.337; 2513.850;    0.000;    0.000
652.452; 2686.850;    0.000;    0.000
652.568; 2558.850;    0.000;    0.000
652.683; 2595.850;    0.000;    0.000
652.799; 2527.850;    0.000;    0.000
652.914; 2607.850;    0.000;    0.000
653.030; 2684.850;    0.000;    0.000
653.145; 2630.850;    0.000;    0.000
653.261; 2678.850;    0.000;    0.000
653.376; 2692.850;    0.000;    0.000
653.492; 2624.850;    0.000;    0.000
653.607; 2701.850;    0.000;    0.000
653.722; 2680.850;    0.000;    0.000
653.838; 2732.850;    0.000;    0.000
653.953; 2779.850;    0.000;    0.000
654.068; 2817.850;    0.000;    0.000
654.184; 2763.850;    0.000;    0.000
654.299; 2831.850;    0.000;    0.000
654.414; 2743.850;    0.000;    0.000
654.530; 2820.850;    0.000;    0.000
654.645; 2913.850;    0.000;    0.000
654.760; 2898.850;    0.000;    0.000
654.875; 2918.850;    0.000;    0.000
654.990; 2922.850;    0.000;    0.000
655.106; 3051.850;    0.000;    0.000
655.221; 3091.850;    0.000;    0.000
655.336; 2984.850;    0.000;    0.000
655.451; 3068.850;    0.000;    0.000
655.566; 3058.850;    0.000;    0.000
655.681; 3272.850;    0.000;    0.000
655.796; 3200.850;    0.000;    0.000
655.911; 3253.850;    0.000;    0.000
656.026; 3335.850;    0.000;    0.000
656.141; 3382.850;    0.000;    0.000
656.256; 3317.850;    0.000;    0.000
656.371; 3325.850;    0.000;    0.000
656.486; 3435.850;    0.000;    0.000
656.601; 3528.850;    0.000;    0.000
656.716; 3418.850;    0.000;    0.000
656.831; 3469.850;    0.000;    0.000
656.946; 3371.850;    0.000;    0.000
657.060; 3330.850;    0.000;    0.000
657.175; 3307.850;    0.000;    0.000
657.290; 3260.850;    0.000;    0.000
657.405; 3295.850;    0.000;    0.000
657.520; 3234.850;    0.000;    0.000
657.634; 3104.850;    0.000;    0.000
657.749; 3124.850;    0.000;    0.000
657.864; 3063.850;    0.000;    0.000
657.979; 2922.850;    0.000;    0.000
658.093; 3036.850;    0.000;    0.000
658.208; 2953.850;    0.000;    0.000
658.323; 2921.850;    0.000;    0.000
658.437; 2938.850;    0.000;    0.000
658.552; 2882.850;    0.000;    0.000
658.666; 3019.850;    0.000;    0.000
658.781; 2861.850;    0.000;    0.000
658.895; 2759.850;    0.000;    0.000
659.010; 2836.850;    0.000;    0.000
659.125; 2740.850;    0.000;    0.000
659.239; 2798.850;    0.000;    0.000
659.353; 2779.850;    0.000;    0.000
659.468; 2778.850;    0.000;    0.000
659.582; 2757.850;    0.000;    0.000
659.697; 2751.850;    0.000;    0.000
659.811; 2802.850;    0.000;    0.000
659.926; 2756.850;    0.000;    0.000
660.040; 2676.850;    0.000;    0.000
660.154; 2717.850;    0.000;    0.000
660.269; 2694.850;    0.000;    0.000
660.383; 2648.850;    0.000;    0.000
660.497; 2703.850;    0.000;    0.000
660.612; 2725.850;    0.000;    0.000
660.726; 2611.850;    0.000;    0.000
660.840; 2530.850;    0.000;    0.000
660.954; 2619.850;    0.000;    0.000
661.068; 2574.850;    0.000;    0.000
661.183; 2607.850;    0.000;    0.000
661.297; 2570.850;    0.000;    0.000
661.411; 2584.850;    0.000;    0.000
661.525; 2622.850;    0.000;    0.000
661.639; 2560.850;    0.000;    0.000
661.753; 2512.850;    0.000;    0.000
661.867; 2558.850;    0.000;    0.000
661.981; 2523.850;    0.000;    0.000
662.095; 2574.850;    0.000;    0.000
662.209; 2589.850;    0.000;    0.000
662.323; 2553.850;    0.000;    0.000
662.437; 2420.850;    0.000;    0.000
662.551; 2442.850;    0.000;    0.000
662.665; 2522.850;    0.000;    0.000
662.779; 2523.850;    0.000;    0.000
662.893; 2517.850;    0.000;    0.000
663.007; 2399.850;    0.000;    0.000
663.121; 2446.850;    0.000;    0.000
663.235; 2430.850;    0.000;    0.000
663.349; 2436.850;    0.000;    0.000
663.462; 2387.850;    0.000;    0.000
663.576; 2428.850;    0.000;    0.000
663.690; 2368.850;    0.000;    0.000
663.804; 2444.850;    0.000;    0.000
663.917; 2455.850;    0.000;    0.000
664.031; 2348.850;    0.000;    0.000
664.145; 2371.850;    0.000;    0.000
664.258; 2329.850;    0.000;    0.000
664.372; 2325.850;    0.000;    0.000
664.486; 2390.850;    0.000;    0.000
664.599; 2375.850;    0.000;    0.000
664.713; 2458.850;    0.000;    0.000
664.827; 2347.850;    0.000;    0.000
664.940; 2387.850;    0.000;    0.000
665.054; 2258.850;    0.000;    0.000
665.167; 2310.850;    0.000;    0.000
665.281; 2378.850;    0.000;    0.000
665.394; 2342.850;    0.000;    0.000
665.508; 2300.850;    0.000;    0.000
665.621; 2240.850;    0.000;    0.000
665.735; 2274.850;    0.000;    0.000
665.848; 2270.850;    0.000;    0.000
665.961; 2364.850;    0.000;    0.000
666.075; 2347.850;    0.000;    0.000
666.188; 2373.850;    0.000;    0.000
666.301; 2318.850;    0.000;    0.000
666.415; 2222.850;    0.000;    0.000
666.528; 2329.850;    0.000;    0.000
666.641; 2274.850;    0.000;    0.000
666.755; 2339.850;    0.000;    0.000
666.868; 2316.850;    0.000;    0.000
666.981; 2296.850;    0.000;    0.000
667.094; 2303.850;    0.000;    0.000
667.207; 2250.850;    0.000;    0.000
667.321; 2208.850;    0.000;    0.000
667.434; 2293.850;    0.000;    0.000
667.547; 2309.850;    0.000;    0.000
667.660; 2280.850;    0.000;    0.000
667.773; 2228.850;    0.000;    0.000
667.886; 2233.850;    0.000;    0.000
667.999; 2331.850;    0.000;    0.000
668.112; 2239.850;    0.000;    0.000
668.225; 2201.850;    0.000;    0.000
668.338; 2155.850;    0.000;    0.000
668.451; 2217.850;    0.000;    0.000
668.564; 2220.850;    0.000;    0.000
668.677; 2182.850;    0.000;    0.000
668.790; 2163.850;    0.000;    0.000
668.903; 2192.850;    0.000;    0.000
669.016; 2185.850;    0.000;    0.000
669.129; 2213.850;    0.000;    0.000
669.242; 2120.850;    0.000;    0.000
669.354; 2160.850;    0.000;    0.000
669.467; 2095.850;    0.000;    0.000
669.580; 2125.850;    0.000;    0.000
669.693; 2079.850;    0.000;    0.000
669.806; 2125.850;    0.000;    0.000
669.918; 2171.850;    0.000;    0.000
670.031; 2118.850;    0.000;    0.000
670.144; 2205.850;    0.000;    0.000
670.256; 2156.850;    0.000;    0.000
670.369; 2121.850;    0.000;    0.000
670.482; 2134.850;    0.000;    0.000
670.594; 2166.850;    0.000;    0.000
670.707; 2137.850;    0.000;    0.000
670.820; 2105.850;    0.000;    0.000
670.932; 2055.850;    0.000;    0.000
671.045; 2116.850;    0.000;    0.000
671.157; 2116.850;    0.000;    0.000
671.270; 2075.850;    0.000;    0.000
671.382; 2053.850;    0.000;    0.000
671.495; 2114.850;    0.000;    0.000
671.607; 2035.850;    0.000;    0.000
671.720; 2093.850;    0.000;    0.000
671.832; 2084.850;    0.000;    0.000
671.944; 2083.850;    0.000;    0.000
672.057; 2096.850;    0.000;    0.000
672.169; 2054.850;    0.000;    0.000
672.281; 2103.850;    0.000;    0.000
672.394; 2087.850;    0.000;    0.000
672.506; 2156.850;    0.000;    0.000
672.618; 2093.850;    0.000;    0.000
672.731; 2106.850;    0.000;    0.000
672.843; 2134.850;    0.000;    0.000
672.955; 2078.850;    0.000;    0.000
673.067; 2071.850;    0.000;    0.000
673.180; 2013.850;    0.000;    0.000
673.292; 2050.850;    0.000;    0.000
673.404; 2040.850;    0.000;    0.000
673.516; 2080.850;    0.000;    0.000
673.628; 2112.850;    0.000;    0.000
673.740; 2045.850;    0.000;    0.000
673.852; 2076.850;    0.000;    0.000
673.964; 2151.850;    0.000;    0.000
674.076; 2017.850;    0.000;    0.000
674.188; 2049.850;    0.000;    0.000
674.300; 2051.850;    0.000;    0.000
674.412; 1993.850;    0.000;    0.000
674.524; 2080.850;    0.000;    0.000
674.636; 2027.850;    0.000;    0.000
674.748; 2021.850;    0.000;    0.000
674.860; 2030.850;    0.000;    0.000
674.972; 2071.850;    0.000;    0.000
675.084; 2019.850;    0.000;    0.000
675.196; 2072.850;    0.000;    0.000
675.307; 2103.850;    0.000;    0.000
675.419; 2074.850;    0.000;    0.000
675.531; 2108.850;    0.000;    0.000
675.643; 2026.850;    0.000;    0.000
675.755; 2093.850;    0.000;    0.000
675.866; 2094.850;    0.000;    0.000
675.978; 2092.850;    0.000;    0.000
676.090; 1999.850;    0.000;    0.000
676.201; 2056.850;    0.000;    0.000
676.313; 2077.850;    0.000;    0.000
676.425; 2014.850;    0.000;    0.000
676.536; 2057.850;    0.000;    0.000
676.648; 2008.850;    0.000;    0.000
676.759; 2033.850;    0.000;    0.000
676.871; 1989.850;    0.000;    0.000
676.983; 2016.850;    0.000;    0.000
677.094; 1941.850;    0.000;    0.000
677.206; 2025.850;    0.000;    0.000
677.317; 2047.850;    0.000;    0.000
677.429; 1981.850;    0.000;    0.000
677.540; 2023.850;    0.000;    0.000
677.651; 2007.850;    0.000;    0.000
677.763; 2001.850;    0.000;    0.000
677.874; 1972.850;    0.000;    0.000
677.986; 2041.850;    0.000;    0.000
678.097; 1972.850;    0.000;    0.000
678.208; 2030.850;    0.000;    0.000
678.320; 1979.850;    0.000;    0.000
678.431; 1947.850;    0.000;    0.000
678.542; 2003.850;    0.000;    0.000
678.653; 1935.850;    0.000;    0.000
678.765; 1924.850;    0.000;    0.000
678.876; 1988.850;    0.000;    0.000
678.987; 2012.850;    0.000;    0.000
679.098; 1920.850;    0.000;    0.000
679.209; 1986.850;    0.000;    0.000
679.320; 1981.850;    0.000;    0.000
679.432; 1973.850;    0.000;    0.000
679.543; 1945.850;    0.000;    0.000
679.654; 2013.850;    0.000;    0.000
679.765; 1974.850;    0.000;    0.000
679.876; 1949.850;    0.000;    0.000
679.987; 1903.850;    0.000;    0.000
680.098; 1977.850;    0.000;    0.000
680.209; 2001.850;    0.000;    0.000
680.320; 1922.850;    0.000;    0.000
680.431; 1939.850;    0.000;    0.000
680.542; 1932.850;    0.000;    0.000
680.653; 1979.850;    0.000;    0.000
680.763; 1911.850;    0.000;    0.000
680.874; 1982.850;    0.000;    0.000
680.985; 1940.850;    0.000;    0.000
681.096; 1925.850;    0.000;    0.000
681.207; 1882.850;    0.000;    0.000
681.318; 2010.850;    0.000;    0.000
681.428; 1890.850;    0.000;    0.000
681.539; 1925.850;    0.000;    0.000
681.650; 1979.850;    0.000;    0.000
681.760; 1924.850;    0.000;    0.000
681.871; 1936.850;    0.000;    0.000
681.982; 1926.850;    0.000;    0.000
682.093; 1965.850;    0.000;    0.000
682.203; 1946.850;    0.000;    0.000
682.314; 1977.850;    0.000;    0.000
682.424; 1967.850;    0.000;    0.000
682.535; 1894.850;    0.000;    0.000
682.646; 1925.850;    0.000;    0.000
682.756; 1936.850;    0.000;    0.000
682.867; 1991.850;    0.000;    0.000
682.977; 1920.850;    0.000;    0.000
683.088; 1952.850;    0.000;    0.000
683.198; 1853.850;    0.000;    0.000
683.308; 1907.850;    0.000;    0.000
683.419; 1954.850;    0.000;    0.000
683.529; 1943.850;    0.000;    0.000
683.640; 1941.850;    0.000;    0.000
683.750; 1899.850;    0.000;    0.000
683.860; 1958.850;    0.000;    0.000
683.971; 1910.850;    0.000;    0.000
684.081; 1904.850;    0.000;    0.000
684.191; 2023.850;    0.000;    0.000
684.301; 1904.850;    0.000;    0.000
684.412; 1932.850;    0.000;    0.000
684.522; 1852.850;    0.000;    0.000
684.632; 1955.850;    0.000;    0.000
684.742; 2010.850;    0.000;    0.000
684.852; 1839.850;    0.000;    0.000
684.963; 1857.850;    0.000;    0.000
685.073; 1873.850;    0.000;    0.000
685.183; 1914.850;    0.000;    0.000
685.293; 1892.850;    0.000;    0.000
685.403; 1952.850;    0.000;    0.000
685.513; 1941.850;    0.000;    0.000
685.623; 1975.850;    0.000;    0.000
685.733; 1974.850;    0.000;    0.000
685.843; 1947.850;    0.000;    0.000
685.953; 1919.850;    0.000;    0.000
686.063; 1927.850;    0.000;    0.000
686.173; 1956.850;    0.000;    0.000
686.283; 1900.850;    0.000;    0.000
686.393; 1894.850;    0.000;    0.000
686.503; 1942.850;    0.000;    0.000
686.612; 2000.850;    0.000;    0.000
686.722; 1991.850;    0.000;    0.000
686.832; 1945.850;    0.000;    0.000
686.942; 1958.850;    0.000;    0.000
687.052; 1886.850;    0.000;    0.000
687.161; 1939.850;    0.000;    0.000
687.271; 1954.850;    0.000;    0.000
687.381; 1835.850;    0.000;    0.000
687.491; 1874.850;    0.000;    0.000
687.600; 1880.850;    0.000;    0.000
687.710; 1948.850;    0.000;    0.000
687.820; 1900.850;    0.000;    0.000
687.929; 1898.850;    0.000;    0.000
688.039; 1954.850;    0.000;    0.000
688.148; 1839.850;    0.000;    0.000
688.258; 1819.850;    0.000;    0.000
688.367; 1897.850;    0.000;    0.000
688.477; 1912.850;    0.000;    0.000
688.586; 1846.850;    0.000;    0.000
688.696; 1886.850;    0.000;    0.000
688.805; 1944.850;    0.000;    0.000
688.915; 1911.850;    0.000;    0.000
689.024; 1893.850;    0.000;    0.000
689.134; 1876.850;    0.000;    0.000
689.243; 1846.850;    0.000;    0.000
689.352; 1959.850;    0.000;    0.000
689.462; 1908.850;    0.000;    0.000
689.571; 1907.850;    0.000;    0.000
689.680; 1897.850;    0.000;    0.000
689.790; 1876.850;    0.000;    0.000
689.899; 1904.850;    0.000;    0.000
690.008; 1955.850;    0.000;    0.000
690.117; 1890.850;    0.000;    0.000
690.227; 1919.850;    0.000;    0.000
690.336; 1871.850;    0.000;    0.000
690.445; 1887.850;    0.000;    0.000
690.554; 1914.850;    0.000;    0.000
690.663; 1880.850;    0.000;    0.000
690.772; 1866.850;    0.000;    0.000
690.881; 1922.850;    0.000;    0.000
690.990; 1844.850;    0.000;    0.000
691.099; 1878.850;    0.000;    0.000
691.209; 1885.850;    0.000;    0.000
691.318; 1904.850;    0.000;    0.000
691.427; 1918.850;    0.000;    0.000
691.536; 1885.850;    0.000;    0.000
691.644; 1852.850;    0.000;    0.000
691.753; 1935.850;    0.000;    0.000
691.862; 1889.850;    0.000;    0.000
691.971; 1912.850;    0.000;    0.000
692.080; 1919.850;    0.000;    0.000
692.189; 1929.850;    0.000;    0.000
692.298; 1946.850;    0.000;    0.000
692.406; 1955.850;    0.000;    0.000
692.515; 1983.850;    0.000;    0.000
692.624; 1866.850;    0.000;    0.000
692.733; 1837.850;    0.000;    0.000
692.842; 1884.850;    0.000;    0.000
692.950; 1936.850;    0.000;    0.000
693.059; 1902.850;    0.000;    0.000
693.168; 1952.850;    0.000;    0.000
693.276; 1837.850;    0.000;    0.000
693.385; 1937.850;    0.000;    0.000
693.494; 1949.850;    0.000;    0.000
693.602; 1918.850;    0.000;    0.000
693.711; 1889.850;    0.000;    0.000
693.819; 1881.850;    0.000;    0.000
693.928; 1925.850;    0.000;    0.000
694.036; 1833.850;    0.000;    0.000
694.145; 1868.850;    0.000;    0.000
694.253; 1897.850;    0.000;    0.000
694.362; 1857.850;    0.000;    0.000
694.470; 1957.850;    0.000;    0.000
694.579; 1877.850;    0.000;    0.000
694.687; 1931.850;    0.000;    0.000
694.795; 1865.850;    0.000;    0.000
694.904; 1883.850;    0.000;    0.000
695.012; 1957.850;    0.000;    0.000
695.120; 1983.850;    0.000;    0.000
695.229; 1914.850;    0.000;    0.000
695.337; 1955.850;    0.000;    0.000
695.445; 1926.850;    0.000;    0.000
695.553; 1925.850;    0.000;    0.000
695.662; 1960.850;    0.000;    0.000
695.770; 1878.850;    0.000;    0.000
695.878; 1964.850;    0.000;    0.000
695.986; 1862.850;    0.000;    0.000
696.094; 1901.850;    0.000;    0.000
696.202; 1821.850;    0.000;    0.000
696.310; 1882.850;    0.000;    0.000
696.419; 1897.850;    0.000;    0.000
696.527; 1964.850;    0.000;    0.000
696.635; 1913.850;    0.000;    0.000
696.743; 1937.850;    0.000;    0.000
696.851; 1916.850;    0.000;    0.000
696.959; 1869.850;    0.000;    0.000
697.067; 1855.850;    0.000;    0.000
697.174; 1889.850;    0.000;    0.000
697.282; 1879.850;    0.000;    0.000
697.390; 1927.850;    0.000;    0.000
697.498; 1823.850;    0.000;    0.000
697.606; 1944.850;    0.000;    0.000
697.714; 1895.850;    0.000;    0.000
697.822; 1892.850;    0.000;    0.000
697.929; 1978.850;    0.000;    0.000
698.037; 1906.850;    0.000;    0.000
698.145; 1885.850;    0.000;    0.000
698.253; 1856.850;    0.000;    0.000
698.360; 1963.850;    0.000;    0.000
698.468; 1926.850;    0.000;    0.000
698.576; 1924.850;    0.000;    0.000
698.683; 1945.850;    0.000;    0.000
698.791; 1865.850;    0.000;    0.000
698.899; 1900.850;    0.000;    0.000
699.006; 1898.850;    0.000;    0.000
699.114; 1957.850;    0.000;    0.000
699.221; 1945.850;    0.000;    0.000
699.329; 1877.850;    0.000;    0.000
699.436; 1935.850;    0.000;    0.000
699.544; 1972.850;    0.000;    0.000
699.651; 1943.850;    0.000;    0.000
699.759; 1885.850;    0.000;    0.000
699.866; 1959.850;    0.000;    0.000
699.974; 1890.850;    0.000;    0.000
700.081; 1889.850;    0.000;    0.000
700.188; 1942.850;    0.000;    0.000
700.296; 1951.850;    0.000;    0.000
700.403; 1928.850;    0.000;    0.000
700.510; 1860.850;    0.000;    0.000
700.618; 1967.850;    0.000;    0.000
700.725; 1892.850;    0.000;    0.000
700.832; 1798.850;    0.000;    0.000
700.940; 1925.850;    0.000;    0.000
701.047; 1775.850;    0.000;    0.000
701.154; 1850.850;    0.000;    0.000
701.261; 1901.850;    0.000;    0.000
701.368; 1950.850;    0.000;    0.000
701.475; 1925.850;    0.000;    0.000
701.582; 1948.850;    0.000;    0.000
701.690; 1946.850;    0.000;    0.000
701.797; 1927.850;    0.000;    0.000
701.904; 1964.850;    0.000;    0.000
702.011; 1999.850;    0.000;    0.000
702.118; 2023.850;    0.000;    0.000
702.225; 2002.850;    0.000;    0.000
702.332; 1972.850;    0.000;    0.000
702.439; 1853.850;    0.000;    0.000
702.546; 1956.850;    0.000;    0.000
702.652; 1948.850;    0.000;    0.000
702.759; 1944.850;    0.000;    0.000
702.866; 1927.850;    0.000;    0.000
702.973; 1897.850;    0.000;    0.000
703.080; 1929.850;    0.000;    0.000
703.187; 1903.850;    0.000;    0.000
703.294; 1971.850;    0.000;    0.000
703.400; 1766.850;    0.000;    0.000
703.507;  501.850;    0.000;    0.000
703.614;  333.850;    0.000;    0.000
703.720;  308.850;    0.000;    0.000
703.827;  338.850;    0.000;    0.000
703.934;  356.850;    0.000;    0.000
704.040;  293.850;    0.000;    0.000
704.147;  339.850;    0.000;    0.000
704.254;  357.850;    0.000;    0.000
704.360;  304.850;    0.000;    0.000
704.467;  353.850;    0.000;    0.000
704.573;  363.850;    0.000;    0.000
704.680;  342.850;    0.000;    0.000
704.786;  327.850;    0.000;    0.000
704.893;  295.850;    0.000;    0.000
704.999;  313.850;    0.000;    0.000
705.106;  352.850;    0.000;    0.000

