
Integration time [ms]:   1.000
Averaging Nr. [scans]: 1
Smoothing Nr. [pixels]: 0
Data measured with spectrometer [name]: UV1
Wave   ;Sample   ;Dark     ;Reference
[nm]   ;[counts] ;[counts] ;[counts] 

236.381;  138.300;    0.000;    0.000
236.451;  198.300;    0.000;    0.000
236.520;  198.300;    0.000;    0.000
236.590;  195.300;    0.000;    0.000
236.660;  201.300;    0.000;    0.000
236.730;  207.300;    0.000;    0.000
236.799;  203.300;    0.000;    0.000
236.869;  201.300;    0.000;    0.000
236.939;  176.300;    0.000;    0.000
237.009;  207.300;    0.000;    0.000
237.078;  206.300;    0.000;    0.000
237.148;  166.300;    0.000;    0.000
237.218;  193.300;    0.000;    0.000
237.287;  216.300;    0.000;    0.000
237.357;  218.300;    0.000;    0.000
237.427;  189.300;    0.000;    0.000
237.496;  323.300;    0.000;    0.000
237.566;  329.300;    0.000;    0.000
237.636;  252.300;    0.000;    0.000
237.705;  309.300;    0.000;    0.000
237.775;  293.300;    0.000;    0.000
237.845;  318.300;    0.000;    0.000
237.914;  249.300;    0.000;    0.000
237.984;  312.300;    0.000;    0.000
238.054;  319.300;    0.000;    0.000
238.123;  305.300;    0.000;    0.000
238.193;  307.300;    0.000;    0.000
238.263;  329.300;    0.000;    0.000
238.332;  316.300;    0.000;    0.000
238.402;  340.300;    0.000;    0.000
238.471;  295.300;    0.000;    0.000
238.541;  320.300;    0.000;    0.000
238.611;  311.300;    0.000;    0.000
238.680;  306.300;    0.000;    0.000
238.750;  310.300;    0.000;    0.000
238.819;  302.300;    0.000;    0.000
238.889;  276.300;    0.000;    0.000
238.958;  284.300;    0.000;    0.000
239.028;  335.300;    0.000;    0.000
239.097;  279.300;    0.000;    0.000
239.167;  277.300;    0.000;    0.000
239.237;  306.300;    0.000;    0.000
239.306;  268.300;    0.000;    0.000
239.376;  362.300;    0.000;    0.000
239.445;  300.300;    0.000;    0.000
239.515;  341.300;    0.000;    0.000
239.584;  321.300;    0.000;    0.000
239.654;  276.300;    0.000;    0.000
239.723;  271.300;    0.000;    0.000
239.793;  310.300;    0.000;    0.000
239.862;  289.300;    0.000;    0.000
239.932;  287.300;    0.000;    0.000
240.001;  286.300;    0.000;    0.000
240.070;  292.300;    0.000;    0.000
240.140;  275.300;    0.000;    0.000
240.209;  285.300;    0.000;    0.000
240.279;  294.300;    0.000;    0.000
240.348;  345.300;    0.000;    0.000
240.418;  246.300;    0.000;    0.000
240.487;  306.300;    0.000;    0.000
240.556;  273.300;    0.000;    0.000
240.626;  311.300;    0.000;    0.000
240.695;  301.300;    0.000;    0.000
240.765;  337.300;    0.000;    0.000
240.834;  283.300;    0.000;    0.000
240.903;  303.300;    0.000;    0.000
240.973;  302.300;    0.000;    0.000
241.042;  285.300;    0.000;    0.000
241.112;  303.300;    0.000;    0.000
241.181;  288.300;    0.000;    0.000
241.250;  286.300;    0.000;    0.000
241.320;  299.300;    0.000;    0.000
241.389;  325.300;    0.000;    0.000
241.458;  332.300;    0.000;    0.000
241.528;  292.300;    0.000;    0.000
241.597;  357.300;    0.000;    0.000
241.666;  308.300;    0.000;    0.000
241.736;  315.300;    0.000;    0.000
241.805;  270.300;    0.000;    0.000
241.874;  290.300;    0.000;    0.000
241.943;  295.300;    0.000;    0.000
242.013;  316.300;    0.000;    0.000
242.082;  280.300;    0.000;    0.000
242.151;  309.300;    0.000;    0.000
242.221;  315.300;    0.000;    0.000
242.290;  300.300;    0.000;    0.000
242.359;  296.300;    0.000;    0.000
242.428;  318.300;    0.000;    0.000
242.498;  279.300;    0.000;    0.000
242.567;  290.300;    0.000;    0.000
242.636;  288.300;    0.000;    0.000
242.705;  318.300;    0.000;    0.000
242.774;  275.300;    0.000;    0.000
242.844;  276.300;    0.000;    0.000
242.913;  321.300;    0.000;    0.000
242.982;  274.300;    0.000;    0.000
243.051;  263.300;    0.000;    0.000
243.120;  332.300;    0.000;    0.000
243.190;  340.300;    0.000;    0.000
243.259;  339.300;    0.000;    0.000
243.328;  279.300;    0.000;    0.000
243.397;  294.300;    0.000;    0.000
243.466;  300.300;    0.000;    0.000
243.535;  290.300;    0.000;    0.000
243.605;  278.300;    0.000;    0.000
243.674;  278.300;    0.000;    0.000
243.743;  287.300;    0.000;    0.000
243.812;  316.300;    0.000;    0.000
243.881;  285.300;    0.000;    0.000
243.950;  269.300;    0.000;    0.000
244.019;  311.300;    0.000;    0.000
244.088;  302.300;    0.000;    0.000
244.158;  338.300;    0.000;    0.000
244.227;  297.300;    0.000;    0.000
244.296;  301.300;    0.000;    0.000
244.365;  320.300;    0.000;    0.000
244.434;  263.300;    0.000;    0.000
244.503;  329.300;    0.000;    0.000
244.572;  263.300;    0.000;    0.000
244.641;  285.300;    0.000;    0.000
244.710;  314.300;    0.000;    0.000
244.779;  292.300;    0.000;    0.000
244.848;  319.300;    0.000;    0.000
244.917;  338.300;    0.000;    0.000
244.986;  299.300;    0.000;    0.000
245.055;  289.300;    0.000;    0.000
245.124;  340.300;    0.000;    0.000
245.193;  302.300;    0.000;    0.000
245.262;  297.300;    0.000;    0.000
245.331;  350.300;    0.000;    0.000
245.400;  343.300;    0.000;    0.000
245.469;  346.300;    0.000;    0.000
245.538;  335.300;    0.000;    0.000
245.607;  359.300;    0.000;    0.000
245.676;  311.300;    0.000;    0.000
245.745;  330.300;    0.000;    0.000
245.814;  327.300;    0.000;    0.000
245.883;  322.300;    0.000;    0.000
245.952;  330.300;    0.000;    0.000
246.021;  332.300;    0.000;    0.000
246.090;  311.300;    0.000;    0.000
246.159;  326.300;    0.000;    0.000
246.227;  307.300;    0.000;    0.000
246.296;  335.300;    0.000;    0.000
246.365;  310.300;    0.000;    0.000
246.434;  340.300;    0.000;    0.000
246.503;  315.300;    0.000;    0.000
246.572;  374.300;    0.000;    0.000
246.641;  350.300;    0.000;    0.000
246.710;  381.300;    0.000;    0.000
246.779;  352.300;    0.000;    0.000
246.847;  346.300;    0.000;    0.000
246.916;  317.300;    0.000;    0.000
246.985;  355.300;    0.000;    0.000
247.054;  321.300;    0.000;    0.000
247.123;  368.300;    0.000;    0.000
247.192;  357.300;    0.000;    0.000
247.260;  333.300;    0.000;    0.000
247.329;  348.300;    0.000;    0.000
247.398;  385.300;    0.000;    0.000
247.467;  356.300;    0.000;    0.000
247.536;  367.300;    0.000;    0.000
247.604;  385.300;    0.000;    0.000
247.673;  364.300;    0.000;    0.000
247.742;  371.300;    0.000;    0.000
247.811;  364.300;    0.000;    0.000
247.879;  340.300;    0.000;    0.000
247.948;  343.300;    0.000;    0.000
248.017;  340.300;    0.000;    0.000
248.086;  336.300;    0.000;    0.000
248.154;  350.300;    0.000;    0.000
248.223;  370.300;    0.000;    0.000
248.292;  390.300;    0.000;    0.000
248.361;  360.300;    0.000;    0.000
248.429;  336.300;    0.000;    0.000
248.498;  347.300;    0.000;    0.000
248.567;  331.300;    0.000;    0.000
248.635;  377.300;    0.000;    0.000
248.704;  378.300;    0.000;    0.000
248.773;  316.300;    0.000;    0.000
248.841;  312.300;    0.000;    0.000
248.910;  380.300;    0.000;    0.000
248.979;  329.300;    0.000;    0.000
249.047;  375.300;    0.000;    0.000
249.116;  340.300;    0.000;    0.000
249.185;  356.300;    0.000;    0.000
249.253;  340.300;    0.000;    0.000
249.322;  349.300;    0.000;    0.000
249.390;  316.300;    0.000;    0.000
249.459;  372.300;    0.000;    0.000
249.528;  336.300;    0.000;    0.000
249.596;  364.300;    0.000;    0.000
249.665;  289.300;    0.000;    0.000
249.733;  362.300;    0.000;    0.000
249.802;  362.300;    0.000;    0.000
249.871;  310.300;    0.000;    0.000
249.939;  290.300;    0.000;    0.000
250.008;  361.300;    0.000;    0.000
250.076;  343.300;    0.000;    0.000
250.145;  333.300;    0.000;    0.000
250.213;  289.300;    0.000;    0.000
250.282;  331.300;    0.000;    0.000
250.350;  317.300;    0.000;    0.000
250.419;  290.300;    0.000;    0.000
250.487;  345.300;    0.000;    0.000
250.556;  323.300;    0.000;    0.000
250.624;  320.300;    0.000;    0.000
250.693;  341.300;    0.000;    0.000
250.761;  319.300;    0.000;    0.000
250.830;  325.300;    0.000;    0.000
250.898;  304.300;    0.000;    0.000
250.967;  292.300;    0.000;    0.000
251.035;  281.300;    0.000;    0.000
251.104;  308.300;    0.000;    0.000
251.172;  257.300;    0.000;    0.000
251.241;  242.300;    0.000;    0.000
251.309;  318.300;    0.000;    0.000
251.378;  311.300;    0.000;    0.000
251.446;  300.300;    0.000;    0.000
251.514;  347.300;    0.000;    0.000
251.583;  305.300;    0.000;    0.000
251.651;  295.300;    0.000;    0.000
251.720;  312.300;    0.000;    0.000
251.788;  312.300;    0.000;    0.000
251.856;  244.300;    0.000;    0.000
251.925;  227.300;    0.000;    0.000
251.993;  282.300;    0.000;    0.000
252.062;  294.300;    0.000;    0.000
252.130;  294.300;    0.000;    0.000
252.198;  292.300;    0.000;    0.000
252.267;  248.300;    0.000;    0.000
252.335;  277.300;    0.000;    0.000
252.403;  281.300;    0.000;    0.000
252.472;  275.300;    0.000;    0.000
252.540;  284.300;    0.000;    0.000
252.608;  304.300;    0.000;    0.000
252.677;  277.300;    0.000;    0.000
252.745;  315.300;    0.000;    0.000
252.813;  250.300;    0.000;    0.000
252.881;  242.300;    0.000;    0.000
252.950;  254.300;    0.000;    0.000
253.018;  289.300;    0.000;    0.000
253.086;  238.300;    0.000;    0.000
253.155;  279.300;    0.000;    0.000
253.223;  267.300;    0.000;    0.000
253.291;  293.300;    0.000;    0.000
253.359;  287.300;    0.000;    0.000
253.428;  291.300;    0.000;    0.000
253.496;  234.300;    0.000;    0.000
253.564;  242.300;    0.000;    0.000
253.632;  285.300;    0.000;    0.000
253.700;  238.300;    0.000;    0.000
253.769;  246.300;    0.000;    0.000
253.837;  315.300;    0.000;    0.000
253.905;  273.300;    0.000;    0.000
253.973;  263.300;    0.000;    0.000
254.041;  281.300;    0.000;    0.000
254.110;  293.300;    0.000;    0.000
254.178;  282.300;    0.000;    0.000
254.246;  279.300;    0.000;    0.000
254.314;  262.300;    0.000;    0.000
254.382;  291.300;    0.000;    0.000
254.450;  301.300;    0.000;    0.000
254.518;  263.300;    0.000;    0.000
254.587;  228.300;    0.000;    0.000
254.655;  261.300;    0.000;    0.000
254.723;  270.300;    0.000;    0.000
254.791;  283.300;    0.000;    0.000
254.859;  316.300;    0.000;    0.000
254.927;  284.300;    0.000;    0.000
254.995;  259.300;    0.000;    0.000
255.063;  265.300;    0.000;    0.000
255.131;  282.300;    0.000;    0.000
255.199;  264.300;    0.000;    0.000
255.267;  232.300;    0.000;    0.000
255.336;  270.300;    0.000;    0.000
255.404;  223.300;    0.000;    0.000
255.472;  277.300;    0.000;    0.000
255.540;  262.300;    0.000;    0.000
255.608;  260.300;    0.000;    0.000
255.676;  273.300;    0.000;    0.000
255.744;  278.300;    0.000;    0.000
255.812;  283.300;    0.000;    0.000
255.880;  297.300;    0.000;    0.000
255.948;  290.300;    0.000;    0.000
256.016;  285.300;    0.000;    0.000
256.084;  255.300;    0.000;    0.000
256.152;  308.300;    0.000;    0.000
256.220;  265.300;    0.000;    0.000
256.288;  303.300;    0.000;    0.000
256.356;  265.300;    0.000;    0.000
256.424;  258.300;    0.000;    0.000
256.491;  240.300;    0.000;    0.000
256.559;  277.300;    0.000;    0.000
256.627;  278.300;    0.000;    0.000
256.695;  231.300;    0.000;    0.000
256.763;  245.300;    0.000;    0.000
256.831;  256.300;    0.000;    0.000
256.899;  227.300;    0.000;    0.000
256.967;  209.300;    0.000;    0.000
257.035;  280.300;    0.000;    0.000
257.103;  267.300;    0.000;    0.000
257.171;  216.300;    0.000;    0.000
257.238;  232.300;    0.000;    0.000
257.306;  231.300;    0.000;    0.000
257.374;  272.300;    0.000;    0.000
257.442;  296.300;    0.000;    0.000
257.510;  302.300;    0.000;    0.000
257.578;  218.300;    0.000;    0.000
257.646;  302.300;    0.000;    0.000
257.713;  248.300;    0.000;    0.000
257.781;  256.300;    0.000;    0.000
257.849;  281.300;    0.000;    0.000
257.917;  251.300;    0.000;    0.000
257.985;  251.300;    0.000;    0.000
258.052;  236.300;    0.000;    0.000
258.120;  248.300;    0.000;    0.000
258.188;  271.300;    0.000;    0.000
258.256;  252.300;    0.000;    0.000
258.324;  286.300;    0.000;    0.000
258.391;  256.300;    0.000;    0.000
258.459;  296.300;    0.000;    0.000
258.527;  284.300;    0.000;    0.000
258.595;  292.300;    0.000;    0.000
258.662;  269.300;    0.000;    0.000
258.730;  288.300;    0.000;    0.000
258.798;  268.300;    0.000;    0.000
258.865;  284.300;    0.000;    0.000
258.933;  288.300;    0.000;    0.000
259.001;  305.300;    0.000;    0.000
259.069;  266.300;    0.000;    0.000
259.136;  314.300;    0.000;    0.000
259.204;  330.300;    0.000;    0.000
259.272;  258.300;    0.000;    0.000
259.339;  283.300;    0.000;    0.000
259.407;  295.300;    0.000;    0.000
259.475;  255.300;    0.000;    0.000
259.542;  277.300;    0.000;    0.000
259.610;  255.300;    0.000;    0.000
259.677;  276.300;    0.000;    0.000
259.745;  240.300;    0.000;    0.000
259.813;  310.300;    0.000;    0.000
259.880;  339.300;    0.000;    0.000
259.948;  272.300;    0.000;    0.000
260.016;  270.300;    0.000;    0.000
260.083;  324.300;    0.000;    0.000
260.151;  277.300;    0.000;    0.000
260.218;  272.300;    0.000;    0.000
260.286;  292.300;    0.000;    0.000
260.353;  317.300;    0.000;    0.000
260.421;  296.300;    0.000;    0.000
260.489;  329.300;    0.000;    0.000
260.556;  286.300;    0.000;    0.000
260.624;  306.300;    0.000;    0.000
260.691;  347.300;    0.000;    0.000
260.759;  340.300;    0.000;    0.000
260.826;  277.300;    0.000;    0.000
260.894;  317.300;    0.000;    0.000
260.961;  313.300;    0.000;    0.000
261.029;  342.300;    0.000;    0.000
261.096;  332.300;    0.000;    0.000
261.164;  303.300;    0.000;    0.000
261.231;  389.300;    0.000;    0.000
261.299;  317.300;    0.000;    0.000
261.366;  315.300;    0.000;    0.000
261.434;  324.300;    0.000;    0.000
261.501;  280.300;    0.000;    0.000
261.568;  299.300;    0.000;    0.000
261.636;  329.300;    0.000;    0.000
261.703;  358.300;    0.000;    0.000
261.771;  344.300;    0.000;    0.000
261.838;  356.300;    0.000;    0.000
261.906;  328.300;    0.000;    0.000
261.973;  333.300;    0.000;    0.000
262.040;  327.300;    0.000;    0.000
262.108;  314.300;    0.000;    0.000
262.175;  314.300;    0.000;    0.000
262.243;  350.300;    0.000;    0.000
262.310;  319.300;    0.000;    0.000
262.377;  310.300;    0.000;    0.000
262.445;  381.300;    0.000;    0.000
262.512;  347.300;    0.000;    0.000
262.579;  325.300;    0.000;    0.000
262.647;  354.300;    0.000;    0.000
262.714;  363.300;    0.000;    0.000
262.781;  317.300;    0.000;    0.000
262.849;  288.300;    0.000;    0.000
262.916;  381.300;    0.000;    0.000
262.983;  357.300;    0.000;    0.000
263.051;  292.300;    0.000;    0.000
263.118;  317.300;    0.000;    0.000
263.185;  306.300;    0.000;    0.000
263.252;  339.300;    0.000;    0.000
263.320;  353.300;    0.000;    0.000
263.387;  358.300;    0.000;    0.000
263.454;  417.300;    0.000;    0.000
263.522;  303.300;    0.000;    0.000
263.589;  370.300;    0.000;    0.000
263.656;  355.300;    0.000;    0.000
263.723;  301.300;    0.000;    0.000
263.790;  373.300;    0.000;    0.000
263.858;  360.300;    0.000;    0.000
263.925;  359.300;    0.000;    0.000
263.992;  348.300;    0.000;    0.000
264.059;  399.300;    0.000;    0.000
264.126;  351.300;    0.000;    0.000
264.194;  340.300;    0.000;    0.000
264.261;  384.300;    0.000;    0.000
264.328;  350.300;    0.000;    0.000
264.395;  370.300;    0.000;    0.000
264.462;  356.300;    0.000;    0.000
264.529;  412.300;    0.000;    0.000
264.597;  344.300;    0.000;    0.000
264.664;  355.300;    0.000;    0.000
264.731;  395.300;    0.000;    0.000
264.798;  352.300;    0.000;    0.000
264.865;  352.300;    0.000;    0.000
264.932;  414.300;    0.000;    0.000
264.999;  374.300;    0.000;    0.000
265.066;  360.300;    0.000;    0.000
265.133;  398.300;    0.000;    0.000
265.201;  418.300;    0.000;    0.000
265.268;  395.300;    0.000;    0.000
265.335;  387.300;    0.000;    0.000
265.402;  386.300;    0.000;    0.000
265.469;  353.300;    0.000;    0.000
265.536;  375.300;    0.000;    0.000
265.603;  400.300;    0.000;    0.000
265.670;  408.300;    0.000;    0.000
265.737;  411.300;    0.000;    0.000
265.804;  377.300;    0.000;    0.000
265.871;  422.300;    0.000;    0.000
265.938;  376.300;    0.000;    0.000
266.005;  390.300;    0.000;    0.000
266.072;  346.300;    0.000;    0.000
266.139;  435.300;    0.000;    0.000
266.206;  407.300;    0.000;    0.000
266.273;  400.300;    0.000;    0.000
266.340;  391.300;    0.000;    0.000
266.407;  381.300;    0.000;    0.000
266.474;  366.300;    0.000;    0.000
266.541;  420.300;    0.000;    0.000
266.608;  400.300;    0.000;    0.000
266.675;  424.300;    0.000;    0.000
266.742;  399.300;    0.000;    0.000
266.808;  433.300;    0.000;    0.000
266.875;  424.300;    0.000;    0.000
266.942;  422.300;    0.000;    0.000
267.009;  476.300;    0.000;    0.000
267.076;  434.300;    0.000;    0.000
267.143;  449.300;    0.000;    0.000
267.210;  432.300;    0.000;    0.000
267.277;  393.300;    0.000;    0.000
267.344;  438.300;    0.000;    0.000
267.410;  431.300;    0.000;    0.000
267.477;  435.300;    0.000;    0.000
267.544;  432.300;    0.000;    0.000
267.611;  423.300;    0.000;    0.000
267.678;  425.300;    0.000;    0.000
267.745;  446.300;    0.000;    0.000
267.811;  448.300;    0.000;    0.000
267.878;  426.300;    0.000;    0.000
267.945;  422.300;    0.000;    0.000
268.012;  399.300;    0.000;    0.000
268.079;  421.300;    0.000;    0.000
268.145;  414.300;    0.000;    0.000
268.212;  435.300;    0.000;    0.000
268.279;  417.300;    0.000;    0.000
268.346;  424.300;    0.000;    0.000
268.412;  457.300;    0.000;    0.000
268.479;  457.300;    0.000;    0.000
268.546;  458.300;    0.000;    0.000
268.613;  467.300;    0.000;    0.000
268.679;  472.300;    0.000;    0.000
268.746;  419.300;    0.000;    0.000
268.813;  419.300;    0.000;    0.000
268.879;  427.300;    0.000;    0.000
268.946;  414.300;    0.000;    0.000
269.013;  430.300;    0.000;    0.000
269.079;  428.300;    0.000;    0.000
269.146;  394.300;    0.000;    0.000
269.213;  446.300;    0.000;    0.000
269.280;  435.300;    0.000;    0.000
269.346;  443.300;    0.000;    0.000
269.413;  412.300;    0.000;    0.000
269.479;  487.300;    0.000;    0.000
269.546;  455.300;    0.000;    0.000
269.613;  396.300;    0.000;    0.000
269.679;  468.300;    0.000;    0.000
269.746;  376.300;    0.000;    0.000
269.813;  454.300;    0.000;    0.000
269.879;  450.300;    0.000;    0.000
269.946;  428.300;    0.000;    0.000
270.012;  422.300;    0.000;    0.000
270.079;  382.300;    0.000;    0.000
270.145;  405.300;    0.000;    0.000
270.212;  449.300;    0.000;    0.000
270.279;  444.300;    0.000;    0.000
270.345;  419.300;    0.000;    0.000
270.412;  421.300;    0.000;    0.000
270.478;  433.300;    0.000;    0.000
270.545;  439.300;    0.000;    0.000
270.611;  468.300;    0.000;    0.000
270.678;  380.300;    0.000;    0.000
270.744;  391.300;    0.000;    0.000
270.811;  425.300;    0.000;    0.000
270.877;  410.300;    0.000;    0.000
270.944;  428.300;    0.000;    0.000
271.010;  436.300;    0.000;    0.000
271.077;  440.300;    0.000;    0.000
271.143;  451.300;    0.000;    0.000
271.210;  403.300;    0.000;    0.000
271.276;  398.300;    0.000;    0.000
271.342;  446.300;    0.000;    0.000
271.409;  432.300;    0.000;    0.000
271.475;  424.300;    0.000;    0.000
271.542;  444.300;    0.000;    0.000
271.608;  437.300;    0.000;    0.000
271.675;  399.300;    0.000;    0.000
271.741;  454.300;    0.000;    0.000
271.807;  406.300;    0.000;    0.000
271.874;  448.300;    0.000;    0.000
271.940;  453.300;    0.000;    0.000
272.007;  436.300;    0.000;    0.000
272.073;  413.300;    0.000;    0.000
272.139;  401.300;    0.000;    0.000
272.206;  428.300;    0.000;    0.000
272.272;  445.300;    0.000;    0.000
272.338;  462.300;    0.000;    0.000
272.405;  459.300;    0.000;    0.000
272.471;  405.300;    0.000;    0.000
272.537;  434.300;    0.000;    0.000
272.604;  455.300;    0.000;    0.000
272.670;  451.300;    0.000;    0.000
272.736;  410.300;    0.000;    0.000
272.802;  433.300;    0.000;    0.000
272.869;  459.300;    0.000;    0.000
272.935;  442.300;    0.000;    0.000
273.001;  462.300;    0.000;    0.000
273.068;  441.300;    0.000;    0.000
273.134;  431.300;    0.000;    0.000
273.200;  442.300;    0.000;    0.000
273.266;  483.300;    0.000;    0.000
273.333;  443.300;    0.000;    0.000
273.399;  451.300;    0.000;    0.000
273.465;  478.300;    0.000;    0.000
273.531;  433.300;    0.000;    0.000
273.597;  452.300;    0.000;    0.000
273.664;  500.300;    0.000;    0.000
273.730;  444.300;    0.000;    0.000
273.796;  467.300;    0.000;    0.000
273.862;  459.300;    0.000;    0.000
273.928;  452.300;    0.000;    0.000
273.995;  472.300;    0.000;    0.000
274.061;  500.300;    0.000;    0.000
274.127;  418.300;    0.000;    0.000
274.193;  436.300;    0.000;    0.000
274.259;  466.300;    0.000;    0.000
274.325;  460.300;    0.000;    0.000
274.391;  504.300;    0.000;    0.000
274.457;  491.300;    0.000;    0.000
274.524;  470.300;    0.000;    0.000
274.590;  457.300;    0.000;    0.000
274.656;  428.300;    0.000;    0.000
274.722;  466.300;    0.000;    0.000
274.788;  504.300;    0.000;    0.000
274.854;  505.300;    0.000;    0.000
274.920;  437.300;    0.000;    0.000
274.986;  498.300;    0.000;    0.000
275.052;  503.300;    0.000;    0.000
275.118;  466.300;    0.000;    0.000
275.184;  489.300;    0.000;    0.000
275.250;  491.300;    0.000;    0.000
275.316;  427.300;    0.000;    0.000
275.382;  460.300;    0.000;    0.000
275.448;  463.300;    0.000;    0.000
275.514;  535.300;    0.000;    0.000
275.580;  486.300;    0.000;    0.000
275.646;  468.300;    0.000;    0.000
275.712;  490.300;    0.000;    0.000
275.778;  474.300;    0.000;    0.000
275.844;  436.300;    0.000;    0.000
275.910;  481.300;    0.000;    0.000
275.976;  506.300;    0.000;    0.000
276.042;  485.300;    0.000;    0.000
276.108;  515.300;    0.000;    0.000
276.174;  532.300;    0.000;    0.000
276.240;  461.300;    0.000;    0.000
276.306;  541.300;    0.000;    0.000
276.372;  503.300;    0.000;    0.000
276.437;  522.300;    0.000;    0.000
276.503;  562.300;    0.000;    0.000
276.569;  571.300;    0.000;    0.000
276.635;  483.300;    0.000;    0.000
276.701;  572.300;    0.000;    0.000
276.767;  513.300;    0.000;    0.000
276.833;  509.300;    0.000;    0.000
276.899;  572.300;    0.000;    0.000
276.964;  608.300;    0.000;    0.000
277.030;  566.300;    0.000;    0.000
277.096;  571.300;    0.000;    0.000
277.162;  609.300;    0.000;    0.000
277.228;  608.300;    0.000;    0.000
277.293;  632.300;    0.000;    0.000
277.359;  635.300;    0.000;    0.000
277.425;  676.300;    0.000;    0.000
277.491;  645.300;    0.000;    0.000
277.557;  742.300;    0.000;    0.000
277.622;  986.300;    0.000;    0.000
277.688; 1064.300;    0.000;    0.000
277.754;  966.300;    0.000;    0.000
277.820; 1111.300;    0.000;    0.000
277.885; 1211.300;    0.000;    0.000
277.951; 1575.300;    0.000;    0.000
278.017; 1452.300;    0.000;    0.000
278.083; 1165.300;    0.000;    0.000
278.148; 1154.300;    0.000;    0.000
278.214; 1126.300;    0.000;    0.000
278.280; 1226.300;    0.000;    0.000
278.345; 1192.300;    0.000;    0.000
278.411;  997.300;    0.000;    0.000
278.477; 1051.300;    0.000;    0.000
278.542; 1059.300;    0.000;    0.000
278.608; 1117.300;    0.000;    0.000
278.674; 1282.300;    0.000;    0.000
278.739; 1283.300;    0.000;    0.000
278.805; 1390.300;    0.000;    0.000
278.871; 1544.300;    0.000;    0.000
278.936; 1841.300;    0.000;    0.000
279.002; 2421.300;    0.000;    0.000
279.067; 3318.300;    0.000;    0.000
279.133; 3561.300;    0.000;    0.000
279.199; 3232.300;    0.000;    0.000
279.264; 3281.300;    0.000;    0.000
279.330; 3859.300;    0.000;    0.000
279.395; 4837.300;    0.000;    0.000
279.461; 6691.300;    0.000;    0.000
279.527; 8126.300;    0.000;    0.000
279.592; 7953.300;    0.000;    0.000
279.658; 6598.300;    0.000;    0.000
279.723; 5683.300;    0.000;    0.000
279.789; 5642.300;    0.000;    0.000
279.854; 5487.300;    0.000;    0.000
279.920; 4509.300;    0.000;    0.000
279.985; 3955.300;    0.000;    0.000
280.051; 3912.300;    0.000;    0.000
280.116; 4437.300;    0.000;    0.000
280.182; 5980.300;    0.000;    0.000
280.247; 7763.300;    0.000;    0.000
280.313; 7146.300;    0.000;    0.000
280.378; 5034.300;    0.000;    0.000
280.444; 3603.300;    0.000;    0.000
280.509; 2910.300;    0.000;    0.000
280.574; 2460.300;    0.000;    0.000
280.640; 2181.300;    0.000;    0.000
280.705; 1883.300;    0.000;    0.000
280.771; 1746.300;    0.000;    0.000
280.836; 1589.300;    0.000;    0.000
280.902; 1506.300;    0.000;    0.000
280.967; 1433.300;    0.000;    0.000
281.032; 1324.300;    0.000;    0.000
281.098; 1281.300;    0.000;    0.000
281.163; 1197.300;    0.000;    0.000
281.229; 1231.300;    0.000;    0.000
281.294; 1101.300;    0.000;    0.000
281.359; 1114.300;    0.000;    0.000
281.425; 1117.300;    0.000;    0.000
281.490;  951.300;    0.000;    0.000
281.555; 1012.300;    0.000;    0.000
281.621;  915.300;    0.000;    0.000
281.686;  919.300;    0.000;    0.000
281.751;  959.300;    0.000;    0.000
281.816;  926.300;    0.000;    0.000
281.882;  868.300;    0.000;    0.000
281.947;  852.300;    0.000;    0.000
282.012;  830.300;    0.000;    0.000
282.078;  834.300;    0.000;    0.000
282.143;  829.300;    0.000;    0.000
282.208;  874.300;    0.000;    0.000
282.273;  860.300;    0.000;    0.000
282.339;  773.300;    0.000;    0.000
282.404;  815.300;    0.000;    0.000
282.469;  757.300;    0.000;    0.000
282.534;  751.300;    0.000;    0.000
282.600;  804.300;    0.000;    0.000
282.665;  791.300;    0.000;    0.000
282.730;  688.300;    0.000;    0.000
282.795;  731.300;    0.000;    0.000
282.860;  730.300;    0.000;    0.000
282.926;  706.300;    0.000;    0.000
282.991;  694.300;    0.000;    0.000
283.056;  674.300;    0.000;    0.000
283.121;  716.300;    0.000;    0.000
283.186;  739.300;    0.000;    0.000
283.251;  633.300;    0.000;    0.000
283.316;  691.300;    0.000;    0.000
283.382;  723.300;    0.000;    0.000
283.447;  724.300;    0.000;    0.000
283.512;  682.300;    0.000;    0.000
283.577;  665.300;    0.000;    0.000
283.642;  672.300;    0.000;    0.000
283.707;  622.300;    0.000;    0.000
283.772;  668.300;    0.000;    0.000
283.837;  673.300;    0.000;    0.000
283.902;  645.300;    0.000;    0.000
283.967;  690.300;    0.000;    0.000
284.032;  647.300;    0.000;    0.000
284.097;  746.300;    0.000;    0.000
284.163;  675.300;    0.000;    0.000
284.228;  659.300;    0.000;    0.000
284.293;  681.300;    0.000;    0.000
284.358;  714.300;    0.000;    0.000
284.423;  689.300;    0.000;    0.000
284.488;  708.300;    0.000;    0.000
284.553;  750.300;    0.000;    0.000
284.618;  733.300;    0.000;    0.000
284.683;  707.300;    0.000;    0.000
284.748;  707.300;    0.000;    0.000
284.812;  848.300;    0.000;    0.000
284.877;  861.300;    0.000;    0.000
284.942;  953.300;    0.000;    0.000
285.007; 1150.300;    0.000;    0.000
285.072; 1488.300;    0.000;    0.000
285.137; 2292.300;    0.000;    0.000
285.202; 3297.300;    0.000;    0.000
285.267; 3273.300;    0.000;    0.000
285.332; 2135.300;    0.000;    0.000
285.397; 1502.300;    0.000;    0.000
285.462; 1190.300;    0.000;    0.000
285.527; 1067.300;    0.000;    0.000
285.591;  961.300;    0.000;    0.000
285.656;  860.300;    0.000;    0.000
285.721;  815.300;    0.000;    0.000
285.786;  769.300;    0.000;    0.000
285.851;  714.300;    0.000;    0.000
285.916;  805.300;    0.000;    0.000
285.981;  732.300;    0.000;    0.000
286.045;  724.300;    0.000;    0.000
286.110;  743.300;    0.000;    0.000
286.175;  709.300;    0.000;    0.000
286.240;  697.300;    0.000;    0.000
286.305;  710.300;    0.000;    0.000
286.369;  694.300;    0.000;    0.000
286.434;  734.300;    0.000;    0.000
286.499;  733.300;    0.000;    0.000
286.564;  649.300;    0.000;    0.000
286.628;  635.300;    0.000;    0.000
286.693;  649.300;    0.000;    0.000
286.758;  683.300;    0.000;    0.000
286.823;  719.300;    0.000;    0.000
286.887;  615.300;    0.000;    0.000
286.952;  680.300;    0.000;    0.000
287.017;  691.300;    0.000;    0.000
287.082;  638.300;    0.000;    0.000
287.146;  684.300;    0.000;    0.000
287.211;  656.300;    0.000;    0.000
287.276;  658.300;    0.000;    0.000
287.340;  602.300;    0.000;    0.000
287.405;  653.300;    0.000;    0.000
287.470;  586.300;    0.000;    0.000
287.534;  682.300;    0.000;    0.000
287.599;  625.300;    0.000;    0.000
287.663;  617.300;    0.000;    0.000
287.728;  629.300;    0.000;    0.000
287.793;  659.300;    0.000;    0.000
287.857;  635.300;    0.000;    0.000
287.922;  607.300;    0.000;    0.000
287.987;  631.300;    0.000;    0.000
288.051;  665.300;    0.000;    0.000
288.116;  644.300;    0.000;    0.000
288.180;  694.300;    0.000;    0.000
288.245;  632.300;    0.000;    0.000
288.309;  670.300;    0.000;    0.000
288.374;  615.300;    0.000;    0.000
288.439;  620.300;    0.000;    0.000
288.503;  625.300;    0.000;    0.000
288.568;  648.300;    0.000;    0.000
288.632;  683.300;    0.000;    0.000
288.697;  708.300;    0.000;    0.000
288.761;  642.300;    0.000;    0.000
288.826;  577.300;    0.000;    0.000
288.890;  612.300;    0.000;    0.000
288.955;  680.300;    0.000;    0.000
289.019;  652.300;    0.000;    0.000
289.084;  659.300;    0.000;    0.000
289.148;  635.300;    0.000;    0.000
289.212;  622.300;    0.000;    0.000
289.277;  678.300;    0.000;    0.000
289.341;  662.300;    0.000;    0.000
289.406;  620.300;    0.000;    0.000
289.470;  574.300;    0.000;    0.000
289.535;  675.300;    0.000;    0.000
289.599;  645.300;    0.000;    0.000
289.663;  641.300;    0.000;    0.000
289.728;  630.300;    0.000;    0.000
289.792;  685.300;    0.000;    0.000
289.857;  700.300;    0.000;    0.000
289.921;  619.300;    0.000;    0.000
289.985;  651.300;    0.000;    0.000
290.050;  627.300;    0.000;    0.000
290.114;  605.300;    0.000;    0.000
290.178;  630.300;    0.000;    0.000
290.243;  626.300;    0.000;    0.000
290.307;  664.300;    0.000;    0.000
290.371;  650.300;    0.000;    0.000
290.436;  649.300;    0.000;    0.000
290.500;  607.300;    0.000;    0.000
290.564;  691.300;    0.000;    0.000
290.629;  642.300;    0.000;    0.000
290.693;  621.300;    0.000;    0.000
290.757;  689.300;    0.000;    0.000
290.821;  666.300;    0.000;    0.000
290.886;  604.300;    0.000;    0.000
290.950;  641.300;    0.000;    0.000
291.014;  665.300;    0.000;    0.000
291.078;  667.300;    0.000;    0.000
291.143;  693.300;    0.000;    0.000
291.207;  692.300;    0.000;    0.000
291.271;  657.300;    0.000;    0.000
291.335;  649.300;    0.000;    0.000
291.399;  686.300;    0.000;    0.000
291.464;  655.300;    0.000;    0.000
291.528;  742.300;    0.000;    0.000
291.592;  777.300;    0.000;    0.000
291.656;  737.300;    0.000;    0.000
291.720;  705.300;    0.000;    0.000
291.784;  676.300;    0.000;    0.000
291.849;  679.300;    0.000;    0.000
291.913;  691.300;    0.000;    0.000
291.977;  705.300;    0.000;    0.000
292.041;  723.300;    0.000;    0.000
292.105;  750.300;    0.000;    0.000
292.169;  690.300;    0.000;    0.000
292.233;  692.300;    0.000;    0.000
292.297;  729.300;    0.000;    0.000
292.361;  728.300;    0.000;    0.000
292.425;  723.300;    0.000;    0.000
292.490;  775.300;    0.000;    0.000
292.554;  732.300;    0.000;    0.000
292.618;  785.300;    0.000;    0.000
292.682;  806.300;    0.000;    0.000
292.746;  880.300;    0.000;    0.000
292.810;  950.300;    0.000;    0.000
292.874; 1066.300;    0.000;    0.000
292.938; 1199.300;    0.000;    0.000
293.002; 1163.300;    0.000;    0.000
293.066; 1054.300;    0.000;    0.000
293.130; 1051.300;    0.000;    0.000
293.194;  985.300;    0.000;    0.000
293.258; 1030.300;    0.000;    0.000
293.322;  958.300;    0.000;    0.000
293.386; 1037.300;    0.000;    0.000
293.450; 1024.300;    0.000;    0.000
293.514; 1125.300;    0.000;    0.000
293.577; 1187.300;    0.000;    0.000
293.641; 1527.300;    0.000;    0.000
293.705; 1719.300;    0.000;    0.000
293.769; 1662.300;    0.000;    0.000
293.833; 1475.300;    0.000;    0.000
293.897; 1398.300;    0.000;    0.000
293.961; 1304.300;    0.000;    0.000
294.025; 1190.300;    0.000;    0.000
294.089; 1153.300;    0.000;    0.000
294.152; 1128.300;    0.000;    0.000
294.216; 1039.300;    0.000;    0.000
294.280; 1020.300;    0.000;    0.000
294.344;  971.300;    0.000;    0.000
294.408;  957.300;    0.000;    0.000
294.472;  948.300;    0.000;    0.000
294.536;  900.300;    0.000;    0.000
294.599;  934.300;    0.000;    0.000
294.663;  900.300;    0.000;    0.000
294.727;  913.300;    0.000;    0.000
294.791;  900.300;    0.000;    0.000
294.855;  822.300;    0.000;    0.000
294.918;  843.300;    0.000;    0.000
294.982;  902.300;    0.000;    0.000
295.046;  803.300;    0.000;    0.000
295.110;  822.300;    0.000;    0.000
295.173;  849.300;    0.000;    0.000
295.237;  816.300;    0.000;    0.000
295.301;  821.300;    0.000;    0.000
295.364;  838.300;    0.000;    0.000
295.428;  825.300;    0.000;    0.000
295.492;  823.300;    0.000;    0.000
295.556;  816.300;    0.000;    0.000
295.619;  817.300;    0.000;    0.000
295.683;  805.300;    0.000;    0.000
295.747;  779.300;    0.000;    0.000
295.810;  766.300;    0.000;    0.000
295.874;  768.300;    0.000;    0.000
295.938;  723.300;    0.000;    0.000
296.001;  795.300;    0.000;    0.000
296.065;  756.300;    0.000;    0.000
296.128;  765.300;    0.000;    0.000
296.192;  782.300;    0.000;    0.000
296.256;  798.300;    0.000;    0.000
296.319;  722.300;    0.000;    0.000
296.383;  782.300;    0.000;    0.000
296.447;  777.300;    0.000;    0.000
296.510;  749.300;    0.000;    0.000
296.574;  739.300;    0.000;    0.000
296.637;  775.300;    0.000;    0.000
296.701;  787.300;    0.000;    0.000
296.764;  735.300;    0.000;    0.000
296.828;  801.300;    0.000;    0.000
296.891;  762.300;    0.000;    0.000
296.955;  766.300;    0.000;    0.000
297.018;  776.300;    0.000;    0.000
297.082;  778.300;    0.000;    0.000
297.145;  747.300;    0.000;    0.000
297.209;  767.300;    0.000;    0.000
297.272;  729.300;    0.000;    0.000
297.336;  700.300;    0.000;    0.000
297.399;  793.300;    0.000;    0.000
297.463;  764.300;    0.000;    0.000
297.526;  726.300;    0.000;    0.000
297.590;  737.300;    0.000;    0.000
297.653;  766.300;    0.000;    0.000
297.717;  699.300;    0.000;    0.000
297.780;  700.300;    0.000;    0.000
297.843;  759.300;    0.000;    0.000
297.907;  727.300;    0.000;    0.000
297.970;  701.300;    0.000;    0.000
298.034;  698.300;    0.000;    0.000
298.097;  694.300;    0.000;    0.000
298.160;  740.300;    0.000;    0.000
298.224;  758.300;    0.000;    0.000
298.287;  741.300;    0.000;    0.000
298.350;  753.300;    0.000;    0.000
298.414;  793.300;    0.000;    0.000
298.477;  748.300;    0.000;    0.000
298.540;  697.300;    0.000;    0.000
298.604;  771.300;    0.000;    0.000
298.667;  771.300;    0.000;    0.000
298.730;  743.300;    0.000;    0.000
298.794;  718.300;    0.000;    0.000
298.857;  757.300;    0.000;    0.000
298.920;  738.300;    0.000;    0.000
298.984;  720.300;    0.000;    0.000
299.047;  798.300;    0.000;    0.000
299.110;  737.300;    0.000;    0.000
299.173;  773.300;    0.000;    0.000
299.237;  745.300;    0.000;    0.000
299.300;  772.300;    0.000;    0.000
299.363;  737.300;    0.000;    0.000
299.426;  701.300;    0.000;    0.000
299.489;  741.300;    0.000;    0.000
299.553;  745.300;    0.000;    0.000
299.616;  796.300;    0.000;    0.000
299.679;  743.300;    0.000;    0.000
299.742;  737.300;    0.000;    0.000
299.805;  719.300;    0.000;    0.000
299.868;  705.300;    0.000;    0.000
299.932;  752.300;    0.000;    0.000
299.995;  762.300;    0.000;    0.000
300.058;  759.300;    0.000;    0.000
300.121;  798.300;    0.000;    0.000
300.184;  757.300;    0.000;    0.000
300.247;  682.300;    0.000;    0.000
300.310;  733.300;    0.000;    0.000
300.374;  758.300;    0.000;    0.000
300.437;  719.300;    0.000;    0.000
300.500;  783.300;    0.000;    0.000
300.563;  777.300;    0.000;    0.000
300.626;  739.300;    0.000;    0.000
300.689;  765.300;    0.000;    0.000
300.752;  744.300;    0.000;    0.000
300.815;  744.300;    0.000;    0.000
300.878;  749.300;    0.000;    0.000
300.941;  728.300;    0.000;    0.000
301.004;  769.300;    0.000;    0.000
301.067;  722.300;    0.000;    0.000
301.130;  752.300;    0.000;    0.000
301.193;  723.300;    0.000;    0.000
301.256;  694.300;    0.000;    0.000
301.319;  797.300;    0.000;    0.000
301.382;  725.300;    0.000;    0.000
301.445;  754.300;    0.000;    0.000
301.508;  702.300;    0.000;    0.000
301.571;  699.300;    0.000;    0.000
301.634;  721.300;    0.000;    0.000
301.697;  739.300;    0.000;    0.000
301.760;  787.300;    0.000;    0.000
301.823;  757.300;    0.000;    0.000
301.885;  794.300;    0.000;    0.000
301.948;  747.300;    0.000;    0.000
302.011;  752.300;    0.000;    0.000
302.074;  782.300;    0.000;    0.000
302.137;  713.300;    0.000;    0.000
302.200;  819.300;    0.000;    0.000
302.263;  812.300;    0.000;    0.000
302.326;  756.300;    0.000;    0.000
302.388;  841.300;    0.000;    0.000
302.451;  695.300;    0.000;    0.000
302.514;  764.300;    0.000;    0.000
302.577;  770.300;    0.000;    0.000
302.640;  784.300;    0.000;    0.000
302.703;  785.300;    0.000;    0.000
302.765;  826.300;    0.000;    0.000
302.828;  808.300;    0.000;    0.000
302.891;  815.300;    0.000;    0.000
302.954;  830.300;    0.000;    0.000
303.016;  779.300;    0.000;    0.000
303.079;  801.300;    0.000;    0.000
303.142;  816.300;    0.000;    0.000
303.205;  856.300;    0.000;    0.000
303.267;  801.300;    0.000;    0.000
303.330;  836.300;    0.000;    0.000
303.393;  813.300;    0.000;    0.000
303.456;  872.300;    0.000;    0.000
303.518;  854.300;    0.000;    0.000
303.581;  867.300;    0.000;    0.000
303.644;  842.300;    0.000;    0.000
303.706;  833.300;    0.000;    0.000
303.769;  902.300;    0.000;    0.000
303.832;  827.300;    0.000;    0.000
303.894;  864.300;    0.000;    0.000
303.957;  867.300;    0.000;    0.000
304.020;  855.300;    0.000;    0.000
304.082;  825.300;    0.000;    0.000
304.145;  948.300;    0.000;    0.000
304.207;  828.300;    0.000;    0.000
304.270;  878.300;    0.000;    0.000
304.333;  900.300;    0.000;    0.000
304.395;  907.300;    0.000;    0.000
304.458;  902.300;    0.000;    0.000
304.520;  922.300;    0.000;    0.000
304.583;  919.300;    0.000;    0.000
304.646;  828.300;    0.000;    0.000
304.708;  876.300;    0.000;    0.000
304.771;  889.300;    0.000;    0.000
304.833;  933.300;    0.000;    0.000
304.896;  910.300;    0.000;    0.000
304.958;  946.300;    0.000;    0.000
305.021;  902.300;    0.000;    0.000
305.083;  891.300;    0.000;    0.000
305.146;  953.300;    0.000;    0.000
305.208;  953.300;    0.000;    0.000
305.271;  961.300;    0.000;    0.000
305.333; 1049.300;    0.000;    0.000
305.396; 1004.300;    0.000;    0.000
305.458;  953.300;    0.000;    0.000
305.520;  931.300;    0.000;    0.000
305.583;  975.300;    0.000;    0.000
305.645;  975.300;    0.000;    0.000
305.708;  984.300;    0.000;    0.000
305.770; 1003.300;    0.000;    0.000
305.833; 1004.300;    0.000;    0.000
305.895;  978.300;    0.000;    0.000
305.957;  960.300;    0.000;    0.000
306.020;  942.300;    0.000;    0.000
306.082;  962.300;    0.000;    0.000
306.144;  954.300;    0.000;    0.000
306.207;  945.300;    0.000;    0.000
306.269;  994.300;    0.000;    0.000
306.331;  895.300;    0.000;    0.000
306.394;  995.300;    0.000;    0.000
306.456;  953.300;    0.000;    0.000
306.518;  983.300;    0.000;    0.000
306.581;  991.300;    0.000;    0.000
306.643; 1030.300;    0.000;    0.000
306.705; 1032.300;    0.000;    0.000
306.768; 1005.300;    0.000;    0.000
306.830; 1028.300;    0.000;    0.000
306.892; 1050.300;    0.000;    0.000
306.954; 1027.300;    0.000;    0.000
307.017; 1058.300;    0.000;    0.000
307.079; 1075.300;    0.000;    0.000
307.141; 1072.300;    0.000;    0.000
307.203;  999.300;    0.000;    0.000
307.266; 1074.300;    0.000;    0.000
307.328; 1067.300;    0.000;    0.000
307.390; 1090.300;    0.000;    0.000
307.452; 1068.300;    0.000;    0.000
307.514; 1034.300;    0.000;    0.000
307.577; 1083.300;    0.000;    0.000
307.639; 1088.300;    0.000;    0.000
307.701; 1045.300;    0.000;    0.000
307.763; 1070.300;    0.000;    0.000
307.825; 1087.300;    0.000;    0.000
307.887; 1092.300;    0.000;    0.000
307.949; 1060.300;    0.000;    0.000
308.012; 1123.300;    0.000;    0.000
308.074; 1123.300;    0.000;    0.000
308.136; 1106.300;    0.000;    0.000
308.198; 1090.300;    0.000;    0.000
308.260; 1170.300;    0.000;    0.000
308.322; 1122.300;    0.000;    0.000
308.384; 1238.300;    0.000;    0.000
308.446; 1181.300;    0.000;    0.000
308.508; 1135.300;    0.000;    0.000
308.570; 1173.300;    0.000;    0.000
308.632; 1193.300;    0.000;    0.000
308.694; 1135.300;    0.000;    0.000
308.756; 1105.300;    0.000;    0.000
308.818; 1222.300;    0.000;    0.000
308.880; 1209.300;    0.000;    0.000
308.942; 1221.300;    0.000;    0.000
309.004; 1220.300;    0.000;    0.000
309.066; 1207.300;    0.000;    0.000
309.128; 1205.300;    0.000;    0.000
309.190; 1243.300;    0.000;    0.000
309.252; 1245.300;    0.000;    0.000
309.314; 1334.300;    0.000;    0.000
309.376; 1300.300;    0.000;    0.000
309.438; 1303.300;    0.000;    0.000
309.500; 1330.300;    0.000;    0.000
309.562; 1313.300;    0.000;    0.000
309.624; 1249.300;    0.000;    0.000
309.686; 1368.300;    0.000;    0.000
309.747; 1332.300;    0.000;    0.000
309.809; 1299.300;    0.000;    0.000
309.871; 1345.300;    0.000;    0.000
309.933; 1291.300;    0.000;    0.000
309.995; 1248.300;    0.000;    0.000
310.057; 1304.300;    0.000;    0.000
310.119; 1248.300;    0.000;    0.000
310.180; 1255.300;    0.000;    0.000
310.242; 1262.300;    0.000;    0.000
310.304; 1272.300;    0.000;    0.000
310.366; 1226.300;    0.000;    0.000
310.428; 1206.300;    0.000;    0.000
310.489; 1216.300;    0.000;    0.000
310.551; 1219.300;    0.000;    0.000
310.613; 1230.300;    0.000;    0.000
310.675; 1287.300;    0.000;    0.000
310.737; 1227.300;    0.000;    0.000
310.798; 1218.300;    0.000;    0.000
310.860; 1248.300;    0.000;    0.000
310.922; 1161.300;    0.000;    0.000
310.983; 1194.300;    0.000;    0.000
311.045; 1174.300;    0.000;    0.000
311.107; 1185.300;    0.000;    0.000
311.169; 1166.300;    0.000;    0.000
311.230; 1181.300;    0.000;    0.000
311.292; 1211.300;    0.000;    0.000
311.354; 1215.300;    0.000;    0.000
311.415; 1245.300;    0.000;    0.000
311.477; 1219.300;    0.000;    0.000
311.539; 1291.300;    0.000;    0.000
311.600; 1198.300;    0.000;    0.000
311.662; 1276.300;    0.000;    0.000
311.724; 1209.300;    0.000;    0.000
311.785; 1276.300;    0.000;    0.000
311.847; 1200.300;    0.000;    0.000
311.908; 1165.300;    0.000;    0.000
311.970; 1208.300;    0.000;    0.000
312.032; 1215.300;    0.000;    0.000
312.093; 1300.300;    0.000;    0.000
312.155; 1192.300;    0.000;    0.000
312.216; 1211.300;    0.000;    0.000
312.278; 1230.300;    0.000;    0.000
312.339; 1292.300;    0.000;    0.000
312.401; 1250.300;    0.000;    0.000
312.462; 1204.300;    0.000;    0.000
312.524; 1188.300;    0.000;    0.000
312.585; 1255.300;    0.000;    0.000
312.647; 1218.300;    0.000;    0.000
312.708; 1309.300;    0.000;    0.000
312.770; 1340.300;    0.000;    0.000
312.831; 1268.300;    0.000;    0.000
312.893; 1220.300;    0.000;    0.000
312.954; 1283.300;    0.000;    0.000
313.016; 1243.300;    0.000;    0.000
313.077; 1186.300;    0.000;    0.000
313.139; 1194.300;    0.000;    0.000
313.200; 1248.300;    0.000;    0.000
313.261; 1356.300;    0.000;    0.000
313.323; 1292.300;    0.000;    0.000
313.384; 1319.300;    0.000;    0.000
313.446; 1369.300;    0.000;    0.000
313.507; 1332.300;    0.000;    0.000
313.568; 1384.300;    0.000;    0.000
313.630; 1238.300;    0.000;    0.000
313.691; 1300.300;    0.000;    0.000
313.752; 1361.300;    0.000;    0.000
313.814; 1294.300;    0.000;    0.000
313.875; 1340.300;    0.000;    0.000
313.936; 1305.300;    0.000;    0.000
313.998; 1338.300;    0.000;    0.000
314.059; 1369.300;    0.000;    0.000
314.120; 1295.300;    0.000;    0.000
314.182; 1362.300;    0.000;    0.000
314.243; 1309.300;    0.000;    0.000
314.304; 1335.300;    0.000;    0.000
314.365; 1379.300;    0.000;    0.000
314.427; 1366.300;    0.000;    0.000
314.488; 1317.300;    0.000;    0.000
314.549; 1375.300;    0.000;    0.000
314.610; 1382.300;    0.000;    0.000
314.672; 1358.300;    0.000;    0.000
314.733; 1299.300;    0.000;    0.000
314.794; 1317.300;    0.000;    0.000
314.855; 1324.300;    0.000;    0.000
314.917; 1367.300;    0.000;    0.000
314.978; 1311.300;    0.000;    0.000
315.039; 1308.300;    0.000;    0.000
315.100; 1345.300;    0.000;    0.000
315.161; 1360.300;    0.000;    0.000
315.222; 1376.300;    0.000;    0.000
315.283; 1380.300;    0.000;    0.000
315.345; 1324.300;    0.000;    0.000
315.406; 1389.300;    0.000;    0.000
315.467; 1270.300;    0.000;    0.000
315.528; 1368.300;    0.000;    0.000
315.589; 1312.300;    0.000;    0.000
315.650; 1360.300;    0.000;    0.000
315.711; 1353.300;    0.000;    0.000
315.772; 1343.300;    0.000;    0.000
315.833; 1314.300;    0.000;    0.000
315.894; 1284.300;    0.000;    0.000
315.955; 1404.300;    0.000;    0.000
316.016; 1423.300;    0.000;    0.000
316.078; 1352.300;    0.000;    0.000
316.139; 1427.300;    0.000;    0.000
316.200; 1266.300;    0.000;    0.000
316.261; 1380.300;    0.000;    0.000
316.322; 1338.300;    0.000;    0.000
316.383; 1380.300;    0.000;    0.000
316.444; 1318.300;    0.000;    0.000
316.504; 1411.300;    0.000;    0.000
316.565; 1360.300;    0.000;    0.000
316.626; 1337.300;    0.000;    0.000
316.687; 1432.300;    0.000;    0.000
316.748; 1381.300;    0.000;    0.000
316.809; 1410.300;    0.000;    0.000
316.870; 1424.300;    0.000;    0.000
316.931; 1485.300;    0.000;    0.000
316.992; 1486.300;    0.000;    0.000
317.053; 1457.300;    0.000;    0.000
317.114; 1519.300;    0.000;    0.000
317.175; 1562.300;    0.000;    0.000
317.235; 1429.300;    0.000;    0.000
317.296; 1507.300;    0.000;    0.000
317.357; 1457.300;    0.000;    0.000
317.418; 1476.300;    0.000;    0.000
317.479; 1511.300;    0.000;    0.000
317.540; 1381.300;    0.000;    0.000
317.601; 1492.300;    0.000;    0.000
317.661; 1405.300;    0.000;    0.000
317.722; 1466.300;    0.000;    0.000
317.783; 1358.300;    0.000;    0.000
317.844; 1521.300;    0.000;    0.000
317.904; 1424.300;    0.000;    0.000
317.965; 1339.300;    0.000;    0.000
318.026; 1411.300;    0.000;    0.000
318.087; 1453.300;    0.000;    0.000
318.148; 1383.300;    0.000;    0.000
318.208; 1440.300;    0.000;    0.000
318.269; 1432.300;    0.000;    0.000
318.330; 1504.300;    0.000;    0.000
318.390; 1569.300;    0.000;    0.000
318.451; 1466.300;    0.000;    0.000
318.512; 1520.300;    0.000;    0.000
318.572; 1528.300;    0.000;    0.000
318.633; 1556.300;    0.000;    0.000
318.694; 1551.300;    0.000;    0.000
318.754; 1421.300;    0.000;    0.000
318.815; 1448.300;    0.000;    0.000
318.876; 1368.300;    0.000;    0.000
318.936; 1440.300;    0.000;    0.000
318.997; 1386.300;    0.000;    0.000
319.058; 1447.300;    0.000;    0.000
319.118; 1454.300;    0.000;    0.000
319.179; 1460.300;    0.000;    0.000
319.239; 1494.300;    0.000;    0.000
319.300; 1429.300;    0.000;    0.000
319.361; 1510.300;    0.000;    0.000
319.421; 1405.300;    0.000;    0.000
319.482; 1312.300;    0.000;    0.000
319.542; 1323.300;    0.000;    0.000
319.603; 1449.300;    0.000;    0.000
319.663; 1419.300;    0.000;    0.000
319.724; 1369.300;    0.000;    0.000
319.784; 1434.300;    0.000;    0.000
319.845; 1536.300;    0.000;    0.000
319.905; 1481.300;    0.000;    0.000
319.966; 1446.300;    0.000;    0.000
320.026; 1507.300;    0.000;    0.000
320.087; 1385.300;    0.000;    0.000
320.147; 1436.300;    0.000;    0.000
320.208; 1479.300;    0.000;    0.000
320.268; 1501.300;    0.000;    0.000
320.329; 1418.300;    0.000;    0.000
320.389; 1627.300;    0.000;    0.000
320.449; 1610.300;    0.000;    0.000
320.510; 1630.300;    0.000;    0.000
320.570; 1581.300;    0.000;    0.000
320.631; 1503.300;    0.000;    0.000
320.691; 1490.300;    0.000;    0.000
320.751; 1491.300;    0.000;    0.000
320.812; 1473.300;    0.000;    0.000
320.872; 1553.300;    0.000;    0.000
320.932; 1508.300;    0.000;    0.000
320.993; 1515.300;    0.000;    0.000
321.053; 1478.300;    0.000;    0.000
321.113; 1523.300;    0.000;    0.000
321.174; 1527.300;    0.000;    0.000
321.234; 1588.300;    0.000;    0.000
321.294; 1508.300;    0.000;    0.000
321.355; 1519.300;    0.000;    0.000
321.415; 1440.300;    0.000;    0.000
321.475; 1502.300;    0.000;    0.000
321.535; 1588.300;    0.000;    0.000
321.596; 1600.300;    0.000;    0.000
321.656; 1602.300;    0.000;    0.000
321.716; 1632.300;    0.000;    0.000
321.776; 1591.300;    0.000;    0.000
321.837; 1620.300;    0.000;    0.000
321.897; 1510.300;    0.000;    0.000
321.957; 1609.300;    0.000;    0.000
322.017; 1508.300;    0.000;    0.000
322.077; 1574.300;    0.000;    0.000
322.138; 1618.300;    0.000;    0.000
322.198; 1611.300;    0.000;    0.000
322.258; 1547.300;    0.000;    0.000
322.318; 1630.300;    0.000;    0.000
322.378; 1695.300;    0.000;    0.000
322.438; 1619.300;    0.000;    0.000
322.499; 1608.300;    0.000;    0.000
322.559; 1554.300;    0.000;    0.000
322.619; 1683.300;    0.000;    0.000
322.679; 1612.300;    0.000;    0.000
322.739; 1676.300;    0.000;    0.000
322.799; 1626.300;    0.000;    0.000
322.859; 1659.300;    0.000;    0.000
322.919; 1632.300;    0.000;    0.000
322.979; 1556.300;    0.000;    0.000
323.039; 1608.300;    0.000;    0.000
323.099; 1583.300;    0.000;    0.000
323.159; 1526.300;    0.000;    0.000
323.219; 1514.300;    0.000;    0.000
323.279; 1602.300;    0.000;    0.000
323.339; 1636.300;    0.000;    0.000
323.399; 1624.300;    0.000;    0.000
323.459; 1683.300;    0.000;    0.000
323.519; 1887.300;    0.000;    0.000
323.579; 1793.300;    0.000;    0.000
323.639; 1892.300;    0.000;    0.000
323.699; 1860.300;    0.000;    0.000
323.759; 1948.300;    0.000;    0.000
323.819; 1902.300;    0.000;    0.000
323.879; 1837.300;    0.000;    0.000
323.939; 1756.300;    0.000;    0.000
323.999; 1792.300;    0.000;    0.000
324.059; 1682.300;    0.000;    0.000
324.119; 1721.300;    0.000;    0.000
324.178; 1711.300;    0.000;    0.000
324.238; 1652.300;    0.000;    0.000
324.298; 1718.300;    0.000;    0.000
324.358; 1675.300;    0.000;    0.000
324.418; 1695.300;    0.000;    0.000
324.478; 1658.300;    0.000;    0.000
324.538; 1738.300;    0.000;    0.000
324.597; 1733.300;    0.000;    0.000
324.657; 1794.300;    0.000;    0.000
324.717; 1730.300;    0.000;    0.000
324.777; 1665.300;    0.000;    0.000
324.837; 1687.300;    0.000;    0.000
324.896; 1681.300;    0.000;    0.000
324.956; 1675.300;    0.000;    0.000
325.016; 1607.300;    0.000;    0.000
325.076; 1677.300;    0.000;    0.000
325.135; 1614.300;    0.000;    0.000
325.195; 1649.300;    0.000;    0.000
325.255; 1636.300;    0.000;    0.000
325.315; 1702.300;    0.000;    0.000
325.374; 1643.300;    0.000;    0.000
325.434; 1653.300;    0.000;    0.000
325.494; 1663.300;    0.000;    0.000
325.553; 1678.300;    0.000;    0.000
325.613; 1679.300;    0.000;    0.000
325.673; 1628.300;    0.000;    0.000
325.732; 1619.300;    0.000;    0.000
325.792; 1588.300;    0.000;    0.000
325.852; 1649.300;    0.000;    0.000
325.911; 1626.300;    0.000;    0.000
325.971; 1684.300;    0.000;    0.000
326.031; 1712.300;    0.000;    0.000
326.090; 1660.300;    0.000;    0.000
326.150; 1669.300;    0.000;    0.000
326.209; 1723.300;    0.000;    0.000
326.269; 1714.300;    0.000;    0.000
326.328; 1804.300;    0.000;    0.000
326.388; 1748.300;    0.000;    0.000
326.448; 1773.300;    0.000;    0.000
326.507; 1718.300;    0.000;    0.000
326.567; 1773.300;    0.000;    0.000
326.626; 1784.300;    0.000;    0.000
326.686; 1634.300;    0.000;    0.000
326.745; 1629.300;    0.000;    0.000
326.805; 1713.300;    0.000;    0.000
326.864; 1717.300;    0.000;    0.000
326.924; 1742.300;    0.000;    0.000
326.983; 1647.300;    0.000;    0.000
327.043; 1653.300;    0.000;    0.000
327.102; 1695.300;    0.000;    0.000
327.161; 1573.300;    0.000;    0.000
327.221; 1693.300;    0.000;    0.000
327.280; 1696.300;    0.000;    0.000
327.340; 1657.300;    0.000;    0.000
327.399; 1690.300;    0.000;    0.000
327.459; 1745.300;    0.000;    0.000
327.518; 1719.300;    0.000;    0.000
327.577; 1718.300;    0.000;    0.000
327.637; 1685.300;    0.000;    0.000
327.696; 1623.300;    0.000;    0.000
327.755; 1735.300;    0.000;    0.000
327.815; 1730.300;    0.000;    0.000
327.874; 1817.300;    0.000;    0.000
327.933; 1725.300;    0.000;    0.000
327.993; 1788.300;    0.000;    0.000
328.052; 1704.300;    0.000;    0.000
328.111; 1733.300;    0.000;    0.000
328.171; 1723.300;    0.000;    0.000
328.230; 1691.300;    0.000;    0.000
328.289; 1654.300;    0.000;    0.000
328.349; 1760.300;    0.000;    0.000
328.408; 1757.300;    0.000;    0.000
328.467; 1778.300;    0.000;    0.000
328.526; 1736.300;    0.000;    0.000
328.586; 1771.300;    0.000;    0.000
328.645; 1804.300;    0.000;    0.000
328.704; 1687.300;    0.000;    0.000
328.763; 1721.300;    0.000;    0.000
328.822; 1730.300;    0.000;    0.000
328.882; 1768.300;    0.000;    0.000
328.941; 1832.300;    0.000;    0.000
329.000; 1720.300;    0.000;    0.000
329.059; 1741.300;    0.000;    0.000
329.118; 1763.300;    0.000;    0.000
329.177; 1866.300;    0.000;    0.000
329.237; 1886.300;    0.000;    0.000
329.296; 1930.300;    0.000;    0.000
329.355; 1837.300;    0.000;    0.000
329.414; 1744.300;    0.000;    0.000
329.473; 1871.300;    0.000;    0.000
329.532; 1719.300;    0.000;    0.000
329.591; 1751.300;    0.000;    0.000
329.650; 1823.300;    0.000;    0.000
329.709; 1910.300;    0.000;    0.000
329.768; 2020.300;    0.000;    0.000
329.827; 2128.300;    0.000;    0.000
329.886; 2294.300;    0.000;    0.000
329.945; 2374.300;    0.000;    0.000
330.004; 2327.300;    0.000;    0.000
330.063; 2398.300;    0.000;    0.000
330.122; 2554.300;    0.000;    0.000
330.181; 2723.300;    0.000;    0.000
330.240; 2833.300;    0.000;    0.000
330.299; 2562.300;    0.000;    0.000
330.358; 2353.300;    0.000;    0.000
330.417; 2167.300;    0.000;    0.000
330.476; 2174.300;    0.000;    0.000
330.535; 2055.300;    0.000;    0.000
330.594; 2105.300;    0.000;    0.000
330.653; 1931.300;    0.000;    0.000
330.712; 1858.300;    0.000;    0.000
330.771; 1877.300;    0.000;    0.000
330.830; 1946.300;    0.000;    0.000
330.889; 1931.300;    0.000;    0.000
330.948; 1940.300;    0.000;    0.000
331.006; 1949.300;    0.000;    0.000
331.065; 1947.300;    0.000;    0.000
331.124; 1931.300;    0.000;    0.000
331.183; 1816.300;    0.000;    0.000
331.242; 1786.300;    0.000;    0.000
331.301; 1787.300;    0.000;    0.000
331.359; 1832.300;    0.000;    0.000
331.418; 1744.300;    0.000;    0.000
331.477; 1776.300;    0.000;    0.000
331.536; 1807.300;    0.000;    0.000
331.595; 1772.300;    0.000;    0.000
331.653; 1794.300;    0.000;    0.000
331.712; 1774.300;    0.000;    0.000
331.771; 1804.300;    0.000;    0.000
331.830; 1850.300;    0.000;    0.000
331.888; 1714.300;    0.000;    0.000
331.947; 1773.300;    0.000;    0.000
332.006; 1701.300;    0.000;    0.000
332.065; 1700.300;    0.000;    0.000
332.123; 1733.300;    0.000;    0.000
332.182; 1833.300;    0.000;    0.000
332.241; 1833.300;    0.000;    0.000
332.299; 1823.300;    0.000;    0.000
332.358; 1940.300;    0.000;    0.000
332.417; 1855.300;    0.000;    0.000
332.475; 1761.300;    0.000;    0.000
332.534; 1789.300;    0.000;    0.000
332.592; 1836.300;    0.000;    0.000
332.651; 1804.300;    0.000;    0.000
332.710; 1726.300;    0.000;    0.000
332.768; 1771.300;    0.000;    0.000
332.827; 1627.300;    0.000;    0.000
332.885; 1724.300;    0.000;    0.000
332.944; 1726.300;    0.000;    0.000
333.003; 1749.300;    0.000;    0.000
333.061; 1768.300;    0.000;    0.000
333.120; 1820.300;    0.000;    0.000
333.178; 2004.300;    0.000;    0.000
333.237; 1981.300;    0.000;    0.000
333.295; 2043.300;    0.000;    0.000
333.354; 1982.300;    0.000;    0.000
333.412; 2012.300;    0.000;    0.000
333.471; 1984.300;    0.000;    0.000
333.529; 2053.300;    0.000;    0.000
333.588; 1990.300;    0.000;    0.000
333.646; 2069.300;    0.000;    0.000
333.705; 2118.300;    0.000;    0.000
333.763; 2110.300;    0.000;    0.000
333.822; 2113.300;    0.000;    0.000
333.880; 2043.300;    0.000;    0.000
333.938; 2069.300;    0.000;    0.000
333.997; 2147.300;    0.000;    0.000
334.055; 2155.300;    0.000;    0.000
334.114; 2083.300;    0.000;    0.000
334.172; 1974.300;    0.000;    0.000
334.230; 1977.300;    0.000;    0.000
334.289; 1994.300;    0.000;    0.000
334.347; 2024.300;    0.000;    0.000
334.405; 2066.300;    0.000;    0.000
334.464; 2057.300;    0.000;    0.000
334.522; 1997.300;    0.000;    0.000
334.580; 1935.300;    0.000;    0.000
334.639; 1886.300;    0.000;    0.000
334.697; 1953.300;    0.000;    0.000
334.755; 1959.300;    0.000;    0.000
334.814; 1919.300;    0.000;    0.000
334.872; 1850.300;    0.000;    0.000
334.930; 1909.300;    0.000;    0.000
334.988; 1931.300;    0.000;    0.000
335.047; 1956.300;    0.000;    0.000
335.105; 1944.300;    0.000;    0.000
335.163; 2065.300;    0.000;    0.000
335.221; 2079.300;    0.000;    0.000
335.280; 1994.300;    0.000;    0.000
335.338; 2016.300;    0.000;    0.000
335.396; 1922.300;    0.000;    0.000
335.454; 1849.300;    0.000;    0.000
335.512; 1878.300;    0.000;    0.000
335.570; 1965.300;    0.000;    0.000
335.629; 2042.300;    0.000;    0.000
335.687; 2071.300;    0.000;    0.000
335.745; 2147.300;    0.000;    0.000
335.803; 2201.300;    0.000;    0.000
335.861; 2245.300;    0.000;    0.000
335.919; 2183.300;    0.000;    0.000
335.977; 2196.300;    0.000;    0.000
336.035; 2180.300;    0.000;    0.000
336.094; 2193.300;    0.000;    0.000
336.152; 2219.300;    0.000;    0.000
336.210; 2210.300;    0.000;    0.000
336.268; 2300.300;    0.000;    0.000
336.326; 2274.300;    0.000;    0.000
336.384; 2241.300;    0.000;    0.000
336.442; 2238.300;    0.000;    0.000
336.500; 2207.300;    0.000;    0.000
336.558; 2166.300;    0.000;    0.000
336.616; 2181.300;    0.000;    0.000
336.674; 2133.300;    0.000;    0.000
336.732; 2179.300;    0.000;    0.000
336.790; 2190.300;    0.000;    0.000
336.848; 2175.300;    0.000;    0.000
336.906; 2159.300;    0.000;    0.000
336.964; 2209.300;    0.000;    0.000
337.022; 2170.300;    0.000;    0.000
337.080; 2303.300;    0.000;    0.000
337.138; 2286.300;    0.000;    0.000
337.195; 2248.300;    0.000;    0.000
337.253; 2189.300;    0.000;    0.000
337.311; 2185.300;    0.000;    0.000
337.369; 2114.300;    0.000;    0.000
337.427; 2083.300;    0.000;    0.000
337.485; 2050.300;    0.000;    0.000
337.543; 2153.300;    0.000;    0.000
337.601; 2117.300;    0.000;    0.000
337.658; 2207.300;    0.000;    0.000
337.716; 2114.300;    0.000;    0.000
337.774; 2041.300;    0.000;    0.000
337.832; 2067.300;    0.000;    0.000
337.890; 2003.300;    0.000;    0.000
337.947; 1990.300;    0.000;    0.000
338.005; 1981.300;    0.000;    0.000
338.063; 1971.300;    0.000;    0.000
338.121; 1970.300;    0.000;    0.000
338.178; 2128.300;    0.000;    0.000
338.236; 2131.300;    0.000;    0.000
338.294; 2193.300;    0.000;    0.000
338.352; 2148.300;    0.000;    0.000
338.409; 2119.300;    0.000;    0.000
338.467; 2058.300;    0.000;    0.000
338.525; 1998.300;    0.000;    0.000
338.583; 1955.300;    0.000;    0.000
338.640; 2006.300;    0.000;    0.000
338.698; 2074.300;    0.000;    0.000
338.756; 2183.300;    0.000;    0.000
338.813; 2099.300;    0.000;    0.000
338.871; 2162.300;    0.000;    0.000
338.928; 2149.300;    0.000;    0.000
338.986; 2135.300;    0.000;    0.000
339.044; 2188.300;    0.000;    0.000
339.101; 2120.300;    0.000;    0.000
339.159; 2149.300;    0.000;    0.000
339.216; 2239.300;    0.000;    0.000
339.274; 2126.300;    0.000;    0.000
339.332; 2120.300;    0.000;    0.000
339.389; 2160.300;    0.000;    0.000
339.447; 2129.300;    0.000;    0.000
339.504; 2064.300;    0.000;    0.000
339.562; 2139.300;    0.000;    0.000
339.619; 2208.300;    0.000;    0.000
339.677; 2108.300;    0.000;    0.000
339.734; 2107.300;    0.000;    0.000
339.792; 2218.300;    0.000;    0.000
339.849; 2116.300;    0.000;    0.000
339.907; 2104.300;    0.000;    0.000
339.964; 2132.300;    0.000;    0.000
340.022; 2172.300;    0.000;    0.000
340.079; 2161.300;    0.000;    0.000
340.137; 2172.300;    0.000;    0.000
340.194; 2202.300;    0.000;    0.000
340.252; 2144.300;    0.000;    0.000
340.309; 2134.300;    0.000;    0.000
340.366; 2109.300;    0.000;    0.000
340.424; 2154.300;    0.000;    0.000
340.481; 2131.300;    0.000;    0.000
340.538; 2198.300;    0.000;    0.000
340.596; 2117.300;    0.000;    0.000
340.653; 2211.300;    0.000;    0.000
340.711; 2211.300;    0.000;    0.000
340.768; 2324.300;    0.000;    0.000
340.825; 2203.300;    0.000;    0.000
340.883; 2121.300;    0.000;    0.000
340.940; 2084.300;    0.000;    0.000
340.997; 2172.300;    0.000;    0.000
341.054; 2030.300;    0.000;    0.000
341.112; 2108.300;    0.000;    0.000
341.169; 2223.300;    0.000;    0.000
341.226; 2226.300;    0.000;    0.000
341.284; 2292.300;    0.000;    0.000
341.341; 2337.300;    0.000;    0.000
341.398; 2280.300;    0.000;    0.000
341.455; 2274.300;    0.000;    0.000
341.512; 2297.300;    0.000;    0.000
341.570; 2358.300;    0.000;    0.000
341.627; 2251.300;    0.000;    0.000
341.684; 2254.300;    0.000;    0.000
341.741; 2201.300;    0.000;    0.000
341.798; 2211.300;    0.000;    0.000
341.856; 2151.300;    0.000;    0.000
341.913; 2180.300;    0.000;    0.000
341.970; 2233.300;    0.000;    0.000
342.027; 2229.300;    0.000;    0.000
342.084; 2204.300;    0.000;    0.000
342.141; 2322.300;    0.000;    0.000
342.198; 2292.300;    0.000;    0.000
342.255; 2251.300;    0.000;    0.000
342.313; 2243.300;    0.000;    0.000
342.370; 2200.300;    0.000;    0.000
342.427; 2139.300;    0.000;    0.000
342.484; 2072.300;    0.000;    0.000
342.541; 2024.300;    0.000;    0.000
342.598; 2030.300;    0.000;    0.000
342.655; 2074.300;    0.000;    0.000
342.712; 2078.300;    0.000;    0.000
342.769; 2100.300;    0.000;    0.000
342.826; 2118.300;    0.000;    0.000
342.883; 2137.300;    0.000;    0.000
342.940; 2091.300;    0.000;    0.000
342.997; 2139.300;    0.000;    0.000
343.054; 2136.300;    0.000;    0.000
343.111; 2069.300;    0.000;    0.000
343.168; 2037.300;    0.000;    0.000
343.225; 2150.300;    0.000;    0.000
343.282; 2146.300;    0.000;    0.000
343.339; 2160.300;    0.000;    0.000
343.395; 2107.300;    0.000;    0.000
343.452; 2161.300;    0.000;    0.000
343.509; 2143.300;    0.000;    0.000
343.566; 2177.300;    0.000;    0.000
343.623; 2056.300;    0.000;    0.000
343.680; 2112.300;    0.000;    0.000
343.737; 2071.300;    0.000;    0.000
343.794; 2136.300;    0.000;    0.000
343.850; 2065.300;    0.000;    0.000
343.907; 1974.300;    0.000;    0.000
343.964; 2142.300;    0.000;    0.000
344.021; 2146.300;    0.000;    0.000
344.078; 2184.300;    0.000;    0.000
344.134; 2243.300;    0.000;    0.000
344.191; 2171.300;    0.000;    0.000
344.248; 2229.300;    0.000;    0.000
344.305; 2269.300;    0.000;    0.000
344.361; 2198.300;    0.000;    0.000
344.418; 2178.300;    0.000;    0.000
344.475; 2154.300;    0.000;    0.000
344.532; 2219.300;    0.000;    0.000
344.588; 2081.300;    0.000;    0.000
344.645; 2157.300;    0.000;    0.000
344.702; 2203.300;    0.000;    0.000
344.758; 2223.300;    0.000;    0.000
344.815; 2130.300;    0.000;    0.000
344.872; 2121.300;    0.000;    0.000
344.928; 2139.300;    0.000;    0.000
344.985; 2182.300;    0.000;    0.000
345.042; 2288.300;    0.000;    0.000
345.098; 2169.300;    0.000;    0.000
345.155; 2181.300;    0.000;    0.000
345.212; 2078.300;    0.000;    0.000
345.268; 2115.300;    0.000;    0.000
345.325; 2154.300;    0.000;    0.000
345.381; 2245.300;    0.000;    0.000
345.438; 2309.300;    0.000;    0.000
345.495; 2277.300;    0.000;    0.000
345.551; 2298.300;    0.000;    0.000
345.608; 2149.300;    0.000;    0.000
345.664; 2171.300;    0.000;    0.000
345.721; 2147.300;    0.000;    0.000
345.777; 1965.300;    0.000;    0.000
345.834; 2027.300;    0.000;    0.000
345.890; 2067.300;    0.000;    0.000
345.947; 2092.300;    0.000;    0.000
346.003; 2134.300;    0.000;    0.000
346.060; 2151.300;    0.000;    0.000
346.116; 2022.300;    0.000;    0.000
346.173; 2068.300;    0.000;    0.000
346.229; 2052.300;    0.000;    0.000
346.285; 2077.300;    0.000;    0.000
346.342; 2086.300;    0.000;    0.000
346.398; 2171.300;    0.000;    0.000
346.455; 2190.300;    0.000;    0.000
346.511; 2218.300;    0.000;    0.000
346.567; 2183.300;    0.000;    0.000
346.624; 2251.300;    0.000;    0.000
346.680; 2242.300;    0.000;    0.000
346.737; 2191.300;    0.000;    0.000
346.793; 2307.300;    0.000;    0.000
346.849; 2304.300;    0.000;    0.000
346.906; 2346.300;    0.000;    0.000
346.962; 2465.300;    0.000;    0.000
347.018; 2416.300;    0.000;    0.000
347.074; 2380.300;    0.000;    0.000
347.131; 2220.300;    0.000;    0.000
347.187; 2329.300;    0.000;    0.000
347.243; 2305.300;    0.000;    0.000
347.300; 2264.300;    0.000;    0.000
347.356; 2298.300;    0.000;    0.000
347.412; 2238.300;    0.000;    0.000
347.468; 2083.300;    0.000;    0.000
347.524; 2039.300;    0.000;    0.000
347.581; 2010.300;    0.000;    0.000
347.637; 2095.300;    0.000;    0.000
347.693; 2207.300;    0.000;    0.000
347.749; 2164.300;    0.000;    0.000
347.805; 2128.300;    0.000;    0.000
347.862; 2133.300;    0.000;    0.000
347.918; 2124.300;    0.000;    0.000
347.974; 2152.300;    0.000;    0.000
348.030; 2124.300;    0.000;    0.000
348.086; 2182.300;    0.000;    0.000
348.142; 2221.300;    0.000;    0.000
348.198; 2174.300;    0.000;    0.000
348.254; 2184.300;    0.000;    0.000
348.311; 2258.300;    0.000;    0.000
348.367; 2165.300;    0.000;    0.000
348.423; 2093.300;    0.000;    0.000
348.479; 2053.300;    0.000;    0.000
348.535; 2108.300;    0.000;    0.000
348.591; 2099.300;    0.000;    0.000
348.647; 2083.300;    0.000;    0.000
348.703; 2127.300;    0.000;    0.000
348.759; 2197.300;    0.000;    0.000
348.815; 2216.300;    0.000;    0.000
348.871; 2204.300;    0.000;    0.000
348.927; 2128.300;    0.000;    0.000
348.983; 2234.300;    0.000;    0.000
349.039; 2211.300;    0.000;    0.000
349.095; 2162.300;    0.000;    0.000
349.151; 2164.300;    0.000;    0.000
349.207; 2072.300;    0.000;    0.000
349.263; 2145.300;    0.000;    0.000
349.319; 2110.300;    0.000;    0.000
349.374; 2125.300;    0.000;    0.000
349.430; 2170.300;    0.000;    0.000
349.486; 2182.300;    0.000;    0.000
349.542; 2167.300;    0.000;    0.000
349.598; 2219.300;    0.000;    0.000
349.654; 2109.300;    0.000;    0.000
349.710; 2151.300;    0.000;    0.000
349.766; 2185.300;    0.000;    0.000
349.821; 2226.300;    0.000;    0.000
349.877; 2262.300;    0.000;    0.000
349.933; 2195.300;    0.000;    0.000
349.989; 2230.300;    0.000;    0.000
350.045; 2199.300;    0.000;    0.000
350.100; 2175.300;    0.000;    0.000
350.156; 2109.300;    0.000;    0.000
350.212; 2174.300;    0.000;    0.000
350.268; 2143.300;    0.000;    0.000
350.323; 2022.300;    0.000;    0.000
350.379; 2134.300;    0.000;    0.000
350.435; 2167.300;    0.000;    0.000
350.491; 2195.300;    0.000;    0.000
350.546; 2166.300;    0.000;    0.000
350.602; 2209.300;    0.000;    0.000
350.658; 2155.300;    0.000;    0.000
350.713; 2208.300;    0.000;    0.000
350.769; 2118.300;    0.000;    0.000
350.825; 2181.300;    0.000;    0.000
350.880; 2043.300;    0.000;    0.000
350.936; 2104.300;    0.000;    0.000
350.992; 2206.300;    0.000;    0.000
351.047; 2123.300;    0.000;    0.000
351.103; 2077.300;    0.000;    0.000
351.158; 2146.300;    0.000;    0.000
351.214; 2028.300;    0.000;    0.000
351.270; 1945.300;    0.000;    0.000
351.325; 2100.300;    0.000;    0.000
351.381; 2043.300;    0.000;    0.000
351.436; 2113.300;    0.000;    0.000
351.492; 2232.300;    0.000;    0.000
351.547; 2239.300;    0.000;    0.000
351.603; 2232.300;    0.000;    0.000
351.658; 2248.300;    0.000;    0.000
351.714; 2193.300;    0.000;    0.000
351.769; 2216.300;    0.000;    0.000
351.825; 2242.300;    0.000;    0.000
351.880; 2292.300;    0.000;    0.000
351.936; 2394.300;    0.000;    0.000
351.991; 2343.300;    0.000;    0.000
352.047; 2322.300;    0.000;    0.000
352.102; 2167.300;    0.000;    0.000
352.158; 2146.300;    0.000;    0.000
352.213; 2091.300;    0.000;    0.000
352.268; 2112.300;    0.000;    0.000
352.324; 2157.300;    0.000;    0.000
352.379; 2176.300;    0.000;    0.000
352.434; 2123.300;    0.000;    0.000
352.490; 2212.300;    0.000;    0.000
352.545; 2094.300;    0.000;    0.000
352.601; 2123.300;    0.000;    0.000
352.656; 2136.300;    0.000;    0.000
352.711; 2140.300;    0.000;    0.000
352.767; 2040.300;    0.000;    0.000
352.822; 2049.300;    0.000;    0.000
352.877; 2108.300;    0.000;    0.000
352.932; 2030.300;    0.000;    0.000
352.988; 2176.300;    0.000;    0.000
353.043; 2194.300;    0.000;    0.000
353.098; 2153.300;    0.000;    0.000
353.153; 2198.300;    0.000;    0.000
353.209; 2125.300;    0.000;    0.000
353.264; 2054.300;    0.000;    0.000
353.319; 2045.300;    0.000;    0.000
353.374; 1989.300;    0.000;    0.000
353.430; 2001.300;    0.000;    0.000
353.485; 2039.300;    0.000;    0.000
353.540; 2111.300;    0.000;    0.000
353.595; 2059.300;    0.000;    0.000
353.650; 1991.300;    0.000;    0.000
353.705; 1985.300;    0.000;    0.000
353.761; 1998.300;    0.000;    0.000
353.816; 1968.300;    0.000;    0.000
353.871; 1968.300;    0.000;    0.000
353.926; 1930.300;    0.000;    0.000
353.981; 1931.300;    0.000;    0.000
354.036; 1949.300;    0.000;    0.000
354.091; 1948.300;    0.000;    0.000
354.146; 1910.300;    0.000;    0.000
354.201; 1949.300;    0.000;    0.000
354.256; 1966.300;    0.000;    0.000
354.311; 2035.300;    0.000;    0.000
354.367; 2066.300;    0.000;    0.000
354.422; 2099.300;    0.000;    0.000
354.477; 2055.300;    0.000;    0.000
354.532; 2067.300;    0.000;    0.000
354.587; 2136.300;    0.000;    0.000
354.642; 2099.300;    0.000;    0.000
354.697; 2190.300;    0.000;    0.000
354.751; 2102.300;    0.000;    0.000
354.806; 2066.300;    0.000;    0.000
354.861; 2088.300;    0.000;    0.000
354.916; 2098.300;    0.000;    0.000
354.971; 2069.300;    0.000;    0.000
355.026; 1991.300;    0.000;    0.000
355.081; 2057.300;    0.000;    0.000
355.136; 1988.300;    0.000;    0.000
355.191; 1887.300;    0.000;    0.000
355.246; 1917.300;    0.000;    0.000
355.301; 2082.300;    0.000;    0.000
355.355; 2057.300;    0.000;    0.000
355.410; 2076.300;    0.000;    0.000
355.465; 2118.300;    0.000;    0.000
355.520; 2101.300;    0.000;    0.000
355.575; 1967.300;    0.000;    0.000
355.630; 1949.300;    0.000;    0.000
355.684; 1992.300;    0.000;    0.000
355.739; 1937.300;    0.000;    0.000
355.794; 1867.300;    0.000;    0.000
355.849; 1924.300;    0.000;    0.000
355.904; 1953.300;    0.000;    0.000
355.958; 1978.300;    0.000;    0.000
356.013; 1921.300;    0.000;    0.000
356.068; 1926.300;    0.000;    0.000
356.123; 1952.300;    0.000;    0.000
356.177; 1931.300;    0.000;    0.000
356.232; 2071.300;    0.000;    0.000
356.287; 2099.300;    0.000;    0.000
356.341; 2157.300;    0.000;    0.000
356.396; 2060.300;    0.000;    0.000
356.451; 2044.300;    0.000;    0.000
356.505; 2022.300;    0.000;    0.000
356.560; 2034.300;    0.000;    0.000
356.615; 2017.300;    0.000;    0.000
356.669; 2008.300;    0.000;    0.000
356.724; 1976.300;    0.000;    0.000
356.778; 1899.300;    0.000;    0.000
356.833; 1999.300;    0.000;    0.000
356.888; 1957.300;    0.000;    0.000
356.942; 1882.300;    0.000;    0.000
356.997; 2014.300;    0.000;    0.000
357.051; 1908.300;    0.000;    0.000
357.106; 1888.300;    0.000;    0.000
357.160; 1909.300;    0.000;    0.000
357.215; 1901.300;    0.000;    0.000
357.269; 1951.300;    0.000;    0.000
357.324; 1882.300;    0.000;    0.000
357.378; 1930.300;    0.000;    0.000
357.433; 1885.300;    0.000;    0.000
357.487; 1899.300;    0.000;    0.000
357.542; 1870.300;    0.000;    0.000
357.596; 1963.300;    0.000;    0.000
357.651; 1883.300;    0.000;    0.000
357.705; 1903.300;    0.000;    0.000
357.760; 1870.300;    0.000;    0.000
357.814; 1873.300;    0.000;    0.000
357.868; 1874.300;    0.000;    0.000
357.923; 1826.300;    0.000;    0.000
357.977; 1830.300;    0.000;    0.000
358.032; 1835.300;    0.000;    0.000
358.086; 1897.300;    0.000;    0.000
358.140; 1949.300;    0.000;    0.000
358.195; 1993.300;    0.000;    0.000
358.249; 1957.300;    0.000;    0.000
358.303; 1974.300;    0.000;    0.000
358.358; 1815.300;    0.000;    0.000
358.412; 1813.300;    0.000;    0.000
358.466; 1835.300;    0.000;    0.000
358.521; 1699.300;    0.000;    0.000
358.575; 1799.300;    0.000;    0.000
358.629; 1818.300;    0.000;    0.000
358.683; 1813.300;    0.000;    0.000
358.738; 1864.300;    0.000;    0.000
358.792; 1778.300;    0.000;    0.000
358.846; 1836.300;    0.000;    0.000
358.900; 1849.300;    0.000;    0.000
358.954; 1865.300;    0.000;    0.000
359.009; 1826.300;    0.000;    0.000
359.063; 1809.300;    0.000;    0.000
359.117; 1796.300;    0.000;    0.000
359.171; 1851.300;    0.000;    0.000
359.225; 1841.300;    0.000;    0.000
359.280; 1931.300;    0.000;    0.000
359.334; 1891.300;    0.000;    0.000
359.388; 1974.300;    0.000;    0.000
359.442; 1860.300;    0.000;    0.000
359.496; 1751.300;    0.000;    0.000
359.550; 1854.300;    0.000;    0.000
359.604; 1824.300;    0.000;    0.000
359.658; 1805.300;    0.000;    0.000
359.712; 1736.300;    0.000;    0.000
359.766; 1834.300;    0.000;    0.000
359.820; 1797.300;    0.000;    0.000
359.875; 1794.300;    0.000;    0.000
359.929; 1807.300;    0.000;    0.000
359.983; 1800.300;    0.000;    0.000
360.037; 1873.300;    0.000;    0.000
360.091; 1793.300;    0.000;    0.000
360.145; 1727.300;    0.000;    0.000
360.199; 1762.300;    0.000;    0.000
360.253; 1712.300;    0.000;    0.000
360.306; 1689.300;    0.000;    0.000
360.360; 1681.300;    0.000;    0.000
360.414; 1716.300;    0.000;    0.000
360.468; 1735.300;    0.000;    0.000
360.522; 1832.300;    0.000;    0.000
360.576; 1775.300;    0.000;    0.000
360.630; 1779.300;    0.000;    0.000
360.684; 1892.300;    0.000;    0.000
360.738; 1768.300;    0.000;    0.000
360.792; 1696.300;    0.000;    0.000
360.846; 1682.300;    0.000;    0.000
360.899; 1774.300;    0.000;    0.000
360.953; 1798.300;    0.000;    0.000
361.007; 1852.300;    0.000;    0.000
361.061; 1746.300;    0.000;    0.000
361.115; 1793.300;    0.000;    0.000
361.168; 1729.300;    0.000;    0.000
361.222; 1695.300;    0.000;    0.000
361.276; 1774.300;    0.000;    0.000
361.330; 1751.300;    0.000;    0.000
361.384; 1767.300;    0.000;    0.000
361.437; 1733.300;    0.000;    0.000
361.491; 1810.300;    0.000;    0.000
361.545; 1787.300;    0.000;    0.000
361.599; 1748.300;    0.000;    0.000
361.652; 1758.300;    0.000;    0.000
361.706; 1761.300;    0.000;    0.000
361.760; 1823.300;    0.000;    0.000
361.813; 1724.300;    0.000;    0.000
361.867; 1744.300;    0.000;    0.000
361.921; 1763.300;    0.000;    0.000
361.974; 1719.300;    0.000;    0.000
362.028; 1750.300;    0.000;    0.000
362.082; 1714.300;    0.000;    0.000
362.135; 1774.300;    0.000;    0.000
362.189; 1662.300;    0.000;    0.000
362.242; 1736.300;    0.000;    0.000
362.296; 1747.300;    0.000;    0.000
362.350; 1705.300;    0.000;    0.000
362.403; 1709.300;    0.000;    0.000
362.457; 1695.300;    0.000;    0.000
362.510; 1690.300;    0.000;    0.000
362.564; 1688.300;    0.000;    0.000
362.617; 1699.300;    0.000;    0.000
362.671; 1613.300;    0.000;    0.000
362.724; 1692.300;    0.000;    0.000
362.778; 1685.300;    0.000;    0.000
362.831; 1632.300;    0.000;    0.000
362.885; 1674.300;    0.000;    0.000
362.938; 1519.300;    0.000;    0.000
362.992;  466.300;    0.000;    0.000
363.045;  357.300;    0.000;    0.000
363.099;  316.300;    0.000;    0.000
363.152;  323.300;    0.000;    0.000
363.205;  314.300;    0.000;    0.000
363.259;  301.300;    0.000;    0.000
363.312;  333.300;    0.000;    0.000
363.366;  328.300;    0.000;    0.000
363.419;  338.300;    0.000;    0.000
363.472;  329.300;    0.000;    0.000
363.526;  343.300;    0.000;    0.000
363.579;  313.300;    0.000;    0.000
363.632;  312.300;    0.000;    0.000
363.686;  307.300;    0.000;    0.000
363.739;  273.300;    0.000;    0.000
363.792;  288.300;    0.000;    0.000

