
Integration time [ms]:   0.300
Averaging Nr. [scans]: 1
Smoothing Nr. [pixels]: 0
Data measured with spectrometer [name]: UV1
Wave   ;Sample   ;Dark     ;Reference
[nm]   ;[counts] ;[counts] ;[counts] 

236.381;  134.925;  160.350;    0.000
236.451;  178.925;  198.350;    0.000
236.520;  160.925;  179.350;    0.000
236.590;  183.925;  205.350;    0.000
236.660;  198.925;  199.350;    0.000
236.730;  182.925;  178.350;    0.000
236.799;  214.925;  201.350;    0.000
236.869;  167.925;  197.350;    0.000
236.939;  163.925;  180.350;    0.000
237.009;  190.925;  165.350;    0.000
237.078;  198.925;  191.350;    0.000
237.148;  158.925;  146.350;    0.000
237.218;  207.925;  142.350;    0.000
237.287;  169.925;  190.350;    0.000
237.357;  192.925;  182.350;    0.000
237.427;  200.925;  139.350;    0.000
237.496; 1172.925;  221.350;    0.000
237.566; 1207.925;  183.350;    0.000
237.636; 1118.925;  157.350;    0.000
237.705; 1199.925;  189.350;    0.000
237.775; 1239.925;  169.350;    0.000
237.845; 1173.925;  156.350;    0.000
237.914; 1185.925;  185.350;    0.000
237.984; 1184.925;  194.350;    0.000
238.054; 1127.925;  138.350;    0.000
238.123; 1179.925;  166.350;    0.000
238.193; 1186.925;  174.350;    0.000
238.263; 1196.925;  158.350;    0.000
238.332; 1147.925;  167.350;    0.000
238.402; 1183.925;  173.350;    0.000
238.471; 1139.925;  153.350;    0.000
238.541; 1146.925;  167.350;    0.000
238.611; 1179.925;  165.350;    0.000
238.680; 1147.925;  157.350;    0.000
238.750; 1123.925;  152.350;    0.000
238.819; 1145.925;  190.350;    0.000
238.889; 1160.925;  151.350;    0.000
238.958; 1169.925;  166.350;    0.000
239.028; 1139.925;  180.350;    0.000
239.097; 1145.925;  170.350;    0.000
239.167; 1172.925;  177.350;    0.000
239.237; 1193.925;  195.350;    0.000
239.306; 1110.925;  145.350;    0.000
239.376; 1201.925;  158.350;    0.000
239.445; 1176.925;  187.350;    0.000
239.515; 1193.925;  160.350;    0.000
239.584; 1128.925;  173.350;    0.000
239.654; 1148.925;  184.350;    0.000
239.723; 1208.925;  195.350;    0.000
239.793; 1129.925;  183.350;    0.000
239.862; 1054.925;  190.350;    0.000
239.932; 1143.925;  168.350;    0.000
240.001; 1109.925;  164.350;    0.000
240.070; 1087.925;  183.350;    0.000
240.140; 1210.925;  175.350;    0.000
240.209; 1158.925;  135.350;    0.000
240.279; 1159.925;  176.350;    0.000
240.348; 1172.925;  184.350;    0.000
240.418; 1069.925;  157.350;    0.000
240.487; 1144.925;  189.350;    0.000
240.556; 1100.925;  157.350;    0.000
240.626; 1175.925;  174.350;    0.000
240.695; 1095.925;  180.350;    0.000
240.765; 1140.925;  152.350;    0.000
240.834; 1141.925;  136.350;    0.000
240.903; 1187.925;  196.350;    0.000
240.973; 1147.925;  183.350;    0.000
241.042; 1117.925;  150.350;    0.000
241.112; 1123.925;  168.350;    0.000
241.181; 1182.925;  152.350;    0.000
241.250; 1067.925;  132.350;    0.000
241.320; 1163.925;  209.350;    0.000
241.389; 1192.925;  169.350;    0.000
241.458; 1089.925;  204.350;    0.000
241.528; 1154.925;  176.350;    0.000
241.597; 1159.925;  170.350;    0.000
241.666; 1139.925;  168.350;    0.000
241.736; 1097.925;  172.350;    0.000
241.805; 1130.925;  160.350;    0.000
241.874; 1152.925;  176.350;    0.000
241.943; 1097.925;  165.350;    0.000
242.013; 1177.925;  206.350;    0.000
242.082; 1118.925;  162.350;    0.000
242.151; 1164.925;  180.350;    0.000
242.221; 1121.925;  154.350;    0.000
242.290; 1142.925;  122.350;    0.000
242.359; 1060.925;  121.350;    0.000
242.428; 1066.925;  187.350;    0.000
242.498; 1073.925;  140.350;    0.000
242.567; 1106.925;  173.350;    0.000
242.636; 1098.925;  155.350;    0.000
242.705; 1115.925;  108.350;    0.000
242.774; 1136.925;  145.350;    0.000
242.844; 1134.925;  162.350;    0.000
242.913; 1068.925;  178.350;    0.000
242.982; 1112.925;  163.350;    0.000
243.051; 1063.925;  138.350;    0.000
243.120; 1137.925;  172.350;    0.000
243.190; 1016.925;  155.350;    0.000
243.259; 1105.925;  159.350;    0.000
243.328; 1119.925;  173.350;    0.000
243.397; 1085.925;  175.350;    0.000
243.466; 1174.925;  170.350;    0.000
243.535; 1097.925;  161.350;    0.000
243.605;  980.925;  149.350;    0.000
243.674; 1119.925;  162.350;    0.000
243.743; 1098.925;  175.350;    0.000
243.812; 1054.925;  159.350;    0.000
243.881; 1122.925;  158.350;    0.000
243.950; 1145.925;  154.350;    0.000
244.019; 1025.925;  185.350;    0.000
244.088; 1092.925;  175.350;    0.000
244.158; 1098.925;  167.350;    0.000
244.227;  992.925;  159.350;    0.000
244.296; 1056.925;  143.350;    0.000
244.365; 1098.925;  182.350;    0.000
244.434; 1041.925;  117.350;    0.000
244.503; 1106.925;  109.350;    0.000
244.572; 1039.925;  147.350;    0.000
244.641;  947.925;  129.350;    0.000
244.710; 1090.925;  159.350;    0.000
244.779; 1064.925;  166.350;    0.000
244.848; 1020.925;  122.350;    0.000
244.917; 1039.925;  167.350;    0.000
244.986; 1041.925;  158.350;    0.000
245.055; 1064.925;  175.350;    0.000
245.124;  987.925;  153.350;    0.000
245.193; 1007.925;  155.350;    0.000
245.262; 1017.925;  137.350;    0.000
245.331;  996.925;  145.350;    0.000
245.400; 1015.925;  107.350;    0.000
245.469;  953.925;  162.350;    0.000
245.538; 1021.925;  165.350;    0.000
245.607; 1052.925;  178.350;    0.000
245.676; 1009.925;  166.350;    0.000
245.745; 1043.925;  169.350;    0.000
245.814;  950.925;  155.350;    0.000
245.883;  974.925;  186.350;    0.000
245.952;  995.925;  165.350;    0.000
246.021;  940.925;  169.350;    0.000
246.090;  999.925;  170.350;    0.000
246.159;  964.925;  155.350;    0.000
246.227;  962.925;  161.350;    0.000
246.296;  925.925;  142.350;    0.000
246.365;  881.925;  160.350;    0.000
246.434;  975.925;  199.350;    0.000
246.503;  955.925;  155.350;    0.000
246.572;  974.925;  206.350;    0.000
246.641;  934.925;  177.350;    0.000
246.710;  940.925;  178.350;    0.000
246.779;  923.925;  193.350;    0.000
246.847;  973.925;  147.350;    0.000
246.916;  890.925;  131.350;    0.000
246.985;  934.925;  168.350;    0.000
247.054;  923.925;  143.350;    0.000
247.123;  941.925;  130.350;    0.000
247.192;  898.925;  175.350;    0.000
247.260;  876.925;  171.350;    0.000
247.329;  956.925;  162.350;    0.000
247.398;  933.925;  163.350;    0.000
247.467;  918.925;  155.350;    0.000
247.536;  944.925;  149.350;    0.000
247.604;  927.925;  191.350;    0.000
247.673;  925.925;  193.350;    0.000
247.742;  940.925;  159.350;    0.000
247.811;  900.925;  167.350;    0.000
247.879;  947.925;  176.350;    0.000
247.948;  935.925;  157.350;    0.000
248.017;  896.925;  150.350;    0.000
248.086;  925.925;  153.350;    0.000
248.154;  959.925;  157.350;    0.000
248.223;  893.925;  198.350;    0.000
248.292;  895.925;  188.350;    0.000
248.361;  921.925;  157.350;    0.000
248.429;  948.925;  138.350;    0.000
248.498;  927.925;  166.350;    0.000
248.567;  908.925;  179.350;    0.000
248.635;  937.925;  210.350;    0.000
248.704;  986.925;  168.350;    0.000
248.773;  921.925;  147.350;    0.000
248.841;  971.925;  155.350;    0.000
248.910;  917.925;  183.350;    0.000
248.979;  932.925;  171.350;    0.000
249.047;  930.925;  152.350;    0.000
249.116;  932.925;  155.350;    0.000
249.185;  921.925;  217.350;    0.000
249.253;  878.925;  149.350;    0.000
249.322;  889.925;  167.350;    0.000
249.390;  864.925;  182.350;    0.000
249.459;  889.925;  173.350;    0.000
249.528;  862.925;  162.350;    0.000
249.596;  896.925;  162.350;    0.000
249.665;  850.925;  163.350;    0.000
249.733;  867.925;  147.350;    0.000
249.802;  876.925;  170.350;    0.000
249.871;  900.925;  179.350;    0.000
249.939;  887.925;  179.350;    0.000
250.008;  890.925;  201.350;    0.000
250.076;  947.925;  189.350;    0.000
250.145;  891.925;  171.350;    0.000
250.213;  875.925;  161.350;    0.000
250.282;  891.925;  171.350;    0.000
250.350;  844.925;  138.350;    0.000
250.419;  861.925;  172.350;    0.000
250.487;  859.925;  207.350;    0.000
250.556;  859.925;  160.350;    0.000
250.624;  843.925;  187.350;    0.000
250.693;  815.925;  141.350;    0.000
250.761;  822.925;  182.350;    0.000
250.830;  875.925;  203.350;    0.000
250.898;  835.925;  160.350;    0.000
250.967;  885.925;  143.350;    0.000
251.035;  829.925;  142.350;    0.000
251.104;  838.925;  159.350;    0.000
251.172;  881.925;  189.350;    0.000
251.241;  839.925;  134.350;    0.000
251.309;  818.925;  179.350;    0.000
251.378;  904.925;  203.350;    0.000
251.446;  866.925;  151.350;    0.000
251.514;  864.925;  176.350;    0.000
251.583;  857.925;  173.350;    0.000
251.651;  814.925;  163.350;    0.000
251.720;  807.925;  151.350;    0.000
251.788;  830.925;  205.350;    0.000
251.856;  781.925;  126.350;    0.000
251.925;  804.925;  118.350;    0.000
251.993;  870.925;  139.350;    0.000
252.062;  797.925;  161.350;    0.000
252.130;  852.925;  180.350;    0.000
252.198;  838.925;  141.350;    0.000
252.267;  815.925;  145.350;    0.000
252.335;  830.925;  159.350;    0.000
252.403;  866.925;  158.350;    0.000
252.472;  825.925;  142.350;    0.000
252.540;  800.925;  162.350;    0.000
252.608;  823.925;  180.350;    0.000
252.677;  790.925;  137.350;    0.000
252.745;  784.925;  183.350;    0.000
252.813;  782.925;  151.350;    0.000
252.881;  739.925;  109.350;    0.000
252.950;  731.925;  174.350;    0.000
253.018;  712.925;  136.350;    0.000
253.086;  763.925;  149.350;    0.000
253.155;  658.925;  127.350;    0.000
253.223;  661.925;  156.350;    0.000
253.291;  673.925;  163.350;    0.000
253.359;  649.925;  174.350;    0.000
253.428;  721.925;  174.350;    0.000
253.496;  658.925;  161.350;    0.000
253.564;  650.925;  128.350;    0.000
253.632;  650.925;  153.350;    0.000
253.700;  622.925;  185.350;    0.000
253.769;  632.925;  163.350;    0.000
253.837;  700.925;  176.350;    0.000
253.905;  638.925;  164.350;    0.000
253.973;  656.925;  156.350;    0.000
254.041;  636.925;  154.350;    0.000
254.110;  667.925;  165.350;    0.000
254.178;  637.925;  148.350;    0.000
254.246;  634.925;  138.350;    0.000
254.314;  595.925;  164.350;    0.000
254.382;  675.925;  167.350;    0.000
254.450;  645.925;  134.350;    0.000
254.518;  636.925;  192.350;    0.000
254.587;  638.925;  139.350;    0.000
254.655;  671.925;  162.350;    0.000
254.723;  647.925;  131.350;    0.000
254.791;  652.925;  181.350;    0.000
254.859;  665.925;  146.350;    0.000
254.927;  650.925;  189.350;    0.000
254.995;  649.925;  141.350;    0.000
255.063;  637.925;  181.350;    0.000
255.131;  653.925;  156.350;    0.000
255.199;  646.925;  175.350;    0.000
255.267;  676.925;  120.350;    0.000
255.336;  680.925;  186.350;    0.000
255.404;  678.925;  134.350;    0.000
255.472;  654.925;  172.350;    0.000
255.540;  666.925;  157.350;    0.000
255.608;  687.925;  186.350;    0.000
255.676;  651.925;  155.350;    0.000
255.744;  612.925;  143.350;    0.000
255.812;  606.925;  134.350;    0.000
255.880;  688.925;  188.350;    0.000
255.948;  661.925;  163.350;    0.000
256.016;  745.925;  175.350;    0.000
256.084;  703.925;  191.350;    0.000
256.152;  672.925;  187.350;    0.000
256.220;  637.925;  152.350;    0.000
256.288;  700.925;  141.350;    0.000
256.356;  708.925;  139.350;    0.000
256.424;  699.925;  121.350;    0.000
256.491;  703.925;  139.350;    0.000
256.559;  666.925;  144.350;    0.000
256.627;  753.925;  158.350;    0.000
256.695;  681.925;  121.350;    0.000
256.763;  715.925;  150.350;    0.000
256.831;  755.925;  181.350;    0.000
256.899;  774.925;  146.350;    0.000
256.967;  696.925;   71.350;    0.000
257.035;  776.925;  164.350;    0.000
257.103;  807.925;  191.350;    0.000
257.171;  731.925;  140.350;    0.000
257.238;  792.925;  165.350;    0.000
257.306;  811.925;  127.350;    0.000
257.374;  785.925;  120.350;    0.000
257.442;  787.925;  139.350;    0.000
257.510;  805.925;  158.350;    0.000
257.578;  773.925;  164.350;    0.000
257.646;  831.925;  151.350;    0.000
257.713;  822.925;  136.350;    0.000
257.781;  841.925;  137.350;    0.000
257.849;  866.925;  151.350;    0.000
257.917;  852.925;  154.350;    0.000
257.985;  801.925;  113.350;    0.000
258.052;  896.925;  140.350;    0.000
258.120;  832.925;  176.350;    0.000
258.188;  868.925;  157.350;    0.000
258.256;  927.925;  153.350;    0.000
258.324;  928.925;  184.350;    0.000
258.391;  929.925;  144.350;    0.000
258.459;  981.925;  162.350;    0.000
258.527;  913.925;  154.350;    0.000
258.595; 1003.925;  122.350;    0.000
258.662;  973.925;  164.350;    0.000
258.730;  998.925;  114.350;    0.000
258.798;  950.925;  131.350;    0.000
258.865; 1072.925;  171.350;    0.000
258.933; 1061.925;  145.350;    0.000
259.001; 1048.925;  150.350;    0.000
259.069; 1030.925;  123.350;    0.000
259.136; 1042.925;  139.350;    0.000
259.204; 1057.925;  165.350;    0.000
259.272; 1018.925;  114.350;    0.000
259.339; 1099.925;  179.350;    0.000
259.407; 1156.925;  153.350;    0.000
259.475; 1122.925;  143.350;    0.000
259.542; 1068.925;  136.350;    0.000
259.610; 1138.925;  133.350;    0.000
259.677; 1159.925;  159.350;    0.000
259.745; 1169.925;  130.350;    0.000
259.813; 1178.925;  175.350;    0.000
259.880; 1259.925;  158.350;    0.000
259.948; 1196.925;  124.350;    0.000
260.016; 1283.925;  105.350;    0.000
260.083; 1284.925;  169.350;    0.000
260.151; 1234.925;  133.350;    0.000
260.218; 1217.925;  143.350;    0.000
260.286; 1275.925;  134.350;    0.000
260.353; 1239.925;  160.350;    0.000
260.421; 1297.925;  128.350;    0.000
260.489; 1360.925;  150.350;    0.000
260.556; 1252.925;  179.350;    0.000
260.624; 1341.925;  113.350;    0.000
260.691; 1315.925;  128.350;    0.000
260.759; 1398.925;  146.350;    0.000
260.826; 1371.925;  111.350;    0.000
260.894; 1399.925;  115.350;    0.000
260.961; 1386.925;  138.350;    0.000
261.029; 1437.925;  152.350;    0.000
261.096; 1428.925;  175.350;    0.000
261.164; 1403.925;  131.350;    0.000
261.231; 1387.925;  141.350;    0.000
261.299; 1518.925;  125.350;    0.000
261.366; 1470.925;  142.350;    0.000
261.434; 1547.925;  133.350;    0.000
261.501; 1515.925;  137.350;    0.000
261.568; 1553.925;  184.350;    0.000
261.636; 1496.925;  138.350;    0.000
261.703; 1552.925;  161.350;    0.000
261.771; 1549.925;  160.350;    0.000
261.838; 1607.925;  178.350;    0.000
261.906; 1562.925;  128.350;    0.000
261.973; 1629.925;  139.350;    0.000
262.040; 1653.925;  148.350;    0.000
262.108; 1594.925;  130.350;    0.000
262.175; 1621.925;  117.350;    0.000
262.243; 1664.925;  174.350;    0.000
262.310; 1668.925;  145.350;    0.000
262.377; 1698.925;  108.350;    0.000
262.445; 1698.925;  147.350;    0.000
262.512; 1684.925;  124.350;    0.000
262.579; 1753.925;  127.350;    0.000
262.647; 1679.925;  166.350;    0.000
262.714; 1756.925;  150.350;    0.000
262.781; 1688.925;  121.350;    0.000
262.849; 1711.925;  126.350;    0.000
262.916; 1706.925;  119.350;    0.000
262.983; 1827.925;  155.350;    0.000
263.051; 1785.925;  137.350;    0.000
263.118; 1797.925;  160.350;    0.000
263.185; 1857.925;  151.350;    0.000
263.252; 1838.925;  167.350;    0.000
263.320; 1833.925;  123.350;    0.000
263.387; 1908.925;  134.350;    0.000
263.454; 1914.925;  144.350;    0.000
263.522; 1888.925;  153.350;    0.000
263.589; 1954.925;  161.350;    0.000
263.656; 1902.925;  117.350;    0.000
263.723; 1875.925;  101.350;    0.000
263.790; 1980.925;  128.350;    0.000
263.858; 1941.925;  142.350;    0.000
263.925; 2024.925;  182.350;    0.000
263.992; 2010.925;  146.350;    0.000
264.059; 2041.925;  132.350;    0.000
264.126; 2043.925;  154.350;    0.000
264.194; 1986.925;  153.350;    0.000
264.261; 1947.925;  157.350;    0.000
264.328; 2054.925;  171.350;    0.000
264.395; 2068.925;  166.350;    0.000
264.462; 2069.925;  165.350;    0.000
264.529; 2128.925;  124.350;    0.000
264.597; 2181.925;  120.350;    0.000
264.664; 2176.925;  159.350;    0.000
264.731; 2141.925;  145.350;    0.000
264.798; 2098.925;  100.350;    0.000
264.865; 2155.925;  166.350;    0.000
264.932; 2170.925;  132.350;    0.000
264.999; 2163.925;  137.350;    0.000
265.066; 2172.925;  124.350;    0.000
265.133; 2202.925;  162.350;    0.000
265.201; 2193.925;  163.350;    0.000
265.268; 2256.925;  174.350;    0.000
265.335; 2237.925;  132.350;    0.000
265.402; 2253.925;  116.350;    0.000
265.469; 2268.925;  121.350;    0.000
265.536; 2310.925;  157.350;    0.000
265.603; 2325.925;  151.350;    0.000
265.670; 2294.925;  164.350;    0.000
265.737; 2268.925;  142.350;    0.000
265.804; 2291.925;  146.350;    0.000
265.871; 2292.925;  168.350;    0.000
265.938; 2336.925;  131.350;    0.000
266.005; 2408.925;  208.350;    0.000
266.072; 2291.925;  125.350;    0.000
266.139; 2391.925;  161.350;    0.000
266.206; 2443.925;  134.350;    0.000
266.273; 2405.925;  155.350;    0.000
266.340; 2373.925;  122.350;    0.000
266.407; 2449.925;  134.350;    0.000
266.474; 2423.925;  126.350;    0.000
266.541; 2445.925;  153.350;    0.000
266.608; 2430.925;  129.350;    0.000
266.675; 2444.925;  185.350;    0.000
266.742; 2366.925;  153.350;    0.000
266.808; 2497.925;  169.350;    0.000
266.875; 2450.925;  156.350;    0.000
266.942; 2462.925;  172.350;    0.000
267.009; 2593.925;  150.350;    0.000
267.076; 2490.925;  184.350;    0.000
267.143; 2444.925;  170.350;    0.000
267.210; 2524.925;  132.350;    0.000
267.277; 2460.925;  146.350;    0.000
267.344; 2564.925;  159.350;    0.000
267.410; 2482.925;  174.350;    0.000
267.477; 2609.925;  169.350;    0.000
267.544; 2669.925;  130.350;    0.000
267.611; 2597.925;  169.350;    0.000
267.678; 2569.925;  197.350;    0.000
267.745; 2632.925;  185.350;    0.000
267.811; 2548.925;  160.350;    0.000
267.878; 2596.925;  143.350;    0.000
267.945; 2484.925;  126.350;    0.000
268.012; 2638.925;  172.350;    0.000
268.079; 2529.925;  156.350;    0.000
268.145; 2573.925;  128.350;    0.000
268.212; 2557.925;  107.350;    0.000
268.279; 2641.925;  135.350;    0.000
268.346; 2460.925;  166.350;    0.000
268.412; 2554.925;  150.350;    0.000
268.479; 2562.925;  176.350;    0.000
268.546; 2542.925;  119.350;    0.000
268.613; 2664.925;  201.350;    0.000
268.679; 2551.925;  141.350;    0.000
268.746; 2596.925;  177.350;    0.000
268.813; 2458.925;  134.350;    0.000
268.879; 2576.925;  141.350;    0.000
268.946; 2691.925;  172.350;    0.000
269.013; 2583.925;  150.350;    0.000
269.079; 2569.925;  124.350;    0.000
269.146; 2510.925;  135.350;    0.000
269.213; 2563.925;  200.350;    0.000
269.280; 2619.925;  142.350;    0.000
269.346; 2627.925;  153.350;    0.000
269.413; 2554.925;  140.350;    0.000
269.479; 2540.925;  171.350;    0.000
269.546; 2619.925;  156.350;    0.000
269.613; 2623.925;  145.350;    0.000
269.679; 2549.925;  168.350;    0.000
269.746; 2602.925;  136.350;    0.000
269.813; 2519.925;  153.350;    0.000
269.879; 2613.925;  162.350;    0.000
269.946; 2577.925;  156.350;    0.000
270.012; 2532.925;  178.350;    0.000
270.079; 2576.925;  132.350;    0.000
270.145; 2659.925;  146.350;    0.000
270.212; 2636.925;  145.350;    0.000
270.279; 2632.925;  184.350;    0.000
270.345; 2557.925;  143.350;    0.000
270.412; 2565.925;  158.350;    0.000
270.478; 2623.925;  143.350;    0.000
270.545; 2715.925;  150.350;    0.000
270.611; 2611.925;  156.350;    0.000
270.678; 2594.925;  121.350;    0.000
270.744; 2580.925;  161.350;    0.000
270.811; 2531.925;  173.350;    0.000
270.877; 2523.925;  115.350;    0.000
270.944; 2573.925;  114.350;    0.000
271.010; 2490.925;  122.350;    0.000
271.077; 2539.925;  142.350;    0.000
271.143; 2655.925;  152.350;    0.000
271.210; 2479.925;  135.350;    0.000
271.276; 2550.925;  107.350;    0.000
271.342; 2526.925;  173.350;    0.000
271.409; 2589.925;  171.350;    0.000
271.475; 2521.925;  136.350;    0.000
271.542; 2519.925;  121.350;    0.000
271.608; 2604.925;  133.350;    0.000
271.675; 2478.925;  136.350;    0.000
271.741; 2594.925;  151.350;    0.000
271.807; 2636.925;  130.350;    0.000
271.874; 2571.925;  168.350;    0.000
271.940; 2613.925;  156.350;    0.000
272.007; 2592.925;  122.350;    0.000
272.073; 2548.925;  121.350;    0.000
272.139; 2615.925;  137.350;    0.000
272.206; 2561.925;  152.350;    0.000
272.272; 2486.925;  162.350;    0.000
272.338; 2623.925;  197.350;    0.000
272.405; 2563.925;  144.350;    0.000
272.471; 2575.925;  160.350;    0.000
272.537; 2574.925;  142.350;    0.000
272.604; 2540.925;  141.350;    0.000
272.670; 2647.925;  182.350;    0.000
272.736; 2599.925;  126.350;    0.000
272.802; 2635.925;  146.350;    0.000
272.869; 2592.925;  163.350;    0.000
272.935; 2649.925;  132.350;    0.000
273.001; 2583.925;  119.350;    0.000
273.068; 2623.925;  137.350;    0.000
273.134; 2701.925;  155.350;    0.000
273.200; 2639.925;  165.350;    0.000
273.266; 2634.925;  156.350;    0.000
273.333; 2643.925;  143.350;    0.000
273.399; 2625.925;  128.350;    0.000
273.465; 2686.925;  167.350;    0.000
273.531; 2597.925;  122.350;    0.000
273.597; 2700.925;  182.350;    0.000
273.664; 2643.925;  177.350;    0.000
273.730; 2676.925;  124.350;    0.000
273.796; 2678.925;  143.350;    0.000
273.862; 2700.925;  155.350;    0.000
273.928; 2691.925;  137.350;    0.000
273.995; 2743.925;  188.350;    0.000
274.061; 2693.925;  154.350;    0.000
274.127; 2766.925;  161.350;    0.000
274.193; 2755.925;   95.350;    0.000
274.259; 2773.925;  128.350;    0.000
274.325; 2745.925;  146.350;    0.000
274.391; 2736.925;  113.350;    0.000
274.457; 2838.925;  150.350;    0.000
274.524; 2813.925;  165.350;    0.000
274.590; 2674.925;  140.350;    0.000
274.656; 2786.925;  165.350;    0.000
274.722; 2811.925;  118.350;    0.000
274.788; 2892.925;  143.350;    0.000
274.854; 2988.925;  150.350;    0.000
274.920; 2826.925;   88.350;    0.000
274.986; 2856.925;  178.350;    0.000
275.052; 2939.925;  145.350;    0.000
275.118; 2867.925;  105.350;    0.000
275.184; 2979.925;  129.350;    0.000
275.250; 2916.925;  138.350;    0.000
275.316; 2989.925;  173.350;    0.000
275.382; 3041.925;  106.350;    0.000
275.448; 3147.925;  160.350;    0.000
275.514; 3043.925;  162.350;    0.000
275.580; 3103.925;  135.350;    0.000
275.646; 3006.925;  120.350;    0.000
275.712; 3122.925;  157.350;    0.000
275.778; 3249.925;  128.350;    0.000
275.844; 3297.925;  117.350;    0.000
275.910; 3293.925;  121.350;    0.000
275.976; 3422.925;  172.350;    0.000
276.042; 3424.925;  114.350;    0.000
276.108; 3526.925;  200.350;    0.000
276.174; 3420.925;  132.350;    0.000
276.240; 3428.925;  128.350;    0.000
276.306; 3552.925;  124.350;    0.000
276.372; 3651.925;  133.350;    0.000
276.437; 3638.925;  146.350;    0.000
276.503; 3625.925;  136.350;    0.000
276.569; 3795.925;  162.350;    0.000
276.635; 3845.925;  128.350;    0.000
276.701; 3861.925;  148.350;    0.000
276.767; 3952.925;  155.350;    0.000
276.833; 3964.925;  128.350;    0.000
276.899; 4101.925;  145.350;    0.000
276.964; 4160.925;  124.350;    0.000
277.030; 4268.925;  130.350;    0.000
277.096; 4319.925;  139.350;    0.000
277.162; 4551.925;  164.350;    0.000
277.228; 4612.925;  108.350;    0.000
277.293; 4745.925;  138.350;    0.000
277.359; 4941.925;  123.350;    0.000
277.425; 5213.925;  183.350;    0.000
277.491; 5491.925;  144.350;    0.000
277.557; 6429.925;  130.350;    0.000
277.622; 8392.925;  151.350;    0.000
277.688; 8358.925;  169.350;    0.000
277.754; 8620.925;  199.350;    0.000
277.820; 9329.925;  170.350;    0.000
277.885;10992.925;  173.350;    0.000
277.951;13599.925;  187.350;    0.000
278.017;11830.925;  152.350;    0.000
278.083;10453.925;  137.350;    0.000
278.148; 9986.925;  147.350;    0.000
278.214;10205.925;  162.350;    0.000
278.280;10919.925;  171.350;    0.000
278.345; 9886.925;  174.350;    0.000
278.411; 9390.925;  152.350;    0.000
278.477; 9766.925;  173.350;    0.000
278.542;10368.925;  161.350;    0.000
278.608;11233.925;  155.350;    0.000
278.674;12330.925;  169.350;    0.000
278.739;13544.925;  142.350;    0.000
278.805;15444.925;  164.350;    0.000
278.871;18131.926;  160.350;    0.000
278.936;22792.926;  121.350;    0.000
279.002;32718.926;  166.350;    0.000
279.067;41867.926;  199.350;    0.000
279.133;41019.926;  150.350;    0.000
279.199;37439.926;  154.350;    0.000
279.264;38587.926;  154.350;    0.000
279.330;44388.926;  159.350;    0.000
279.395;54969.926;  143.350;    0.000
279.461;65298.926;  173.350;    0.000
279.527;65298.926;  163.350;    0.000
279.592;65298.926;  167.350;    0.000
279.658;60837.926;  189.350;    0.000
279.723;59396.926;  153.350;    0.000
279.789;61138.926;  174.350;    0.000
279.854;55901.926;  129.350;    0.000
279.920;47603.926;  165.350;    0.000
279.985;43708.926;  152.350;    0.000
280.051;44441.926;  164.350;    0.000
280.116;51126.926;  187.350;    0.000
280.182;63738.926;  160.350;    0.000
280.247;65298.926;  124.350;    0.000
280.313;61531.926;  154.350;    0.000
280.378;46706.926;  152.350;    0.000
280.444;35644.926;  165.350;    0.000
280.509;28174.926;  164.350;    0.000
280.574;24401.926;  160.350;    0.000
280.640;20687.926;  167.350;    0.000
280.705;18642.926;  190.350;    0.000
280.771;16653.926;  154.350;    0.000
280.836;15492.925;  158.350;    0.000
280.902;14164.925;  124.350;    0.000
280.967;13273.925;  179.350;    0.000
281.032;12444.925;  187.350;    0.000
281.098;11822.925;  155.350;    0.000
281.163;11149.925;  133.350;    0.000
281.229;10815.925;  170.350;    0.000
281.294;10210.925;  175.350;    0.000
281.359; 9877.925;  163.350;    0.000
281.425; 9352.925;  161.350;    0.000
281.490; 9222.925;  162.350;    0.000
281.555; 8771.925;  137.350;    0.000
281.621; 8508.925;  163.350;    0.000
281.686; 8212.925;  155.350;    0.000
281.751; 7915.925;  158.350;    0.000
281.816; 7450.925;  139.350;    0.000
281.882; 7605.925;  150.350;    0.000
281.947; 7447.925;  165.350;    0.000
282.012; 7033.925;  171.350;    0.000
282.078; 6965.925;  177.350;    0.000
282.143; 6650.925;  149.350;    0.000
282.208; 6606.925;  181.350;    0.000
282.273; 6453.925;  166.350;    0.000
282.339; 6336.925;  165.350;    0.000
282.404; 6374.925;  166.350;    0.000
282.469; 6054.925;  150.350;    0.000
282.534; 6136.925;  176.350;    0.000
282.600; 6082.925;  117.350;    0.000
282.665; 5821.925;  134.350;    0.000
282.730; 5658.925;  155.350;    0.000
282.795; 5690.925;  193.350;    0.000
282.860; 5689.925;  160.350;    0.000
282.926; 5662.925;  174.350;    0.000
282.991; 5520.925;  161.350;    0.000
283.056; 5518.925;  157.350;    0.000
283.121; 5428.925;  178.350;    0.000
283.186; 5374.925;  152.350;    0.000
283.251; 5332.925;  167.350;    0.000
283.316; 5343.925;  186.350;    0.000
283.382; 5226.925;  148.350;    0.000
283.447; 5237.925;  191.350;    0.000
283.512; 5062.925;  132.350;    0.000
283.577; 5143.925;  179.350;    0.000
283.642; 5089.925;  185.350;    0.000
283.707; 5034.925;  136.350;    0.000
283.772; 4992.925;  119.350;    0.000
283.837; 4954.925;  136.350;    0.000
283.902; 4973.925;  135.350;    0.000
283.967; 4958.925;  146.350;    0.000
284.032; 4974.925;  140.350;    0.000
284.097; 5085.925;  199.350;    0.000
284.163; 5012.925;  144.350;    0.000
284.228; 5002.925;  183.350;    0.000
284.293; 4990.925;  141.350;    0.000
284.358; 5134.925;  146.350;    0.000
284.423; 5048.925;  127.350;    0.000
284.488; 5173.925;  186.350;    0.000
284.553; 5224.925;  155.350;    0.000
284.618; 5368.925;  118.350;    0.000
284.683; 5476.925;  145.350;    0.000
284.748; 5805.925;  139.350;    0.000
284.812; 6078.925;  147.350;    0.000
284.877; 6563.925;  123.350;    0.000
284.942; 7359.925;  153.350;    0.000
285.007; 8795.925;  168.350;    0.000
285.072;11894.925;  181.350;    0.000
285.137;19018.926;  147.350;    0.000
285.202;25221.926;  175.350;    0.000
285.267;21893.926;  182.350;    0.000
285.332;14705.925;  136.350;    0.000
285.397;10844.925;  138.350;    0.000
285.462; 8850.925;  151.350;    0.000
285.527; 7838.925;  159.350;    0.000
285.591; 7040.925;  177.350;    0.000
285.656; 6510.925;  144.350;    0.000
285.721; 6173.925;  125.350;    0.000
285.786; 5924.925;  169.350;    0.000
285.851; 5608.925;  175.350;    0.000
285.916; 5521.925;  164.350;    0.000
285.981; 5232.925;  134.350;    0.000
286.045; 5278.925;  154.350;    0.000
286.110; 5147.925;  136.350;    0.000
286.175; 4947.925;  155.350;    0.000
286.240; 4920.925;  138.350;    0.000
286.305; 4945.925;  213.350;    0.000
286.369; 4844.925;  221.350;    0.000
286.434; 4731.925;  172.350;    0.000
286.499; 4687.925;  161.350;    0.000
286.564; 4807.925;  189.350;    0.000
286.628; 4684.925;  144.350;    0.000
286.693; 4633.925;  176.350;    0.000
286.758; 4497.925;  168.350;    0.000
286.823; 4491.925;  142.350;    0.000
286.887; 4481.925;  134.350;    0.000
286.952; 4401.925;  180.350;    0.000
287.017; 4478.925;  204.350;    0.000
287.082; 4462.925;  120.350;    0.000
287.146; 4421.925;  173.350;    0.000
287.211; 4294.925;  167.350;    0.000
287.276; 4388.925;  164.350;    0.000
287.340; 4294.925;  138.350;    0.000
287.405; 4362.925;  172.350;    0.000
287.470; 4256.925;  142.350;    0.000
287.534; 4348.925;  155.350;    0.000
287.599; 4281.925;  166.350;    0.000
287.663; 4236.925;  171.350;    0.000
287.728; 4256.925;  190.350;    0.000
287.793; 4333.925;  197.350;    0.000
287.857; 4249.925;  165.350;    0.000
287.922; 4252.925;  147.350;    0.000
287.987; 4201.925;  167.350;    0.000
288.051; 4201.925;  151.350;    0.000
288.116; 4252.925;  154.350;    0.000
288.180; 4296.925;  186.350;    0.000
288.245; 4169.925;  161.350;    0.000
288.309; 4266.925;  177.350;    0.000
288.374; 4294.925;  151.350;    0.000
288.439; 4151.925;  169.350;    0.000
288.503; 4193.925;  133.350;    0.000
288.568; 4230.925;  206.350;    0.000
288.632; 4250.925;  192.350;    0.000
288.697; 4140.925;  183.350;    0.000
288.761; 4121.925;  148.350;    0.000
288.826; 4150.925;  136.350;    0.000
288.890; 4138.925;  185.350;    0.000
288.955; 4156.925;  150.350;    0.000
289.019; 4137.925;  165.350;    0.000
289.084; 4110.925;  150.350;    0.000
289.148; 4230.925;  146.350;    0.000
289.212; 4082.925;  172.350;    0.000
289.277; 4083.925;  177.350;    0.000
289.341; 4054.925;  190.350;    0.000
289.406; 4066.925;  117.350;    0.000
289.470; 4050.925;  173.350;    0.000
289.535; 4054.925;  170.350;    0.000
289.599; 4103.925;  154.350;    0.000
289.663; 4022.925;  173.350;    0.000
289.728; 4032.925;  176.350;    0.000
289.792; 4036.925;  138.350;    0.000
289.857; 4096.925;  203.350;    0.000
289.921; 4005.925;  143.350;    0.000
289.985; 4150.925;  150.350;    0.000
290.050; 4067.925;  170.350;    0.000
290.114; 4091.925;  125.350;    0.000
290.178; 3905.925;  161.350;    0.000
290.243; 3954.925;  119.350;    0.000
290.307; 4104.925;  169.350;    0.000
290.371; 4035.925;  169.350;    0.000
290.436; 4209.925;  170.350;    0.000
290.500; 4102.925;  144.350;    0.000
290.564; 4088.925;  179.350;    0.000
290.629; 4073.925;  166.350;    0.000
290.693; 4103.925;  156.350;    0.000
290.757; 4122.925;  147.350;    0.000
290.821; 4206.925;  170.350;    0.000
290.886; 4131.925;  167.350;    0.000
290.950; 4150.925;  187.350;    0.000
291.014; 4199.925;  164.350;    0.000
291.078; 4190.925;  115.350;    0.000
291.143; 4312.925;  149.350;    0.000
291.207; 4217.925;  163.350;    0.000
291.271; 4272.925;  177.350;    0.000
291.335; 4291.925;  148.350;    0.000
291.399; 4432.925;  155.350;    0.000
291.464; 4725.925;  114.350;    0.000
291.528; 4868.925;  153.350;    0.000
291.592; 4681.925;  156.350;    0.000
291.656; 4443.925;  170.350;    0.000
291.720; 4489.925;  159.350;    0.000
291.784; 4428.925;  159.350;    0.000
291.849; 4365.925;  154.350;    0.000
291.913; 4316.925;  118.350;    0.000
291.977; 4393.925;  157.350;    0.000
292.041; 4378.925;  163.350;    0.000
292.105; 4483.925;  135.350;    0.000
292.169; 4560.925;  155.350;    0.000
292.233; 4541.925;  163.350;    0.000
292.297; 4630.925;  144.350;    0.000
292.361; 4718.925;  143.350;    0.000
292.425; 4803.925;  177.350;    0.000
292.490; 5019.925;  159.350;    0.000
292.554; 5204.925;  137.350;    0.000
292.618; 5460.925;  144.350;    0.000
292.682; 5988.925;  169.350;    0.000
292.746; 6793.925;  166.350;    0.000
292.810; 8839.925;  147.350;    0.000
292.874;11239.925;  160.350;    0.000
292.938;11389.925;  174.350;    0.000
293.002;10231.925;  148.350;    0.000
293.066; 9444.925;  115.350;    0.000
293.130; 8735.925;  133.350;    0.000
293.194; 8275.925;  148.350;    0.000
293.258; 7912.925;  167.350;    0.000
293.322; 7719.925;  166.350;    0.000
293.386; 7715.925;  193.350;    0.000
293.450; 8453.925;  142.350;    0.000
293.514; 9377.925;  170.350;    0.000
293.577;12163.925;  153.350;    0.000
293.641;16473.926;  171.350;    0.000
293.705;17847.926;  168.350;    0.000
293.769;16144.925;  155.350;    0.000
293.833;14220.925;  161.350;    0.000
293.897;12147.925;  124.350;    0.000
293.961;10804.925;  165.350;    0.000
294.025; 9853.925;  118.350;    0.000
294.089; 9125.925;  125.350;    0.000
294.152; 8335.925;  160.350;    0.000
294.216; 7673.925;  160.350;    0.000
294.280; 7313.925;  158.350;    0.000
294.344; 7006.925;  119.350;    0.000
294.408; 6642.925;  168.350;    0.000
294.472; 6205.925;  156.350;    0.000
294.536; 6040.925;  192.350;    0.000
294.599; 5838.925;  171.350;    0.000
294.663; 5770.925;  139.350;    0.000
294.727; 5494.925;  136.350;    0.000
294.791; 5338.925;  118.350;    0.000
294.855; 5371.925;  118.350;    0.000
294.918; 5240.925;  127.350;    0.000
294.982; 5054.925;  167.350;    0.000
295.046; 4970.925;  178.350;    0.000
295.110; 4868.925;  157.350;    0.000
295.173; 4781.925;  101.350;    0.000
295.237; 4727.925;  145.350;    0.000
295.301; 4758.925;  135.350;    0.000
295.364; 4602.925;  185.350;    0.000
295.428; 4451.925;  112.350;    0.000
295.492; 4592.925;  142.350;    0.000
295.556; 4629.925;  170.350;    0.000
295.619; 4442.925;  193.350;    0.000
295.683; 4506.925;  144.350;    0.000
295.747; 4307.925;  152.350;    0.000
295.810; 4329.925;  139.350;    0.000
295.874; 4214.925;  157.350;    0.000
295.938; 4212.925;  128.350;    0.000
296.001; 4186.925;  164.350;    0.000
296.065; 4165.925;  184.350;    0.000
296.128; 4128.925;  127.350;    0.000
296.192; 4098.925;  166.350;    0.000
296.256; 4155.925;  154.350;    0.000
296.319; 3936.925;  128.350;    0.000
296.383; 4082.925;  146.350;    0.000
296.447; 3947.925;  155.350;    0.000
296.510; 4006.925;  177.350;    0.000
296.574; 3897.925;  169.350;    0.000
296.637; 3883.925;  140.350;    0.000
296.701; 3968.925;  181.350;    0.000
296.764; 3933.925;  131.350;    0.000
296.828; 4022.925;  194.350;    0.000
296.891; 3824.925;  146.350;    0.000
296.955; 3857.925;  160.350;    0.000
297.018; 3871.925;  174.350;    0.000
297.082; 3804.925;  153.350;    0.000
297.145; 3780.925;  133.350;    0.000
297.209; 3781.925;  149.350;    0.000
297.272; 3750.925;  150.350;    0.000
297.336; 3701.925;  119.350;    0.000
297.399; 3805.925;  160.350;    0.000
297.463; 3725.925;  158.350;    0.000
297.526; 3790.925;  160.350;    0.000
297.590; 3690.925;  173.350;    0.000
297.653; 3764.925;  121.350;    0.000
297.717; 3786.925;  168.350;    0.000
297.780; 3702.925;  131.350;    0.000
297.843; 3670.925;  154.350;    0.000
297.907; 3568.925;  126.350;    0.000
297.970; 3685.925;  180.350;    0.000
298.034; 3738.925;  140.350;    0.000
298.097; 3676.925;  207.350;    0.000
298.160; 3662.925;  177.350;    0.000
298.224; 3519.925;  165.350;    0.000
298.287; 3662.925;  160.350;    0.000
298.350; 3554.925;  176.350;    0.000
298.414; 3699.925;  155.350;    0.000
298.477; 3546.925;  132.350;    0.000
298.540; 3583.925;  162.350;    0.000
298.604; 3688.925;  180.350;    0.000
298.667; 3516.925;  208.350;    0.000
298.730; 3607.925;  177.350;    0.000
298.794; 3446.925;  126.350;    0.000
298.857; 3561.925;  171.350;    0.000
298.920; 3509.925;  124.350;    0.000
298.984; 3529.925;  146.350;    0.000
299.047; 3511.925;  140.350;    0.000
299.110; 3458.925;  159.350;    0.000
299.173; 3438.925;  177.350;    0.000
299.237; 3408.925;  196.350;    0.000
299.300; 3396.925;  121.350;    0.000
299.363; 3381.925;  172.350;    0.000
299.426; 3430.925;  117.350;    0.000
299.489; 3258.925;  138.350;    0.000
299.553; 3433.925;  198.350;    0.000
299.616; 3399.925;  158.350;    0.000
299.679; 3360.925;  148.350;    0.000
299.742; 3414.925;  138.350;    0.000
299.805; 3422.925;  157.350;    0.000
299.868; 3270.925;  183.350;    0.000
299.932; 3351.925;  137.350;    0.000
299.995; 3357.925;  152.350;    0.000
300.058; 3300.925;  171.350;    0.000
300.121; 3246.925;  172.350;    0.000
300.184; 3308.925;  161.350;    0.000
300.247; 3347.925;  156.350;    0.000
300.310; 3212.925;  154.350;    0.000
300.374; 3305.925;  147.350;    0.000
300.437; 3204.925;  144.350;    0.000
300.500; 3289.925;  152.350;    0.000
300.563; 3333.925;  160.350;    0.000
300.626; 3277.925;  167.350;    0.000
300.689; 3248.925;  193.350;    0.000
300.752; 3305.925;  134.350;    0.000
300.815; 3232.925;  194.350;    0.000
300.878; 3324.925;  156.350;    0.000
300.941; 3222.925;  177.350;    0.000
301.004; 3231.925;  160.350;    0.000
301.067; 3260.925;  153.350;    0.000
301.130; 3205.925;  167.350;    0.000
301.193; 3227.925;  156.350;    0.000
301.256; 3204.925;  176.350;    0.000
301.319; 3275.925;  172.350;    0.000
301.382; 3229.925;  150.350;    0.000
301.445; 3276.925;  183.350;    0.000
301.508; 3179.925;  118.350;    0.000
301.571; 3147.925;  142.350;    0.000
301.634; 3113.925;  164.350;    0.000
301.697; 3172.925;  169.350;    0.000
301.760; 3255.925;  197.350;    0.000
301.823; 3253.925;  155.350;    0.000
301.885; 3171.925;  165.350;    0.000
301.948; 3194.925;  168.350;    0.000
302.011; 3087.925;  172.350;    0.000
302.074; 3147.925;  182.350;    0.000
302.137; 3162.925;  161.350;    0.000
302.200; 3083.925;  174.350;    0.000
302.263; 3186.925;  158.350;    0.000
302.326; 3105.925;  168.350;    0.000
302.388; 3241.925;  165.350;    0.000
302.451; 3178.925;  158.350;    0.000
302.514; 3141.925;  181.350;    0.000
302.577; 3074.925;  147.350;    0.000
302.640; 3274.925;  178.350;    0.000
302.703; 3224.925;  164.350;    0.000
302.765; 3104.925;  149.350;    0.000
302.828; 3170.925;  192.350;    0.000
302.891; 3238.925;  201.350;    0.000
302.954; 3072.925;  135.350;    0.000
303.016; 3075.925;  180.350;    0.000
303.079; 3053.925;  192.350;    0.000
303.142; 3094.925;  176.350;    0.000
303.205; 3158.925;  176.350;    0.000
303.267; 3053.925;  163.350;    0.000
303.330; 3107.925;  162.350;    0.000
303.393; 3084.925;  164.350;    0.000
303.456; 3114.925;  180.350;    0.000
303.518; 3062.925;  162.350;    0.000
303.581; 3106.925;  137.350;    0.000
303.644; 3075.925;  135.350;    0.000
303.706; 2973.925;  170.350;    0.000
303.769; 3064.925;  216.350;    0.000
303.832; 3042.925;  143.350;    0.000
303.894; 3122.925;  162.350;    0.000
303.957; 3069.925;  149.350;    0.000
304.020; 3062.925;  111.350;    0.000
304.082; 3031.925;  158.350;    0.000
304.145; 3080.925;  149.350;    0.000
304.207; 3174.925;  169.350;    0.000
304.270; 3140.925;  170.350;    0.000
304.333; 3046.925;  185.350;    0.000
304.395; 3031.925;  179.350;    0.000
304.458; 3077.925;  174.350;    0.000
304.520; 3072.925;  160.350;    0.000
304.583; 3091.925;  175.350;    0.000
304.646; 3050.925;  160.350;    0.000
304.708; 3135.925;  173.350;    0.000
304.771; 3116.925;  115.350;    0.000
304.833; 3081.925;  172.350;    0.000
304.896; 3167.925;  187.350;    0.000
304.958; 3172.925;  142.350;    0.000
305.021; 3059.925;  164.350;    0.000
305.083; 3069.925;  139.350;    0.000
305.146; 3064.925;  162.350;    0.000
305.208; 3159.925;  135.350;    0.000
305.271; 3077.925;  159.350;    0.000
305.333; 3035.925;  210.350;    0.000
305.396; 3198.925;  151.350;    0.000
305.458; 3115.925;  195.350;    0.000
305.520; 3095.925;  179.350;    0.000
305.583; 3194.925;  157.350;    0.000
305.645; 3213.925;  187.350;    0.000
305.708; 3120.925;  159.350;    0.000
305.770; 3111.925;  189.350;    0.000
305.833; 3151.925;  147.350;    0.000
305.895; 3144.925;  154.350;    0.000
305.957; 3070.925;  143.350;    0.000
306.020; 3141.925;  133.350;    0.000
306.082; 3129.925;  146.350;    0.000
306.144; 3261.925;  171.350;    0.000
306.207; 3129.925;  151.350;    0.000
306.269; 3046.925;  169.350;    0.000
306.331; 3090.925;  162.350;    0.000
306.394; 3080.925;  171.350;    0.000
306.456; 3080.925;  155.350;    0.000
306.518; 3202.925;  183.350;    0.000
306.581; 3026.925;  180.350;    0.000
306.643; 3110.925;  199.350;    0.000
306.705; 3177.925;  163.350;    0.000
306.768; 3131.925;  183.350;    0.000
306.830; 3208.925;  183.350;    0.000
306.892; 3274.925;  190.350;    0.000
306.954; 3170.925;  161.350;    0.000
307.017; 3096.925;  151.350;    0.000
307.079; 3221.925;  147.350;    0.000
307.141; 3203.925;  179.350;    0.000
307.203; 3224.925;  143.350;    0.000
307.266; 3214.925;  142.350;    0.000
307.328; 3283.925;  161.350;    0.000
307.390; 3272.925;  189.350;    0.000
307.452; 3203.925;  155.350;    0.000
307.514; 3301.925;  211.350;    0.000
307.577; 3282.925;  201.350;    0.000
307.639; 3225.925;  192.350;    0.000
307.701; 3249.925;  162.350;    0.000
307.763; 3307.925;  155.350;    0.000
307.825; 3216.925;  193.350;    0.000
307.887; 3354.925;  214.350;    0.000
307.949; 3296.925;  208.350;    0.000
308.012; 3328.925;  175.350;    0.000
308.074; 3313.925;  155.350;    0.000
308.136; 3279.925;  172.350;    0.000
308.198; 3276.925;  171.350;    0.000
308.260; 3281.925;  182.350;    0.000
308.322; 3379.925;  177.350;    0.000
308.384; 3442.925;  207.350;    0.000
308.446; 3281.925;  170.350;    0.000
308.508; 3247.925;  177.350;    0.000
308.570; 3462.925;  195.350;    0.000
308.632; 3457.925;  190.350;    0.000
308.694; 3342.925;  161.350;    0.000
308.756; 3314.925;  173.350;    0.000
308.818; 3435.925;  190.350;    0.000
308.880; 3368.925;  197.350;    0.000
308.942; 3496.925;  223.350;    0.000
309.004; 3556.925;  176.350;    0.000
309.066; 3510.925;  182.350;    0.000
309.128; 3619.925;  185.350;    0.000
309.190; 3675.925;  166.350;    0.000
309.252; 3737.925;  191.350;    0.000
309.314; 3805.925;  208.350;    0.000
309.376; 3786.925;  205.350;    0.000
309.438; 3705.925;  166.350;    0.000
309.500; 3777.925;  195.350;    0.000
309.562; 3786.925;  163.350;    0.000
309.624; 3806.925;  162.350;    0.000
309.686; 3878.925;  194.350;    0.000
309.747; 3908.925;  179.350;    0.000
309.809; 3926.925;  211.350;    0.000
309.871; 3718.925;  191.350;    0.000
309.933; 3818.925;  151.350;    0.000
309.995; 3730.925;  179.350;    0.000
310.057; 3603.925;  175.350;    0.000
310.119; 3618.925;  161.350;    0.000
310.180; 3448.925;  167.350;    0.000
310.242; 3512.925;  171.350;    0.000
310.304; 3568.925;  209.350;    0.000
310.366; 3625.925;  229.350;    0.000
310.428; 3384.925;  132.350;    0.000
310.489; 3441.925;  165.350;    0.000
310.551; 3533.925;  193.350;    0.000
310.613; 3521.925;  182.350;    0.000
310.675; 3520.925;  186.350;    0.000
310.737; 3475.925;  192.350;    0.000
310.798; 3470.925;  194.350;    0.000
310.860; 3446.925;  220.350;    0.000
310.922; 3394.925;  161.350;    0.000
310.983; 3465.925;  203.350;    0.000
311.045; 3469.925;  198.350;    0.000
311.107; 3472.925;  179.350;    0.000
311.169; 3414.925;  154.350;    0.000
311.230; 3518.925;  134.350;    0.000
311.292; 3324.925;  215.350;    0.000
311.354; 3418.925;  171.350;    0.000
311.415; 3427.925;  195.350;    0.000
311.477; 3446.925;  185.350;    0.000
311.539; 3328.925;  183.350;    0.000
311.600; 3449.925;  183.350;    0.000
311.662; 3476.925;  207.350;    0.000
311.724; 3471.925;  193.350;    0.000
311.785; 3402.925;  180.350;    0.000
311.847; 3415.925;  155.350;    0.000
311.908; 3402.925;  179.350;    0.000
311.970; 3439.925;  193.350;    0.000
312.032; 3499.925;  188.350;    0.000
312.093; 3468.925;  166.350;    0.000
312.155; 3473.925;  147.350;    0.000
312.216; 3468.925;  177.350;    0.000
312.278; 3459.925;  162.350;    0.000
312.339; 3385.925;  158.350;    0.000
312.401; 3437.925;  181.350;    0.000
312.462; 3516.925;  153.350;    0.000
312.524; 3477.925;  186.350;    0.000
312.585; 3453.925;  191.350;    0.000
312.647; 3454.925;  131.350;    0.000
312.708; 3346.925;  170.350;    0.000
312.770; 3451.925;  194.350;    0.000
312.831; 3480.925;  161.350;    0.000
312.893; 3448.925;  179.350;    0.000
312.954; 3504.925;  183.350;    0.000
313.016; 3484.925;  189.350;    0.000
313.077; 3465.925;  169.350;    0.000
313.139; 3421.925;  148.350;    0.000
313.200; 3457.925;  155.350;    0.000
313.261; 3511.925;  213.350;    0.000
313.323; 3523.925;  162.350;    0.000
313.384; 3366.925;  160.350;    0.000
313.446; 3488.925;  202.350;    0.000
313.507; 3472.925;  149.350;    0.000
313.568; 3409.925;  194.350;    0.000
313.630; 3393.925;  163.350;    0.000
313.691; 3494.925;  158.350;    0.000
313.752; 3483.925;  179.350;    0.000
313.814; 3441.925;  180.350;    0.000
313.875; 3374.925;  191.350;    0.000
313.936; 3450.925;  169.350;    0.000
313.998; 3440.925;  165.350;    0.000
314.059; 3401.925;  211.350;    0.000
314.120; 3360.925;  190.350;    0.000
314.182; 3480.925;  185.350;    0.000
314.243; 3376.925;  186.350;    0.000
314.304; 3525.925;  178.350;    0.000
314.365; 3506.925;  187.350;    0.000
314.427; 3463.925;  145.350;    0.000
314.488; 3363.925;  184.350;    0.000
314.549; 3403.925;  181.350;    0.000
314.610; 3472.925;  151.350;    0.000
314.672; 3428.925;  153.350;    0.000
314.733; 3437.925;  148.350;    0.000
314.794; 3277.925;  156.350;    0.000
314.855; 3457.925;  196.350;    0.000
314.917; 3449.925;  157.350;    0.000
314.978; 3487.925;  174.350;    0.000
315.039; 3412.925;  168.350;    0.000
315.100; 3460.925;  154.350;    0.000
315.161; 3338.925;  176.350;    0.000
315.222; 3422.925;  198.350;    0.000
315.283; 3343.925;  169.350;    0.000
315.345; 3311.925;  162.350;    0.000
315.406; 3517.925;  199.350;    0.000
315.467; 3444.925;  180.350;    0.000
315.528; 3362.925;  179.350;    0.000
315.589; 3347.925;  166.350;    0.000
315.650; 3351.925;  179.350;    0.000
315.711; 3432.925;  177.350;    0.000
315.772; 3389.925;  180.350;    0.000
315.833; 3396.925;  157.350;    0.000
315.894; 3415.925;  133.350;    0.000
315.955; 3377.925;  205.350;    0.000
316.016; 3405.925;  190.350;    0.000
316.078; 3452.925;  174.350;    0.000
316.139; 3403.925;  208.350;    0.000
316.200; 3355.925;  166.350;    0.000
316.261; 3366.925;  186.350;    0.000
316.322; 3380.925;  185.350;    0.000
316.383; 3367.925;  179.350;    0.000
316.444; 3395.925;  172.350;    0.000
316.504; 3427.925;  181.350;    0.000
316.565; 3308.925;  197.350;    0.000
316.626; 3353.925;  196.350;    0.000
316.687; 3343.925;  173.350;    0.000
316.748; 3337.925;  178.350;    0.000
316.809; 3329.925;  178.350;    0.000
316.870; 3339.925;  134.350;    0.000
316.931; 3496.925;  166.350;    0.000
316.992; 3337.925;  200.350;    0.000
317.053; 3340.925;  169.350;    0.000
317.114; 3320.925;  185.350;    0.000
317.175; 3369.925;  213.350;    0.000
317.235; 3449.925;  199.350;    0.000
317.296; 3342.925;  190.350;    0.000
317.357; 3219.925;  152.350;    0.000
317.418; 3325.925;  192.350;    0.000
317.479; 3284.925;  170.350;    0.000
317.540; 3372.925;  179.350;    0.000
317.601; 3220.925;  155.350;    0.000
317.661; 3469.925;  154.350;    0.000
317.722; 3354.925;  190.350;    0.000
317.783; 3251.925;  149.350;    0.000
317.844; 3365.925;  207.350;    0.000
317.904; 3361.925;  153.350;    0.000
317.965; 3280.925;  179.350;    0.000
318.026; 3318.925;  235.350;    0.000
318.087; 3359.925;  184.350;    0.000
318.148; 3394.925;  201.350;    0.000
318.208; 3350.925;  220.350;    0.000
318.269; 3211.925;  175.350;    0.000
318.330; 3298.925;  185.350;    0.000
318.390; 3321.925;  180.350;    0.000
318.451; 3254.925;  164.350;    0.000
318.512; 3322.925;  150.350;    0.000
318.572; 3283.925;  205.350;    0.000
318.633; 3364.925;  224.350;    0.000
318.694; 3468.925;  202.350;    0.000
318.754; 3322.925;  196.350;    0.000
318.815; 3264.925;  187.350;    0.000
318.876; 3301.925;  200.350;    0.000
318.936; 3359.925;  232.350;    0.000
318.997; 3323.925;  211.350;    0.000
319.058; 3420.925;  194.350;    0.000
319.118; 3321.925;  197.350;    0.000
319.179; 3250.925;  162.350;    0.000
319.239; 3373.925;  188.350;    0.000
319.300; 3229.925;  205.350;    0.000
319.361; 3229.925;  179.350;    0.000
319.421; 3288.925;  182.350;    0.000
319.482; 3280.925;  189.350;    0.000
319.542; 3206.925;  180.350;    0.000
319.603; 3210.925;  204.350;    0.000
319.663; 3278.925;  195.350;    0.000
319.724; 3265.925;  135.350;    0.000
319.784; 3263.925;  184.350;    0.000
319.845; 3266.925;  160.350;    0.000
319.905; 3324.925;  206.350;    0.000
319.966; 3200.925;  203.350;    0.000
320.026; 3248.925;  203.350;    0.000
320.087; 3263.925;  206.350;    0.000
320.147; 3278.925;  180.350;    0.000
320.208; 3235.925;  189.350;    0.000
320.268; 3259.925;  179.350;    0.000
320.329; 3185.925;  215.350;    0.000
320.389; 3243.925;  193.350;    0.000
320.449; 3280.925;  210.350;    0.000
320.510; 3287.925;  206.350;    0.000
320.570; 3267.925;  221.350;    0.000
320.631; 3230.925;  203.350;    0.000
320.691; 3285.925;  190.350;    0.000
320.751; 3175.925;  205.350;    0.000
320.812; 3239.925;  191.350;    0.000
320.872; 3337.925;  216.350;    0.000
320.932; 3252.925;  209.350;    0.000
320.993; 3192.925;  189.350;    0.000
321.053; 3245.925;  228.350;    0.000
321.113; 3207.925;  163.350;    0.000
321.174; 3234.925;  204.350;    0.000
321.234; 3347.925;  214.350;    0.000
321.294; 3265.925;  184.350;    0.000
321.355; 3256.925;  216.350;    0.000
321.415; 3353.925;  187.350;    0.000
321.475; 3240.925;  216.350;    0.000
321.535; 3189.925;  189.350;    0.000
321.596; 3226.925;  186.350;    0.000
321.656; 3177.925;  204.350;    0.000
321.716; 3246.925;  183.350;    0.000
321.776; 3225.925;  194.350;    0.000
321.837; 3256.925;  190.350;    0.000
321.897; 3246.925;  219.350;    0.000
321.957; 3232.925;  222.350;    0.000
322.017; 3268.925;  183.350;    0.000
322.077; 3286.925;  239.350;    0.000
322.138; 3203.925;  219.350;    0.000
322.198; 3222.925;  185.350;    0.000
322.258; 3297.925;  231.350;    0.000
322.318; 3181.925;  197.350;    0.000
322.378; 3254.925;  179.350;    0.000
322.438; 3161.925;  217.350;    0.000
322.499; 3280.925;  238.350;    0.000
322.559; 3140.925;  197.350;    0.000
322.619; 3204.925;  204.350;    0.000
322.679; 3148.925;  199.350;    0.000
322.739; 3216.925;  194.350;    0.000
322.799; 3139.925;  203.350;    0.000
322.859; 3291.925;  234.350;    0.000
322.919; 3133.925;  194.350;    0.000
322.979; 3255.925;  219.350;    0.000
323.039; 3209.925;  193.350;    0.000
323.099; 3121.925;  207.350;    0.000
323.159; 3159.925;  213.350;    0.000
323.219; 3178.925;  171.350;    0.000
323.279; 3227.925;  215.350;    0.000
323.339; 3206.925;  170.350;    0.000
323.399; 3306.925;  195.350;    0.000
323.459; 3225.925;  234.350;    0.000
323.519; 3280.925;  201.350;    0.000
323.579; 3193.925;  167.350;    0.000
323.639; 3256.925;  209.350;    0.000
323.699; 3234.925;  217.350;    0.000
323.759; 3282.925;  213.350;    0.000
323.819; 3227.925;  216.350;    0.000
323.879; 3228.925;  193.350;    0.000
323.939; 3195.925;  182.350;    0.000
323.999; 3278.925;  206.350;    0.000
324.059; 3214.925;  196.350;    0.000
324.119; 3213.925;  240.350;    0.000
324.178; 3173.925;  186.350;    0.000
324.238; 3199.925;  179.350;    0.000
324.298; 3214.925;  195.350;    0.000
324.358; 3156.925;  208.350;    0.000
324.418; 3202.925;  190.350;    0.000
324.478; 3274.925;  197.350;    0.000
324.538; 3101.925;  157.350;    0.000
324.597; 3264.925;  219.350;    0.000
324.657; 3239.925;  176.350;    0.000
324.717; 3130.925;  179.350;    0.000
324.777; 3052.925;  190.350;    0.000
324.837; 3172.925;  172.350;    0.000
324.896; 3169.925;  199.350;    0.000
324.956; 3215.925;  216.350;    0.000
325.016; 3220.925;  191.350;    0.000
325.076; 3181.925;  185.350;    0.000
325.135; 3177.925;  174.350;    0.000
325.195; 3160.925;  175.350;    0.000
325.255; 3183.925;  144.350;    0.000
325.315; 3167.925;  201.350;    0.000
325.374; 3168.925;  198.350;    0.000
325.434; 3128.925;  181.350;    0.000
325.494; 3193.925;  183.350;    0.000
325.553; 3239.925;  172.350;    0.000
325.613; 3237.925;  200.350;    0.000
325.673; 3131.925;  177.350;    0.000
325.732; 3099.925;  174.350;    0.000
325.792; 3158.925;  181.350;    0.000
325.852; 3195.925;  214.350;    0.000
325.911; 3196.925;  230.350;    0.000
325.971; 3183.925;  198.350;    0.000
326.031; 3109.925;  201.350;    0.000
326.090; 3182.925;  214.350;    0.000
326.150; 3217.925;  163.350;    0.000
326.209; 3129.925;  207.350;    0.000
326.269; 3145.925;  201.350;    0.000
326.328; 3210.925;  208.350;    0.000
326.388; 3114.925;  169.350;    0.000
326.448; 3152.925;  229.350;    0.000
326.507; 3102.925;  243.350;    0.000
326.567; 3180.925;  162.350;    0.000
326.626; 3168.925;  200.350;    0.000
326.686; 3074.925;  166.350;    0.000
326.745; 3133.925;  178.350;    0.000
326.805; 3112.925;  185.350;    0.000
326.864; 3109.925;  209.350;    0.000
326.924; 3035.925;  234.350;    0.000
326.983; 3072.925;  197.350;    0.000
327.043; 3098.925;  217.350;    0.000
327.102; 3025.925;  174.350;    0.000
327.161; 3070.925;  172.350;    0.000
327.221; 3101.925;  183.350;    0.000
327.280; 2923.925;  200.350;    0.000
327.340; 3028.925;  200.350;    0.000
327.399; 3128.925;  219.350;    0.000
327.459; 2912.925;  246.350;    0.000
327.518; 3094.925;  217.350;    0.000
327.577; 3021.925;  212.350;    0.000
327.637; 3029.925;  188.350;    0.000
327.696; 2957.925;  201.350;    0.000
327.755; 3039.925;  199.350;    0.000
327.815; 3010.925;  224.350;    0.000
327.874; 3056.925;  236.350;    0.000
327.933; 3002.925;  182.350;    0.000
327.993; 3006.925;  206.350;    0.000
328.052; 3043.925;  191.350;    0.000
328.111; 3054.925;  222.350;    0.000
328.171; 2945.925;  200.350;    0.000
328.230; 2972.925;  203.350;    0.000
328.289; 3002.925;  219.350;    0.000
328.349; 3001.925;  231.350;    0.000
328.408; 3000.925;  223.350;    0.000
328.467; 3028.925;  226.350;    0.000
328.526; 3073.925;  197.350;    0.000
328.586; 3036.925;  221.350;    0.000
328.645; 3064.925;  199.350;    0.000
328.704; 2979.925;  227.350;    0.000
328.763; 3049.925;  201.350;    0.000
328.822; 3064.925;  230.350;    0.000
328.882; 3059.925;  244.350;    0.000
328.941; 3023.925;  221.350;    0.000
329.000; 2957.925;  207.350;    0.000
329.059; 2952.925;  208.350;    0.000
329.118; 3005.925;  203.350;    0.000
329.177; 2903.925;  198.350;    0.000
329.237; 3031.925;  218.350;    0.000
329.296; 3030.925;  213.350;    0.000
329.355; 3001.925;  208.350;    0.000
329.414; 2926.925;  231.350;    0.000
329.473; 3017.925;  221.350;    0.000
329.532; 2965.925;  243.350;    0.000
329.591; 3038.925;  210.350;    0.000
329.650; 3026.925;  232.350;    0.000
329.709; 3074.925;  211.350;    0.000
329.768; 3072.925;  194.350;    0.000
329.827; 2998.925;  237.350;    0.000
329.886; 3106.925;  213.350;    0.000
329.945; 3154.925;  190.350;    0.000
330.004; 3264.925;  233.350;    0.000
330.063; 3151.925;  191.350;    0.000
330.122; 3334.925;  234.350;    0.000
330.181; 3530.925;  220.350;    0.000
330.240; 3664.925;  191.350;    0.000
330.299; 3391.925;  210.350;    0.000
330.358; 3157.925;  191.350;    0.000
330.417; 3076.925;  225.350;    0.000
330.476; 3016.925;  226.350;    0.000
330.535; 3065.925;  217.350;    0.000
330.594; 3097.925;  205.350;    0.000
330.653; 2968.925;  193.350;    0.000
330.712; 2935.925;  206.350;    0.000
330.771; 2977.925;  175.350;    0.000
330.830; 2974.925;  204.350;    0.000
330.889; 3006.925;  198.350;    0.000
330.948; 2925.925;  198.350;    0.000
331.006; 2949.925;  207.350;    0.000
331.065; 2864.925;  203.350;    0.000
331.124; 2962.925;  210.350;    0.000
331.183; 2942.925;  165.350;    0.000
331.242; 2992.925;  195.350;    0.000
331.301; 2948.925;  191.350;    0.000
331.359; 2907.925;  205.350;    0.000
331.418; 2882.925;  183.350;    0.000
331.477; 2904.925;  198.350;    0.000
331.536; 2893.925;  211.350;    0.000
331.595; 2779.925;  191.350;    0.000
331.653; 3041.925;  232.350;    0.000
331.712; 2806.925;  225.350;    0.000
331.771; 2837.925;  199.350;    0.000
331.830; 2802.925;  189.350;    0.000
331.888; 2899.925;  219.350;    0.000
331.947; 2870.925;  188.350;    0.000
332.006; 2968.925;  180.350;    0.000
332.065; 2874.925;  177.350;    0.000
332.123; 2912.925;  214.350;    0.000
332.182; 2919.925;  223.350;    0.000
332.241; 2910.925;  202.350;    0.000
332.299; 2945.925;  180.350;    0.000
332.358; 2900.925;  206.350;    0.000
332.417; 3017.925;  195.350;    0.000
332.475; 2985.925;  221.350;    0.000
332.534; 2902.925;  207.350;    0.000
332.592; 2852.925;  190.350;    0.000
332.651; 2927.925;  203.350;    0.000
332.710; 2992.925;  219.350;    0.000
332.768; 2998.925;  210.350;    0.000
332.827; 2920.925;  173.350;    0.000
332.885; 2951.925;  239.350;    0.000
332.944; 2927.925;  145.350;    0.000
333.003; 3013.925;  197.350;    0.000
333.061; 2900.925;  179.350;    0.000
333.120; 3065.925;  198.350;    0.000
333.178; 3031.925;  185.350;    0.000
333.237; 3065.925;  204.350;    0.000
333.295; 3092.925;  266.350;    0.000
333.354; 3115.925;  181.350;    0.000
333.412; 3084.925;  189.350;    0.000
333.471; 3017.925;  216.350;    0.000
333.529; 2994.925;  220.350;    0.000
333.588; 3235.925;  193.350;    0.000
333.646; 3241.925;  186.350;    0.000
333.705; 3381.925;  210.350;    0.000
333.763; 3210.925;  222.350;    0.000
333.822; 3168.925;  222.350;    0.000
333.880; 3075.925;  202.350;    0.000
333.938; 3048.925;  205.350;    0.000
333.997; 3092.925;  199.350;    0.000
334.055; 3100.925;  199.350;    0.000
334.114; 2993.925;  237.350;    0.000
334.172; 3017.925;  155.350;    0.000
334.230; 3083.925;  208.350;    0.000
334.289; 2959.925;  191.350;    0.000
334.347; 3077.925;  211.350;    0.000
334.405; 3064.925;  212.350;    0.000
334.464; 3080.925;  179.350;    0.000
334.522; 3055.925;  160.350;    0.000
334.580; 3027.925;  195.350;    0.000
334.639; 3082.925;  191.350;    0.000
334.697; 2927.925;  194.350;    0.000
334.755; 3047.925;  185.350;    0.000
334.814; 3051.925;  214.350;    0.000
334.872; 2997.925;  179.350;    0.000
334.930; 2974.925;  169.350;    0.000
334.988; 3001.925;  201.350;    0.000
335.047; 2963.925;  188.350;    0.000
335.105; 2963.925;  175.350;    0.000
335.163; 2932.925;  191.350;    0.000
335.221; 3104.925;  196.350;    0.000
335.280; 3070.925;  182.350;    0.000
335.338; 3025.925;  202.350;    0.000
335.396; 2919.925;  219.350;    0.000
335.454; 2959.925;  187.350;    0.000
335.512; 3069.925;  236.350;    0.000
335.570; 2976.925;  209.350;    0.000
335.629; 2990.925;  247.350;    0.000
335.687; 3041.925;  219.350;    0.000
335.745; 3073.925;  203.350;    0.000
335.803; 3132.925;  220.350;    0.000
335.861; 3113.925;  208.350;    0.000
335.919; 3068.925;  223.350;    0.000
335.977; 3030.925;  201.350;    0.000
336.035; 2954.925;  193.350;    0.000
336.094; 2987.925;  178.350;    0.000
336.152; 3004.925;  182.350;    0.000
336.210; 2995.925;  199.350;    0.000
336.268; 2972.925;  216.350;    0.000
336.326; 3048.925;  216.350;    0.000
336.384; 3011.925;  201.350;    0.000
336.442; 2975.925;  197.350;    0.000
336.500; 2981.925;  203.350;    0.000
336.558; 3059.925;  198.350;    0.000
336.616; 3095.925;  210.350;    0.000
336.674; 2993.925;  192.350;    0.000
336.732; 3007.925;  182.350;    0.000
336.790; 2998.925;  189.350;    0.000
336.848; 3005.925;  233.350;    0.000
336.906; 3043.925;  235.350;    0.000
336.964; 3010.925;  208.350;    0.000
337.022; 3071.925;  249.350;    0.000
337.080; 2948.925;  204.350;    0.000
337.138; 3058.925;  176.350;    0.000
337.195; 3023.925;  207.350;    0.000
337.253; 2936.925;  214.350;    0.000
337.311; 2889.925;  210.350;    0.000
337.369; 2945.925;  222.350;    0.000
337.427; 3048.925;  236.350;    0.000
337.485; 2927.925;  241.350;    0.000
337.543; 2897.925;  217.350;    0.000
337.601; 2914.925;  221.350;    0.000
337.658; 2866.925;  205.350;    0.000
337.716; 2865.925;  210.350;    0.000
337.774; 2923.925;  196.350;    0.000
337.832; 2922.925;  200.350;    0.000
337.890; 2798.925;  192.350;    0.000
337.947; 2874.925;  192.350;    0.000
338.005; 2874.925;  211.350;    0.000
338.063; 2875.925;  176.350;    0.000
338.121; 2882.925;  222.350;    0.000
338.178; 2838.925;  198.350;    0.000
338.236; 2914.925;  210.350;    0.000
338.294; 2956.925;  211.350;    0.000
338.352; 2805.925;  212.350;    0.000
338.409; 2862.925;  199.350;    0.000
338.467; 2854.925;  205.350;    0.000
338.525; 2882.925;  217.350;    0.000
338.583; 2853.925;  197.350;    0.000
338.640; 2836.925;  226.350;    0.000
338.698; 2850.925;  201.350;    0.000
338.756; 2784.925;  192.350;    0.000
338.813; 2894.925;  220.350;    0.000
338.871; 2928.925;  258.350;    0.000
338.928; 2911.925;  223.350;    0.000
338.986; 2918.925;  200.350;    0.000
339.044; 2807.925;  206.350;    0.000
339.101; 2846.925;  250.350;    0.000
339.159; 2821.925;  245.350;    0.000
339.216; 2827.925;  227.350;    0.000
339.274; 2918.925;  260.350;    0.000
339.332; 2923.925;  223.350;    0.000
339.389; 2794.925;  233.350;    0.000
339.447; 2834.925;  206.350;    0.000
339.504; 2835.925;  229.350;    0.000
339.562; 2912.925;  194.350;    0.000
339.619; 2829.925;  245.350;    0.000
339.677; 2862.925;  238.350;    0.000
339.734; 2876.925;  197.350;    0.000
339.792; 2789.925;  210.350;    0.000
339.849; 2821.925;  201.350;    0.000
339.907; 2844.925;  252.350;    0.000
339.964; 2846.925;  191.350;    0.000
340.022; 2755.925;  246.350;    0.000
340.079; 2852.925;  213.350;    0.000
340.137; 2760.925;  240.350;    0.000
340.194; 2805.925;  208.350;    0.000
340.252; 2902.925;  215.350;    0.000
340.309; 2793.925;  203.350;    0.000
340.366; 2807.925;  194.350;    0.000
340.424; 2797.925;  226.350;    0.000
340.481; 2806.925;  234.350;    0.000
340.538; 2718.925;  205.350;    0.000
340.596; 2796.925;  197.350;    0.000
340.653; 2891.925;  233.350;    0.000
340.711; 2930.925;  273.350;    0.000
340.768; 2830.925;  237.350;    0.000
340.825; 2876.925;  224.350;    0.000
340.883; 2965.925;  240.350;    0.000
340.940; 2823.925;  216.350;    0.000
340.997; 2854.925;  228.350;    0.000
341.054; 2778.925;  200.350;    0.000
341.112; 2761.925;  220.350;    0.000
341.169; 2830.925;  226.350;    0.000
341.226; 2897.925;  206.350;    0.000
341.284; 2908.925;  204.350;    0.000
341.341; 2866.925;  214.350;    0.000
341.398; 2764.925;  160.350;    0.000
341.455; 2872.925;  209.350;    0.000
341.512; 2884.925;  233.350;    0.000
341.570; 2863.925;  240.350;    0.000
341.627; 2848.925;  209.350;    0.000
341.684; 2773.925;  178.350;    0.000
341.741; 2881.925;  254.350;    0.000
341.798; 2911.925;  232.350;    0.000
341.856; 2867.925;  196.350;    0.000
341.913; 2755.925;  244.350;    0.000
341.970; 2850.925;  203.350;    0.000
342.027; 2840.925;  235.350;    0.000
342.084; 2869.925;  214.350;    0.000
342.141; 2825.925;  194.350;    0.000
342.198; 2947.925;  194.350;    0.000
342.255; 2896.925;  219.350;    0.000
342.313; 2845.925;  195.350;    0.000
342.370; 2844.925;  207.350;    0.000
342.427; 2786.925;  217.350;    0.000
342.484; 2801.925;  213.350;    0.000
342.541; 2867.925;  215.350;    0.000
342.598; 2942.925;  247.350;    0.000
342.655; 2747.925;  205.350;    0.000
342.712; 2862.925;  226.350;    0.000
342.769; 2868.925;  212.350;    0.000
342.826; 2881.925;  203.350;    0.000
342.883; 2798.925;  207.350;    0.000
342.940; 2839.925;  204.350;    0.000
342.997; 2788.925;  237.350;    0.000
343.054; 2829.925;  210.350;    0.000
343.111; 2796.925;  209.350;    0.000
343.168; 2868.925;  201.350;    0.000
343.225; 2891.925;  208.350;    0.000
343.282; 2949.925;  216.350;    0.000
343.339; 2956.925;  237.350;    0.000
343.395; 2905.925;  218.350;    0.000
343.452; 3057.925;  234.350;    0.000
343.509; 2975.925;  214.350;    0.000
343.566; 2986.925;  222.350;    0.000
343.623; 3025.925;  226.350;    0.000
343.680; 2992.925;  245.350;    0.000
343.737; 3026.925;  209.350;    0.000
343.794; 3065.925;  227.350;    0.000
343.850; 3062.925;  197.350;    0.000
343.907; 3112.925;  211.350;    0.000
343.964; 3071.925;  190.350;    0.000
344.021; 2972.925;  252.350;    0.000
344.078; 3128.925;  261.350;    0.000
344.134; 3102.925;  206.350;    0.000
344.191; 3093.925;  231.350;    0.000
344.248; 3107.925;  225.350;    0.000
344.305; 3089.925;  210.350;    0.000
344.361; 3005.925;  194.350;    0.000
344.418; 3042.925;  219.350;    0.000
344.475; 3068.925;  245.350;    0.000
344.532; 3063.925;  238.350;    0.000
344.588; 3066.925;  235.350;    0.000
344.645; 3120.925;  229.350;    0.000
344.702; 3062.925;  145.350;    0.000
344.758; 3125.925;  240.350;    0.000
344.815; 3021.925;  215.350;    0.000
344.872; 2950.925;  203.350;    0.000
344.928; 3033.925;  208.350;    0.000
344.985; 3090.925;  216.350;    0.000
345.042; 3094.925;  234.350;    0.000
345.098; 2952.925;  183.350;    0.000
345.155; 2996.925;  241.350;    0.000
345.212; 3080.925;  222.350;    0.000
345.268; 3076.925;  234.350;    0.000
345.325; 2954.925;  181.350;    0.000
345.381; 3091.925;  251.350;    0.000
345.438; 3043.925;  256.350;    0.000
345.495; 3141.925;  247.350;    0.000
345.551; 3073.925;  231.350;    0.000
345.608; 3042.925;  206.350;    0.000
345.664; 3111.925;  201.350;    0.000
345.721; 3015.925;  216.350;    0.000
345.777; 2944.925;  195.350;    0.000
345.834; 2926.925;  195.350;    0.000
345.890; 2990.925;  227.350;    0.000
345.947; 3083.925;  240.350;    0.000
346.003; 3029.925;  248.350;    0.000
346.060; 2947.925;  213.350;    0.000
346.116; 3098.925;  225.350;    0.000
346.173; 3046.925;  199.350;    0.000
346.229; 3029.925;  264.350;    0.000
346.285; 3006.925;  246.350;    0.000
346.342; 3055.925;  240.350;    0.000
346.398; 3096.925;  222.350;    0.000
346.455; 3124.925;  231.350;    0.000
346.511; 3146.925;  214.350;    0.000
346.567; 3100.925;  231.350;    0.000
346.624; 3029.925;  222.350;    0.000
346.680; 3101.925;  197.350;    0.000
346.737; 3089.925;  225.350;    0.000
346.793; 3120.925;  255.350;    0.000
346.849; 3067.925;  245.350;    0.000
346.906; 3088.925;  221.350;    0.000
346.962; 3124.925;  260.350;    0.000
347.018; 3136.925;  238.350;    0.000
347.074; 3131.925;  257.350;    0.000
347.131; 3027.925;  200.350;    0.000
347.187; 3053.925;  232.350;    0.000
347.243; 3085.925;  240.350;    0.000
347.300; 3015.925;  249.350;    0.000
347.356; 3111.925;  250.350;    0.000
347.412; 3081.925;  252.350;    0.000
347.468; 3052.925;  254.350;    0.000
347.524; 3134.925;  280.350;    0.000
347.581; 3063.925;  228.350;    0.000
347.637; 3027.925;  261.350;    0.000
347.693; 3096.925;  238.350;    0.000
347.749; 3099.925;  261.350;    0.000
347.805; 3038.925;  238.350;    0.000
347.862; 3087.925;  246.350;    0.000
347.918; 3069.925;  256.350;    0.000
347.974; 3131.925;  277.350;    0.000
348.030; 3111.925;  242.350;    0.000
348.086; 3052.925;  223.350;    0.000
348.142; 3075.925;  215.350;    0.000
348.198; 3150.925;  272.350;    0.000
348.254; 3157.925;  292.350;    0.000
348.311; 3093.925;  235.350;    0.000
348.367; 3093.925;  263.350;    0.000
348.423; 3063.925;  193.350;    0.000
348.479; 3156.925;  266.350;    0.000
348.535; 3130.925;  238.350;    0.000
348.591; 3100.925;  237.350;    0.000
348.647; 3122.925;  239.350;    0.000
348.703; 3197.925;  240.350;    0.000
348.759; 3059.925;  253.350;    0.000
348.815; 3052.925;  255.350;    0.000
348.871; 3121.925;  256.350;    0.000
348.927; 3108.925;  261.350;    0.000
348.983; 3110.925;  258.350;    0.000
349.039; 3159.925;  204.350;    0.000
349.095; 3189.925;  215.350;    0.000
349.151; 3176.925;  230.350;    0.000
349.207; 3123.925;  216.350;    0.000
349.263; 3150.925;  235.350;    0.000
349.319; 3191.925;  244.350;    0.000
349.374; 3174.925;  213.350;    0.000
349.430; 3251.925;  241.350;    0.000
349.486; 3187.925;  248.350;    0.000
349.542; 3160.925;  259.350;    0.000
349.598; 3193.925;  208.350;    0.000
349.654; 3056.925;  242.350;    0.000
349.710; 3015.925;  246.350;    0.000
349.766; 3129.925;  226.350;    0.000
349.821; 3225.925;  227.350;    0.000
349.877; 3244.925;  226.350;    0.000
349.933; 3173.925;  249.350;    0.000
349.989; 3193.925;  263.350;    0.000
350.045; 3180.925;  267.350;    0.000
350.100; 3094.925;  219.350;    0.000
350.156; 3085.925;  207.350;    0.000
350.212; 3124.925;  230.350;    0.000
350.268; 3184.925;  223.350;    0.000
350.323; 3135.925;  217.350;    0.000
350.379; 3192.925;  227.350;    0.000
350.435; 3162.925;  219.350;    0.000
350.491; 3149.925;  195.350;    0.000
350.546; 3101.925;  229.350;    0.000
350.602; 3067.925;  222.350;    0.000
350.658; 3159.925;  225.350;    0.000
350.713; 3242.925;  231.350;    0.000
350.769; 3188.925;  193.350;    0.000
350.825; 3056.925;  182.350;    0.000
350.880; 3213.925;  193.350;    0.000
350.936; 3177.925;  222.350;    0.000
350.992; 3194.925;  217.350;    0.000
351.047; 3191.925;  226.350;    0.000
351.103; 3133.925;  187.350;    0.000
351.158; 3242.925;  212.350;    0.000
351.214; 3230.925;  207.350;    0.000
351.270; 3226.925;  194.350;    0.000
351.325; 3189.925;  213.350;    0.000
351.381; 3242.925;  223.350;    0.000
351.436; 3186.925;  222.350;    0.000
351.492; 3192.925;  219.350;    0.000
351.547; 3176.925;  205.350;    0.000
351.603; 3206.925;  218.350;    0.000
351.658; 3168.925;  199.350;    0.000
351.714; 3156.925;  201.350;    0.000
351.769; 3235.925;  209.350;    0.000
351.825; 3239.925;  226.350;    0.000
351.880; 3096.925;  189.350;    0.000
351.936; 3329.925;  201.350;    0.000
351.991; 3289.925;  220.350;    0.000
352.047; 3125.925;  232.350;    0.000
352.102; 3113.925;  185.350;    0.000
352.158; 3103.925;  228.350;    0.000
352.213; 3232.925;  204.350;    0.000
352.268; 3108.925;  220.350;    0.000
352.324; 3198.925;  206.350;    0.000
352.379; 3238.925;  182.350;    0.000
352.434; 3183.925;  214.350;    0.000
352.490; 3261.925;  250.350;    0.000
352.545; 3173.925;  290.350;    0.000
352.601; 3206.925;  247.350;    0.000
352.656; 3118.925;  203.350;    0.000
352.711; 3183.925;  197.350;    0.000
352.767; 3244.925;  169.350;    0.000
352.822; 3254.925;  191.350;    0.000
352.877; 3230.925;  235.350;    0.000
352.932; 3262.925;  231.350;    0.000
352.988; 3135.925;  224.350;    0.000
353.043; 3253.925;  226.350;    0.000
353.098; 3238.925;  227.350;    0.000
353.153; 3208.925;  239.350;    0.000
353.209; 3184.925;  217.350;    0.000
353.264; 3231.925;  198.350;    0.000
353.319; 3198.925;  247.350;    0.000
353.374; 3164.925;  199.350;    0.000
353.430; 3227.925;  247.350;    0.000
353.485; 3255.925;  242.350;    0.000
353.540; 3155.925;  237.350;    0.000
353.595; 3188.925;  233.350;    0.000
353.650; 3245.925;  221.350;    0.000
353.705; 3205.925;  259.350;    0.000
353.761; 3149.925;  223.350;    0.000
353.816; 3211.925;  234.350;    0.000
353.871; 3145.925;  226.350;    0.000
353.926; 3172.925;  232.350;    0.000
353.981; 3352.925;  245.350;    0.000
354.036; 3250.925;  247.350;    0.000
354.091; 3199.925;  233.350;    0.000
354.146; 3260.925;  253.350;    0.000
354.201; 3235.925;  236.350;    0.000
354.256; 3153.925;  210.350;    0.000
354.311; 3218.925;  279.350;    0.000
354.367; 3213.925;  208.350;    0.000
354.422; 3255.925;  228.350;    0.000
354.477; 3195.925;  202.350;    0.000
354.532; 3228.925;  215.350;    0.000
354.587; 3278.925;  249.350;    0.000
354.642; 3130.925;  206.350;    0.000
354.697; 3191.925;  226.350;    0.000
354.751; 3245.925;  241.350;    0.000
354.806; 3261.925;  249.350;    0.000
354.861; 3212.925;  216.350;    0.000
354.916; 3208.925;  249.350;    0.000
354.971; 3183.925;  217.350;    0.000
355.026; 3236.925;  236.350;    0.000
355.081; 3270.925;  242.350;    0.000
355.136; 3239.925;  216.350;    0.000
355.191; 3189.925;  216.350;    0.000
355.246; 3257.925;  258.350;    0.000
355.301; 3245.925;  250.350;    0.000
355.355; 3226.925;  251.350;    0.000
355.410; 3295.925;  216.350;    0.000
355.465; 3292.925;  224.350;    0.000
355.520; 3368.925;  221.350;    0.000
355.575; 3260.925;  255.350;    0.000
355.630; 3356.925;  225.350;    0.000
355.684; 3295.925;  210.350;    0.000
355.739; 3307.925;  232.350;    0.000
355.794; 3263.925;  202.350;    0.000
355.849; 3183.925;  211.350;    0.000
355.904; 3225.925;  226.350;    0.000
355.958; 3269.925;  191.350;    0.000
356.013; 3109.925;  208.350;    0.000
356.068; 3197.925;  229.350;    0.000
356.123; 3247.925;  243.350;    0.000
356.177; 3248.925;  227.350;    0.000
356.232; 3382.925;  243.350;    0.000
356.287; 3356.925;  216.350;    0.000
356.341; 3254.925;  242.350;    0.000
356.396; 3331.925;  175.350;    0.000
356.451; 3333.925;  271.350;    0.000
356.505; 3284.925;  225.350;    0.000
356.560; 3333.925;  260.350;    0.000
356.615; 3316.925;  213.350;    0.000
356.669; 3339.925;  213.350;    0.000
356.724; 3340.925;  221.350;    0.000
356.778; 3237.925;  232.350;    0.000
356.833; 3150.925;  178.350;    0.000
356.888; 3201.925;  236.350;    0.000
356.942; 3309.925;  224.350;    0.000
356.997; 3277.925;  228.350;    0.000
357.051; 3262.925;  226.350;    0.000
357.106; 3312.925;  185.350;    0.000
357.160; 3220.925;  202.350;    0.000
357.215; 3280.925;  232.350;    0.000
357.269; 3314.925;  224.350;    0.000
357.324; 3220.925;  219.350;    0.000
357.378; 3307.925;  196.350;    0.000
357.433; 3225.925;  241.350;    0.000
357.487; 3217.925;  244.350;    0.000
357.542; 3260.925;  210.350;    0.000
357.596; 3235.925;  231.350;    0.000
357.651; 3247.925;  248.350;    0.000
357.705; 3188.925;  232.350;    0.000
357.760; 3352.925;  224.350;    0.000
357.814; 3283.925;  221.350;    0.000
357.868; 3257.925;  207.350;    0.000
357.923; 3215.925;  234.350;    0.000
357.977; 3235.925;  218.350;    0.000
358.032; 3203.925;  244.350;    0.000
358.086; 3263.925;  246.350;    0.000
358.140; 3222.925;  235.350;    0.000
358.195; 3197.925;  237.350;    0.000
358.249; 3269.925;  233.350;    0.000
358.303; 3219.925;  254.350;    0.000
358.358; 3287.925;  217.350;    0.000
358.412; 3200.925;  245.350;    0.000
358.466; 3212.925;  230.350;    0.000
358.521; 3198.925;  214.350;    0.000
358.575; 3249.925;  243.350;    0.000
358.629; 3117.925;  230.350;    0.000
358.683; 3191.925;  232.350;    0.000
358.738; 3245.925;  249.350;    0.000
358.792; 3204.925;  249.350;    0.000
358.846; 3260.925;  271.350;    0.000
358.900; 3234.925;  265.350;    0.000
358.954; 3209.925;  236.350;    0.000
359.009; 3218.925;  254.350;    0.000
359.063; 3131.925;  216.350;    0.000
359.117; 3273.925;  245.350;    0.000
359.171; 3250.925;  252.350;    0.000
359.225; 3252.925;  240.350;    0.000
359.280; 3318.925;  239.350;    0.000
359.334; 3191.925;  234.350;    0.000
359.388; 3232.925;  258.350;    0.000
359.442; 3284.925;  220.350;    0.000
359.496; 3135.925;  206.350;    0.000
359.550; 3344.925;  279.350;    0.000
359.604; 3259.925;  263.350;    0.000
359.658; 3273.925;  251.350;    0.000
359.712; 3283.925;  244.350;    0.000
359.766; 3239.925;  217.350;    0.000
359.820; 3267.925;  235.350;    0.000
359.875; 3263.925;  249.350;    0.000
359.929; 3198.925;  269.350;    0.000
359.983; 3079.925;  240.350;    0.000
360.037; 3177.925;  252.350;    0.000
360.091; 3241.925;  271.350;    0.000
360.145; 3283.925;  222.350;    0.000
360.199; 3300.925;  302.350;    0.000
360.253; 3259.925;  234.350;    0.000
360.306; 3222.925;  258.350;    0.000
360.360; 3266.925;  249.350;    0.000
360.414; 3185.925;  231.350;    0.000
360.468; 3181.925;  261.350;    0.000
360.522; 3183.925;  277.350;    0.000
360.576; 3310.925;  273.350;    0.000
360.630; 3284.925;  264.350;    0.000
360.684; 3218.925;  223.350;    0.000
360.738; 3230.925;  266.350;    0.000
360.792; 3265.925;  252.350;    0.000
360.846; 3220.925;  234.350;    0.000
360.899; 3177.925;  296.350;    0.000
360.953; 3202.925;  273.350;    0.000
361.007; 3324.925;  251.350;    0.000
361.061; 3278.925;  250.350;    0.000
361.115; 3171.925;  267.350;    0.000
361.168; 3210.925;  308.350;    0.000
361.222; 3216.925;  246.350;    0.000
361.276; 3285.925;  261.350;    0.000
361.330; 3206.925;  233.350;    0.000
361.384; 3131.925;  269.350;    0.000
361.437; 3284.925;  270.350;    0.000
361.491; 3199.925;  263.350;    0.000
361.545; 3200.925;  288.350;    0.000
361.599; 3232.925;  270.350;    0.000
361.652; 3305.925;  256.350;    0.000
361.706; 3183.925;  263.350;    0.000
361.760; 3249.925;  237.350;    0.000
361.813; 3187.925;  278.350;    0.000
361.867; 3147.925;  317.350;    0.000
361.921; 3146.925;  260.350;    0.000
361.974; 3179.925;  239.350;    0.000
362.028; 3276.925;  266.350;    0.000
362.082; 3225.925;  269.350;    0.000
362.135; 3153.925;  262.350;    0.000
362.189; 3198.925;  258.350;    0.000
362.242; 3373.925;  273.350;    0.000
362.296; 3279.925;  261.350;    0.000
362.350; 3196.925;  272.350;    0.000
362.403; 3224.925;  291.350;    0.000
362.457; 3276.925;  253.350;    0.000
362.510; 3234.925;  266.350;    0.000
362.564; 3241.925;  260.350;    0.000
362.617; 3279.925;  280.350;    0.000
362.671; 3239.925;  281.350;    0.000
362.724; 3169.925;  234.350;    0.000
362.778; 3230.925;  311.350;    0.000
362.831; 3280.925;  276.350;    0.000
362.885; 3245.925;  288.350;    0.000
362.938; 3047.925;  284.350;    0.000
362.992;  352.925;  245.350;    0.000
363.045;  250.925;  277.350;    0.000
363.099;  269.925;  246.350;    0.000
363.152;  274.925;  290.350;    0.000
363.205;  273.925;  256.350;    0.000
363.259;  273.925;  238.350;    0.000
363.312;  308.925;  290.350;    0.000
363.366;  300.925;  287.350;    0.000
363.419;  322.925;  279.350;    0.000
363.472;  304.925;  304.350;    0.000
363.526;  292.925;  305.350;    0.000
363.579;  279.925;  281.350;    0.000
363.632;  277.925;  279.350;    0.000
363.686;  256.925;  277.350;    0.000
363.739;  283.925;  268.350;    0.000
363.792;  313.925;  274.350;    0.000

