
Integration time [ms]:   0.300
Averaging Nr. [scans]: 1
Smoothing Nr. [pixels]: 0
Data measured with spectrometer [name]: VIS
Wave   ;Sample   ;Dark     ;Reference
[nm]   ;[counts] ;[counts] ;[counts] 

450.961;  198.325;  204.125;    0.000
451.100;  233.325;  219.125;    0.000
451.239;  200.325;  196.125;    0.000
451.377;  230.325;  252.125;    0.000
451.516;  223.325;  215.125;    0.000
451.655;  202.325;  214.125;    0.000
451.794;  205.325;  241.125;    0.000
451.932;  249.325;  242.125;    0.000
452.071;  230.325;  204.125;    0.000
452.210;  226.325;  243.125;    0.000
452.348;  202.325;  241.125;    0.000
452.487;  245.325;  246.125;    0.000
452.626;  221.325;  235.125;    0.000
452.764;  222.325;  230.125;    0.000
452.903;  218.325;  199.125;    0.000
453.042;  276.325;  178.125;    0.000
453.180; 3611.325;  291.125;    0.000
453.319; 3661.325;  335.125;    0.000
453.458; 3654.325;  245.125;    0.000
453.596; 3706.325;  325.125;    0.000
453.735; 3653.325;  291.125;    0.000
453.873; 3764.325;  295.125;    0.000
454.012; 3773.325;  291.125;    0.000
454.150; 3794.325;  292.125;    0.000
454.289; 3816.325;  328.125;    0.000
454.427; 3925.325;  295.125;    0.000
454.566; 3959.325;  295.125;    0.000
454.704; 4011.325;  301.125;    0.000
454.843; 3982.325;  278.125;    0.000
454.981; 4095.325;  306.125;    0.000
455.120; 4101.325;  237.125;    0.000
455.258; 4182.325;  325.125;    0.000
455.397; 4230.325;  276.125;    0.000
455.535; 4150.325;  269.125;    0.000
455.674; 4230.325;  259.125;    0.000
455.812; 4277.325;  264.125;    0.000
455.951; 4318.325;  286.125;    0.000
456.089; 4372.325;  302.125;    0.000
456.227; 4440.325;  230.125;    0.000
456.366; 4366.325;  303.125;    0.000
456.504; 4431.325;  316.125;    0.000
456.642; 4556.325;  309.125;    0.000
456.781; 4485.325;  299.125;    0.000
456.919; 4659.325;  281.125;    0.000
457.057; 4650.325;  253.125;    0.000
457.196; 4838.325;  268.125;    0.000
457.334; 4773.325;  292.125;    0.000
457.472; 4857.325;  287.125;    0.000
457.610; 4868.325;  300.125;    0.000
457.749; 4906.325;  342.125;    0.000
457.887; 5014.325;  310.125;    0.000
458.025; 5057.325;  310.125;    0.000
458.163; 5143.325;  323.125;    0.000
458.301; 5157.325;  336.125;    0.000
458.440; 5304.325;  297.125;    0.000
458.578; 5302.325;  295.125;    0.000
458.716; 5461.325;  309.125;    0.000
458.854; 5586.325;  335.125;    0.000
458.992; 5529.325;  244.125;    0.000
459.130; 5591.325;  370.125;    0.000
459.269; 5740.325;  313.125;    0.000
459.407; 5877.325;  370.125;    0.000
459.545; 5914.325;  341.125;    0.000
459.683; 5965.325;  336.125;    0.000
459.821; 5922.325;  311.125;    0.000
459.959; 6145.325;  330.125;    0.000
460.097; 6143.325;  355.125;    0.000
460.235; 6262.325;  348.125;    0.000
460.373; 6299.325;  338.125;    0.000
460.511; 6334.325;  361.125;    0.000
460.649; 6275.325;  295.125;    0.000
460.787; 6450.325;  325.125;    0.000
460.925; 6326.325;  266.125;    0.000
461.063; 6440.325;  365.125;    0.000
461.201; 6472.325;  334.125;    0.000
461.339; 6606.325;  341.125;    0.000
461.477; 6500.325;  304.125;    0.000
461.615; 6700.325;  311.125;    0.000
461.753; 6741.325;  342.125;    0.000
461.891; 6875.325;  333.125;    0.000
462.029; 6878.325;  336.125;    0.000
462.166; 7059.325;  272.125;    0.000
462.304; 7087.325;  313.125;    0.000
462.442; 7337.325;  313.125;    0.000
462.580; 7328.325;  328.125;    0.000
462.718; 7324.325;  358.125;    0.000
462.856; 7286.325;  302.125;    0.000
462.993; 7382.325;  360.125;    0.000
463.131; 7359.325;  280.125;    0.000
463.269; 7293.325;  312.125;    0.000
463.407; 7247.325;  263.125;    0.000
463.545; 6944.325;  253.125;    0.000
463.682; 7040.325;  296.125;    0.000
463.820; 7356.325;  308.125;    0.000
463.958; 7757.325;  300.125;    0.000
464.095; 7810.325;  289.125;    0.000
464.233; 7823.325;  340.125;    0.000
464.371; 7785.325;  300.125;    0.000
464.509; 7709.325;  266.125;    0.000
464.646; 7685.325;  294.125;    0.000
464.784; 7638.325;  284.125;    0.000
464.921; 7586.325;  350.125;    0.000
465.059; 7347.325;  256.125;    0.000
465.197; 7199.325;  289.125;    0.000
465.334; 7089.325;  287.125;    0.000
465.472; 7130.325;  322.125;    0.000
465.609; 6982.325;  311.125;    0.000
465.747; 6826.325;  336.125;    0.000
465.885; 6842.325;  308.125;    0.000
466.022; 6727.325;  299.125;    0.000
466.160; 6778.325;  293.125;    0.000
466.297; 6654.325;  317.125;    0.000
466.435; 6616.325;  336.125;    0.000
466.572; 6538.325;  282.125;    0.000
466.710; 6540.325;  299.125;    0.000
466.847; 6670.325;  288.125;    0.000
466.985; 6596.325;  274.125;    0.000
467.122; 6615.325;  302.125;    0.000
467.260; 6678.325;  271.125;    0.000
467.397; 6633.325;  263.125;    0.000
467.534; 6446.325;  320.125;    0.000
467.672; 6551.325;  309.125;    0.000
467.809; 6494.325;  275.125;    0.000
467.947; 6494.325;  319.125;    0.000
468.084; 6491.325;  309.125;    0.000
468.221; 6624.325;  302.125;    0.000
468.359; 6594.325;  286.125;    0.000
468.496; 6644.325;  293.125;    0.000
468.633; 6488.325;  273.125;    0.000
468.771; 6506.325;  296.125;    0.000
468.908; 6681.325;  277.125;    0.000
469.045; 6652.325;  303.125;    0.000
469.183; 6637.325;  314.125;    0.000
469.320; 6797.325;  278.125;    0.000
469.457; 6750.325;  308.125;    0.000
469.594; 6833.325;  272.125;    0.000
469.732; 6895.325;  321.125;    0.000
469.869; 6967.325;  299.125;    0.000
470.006; 7023.325;  267.125;    0.000
470.143; 7110.325;  298.125;    0.000
470.280; 7137.325;  272.125;    0.000
470.417; 7276.325;  314.125;    0.000
470.555; 7144.325;  305.125;    0.000
470.692; 7112.325;  309.125;    0.000
470.829; 7078.325;  311.125;    0.000
470.966; 6985.325;  260.125;    0.000
471.103; 6993.325;  267.125;    0.000
471.240; 6987.325;  290.125;    0.000
471.377; 6909.325;  290.125;    0.000
471.514; 6898.325;  295.125;    0.000
471.651; 6865.325;  300.125;    0.000
471.789; 7009.325;  281.125;    0.000
471.926; 6948.325;  291.125;    0.000
472.063; 6945.325;  305.125;    0.000
472.200; 6814.325;  285.125;    0.000
472.337; 6749.325;  288.125;    0.000
472.474; 6811.325;  276.125;    0.000
472.611; 6753.325;  309.125;    0.000
472.748; 6775.325;  280.125;    0.000
472.884; 6712.325;  300.125;    0.000
473.021; 6611.325;  280.125;    0.000
473.158; 6672.325;  304.125;    0.000
473.295; 6631.325;  308.125;    0.000
473.432; 6602.325;  294.125;    0.000
473.569; 6695.325;  288.125;    0.000
473.706; 6612.325;  254.125;    0.000
473.843; 6591.325;  282.125;    0.000
473.980; 6624.325;  286.125;    0.000
474.117; 6704.325;  257.125;    0.000
474.253; 6732.325;  298.125;    0.000
474.390; 6629.325;  253.125;    0.000
474.527; 6650.325;  271.125;    0.000
474.664; 6651.325;  257.125;    0.000
474.801; 6709.325;  296.125;    0.000
474.937; 6771.325;  263.125;    0.000
475.074; 6857.325;  262.125;    0.000
475.211; 6734.325;  299.125;    0.000
475.348; 6708.325;  308.125;    0.000
475.484; 6915.325;  278.125;    0.000
475.621; 6770.325;  287.125;    0.000
475.758; 6831.325;  231.125;    0.000
475.894; 6682.325;  295.125;    0.000
476.031; 6971.325;  290.125;    0.000
476.168; 6854.325;  287.125;    0.000
476.304; 6930.325;  331.125;    0.000
476.441; 7056.325;  301.125;    0.000
476.578; 6774.325;  263.125;    0.000
476.714; 6970.325;  261.125;    0.000
476.851; 6968.325;  247.125;    0.000
476.987; 7146.325;  297.125;    0.000
477.124; 7093.325;  296.125;    0.000
477.261; 7038.325;  299.125;    0.000
477.397; 7128.325;  292.125;    0.000
477.534; 7267.325;  289.125;    0.000
477.670; 7282.325;  268.125;    0.000
477.807; 7245.325;  234.125;    0.000
477.943; 7248.325;  279.125;    0.000
478.080; 7579.325;  276.125;    0.000
478.216; 7378.325;  248.125;    0.000
478.353; 7458.325;  296.125;    0.000
478.489; 7515.325;  267.125;    0.000
478.626; 7641.325;  243.125;    0.000
478.762; 7474.325;  252.125;    0.000
478.898; 7660.325;  266.125;    0.000
479.035; 7668.325;  290.125;    0.000
479.171; 7812.325;  247.125;    0.000
479.308; 7617.325;  283.125;    0.000
479.444; 7662.325;  244.125;    0.000
479.580; 7665.325;  259.125;    0.000
479.717; 7801.325;  301.125;    0.000
479.853; 7797.325;  257.125;    0.000
479.989; 7653.325;  249.125;    0.000
480.126; 7674.325;  218.125;    0.000
480.262; 7875.325;  275.125;    0.000
480.398; 7803.325;  246.125;    0.000
480.535; 7823.325;  246.125;    0.000
480.671; 7785.325;  272.125;    0.000
480.807; 7868.325;  281.125;    0.000
480.943; 7690.325;  233.125;    0.000
481.080; 7652.325;  303.125;    0.000
481.216; 7790.325;  229.125;    0.000
481.352; 7663.325;  240.125;    0.000
481.488; 7661.325;  284.125;    0.000
481.624; 7678.325;  236.125;    0.000
481.760; 7673.325;  255.125;    0.000
481.897; 7602.325;  206.125;    0.000
482.033; 7536.325;  254.125;    0.000
482.169; 7699.325;  268.125;    0.000
482.305; 7560.325;  214.125;    0.000
482.441; 7695.325;  225.125;    0.000
482.577; 7524.325;  251.125;    0.000
482.713; 7729.325;  221.125;    0.000
482.849; 7494.325;  218.125;    0.000
482.985; 7541.325;  245.125;    0.000
483.121; 7622.325;  224.125;    0.000
483.258; 7707.325;  249.125;    0.000
483.394; 7563.325;  224.125;    0.000
483.530; 7604.325;  247.125;    0.000
483.665; 7655.325;  256.125;    0.000
483.801; 7670.325;  220.125;    0.000
483.937; 7580.325;  200.125;    0.000
484.073; 7756.325;  272.125;    0.000
484.209; 7831.325;  243.125;    0.000
484.345; 7820.325;  274.125;    0.000
484.481; 7740.325;  264.125;    0.000
484.617; 7809.325;  270.125;    0.000
484.753; 7775.325;  244.125;    0.000
484.889; 7830.325;  293.125;    0.000
485.025; 7731.325;  257.125;    0.000
485.161; 7791.325;  264.125;    0.000
485.296; 7707.325;  247.125;    0.000
485.432; 7970.325;  240.125;    0.000
485.568; 7738.325;  240.125;    0.000
485.704; 7820.325;  232.125;    0.000
485.840; 7816.325;  280.125;    0.000
485.975; 8004.325;  253.125;    0.000
486.111; 7798.325;  250.125;    0.000
486.247; 7844.325;  272.125;    0.000
486.383; 7851.325;  258.125;    0.000
486.518; 8035.325;  256.125;    0.000
486.654; 7877.325;  250.125;    0.000
486.790; 7860.325;  259.125;    0.000
486.926; 7897.325;  256.125;    0.000
487.061; 7854.325;  267.125;    0.000
487.197; 7732.325;  224.125;    0.000
487.333; 7629.325;  265.125;    0.000
487.468; 7741.325;  223.125;    0.000
487.604; 7707.325;  298.125;    0.000
487.740; 7686.325;  261.125;    0.000
487.875; 7831.325;  278.125;    0.000
488.011; 7939.325;  292.125;    0.000
488.146; 7845.325;  239.125;    0.000
488.282; 7764.325;  265.125;    0.000
488.417; 7868.325;  286.125;    0.000
488.553; 7680.325;  271.125;    0.000
488.688; 7718.325;  252.125;    0.000
488.824; 7811.325;  239.125;    0.000
488.960; 7787.325;  266.125;    0.000
489.095; 7843.325;  229.125;    0.000
489.230; 7841.325;  247.125;    0.000
489.366; 7946.325;  260.125;    0.000
489.501; 7964.325;  257.125;    0.000
489.637; 7964.325;  233.125;    0.000
489.772; 7838.325;  254.125;    0.000
489.908; 8027.325;  235.125;    0.000
490.043; 7934.325;  266.125;    0.000
490.178; 7869.325;  228.125;    0.000
490.314; 7853.325;  310.125;    0.000
490.449; 8118.325;  251.125;    0.000
490.585; 7858.325;  221.125;    0.000
490.720; 7826.325;  203.125;    0.000
490.855; 7803.325;  266.125;    0.000
490.991; 7817.325;  249.125;    0.000
491.126; 7802.325;  313.125;    0.000
491.261; 7758.325;  284.125;    0.000
491.396; 7858.325;  225.125;    0.000
491.532; 7800.325;  227.125;    0.000
491.667; 7883.325;  210.125;    0.000
491.802; 7922.325;  214.125;    0.000
491.937; 7810.325;  246.125;    0.000
492.073; 7952.325;  250.125;    0.000
492.208; 7995.325;  267.125;    0.000
492.343; 8128.325;  245.125;    0.000
492.478; 8166.325;  271.125;    0.000
492.613; 8096.325;  253.125;    0.000
492.749; 8037.325;  249.125;    0.000
492.884; 7958.325;  217.125;    0.000
493.019; 8131.325;  244.125;    0.000
493.154; 8114.325;  265.125;    0.000
493.289; 7919.325;  266.125;    0.000
493.424; 8001.325;  226.125;    0.000
493.559; 8034.325;  222.125;    0.000
493.694; 7990.325;  218.125;    0.000
493.829; 8012.325;  246.125;    0.000
493.964; 7986.325;  243.125;    0.000
494.099; 8017.325;  269.125;    0.000
494.234; 8072.325;  249.125;    0.000
494.369; 7990.325;  279.125;    0.000
494.504; 8131.325;  261.125;    0.000
494.639; 8032.325;  289.125;    0.000
494.774; 7925.325;  252.125;    0.000
494.909; 7899.325;  250.125;    0.000
495.044; 7874.325;  207.125;    0.000
495.179; 7828.325;  266.125;    0.000
495.314; 7967.325;  228.125;    0.000
495.449; 8135.325;  262.125;    0.000
495.584; 8054.325;  281.125;    0.000
495.719; 7980.325;  251.125;    0.000
495.854; 8125.325;  237.125;    0.000
495.988; 7958.325;  238.125;    0.000
496.123; 7982.325;  255.125;    0.000
496.258; 8152.325;  264.125;    0.000
496.393; 8107.325;  253.125;    0.000
496.528; 8093.325;  244.125;    0.000
496.663; 8276.325;  267.125;    0.000
496.797; 8268.325;  271.125;    0.000
496.932; 8265.325;  262.125;    0.000
497.067; 8606.325;  260.125;    0.000
497.202; 8549.325;  264.125;    0.000
497.336; 8601.325;  243.125;    0.000
497.471; 8659.325;  251.125;    0.000
497.606; 8929.325;  219.125;    0.000
497.740; 8930.325;  264.125;    0.000
497.875; 9209.325;  252.125;    0.000
498.010; 9335.325;  241.125;    0.000
498.144; 9536.325;  261.125;    0.000
498.279; 9881.325;  221.125;    0.000
498.414; 9884.325;  246.125;    0.000
498.548;10039.325;  212.125;    0.000
498.683;10182.325;  260.125;    0.000
498.817;10275.325;  244.125;    0.000
498.952;10657.325;  252.125;    0.000
499.087;10987.325;  251.125;    0.000
499.221;11260.325;  282.125;    0.000
499.356;11484.325;  264.125;    0.000
499.490;11814.325;  280.125;    0.000
499.625;12237.325;  256.125;    0.000
499.759;12690.325;  253.125;    0.000
499.894;13017.325;  261.125;    0.000
500.028;13563.325;  304.125;    0.000
500.162;13948.325;  272.125;    0.000
500.297;14221.325;  274.125;    0.000
500.431;14300.325;  320.125;    0.000
500.566;14105.325;  268.125;    0.000
500.700;14022.325;  280.125;    0.000
500.835;14011.325;  288.125;    0.000
500.969;13323.325;  253.125;    0.000
501.103;13023.325;  234.125;    0.000
501.238;12425.325;  302.125;    0.000
501.372;12082.325;  292.125;    0.000
501.506;11566.325;  222.125;    0.000
501.641;11266.325;  274.125;    0.000
501.775;10658.325;  245.125;    0.000
501.909;10555.325;  283.125;    0.000
502.043;10332.325;  252.125;    0.000
502.178;10090.325;  293.125;    0.000
502.312; 9992.325;  223.125;    0.000
502.446; 9596.325;  292.125;    0.000
502.580; 9440.325;  253.125;    0.000
502.715; 9335.325;  282.125;    0.000
502.849; 9158.325;  258.125;    0.000
502.983; 9203.325;  267.125;    0.000
503.117; 8903.325;  226.125;    0.000
503.251; 8869.325;  260.125;    0.000
503.385; 8650.325;  291.125;    0.000
503.520; 8520.325;  279.125;    0.000
503.654; 8394.325;  229.125;    0.000
503.788; 8454.325;  259.125;    0.000
503.922; 8251.325;  246.125;    0.000
504.056; 8220.325;  269.125;    0.000
504.190; 8139.325;  265.125;    0.000
504.324; 8112.325;  298.125;    0.000
504.458; 8056.325;  235.125;    0.000
504.592; 7914.325;  275.125;    0.000
504.726; 7865.325;  226.125;    0.000
504.860; 7888.325;  298.125;    0.000
504.994; 7683.325;  253.125;    0.000
505.128; 7541.325;  283.125;    0.000
505.262; 7410.325;  255.125;    0.000
505.396; 7265.325;  219.125;    0.000
505.530; 7279.325;  279.125;    0.000
505.664; 7050.325;  306.125;    0.000
505.798; 6987.325;  297.125;    0.000
505.932; 6982.325;  273.125;    0.000
506.066; 7077.325;  271.125;    0.000
506.199; 6714.325;  273.125;    0.000
506.333; 6836.325;  227.125;    0.000
506.467; 6658.325;  302.125;    0.000
506.601; 6554.325;  254.125;    0.000
506.735; 6601.325;  299.125;    0.000
506.869; 6454.325;  278.125;    0.000
507.002; 6531.325;  259.125;    0.000
507.136; 6472.325;  285.125;    0.000
507.270; 6486.325;  255.125;    0.000
507.404; 6409.325;  273.125;    0.000
507.537; 6328.325;  245.125;    0.000
507.671; 6416.325;  251.125;    0.000
507.805; 6253.325;  286.125;    0.000
507.939; 6256.325;  261.125;    0.000
508.072; 6193.325;  298.125;    0.000
508.206; 6199.325;  238.125;    0.000
508.340; 6343.325;  289.125;    0.000
508.473; 6123.325;  255.125;    0.000
508.607; 6169.325;  266.125;    0.000
508.740; 6143.325;  253.125;    0.000
508.874; 6088.325;  233.125;    0.000
509.008; 6126.325;  274.125;    0.000
509.141; 6076.325;  235.125;    0.000
509.275; 6115.325;  225.125;    0.000
509.408; 6066.325;  254.125;    0.000
509.542; 6029.325;  244.125;    0.000
509.675; 6060.325;  263.125;    0.000
509.809; 6005.325;  271.125;    0.000
509.942; 6032.325;  246.125;    0.000
510.076; 5976.325;  221.125;    0.000
510.209; 5905.325;  270.125;    0.000
510.343; 5971.325;  265.125;    0.000
510.476; 5965.325;  291.125;    0.000
510.610; 5795.325;  251.125;    0.000
510.743; 5873.325;  304.125;    0.000
510.877; 5817.325;  259.125;    0.000
511.010; 5852.325;  274.125;    0.000
511.143; 5839.325;  255.125;    0.000
511.277; 5854.325;  267.125;    0.000
511.410; 5699.325;  270.125;    0.000
511.543; 5811.325;  231.125;    0.000
511.677; 5701.325;  275.125;    0.000
511.810; 5766.325;  265.125;    0.000
511.943; 5826.325;  231.125;    0.000
512.077; 5694.325;  225.125;    0.000
512.210; 5686.325;  235.125;    0.000
512.343; 5701.325;  251.125;    0.000
512.476; 5824.325;  260.125;    0.000
512.610; 5794.325;  289.125;    0.000
512.743; 5778.325;  270.125;    0.000
512.876; 5836.325;  289.125;    0.000
513.009; 5749.325;  293.125;    0.000
513.142; 5721.325;  282.125;    0.000
513.276; 5622.325;  244.125;    0.000
513.409; 5820.325;  277.125;    0.000
513.542; 5819.325;  254.125;    0.000
513.675; 5763.325;  258.125;    0.000
513.808; 5625.325;  243.125;    0.000
513.941; 5662.325;  274.125;    0.000
514.074; 5823.325;  296.125;    0.000
514.207; 5850.325;  267.125;    0.000
514.340; 5710.325;  283.125;    0.000
514.474; 5833.325;  255.125;    0.000
514.607; 5834.325;  291.125;    0.000
514.740; 5928.325;  296.125;    0.000
514.873; 5936.325;  275.125;    0.000
515.006; 5862.325;  313.125;    0.000
515.139; 6121.325;  253.125;    0.000
515.272; 5942.325;  263.125;    0.000
515.404; 6035.325;  258.125;    0.000
515.537; 6069.325;  285.125;    0.000
515.670; 5986.325;  286.125;    0.000
515.803; 6085.325;  266.125;    0.000
515.936; 6266.325;  251.125;    0.000
516.069; 6246.325;  231.125;    0.000
516.202; 6343.325;  278.125;    0.000
516.335; 6500.325;  295.125;    0.000
516.468; 6971.325;  239.125;    0.000
516.600; 7980.325;  229.125;    0.000
516.733;10036.325;  301.125;    0.000
516.866; 9988.325;  287.125;    0.000
516.999; 8989.325;  265.125;    0.000
517.132;11218.325;  291.125;    0.000
517.264;15777.325;  262.125;    0.000
517.397;15355.325;  292.125;    0.000
517.530;11597.325;  299.125;    0.000
517.663; 9751.325;  268.125;    0.000
517.795; 9052.325;  323.125;    0.000
517.928; 8601.325;  281.125;    0.000
518.061; 8708.325;  242.125;    0.000
518.193;11307.325;  279.125;    0.000
518.326;18120.324;  288.125;    0.000
518.459;19737.324;  251.125;    0.000
518.591;14821.325;  314.125;    0.000
518.724;10951.325;  279.125;    0.000
518.857; 9298.325;  245.125;    0.000
518.989; 8573.325;  290.125;    0.000
519.122; 7955.325;  319.125;    0.000
519.254; 7539.325;  295.125;    0.000
519.387; 7040.325;  271.125;    0.000
519.519; 6982.325;  312.125;    0.000
519.652; 6625.325;  289.125;    0.000
519.784; 6474.325;  311.125;    0.000
519.917; 6428.325;  283.125;    0.000
520.049; 6211.325;  281.125;    0.000
520.182; 6188.325;  242.125;    0.000
520.314; 6155.325;  310.125;    0.000
520.447; 6042.325;  215.125;    0.000
520.579; 6047.325;  277.125;    0.000
520.712; 5910.325;  224.125;    0.000
520.844; 5869.325;  293.125;    0.000
520.976; 5702.325;  281.125;    0.000
521.109; 5750.325;  279.125;    0.000
521.241; 5696.325;  318.125;    0.000
521.373; 5612.325;  242.125;    0.000
521.506; 5511.325;  246.125;    0.000
521.638; 5422.325;  312.125;    0.000
521.770; 5494.325;  257.125;    0.000
521.903; 5377.325;  295.125;    0.000
522.035; 5369.325;  283.125;    0.000
522.167; 5264.325;  281.125;    0.000
522.300; 5388.325;  262.125;    0.000
522.432; 5356.325;  272.125;    0.000
522.564; 5195.325;  277.125;    0.000
522.696; 5211.325;  295.125;    0.000
522.828; 5223.325;  284.125;    0.000
522.961; 5167.325;  295.125;    0.000
523.093; 5207.325;  282.125;    0.000
523.225; 5266.325;  270.125;    0.000
523.357; 5108.325;  285.125;    0.000
523.489; 5022.325;  292.125;    0.000
523.621; 5140.325;  285.125;    0.000
523.753; 5130.325;  273.125;    0.000
523.885; 4892.325;  271.125;    0.000
524.018; 5009.325;  276.125;    0.000
524.150; 5148.325;  320.125;    0.000
524.282; 5059.325;  304.125;    0.000
524.414; 4948.325;  302.125;    0.000
524.546; 4935.325;  305.125;    0.000
524.678; 4871.325;  264.125;    0.000
524.810; 4883.325;  258.125;    0.000
524.942; 4702.325;  252.125;    0.000
525.074; 4767.325;  275.125;    0.000
525.206; 4768.325;  286.125;    0.000
525.338; 4864.325;  280.125;    0.000
525.469; 4854.325;  267.125;    0.000
525.601; 4790.325;  266.125;    0.000
525.733; 4774.325;  283.125;    0.000
525.865; 4669.325;  273.125;    0.000
525.997; 4673.325;  286.125;    0.000
526.129; 4704.325;  249.125;    0.000
526.261; 4670.325;  233.125;    0.000
526.393; 4680.325;  257.125;    0.000
526.524; 4631.325;  184.125;    0.000
526.656; 4687.325;  259.125;    0.000
526.788; 4679.325;  268.125;    0.000
526.920; 4560.325;  262.125;    0.000
527.052; 4571.325;  250.125;    0.000
527.183; 4582.325;  264.125;    0.000
527.315; 4616.325;  301.125;    0.000
527.447; 4658.325;  262.125;    0.000
527.578; 4493.325;  267.125;    0.000
527.710; 4670.325;  299.125;    0.000
527.842; 4644.325;  266.125;    0.000
527.973; 4589.325;  240.125;    0.000
528.105; 4626.325;  275.125;    0.000
528.237; 4595.325;  239.125;    0.000
528.368; 4628.325;  275.125;    0.000
528.500; 4631.325;  271.125;    0.000
528.632; 4471.325;  252.125;    0.000
528.763; 4514.325;  253.125;    0.000
528.895; 4594.325;  259.125;    0.000
529.026; 4515.325;  209.125;    0.000
529.158; 4634.325;  291.125;    0.000
529.289; 4588.325;  280.125;    0.000
529.421; 4538.325;  274.125;    0.000
529.552; 4584.325;  253.125;    0.000
529.684; 4586.325;  310.125;    0.000
529.815; 4638.325;  305.125;    0.000
529.947; 4577.325;  234.125;    0.000
530.078; 4544.325;  259.125;    0.000
530.210; 4521.325;  264.125;    0.000
530.341; 4504.325;  267.125;    0.000
530.472; 4466.325;  232.125;    0.000
530.604; 4667.325;  293.125;    0.000
530.735; 4643.325;  275.125;    0.000
530.867; 4593.325;  280.125;    0.000
530.998; 4581.325;  295.125;    0.000
531.129; 4638.325;  274.125;    0.000
531.260; 4676.325;  272.125;    0.000
531.392; 4608.325;  275.125;    0.000
531.523; 4649.325;  244.125;    0.000
531.654; 4631.325;  289.125;    0.000
531.786; 4708.325;  259.125;    0.000
531.917; 4757.325;  286.125;    0.000
532.048; 4757.325;  293.125;    0.000
532.179; 4619.325;  288.125;    0.000
532.311; 4776.325;  296.125;    0.000
532.442; 4651.325;  277.125;    0.000
532.573; 4679.325;  273.125;    0.000
532.704; 4681.325;  308.125;    0.000
532.835; 4660.325;  308.125;    0.000
532.966; 4663.325;  274.125;    0.000
533.097; 4542.325;  310.125;    0.000
533.229; 4648.325;  294.125;    0.000
533.360; 4671.325;  324.125;    0.000
533.491; 4607.325;  278.125;    0.000
533.622; 4546.325;  319.125;    0.000
533.753; 4566.325;  303.125;    0.000
533.884; 4631.325;  269.125;    0.000
534.015; 4628.325;  266.125;    0.000
534.146; 4704.325;  283.125;    0.000
534.277; 4632.325;  299.125;    0.000
534.408; 4598.325;  265.125;    0.000
534.539; 4794.325;  310.125;    0.000
534.670; 4681.325;  319.125;    0.000
534.801; 4593.325;  281.125;    0.000
534.932; 4463.325;  239.125;    0.000
535.063; 4562.325;  276.125;    0.000
535.194; 4584.325;  361.125;    0.000
535.324; 4467.325;  283.125;    0.000
535.455; 4605.325;  282.125;    0.000
535.586; 4480.325;  331.125;    0.000
535.717; 4430.325;  262.125;    0.000
535.848; 4445.325;  308.125;    0.000
535.979; 4510.325;  273.125;    0.000
536.109; 4421.325;  277.125;    0.000
536.240; 4441.325;  293.125;    0.000
536.371; 4388.325;  295.125;    0.000
536.502; 4391.325;  330.125;    0.000
536.632; 4500.325;  280.125;    0.000
536.763; 4549.325;  332.125;    0.000
536.894; 4323.325;  334.125;    0.000
537.025; 4303.325;  295.125;    0.000
537.155; 4402.325;  321.125;    0.000
537.286; 4443.325;  292.125;    0.000
537.417; 4435.325;  314.125;    0.000
537.547; 4356.325;  287.125;    0.000
537.678; 4378.325;  287.125;    0.000
537.808; 4356.325;  278.125;    0.000
537.939; 4386.325;  304.125;    0.000
538.070; 4424.325;  303.125;    0.000
538.200; 4281.325;  279.125;    0.000
538.331; 4322.325;  321.125;    0.000
538.461; 4389.325;  313.125;    0.000
538.592; 4320.325;  290.125;    0.000
538.722; 4373.325;  285.125;    0.000
538.853; 4423.325;  261.125;    0.000
538.983; 4406.325;  280.125;    0.000
539.114; 4413.325;  310.125;    0.000
539.244; 4379.325;  281.125;    0.000
539.375; 4275.325;  292.125;    0.000
539.505; 4384.325;  286.125;    0.000
539.636; 4280.325;  276.125;    0.000
539.766; 4309.325;  287.125;    0.000
539.896; 4286.325;  292.125;    0.000
540.027; 4398.325;  262.125;    0.000
540.157; 4441.325;  269.125;    0.000
540.287; 4365.325;  282.125;    0.000
540.418; 4315.325;  269.125;    0.000
540.548; 4400.325;  328.125;    0.000
540.678; 4330.325;  271.125;    0.000
540.809; 4431.325;  272.125;    0.000
540.939; 4483.325;  299.125;    0.000
541.069; 4484.325;  266.125;    0.000
541.200; 4369.325;  242.125;    0.000
541.330; 4316.325;  257.125;    0.000
541.460; 4372.325;  270.125;    0.000
541.590; 4390.325;  287.125;    0.000
541.720; 4391.325;  255.125;    0.000
541.851; 4439.325;  273.125;    0.000
541.981; 4501.325;  244.125;    0.000
542.111; 4533.325;  263.125;    0.000
542.241; 4444.325;  271.125;    0.000
542.371; 4572.325;  263.125;    0.000
542.501; 4670.325;  274.125;    0.000
542.631; 4691.325;  288.125;    0.000
542.761; 4775.325;  261.125;    0.000
542.891; 4647.325;  253.125;    0.000
543.021; 4701.325;  249.125;    0.000
543.151; 4738.325;  261.125;    0.000
543.281; 4796.325;  256.125;    0.000
543.411; 4884.325;  290.125;    0.000
543.542; 4606.325;  278.125;    0.000
543.671; 4557.325;  238.125;    0.000
543.801; 4522.325;  256.125;    0.000
543.931; 4619.325;  254.125;    0.000
544.061; 4639.325;  237.125;    0.000
544.191; 4538.325;  245.125;    0.000
544.321; 4609.325;  267.125;    0.000
544.451; 4554.325;  262.125;    0.000
544.581; 4586.325;  221.125;    0.000
544.711; 4630.325;  252.125;    0.000
544.841; 4814.325;  264.125;    0.000
544.970; 4715.325;  315.125;    0.000
545.100; 4962.325;  245.125;    0.000
545.230; 4920.325;  276.125;    0.000
545.360; 4918.325;  278.125;    0.000
545.490; 4954.325;  268.125;    0.000
545.619; 4826.325;  237.125;    0.000
545.749; 4636.325;  228.125;    0.000
545.879; 4703.325;  234.125;    0.000
546.009; 4580.325;  287.125;    0.000
546.138; 4670.325;  222.125;    0.000
546.268; 4428.325;  228.125;    0.000
546.398; 4461.325;  244.125;    0.000
546.527; 4676.325;  233.125;    0.000
546.657; 4543.325;  189.125;    0.000
546.786; 4636.325;  247.125;    0.000
546.916; 4487.325;  244.125;    0.000
547.046; 4689.325;  214.125;    0.000
547.175; 4607.325;  242.125;    0.000
547.305; 4636.325;  252.125;    0.000
547.434; 4661.325;  191.125;    0.000
547.564; 4566.325;  208.125;    0.000
547.693; 4653.325;  213.125;    0.000
547.823; 4572.325;  209.125;    0.000
547.953; 4561.325;  250.125;    0.000
548.082; 4591.325;  231.125;    0.000
548.211; 4660.325;  226.125;    0.000
548.341; 4557.325;  254.125;    0.000
548.470; 4627.325;  266.125;    0.000
548.600; 4595.325;  229.125;    0.000
548.729; 4628.325;  225.125;    0.000
548.859; 4539.325;  185.125;    0.000
548.988; 4551.325;  225.125;    0.000
549.117; 4590.325;  241.125;    0.000
549.247; 4588.325;  236.125;    0.000
549.376; 4743.325;  220.125;    0.000
549.505; 4706.325;  254.125;    0.000
549.635; 4740.325;  268.125;    0.000
549.764; 4698.325;  194.125;    0.000
549.893; 4727.325;  232.125;    0.000
550.023; 4790.325;  222.125;    0.000
550.152; 4682.325;  223.125;    0.000
550.281; 4717.325;  210.125;    0.000
550.410; 4732.325;  197.125;    0.000
550.539; 4732.325;  222.125;    0.000
550.669; 4692.325;  245.125;    0.000
550.798; 4774.325;  265.125;    0.000
550.927; 4859.325;  249.125;    0.000
551.056; 4673.325;  184.125;    0.000
551.185; 4721.325;  247.125;    0.000
551.314; 4593.325;  258.125;    0.000
551.443; 4658.325;  224.125;    0.000
551.573; 4804.325;  204.125;    0.000
551.702; 4705.325;  220.125;    0.000
551.831; 4861.325;  287.125;    0.000
551.960; 4811.325;  259.125;    0.000
552.089; 4746.325;  222.125;    0.000
552.218; 4841.325;  254.125;    0.000
552.347; 4789.325;  260.125;    0.000
552.476; 4929.325;  251.125;    0.000
552.605; 5076.325;  229.125;    0.000
552.734; 5048.325;  261.125;    0.000
552.863; 5319.325;  225.125;    0.000
552.992; 5085.325;  202.125;    0.000
553.121; 5195.325;  193.125;    0.000
553.249; 5143.325;  224.125;    0.000
553.378; 5115.325;  274.125;    0.000
553.507; 5068.325;  248.125;    0.000
553.636; 4983.325;  203.125;    0.000
553.765; 4966.325;  224.125;    0.000
553.894; 4932.325;  246.125;    0.000
554.023; 4866.325;  229.125;    0.000
554.151; 4915.325;  216.125;    0.000
554.280; 4730.325;  223.125;    0.000
554.409; 4684.325;  240.125;    0.000
554.538; 4869.325;  277.125;    0.000
554.666; 4770.325;  244.125;    0.000
554.795; 4786.325;  240.125;    0.000
554.924; 4730.325;  257.125;    0.000
555.052; 4825.325;  266.125;    0.000
555.181; 4787.325;  244.125;    0.000
555.310; 4794.325;  262.125;    0.000
555.439; 4824.325;  260.125;    0.000
555.567; 4632.325;  234.125;    0.000
555.696; 4667.325;  237.125;    0.000
555.824; 4556.325;  232.125;    0.000
555.953; 4574.325;  279.125;    0.000
556.082; 4621.325;  234.125;    0.000
556.210; 4619.325;  235.125;    0.000
556.339; 4658.325;  198.125;    0.000
556.467; 4613.325;  216.125;    0.000
556.596; 4660.325;  273.125;    0.000
556.724; 4497.325;  245.125;    0.000
556.853; 4656.325;  241.125;    0.000
556.981; 4560.325;  219.125;    0.000
557.110; 4575.325;  242.125;    0.000
557.238; 4527.325;  202.125;    0.000
557.367; 4543.325;  254.125;    0.000
557.495; 4525.325;  260.125;    0.000
557.623; 4407.325;  207.125;    0.000
557.752; 4498.325;  219.125;    0.000
557.880; 4470.325;  209.125;    0.000
558.008; 4520.325;  243.125;    0.000
558.137; 4633.325;  244.125;    0.000
558.265; 4496.325;  221.125;    0.000
558.393; 4586.325;  297.125;    0.000
558.522; 4500.325;  232.125;    0.000
558.650; 4529.325;  299.125;    0.000
558.778; 4579.325;  210.125;    0.000
558.906; 4539.325;  240.125;    0.000
559.035; 4486.325;  252.125;    0.000
559.163; 4425.325;  246.125;    0.000
559.291; 4605.325;  213.125;    0.000
559.419; 4450.325;  221.125;    0.000
559.548; 4622.325;  208.125;    0.000
559.676; 4660.325;  254.125;    0.000
559.804; 4641.325;  213.125;    0.000
559.932; 4631.325;  208.125;    0.000
560.060; 4686.325;  276.125;    0.000
560.188; 4658.325;  278.125;    0.000
560.316; 4799.325;  217.125;    0.000
560.444; 4665.325;  254.125;    0.000
560.572; 4704.325;  226.125;    0.000
560.700; 4802.325;  282.125;    0.000
560.828; 4874.325;  211.125;    0.000
560.956; 4786.325;  264.125;    0.000
561.085; 4851.325;  295.125;    0.000
561.212; 4755.325;  229.125;    0.000
561.340; 4688.325;  259.125;    0.000
561.468; 4900.325;  253.125;    0.000
561.596; 4660.325;  240.125;    0.000
561.724; 4790.325;  259.125;    0.000
561.852; 4738.325;  224.125;    0.000
561.980; 4883.325;  251.125;    0.000
562.108; 4815.325;  214.125;    0.000
562.236; 4973.325;  258.125;    0.000
562.364; 4862.325;  237.125;    0.000
562.492; 4888.325;  228.125;    0.000
562.619; 5018.325;  223.125;    0.000
562.747; 4896.325;  263.125;    0.000
562.875; 4903.325;  257.125;    0.000
563.003; 5038.325;  216.125;    0.000
563.130; 4917.325;  190.125;    0.000
563.258; 5098.325;  225.125;    0.000
563.386; 5155.325;  259.125;    0.000
563.514; 5236.325;  264.125;    0.000
563.641; 5214.325;  230.125;    0.000
563.769; 5235.325;  257.125;    0.000
563.897; 5404.325;  210.125;    0.000
564.024; 5420.325;  221.125;    0.000
564.152; 5515.325;  256.125;    0.000
564.280; 5490.325;  225.125;    0.000
564.407; 5426.325;  262.125;    0.000
564.535; 5515.325;  235.125;    0.000
564.662; 5607.325;  238.125;    0.000
564.790; 5694.325;  248.125;    0.000
564.917; 5636.325;  214.125;    0.000
565.045; 5558.325;  253.125;    0.000
565.173; 5748.325;  225.125;    0.000
565.300; 5734.325;  261.125;    0.000
565.428; 5878.325;  218.125;    0.000
565.555; 5875.325;  245.125;    0.000
565.682; 6126.325;  242.125;    0.000
565.810; 5977.325;  228.125;    0.000
565.937; 6164.325;  230.125;    0.000
566.065; 6368.325;  251.125;    0.000
566.192; 6448.325;  196.125;    0.000
566.320; 6556.325;  217.125;    0.000
566.447; 6789.325;  224.125;    0.000
566.574; 6821.325;  221.125;    0.000
566.702; 7009.325;  221.125;    0.000
566.829; 7031.325;  252.125;    0.000
566.956; 7029.325;  214.125;    0.000
567.083; 6955.325;  204.125;    0.000
567.211; 6947.325;  216.125;    0.000
567.338; 7145.325;  228.125;    0.000
567.465; 7260.325;  208.125;    0.000
567.593; 7341.325;  205.125;    0.000
567.720; 7242.325;  194.125;    0.000
567.847; 7392.325;  268.125;    0.000
567.974; 7319.325;  198.125;    0.000
568.101; 7303.325;  224.125;    0.000
568.228; 8077.325;  236.125;    0.000
568.356; 8098.325;  207.125;    0.000
568.483; 7573.325;  220.125;    0.000
568.610; 7462.325;  181.125;    0.000
568.737; 8234.325;  216.125;    0.000
568.864; 8951.325;  258.125;    0.000
568.991; 8528.325;  203.125;    0.000
569.118; 7601.325;  232.125;    0.000
569.245; 6864.325;  192.125;    0.000
569.372; 6588.325;  226.125;    0.000
569.499; 6464.325;  211.125;    0.000
569.626; 6207.325;  247.125;    0.000
569.753; 6081.325;  248.125;    0.000
569.880; 6043.325;  226.125;    0.000
570.007; 5909.325;  215.125;    0.000
570.134; 5821.325;  205.125;    0.000
570.261; 5834.325;  187.125;    0.000
570.388; 5747.325;  258.125;    0.000
570.515; 5726.325;  241.125;    0.000
570.642; 5589.325;  211.125;    0.000
570.768; 5639.325;  228.125;    0.000
570.895; 5600.325;  229.125;    0.000
571.022; 5448.325;  203.125;    0.000
571.149; 5516.325;  206.125;    0.000
571.276; 5411.325;  191.125;    0.000
571.402; 5330.325;  218.125;    0.000
571.529; 5337.325;  192.125;    0.000
571.656; 5351.325;  209.125;    0.000
571.783; 5123.325;  181.125;    0.000
571.909; 5306.325;  251.125;    0.000
572.036; 5154.325;  225.125;    0.000
572.163; 5165.325;  214.125;    0.000
572.289; 5068.325;  252.125;    0.000
572.416; 4950.325;  220.125;    0.000
572.543; 5060.325;  225.125;    0.000
572.669; 5018.325;  226.125;    0.000
572.796; 4943.325;  231.125;    0.000
572.922; 5001.325;  258.125;    0.000
573.049; 4936.325;  202.125;    0.000
573.176; 4911.325;  254.125;    0.000
573.302; 4890.325;  215.125;    0.000
573.429; 5002.325;  251.125;    0.000
573.555; 4853.325;  221.125;    0.000
573.682; 4855.325;  227.125;    0.000
573.808; 4844.325;  259.125;    0.000
573.935; 4870.325;  233.125;    0.000
574.061; 4830.325;  241.125;    0.000
574.188; 4775.325;  238.125;    0.000
574.314; 4840.325;  221.125;    0.000
574.440; 4757.325;  221.125;    0.000
574.567; 4708.325;  216.125;    0.000
574.693; 4626.325;  224.125;    0.000
574.820; 4764.325;  199.125;    0.000
574.946; 4803.325;  248.125;    0.000
575.072; 4867.325;  220.125;    0.000
575.198; 4793.325;  262.125;    0.000
575.325; 4676.325;  232.125;    0.000
575.451; 4863.325;  225.125;    0.000
575.577; 4692.325;  216.125;    0.000
575.704; 4692.325;  248.125;    0.000
575.830; 4771.325;  227.125;    0.000
575.956; 4741.325;  206.125;    0.000
576.082; 4662.325;  222.125;    0.000
576.208; 4779.325;  206.125;    0.000
576.335; 4719.325;  256.125;    0.000
576.461; 4716.325;  247.125;    0.000
576.587; 4603.325;  219.125;    0.000
576.713; 4674.325;  215.125;    0.000
576.839; 4688.325;  225.125;    0.000
576.965; 4694.325;  230.125;    0.000
577.091; 4715.325;  235.125;    0.000
577.217; 4698.325;  235.125;    0.000
577.343; 4634.325;  233.125;    0.000
577.469; 4675.325;  242.125;    0.000
577.596; 4628.325;  241.125;    0.000
577.722; 4694.325;  255.125;    0.000
577.848; 4652.325;  235.125;    0.000
577.974; 4684.325;  210.125;    0.000
578.099; 4638.325;  239.125;    0.000
578.225; 4737.325;  258.125;    0.000
578.351; 4628.325;  209.125;    0.000
578.477; 4613.325;  255.125;    0.000
578.603; 4773.325;  213.125;    0.000
578.729; 4660.325;  221.125;    0.000
578.855; 4659.325;  209.125;    0.000
578.981; 4617.325;  206.125;    0.000
579.107; 4679.325;  221.125;    0.000
579.232; 4655.325;  206.125;    0.000
579.358; 4657.325;  226.125;    0.000
579.484; 4724.325;  244.125;    0.000
579.610; 4617.325;  261.125;    0.000
579.735; 4668.325;  270.125;    0.000
579.861; 4704.325;  255.125;    0.000
579.987; 4667.325;  249.125;    0.000
580.113; 4713.325;  260.125;    0.000
580.238; 4737.325;  206.125;    0.000
580.364; 4847.325;  249.125;    0.000
580.490; 4641.325;  225.125;    0.000
580.615; 4718.325;  266.125;    0.000
580.741; 4741.325;  224.125;    0.000
580.867; 4665.325;  251.125;    0.000
580.992; 4752.325;  270.125;    0.000
581.118; 4817.325;  248.125;    0.000
581.243; 4750.325;  251.125;    0.000
581.369; 4829.325;  192.125;    0.000
581.494; 4821.325;  259.125;    0.000
581.620; 4783.325;  245.125;    0.000
581.745; 4849.325;  232.125;    0.000
581.871; 4886.325;  243.125;    0.000
581.996; 4849.325;  216.125;    0.000
582.122; 4813.325;  263.125;    0.000
582.247; 4934.325;  254.125;    0.000
582.373; 4935.325;  232.125;    0.000
582.498; 4964.325;  275.125;    0.000
582.624; 4981.325;  260.125;    0.000
582.749; 4951.325;  251.125;    0.000
582.874; 5000.325;  245.125;    0.000
583.000; 4972.325;  278.125;    0.000
583.125; 5001.325;  211.125;    0.000
583.250; 5049.325;  246.125;    0.000
583.376; 5226.325;  259.125;    0.000
583.501; 5083.325;  254.125;    0.000
583.626; 5173.325;  209.125;    0.000
583.751; 5159.325;  239.125;    0.000
583.877; 5261.325;  255.125;    0.000
584.002; 5278.325;  263.125;    0.000
584.127; 5276.325;  205.125;    0.000
584.252; 5389.325;  196.125;    0.000
584.377; 5484.325;  249.125;    0.000
584.503; 5333.325;  219.125;    0.000
584.628; 5482.325;  243.125;    0.000
584.753; 5583.325;  250.125;    0.000
584.878; 5573.325;  208.125;    0.000
585.003; 5773.325;  234.125;    0.000
585.128; 5731.325;  207.125;    0.000
585.253; 5808.325;  219.125;    0.000
585.378; 5870.325;  205.125;    0.000
585.503; 5937.325;  256.125;    0.000
585.628; 6093.325;  217.125;    0.000
585.753; 6232.325;  213.125;    0.000
585.878; 6103.325;  147.125;    0.000
586.003; 6392.325;  256.125;    0.000
586.128; 6495.325;  214.125;    0.000
586.253; 6619.325;  254.125;    0.000
586.378; 6785.325;  252.125;    0.000
586.503; 6864.325;  219.125;    0.000
586.628; 7231.325;  226.125;    0.000
586.753; 7362.325;  237.125;    0.000
586.878; 7598.325;  185.125;    0.000
587.003; 7877.325;  248.125;    0.000
587.127; 8291.325;  237.125;    0.000
587.252; 8596.325;  221.125;    0.000
587.377; 9014.325;  244.125;    0.000
587.502; 9414.325;  260.125;    0.000
587.627; 9993.325;  232.125;    0.000
587.751;10598.325;  250.125;    0.000
587.876;11481.325;  234.125;    0.000
588.001;12480.325;  248.125;    0.000
588.125;13946.325;  236.125;    0.000
588.250;15627.325;  192.125;    0.000
588.375;18164.324;  265.125;    0.000
588.499;21567.324;  235.125;    0.000
588.624;26951.324;  212.125;    0.000
588.749;35984.324;  214.125;    0.000
588.873;50762.324;  236.125;    0.000
588.998;63797.324;  230.125;    0.000
589.122;62808.324;  231.125;    0.000
589.247;52022.324;  250.125;    0.000
589.372;45221.324;  247.125;    0.000
589.496;50850.324;  230.125;    0.000
589.621;58295.324;  237.125;    0.000
589.745;51827.324;  277.125;    0.000
589.870;38288.324;  283.125;    0.000
589.994;28751.324;  263.125;    0.000
590.118;23054.324;  239.125;    0.000
590.243;19680.324;  218.125;    0.000
590.367;17108.324;  226.125;    0.000
590.492;15357.325;  269.125;    0.000
590.616;13982.325;  205.125;    0.000
590.740;12684.325;  243.125;    0.000
590.865;11857.325;  281.125;    0.000
590.989;10999.325;  233.125;    0.000
591.114;10453.325;  222.125;    0.000
591.238; 9976.325;  204.125;    0.000
591.362; 9541.325;  283.125;    0.000
591.486; 9293.325;  236.125;    0.000
591.611; 8796.325;  228.125;    0.000
591.735; 8555.325;  249.125;    0.000
591.859; 8201.325;  202.125;    0.000
591.983; 8225.325;  257.125;    0.000
592.107; 8009.325;  230.125;    0.000
592.232; 7743.325;  266.125;    0.000
592.356; 7688.325;  232.125;    0.000
592.480; 7567.325;  245.125;    0.000
592.604; 7427.325;  254.125;    0.000
592.728; 7377.325;  233.125;    0.000
592.852; 7088.325;  213.125;    0.000
592.976; 6945.325;  234.125;    0.000
593.100; 6986.325;  246.125;    0.000
593.224; 6942.325;  305.125;    0.000
593.349; 6919.325;  240.125;    0.000
593.473; 6657.325;  206.125;    0.000
593.597; 6673.325;  243.125;    0.000
593.721; 6532.325;  247.125;    0.000
593.844; 6512.325;  230.125;    0.000
593.968; 6648.325;  226.125;    0.000
594.092; 6387.325;  193.125;    0.000
594.216; 6425.325;  237.125;    0.000
594.340; 6341.325;  235.125;    0.000
594.464; 6183.325;  225.125;    0.000
594.588; 6073.325;  269.125;    0.000
594.712; 5932.325;  242.125;    0.000
594.836; 5843.325;  240.125;    0.000
594.959; 5719.325;  255.125;    0.000
595.083; 5668.325;  258.125;    0.000
595.207; 5695.325;  264.125;    0.000
595.331; 5665.325;  215.125;    0.000
595.455; 5504.325;  234.125;    0.000
595.578; 5390.325;  215.125;    0.000
595.702; 5391.325;  259.125;    0.000
595.826; 5326.325;  232.125;    0.000
595.949; 5339.325;  251.125;    0.000
596.073; 5215.325;  197.125;    0.000
596.197; 5234.325;  239.125;    0.000
596.320; 5150.325;  229.125;    0.000
596.444; 5214.325;  264.125;    0.000
596.568; 5104.325;  207.125;    0.000
596.691; 5104.325;  234.125;    0.000
596.815; 5042.325;  241.125;    0.000
596.938; 4908.325;  244.125;    0.000
597.062; 4876.325;  210.125;    0.000
597.186; 5005.325;  247.125;    0.000
597.309; 4985.325;  215.125;    0.000
597.433; 4952.325;  266.125;    0.000
597.556; 4857.325;  234.125;    0.000
597.680; 4859.325;  261.125;    0.000
597.803; 4737.325;  239.125;    0.000
597.926; 4693.325;  251.125;    0.000
598.050; 4711.325;  227.125;    0.000
598.173; 4721.325;  247.125;    0.000
598.297; 4700.325;  244.125;    0.000
598.420; 4511.325;  243.125;    0.000
598.543; 4647.325;  237.125;    0.000
598.667; 4556.325;  239.125;    0.000
598.790; 4593.325;  217.125;    0.000
598.913; 4581.325;  244.125;    0.000
599.037; 4632.325;  249.125;    0.000
599.160; 4580.325;  222.125;    0.000
599.283; 4515.325;  235.125;    0.000
599.406; 4535.325;  228.125;    0.000
599.530; 4457.325;  234.125;    0.000
599.653; 4449.325;  228.125;    0.000
599.776; 4437.325;  263.125;    0.000
599.899; 4534.325;  197.125;    0.000
600.022; 4508.325;  224.125;    0.000
600.145; 4441.325;  211.125;    0.000
600.269; 4525.325;  246.125;    0.000
600.392; 4367.325;  233.125;    0.000
600.515; 4472.325;  266.125;    0.000
600.638; 4349.325;  246.125;    0.000
600.761; 4237.325;  213.125;    0.000
600.884; 4301.325;  279.125;    0.000
601.007; 4372.325;  268.125;    0.000
601.130; 4289.325;  203.125;    0.000
601.253; 4403.325;  241.125;    0.000
601.376; 4225.325;  248.125;    0.000
601.499; 4279.325;  241.125;    0.000
601.622; 4339.325;  266.125;    0.000
601.745; 4241.325;  237.125;    0.000
601.868; 4208.325;  256.125;    0.000
601.991; 4247.325;  260.125;    0.000
602.113; 4206.325;  246.125;    0.000
602.236; 4240.325;  243.125;    0.000
602.359; 4323.325;  220.125;    0.000
602.482; 4259.325;  236.125;    0.000
602.605; 4198.325;  216.125;    0.000
602.728; 4264.325;  247.125;    0.000
602.850; 4293.325;  255.125;    0.000
602.973; 4258.325;  224.125;    0.000
603.096; 4286.325;  258.125;    0.000
603.219; 4180.325;  222.125;    0.000
603.341; 4165.325;  235.125;    0.000
603.464; 4183.325;  223.125;    0.000
603.587; 4220.325;  250.125;    0.000
603.709; 4088.325;  229.125;    0.000
603.832; 4049.325;  285.125;    0.000
603.955; 4087.325;  225.125;    0.000
604.077; 4104.325;  235.125;    0.000
604.200; 4203.325;  209.125;    0.000
604.323; 4137.325;  240.125;    0.000
604.445; 4137.325;  198.125;    0.000
604.568; 4070.325;  230.125;    0.000
604.690; 4229.325;  225.125;    0.000
604.813; 4218.325;  248.125;    0.000
604.935; 4241.325;  204.125;    0.000
605.058; 4033.325;  191.125;    0.000
605.180; 4052.325;  237.125;    0.000
605.303; 4067.325;  224.125;    0.000
605.425; 4186.325;  244.125;    0.000
605.547; 4063.325;  268.125;    0.000
605.670; 4093.325;  211.125;    0.000
605.792; 4111.325;  266.125;    0.000
605.915; 4064.325;  202.125;    0.000
606.037; 4078.325;  236.125;    0.000
606.159; 4092.325;  234.125;    0.000
606.282; 4053.325;  223.125;    0.000
606.404; 3956.325;  217.125;    0.000
606.526; 4035.325;  221.125;    0.000
606.648; 4002.325;  204.125;    0.000
606.771; 4129.325;  265.125;    0.000
606.893; 4027.325;  211.125;    0.000
607.015; 4027.325;  206.125;    0.000
607.137; 3972.325;  222.125;    0.000
607.260; 3960.325;  228.125;    0.000
607.382; 4029.325;  202.125;    0.000
607.504; 3942.325;  257.125;    0.000
607.626; 4110.325;  249.125;    0.000
607.748; 4029.325;  233.125;    0.000
607.870; 3903.325;  222.125;    0.000
607.992; 4035.325;  227.125;    0.000
608.114; 3994.325;  228.125;    0.000
608.237; 4134.325;  254.125;    0.000
608.359; 4007.325;  216.125;    0.000
608.481; 4000.325;  197.125;    0.000
608.603; 4062.325;  209.125;    0.000
608.725; 3982.325;  220.125;    0.000
608.847; 4026.325;  259.125;    0.000
608.969; 4020.325;  242.125;    0.000
609.090; 4071.325;  218.125;    0.000
609.212; 3858.325;  200.125;    0.000
609.334; 3998.325;  212.125;    0.000
609.456; 3956.325;  231.125;    0.000
609.578; 3913.325;  249.125;    0.000
609.700; 3820.325;  185.125;    0.000
609.822; 3960.325;  200.125;    0.000
609.944; 4022.325;  236.125;    0.000
610.065; 3879.325;  255.125;    0.000
610.187; 4107.325;  208.125;    0.000
610.309; 3911.325;  202.125;    0.000
610.431; 3933.325;  232.125;    0.000
610.552; 3860.325;  232.125;    0.000
610.674; 3972.325;  217.125;    0.000
610.796; 4002.325;  186.125;    0.000
610.918; 3972.325;  211.125;    0.000
611.039; 3989.325;  244.125;    0.000
611.161; 3935.325;  202.125;    0.000
611.282; 3933.325;  212.125;    0.000
611.404; 4012.325;  235.125;    0.000
611.526; 3847.325;  213.125;    0.000
611.647; 3835.325;  248.125;    0.000
611.769; 3804.325;  205.125;    0.000
611.890; 3861.325;  224.125;    0.000
612.012; 3867.325;  189.125;    0.000
612.133; 3918.325;  186.125;    0.000
612.255; 3962.325;  246.125;    0.000
612.377; 3899.325;  230.125;    0.000
612.498; 3893.325;  196.125;    0.000
612.619; 3946.325;  234.125;    0.000
612.741; 3950.325;  221.125;    0.000
612.862; 3878.325;  227.125;    0.000
612.984; 3920.325;  189.125;    0.000
613.105; 3867.325;  232.125;    0.000
613.226; 3778.325;  199.125;    0.000
613.348; 3830.325;  260.125;    0.000
613.469; 3790.325;  217.125;    0.000
613.590; 3801.325;  236.125;    0.000
613.712; 3912.325;  226.125;    0.000
613.833; 3844.325;  231.125;    0.000
613.954; 3872.325;  236.125;    0.000
614.076; 3836.325;  236.125;    0.000
614.197; 3777.325;  228.125;    0.000
614.318; 3787.325;  207.125;    0.000
614.439; 3825.325;  237.125;    0.000
614.560; 3963.325;  202.125;    0.000
614.682; 3817.325;  230.125;    0.000
614.803; 3883.325;  236.125;    0.000
614.924; 3842.325;  257.125;    0.000
615.045; 3957.325;  228.125;    0.000
615.166; 3894.325;  221.125;    0.000
615.287; 3909.325;  199.125;    0.000
615.408; 4276.325;  228.125;    0.000
615.529; 4286.325;  200.125;    0.000
615.650; 4007.325;  224.125;    0.000
615.771; 4080.325;  202.125;    0.000
615.892; 4129.325;  215.125;    0.000
616.013; 4527.325;  246.125;    0.000
616.134; 4900.325;  210.125;    0.000
616.255; 4618.325;  232.125;    0.000
616.376; 4303.325;  241.125;    0.000
616.497; 4115.325;  213.125;    0.000
616.618; 4080.325;  171.125;    0.000
616.739; 4077.325;  221.125;    0.000
616.860; 3992.325;  244.125;    0.000
616.981; 4078.325;  240.125;    0.000
617.102; 4004.325;  234.125;    0.000
617.222; 3967.325;  265.125;    0.000
617.343; 3983.325;  206.125;    0.000
617.464; 3979.325;  246.125;    0.000
617.585; 3852.325;  256.125;    0.000
617.705; 3897.325;  249.125;    0.000
617.826; 3856.325;  218.125;    0.000
617.947; 3910.325;  225.125;    0.000
618.068; 3864.325;  199.125;    0.000
618.188; 3921.325;  202.125;    0.000
618.309; 3915.325;  220.125;    0.000
618.430; 3925.325;  229.125;    0.000
618.550; 3890.325;  252.125;    0.000
618.671; 3909.325;  233.125;    0.000
618.791; 3913.325;  227.125;    0.000
618.912; 3878.325;  236.125;    0.000
619.033; 3893.325;  220.125;    0.000
619.153; 3766.325;  228.125;    0.000
619.274; 3775.325;  208.125;    0.000
619.394; 3843.325;  255.125;    0.000
619.515; 3814.325;  206.125;    0.000
619.635; 3827.325;  204.125;    0.000
619.756; 3800.325;  252.125;    0.000
619.876; 3866.325;  238.125;    0.000
619.996; 3800.325;  249.125;    0.000
620.117; 3822.325;  223.125;    0.000
620.237; 3798.325;  210.125;    0.000
620.358; 3815.325;  264.125;    0.000
620.478; 3754.325;  263.125;    0.000
620.598; 3803.325;  238.125;    0.000
620.719; 3804.325;  225.125;    0.000
620.839; 3800.325;  259.125;    0.000
620.959; 3728.325;  218.125;    0.000
621.079; 3808.325;  253.125;    0.000
621.200; 3658.325;  245.125;    0.000
621.320; 3807.325;  254.125;    0.000
621.440; 3713.325;  233.125;    0.000
621.560; 3721.325;  235.125;    0.000
621.681; 3685.325;  234.125;    0.000
621.801; 3666.325;  240.125;    0.000
621.921; 3656.325;  239.125;    0.000
622.041; 3759.325;  288.125;    0.000
622.161; 3601.325;  229.125;    0.000
622.281; 3693.325;  223.125;    0.000
622.401; 3742.325;  240.125;    0.000
622.521; 3649.325;  267.125;    0.000
622.641; 3690.325;  226.125;    0.000
622.761; 3675.325;  252.125;    0.000
622.882; 3601.325;  207.125;    0.000
623.002; 3762.325;  226.125;    0.000
623.121; 3653.325;  207.125;    0.000
623.241; 3708.325;  215.125;    0.000
623.361; 3634.325;  222.125;    0.000
623.481; 3563.325;  187.125;    0.000
623.601; 3678.325;  283.125;    0.000
623.721; 3657.325;  283.125;    0.000
623.841; 3627.325;  233.125;    0.000
623.961; 3762.325;  215.125;    0.000
624.081; 3604.325;  219.125;    0.000
624.201; 3746.325;  221.125;    0.000
624.320; 3639.325;  215.125;    0.000
624.440; 3614.325;  222.125;    0.000
624.560; 3444.325;  231.125;    0.000
624.680; 3639.325;  225.125;    0.000
624.799; 3606.325;  230.125;    0.000
624.919; 3576.325;  243.125;    0.000
625.039; 3596.325;  203.125;    0.000
625.159; 3565.325;  257.125;    0.000
625.278; 3518.325;  230.125;    0.000
625.398; 3576.325;  195.125;    0.000
625.518; 3513.325;  211.125;    0.000
625.637; 3569.325;  267.125;    0.000
625.757; 3575.325;  228.125;    0.000
625.876; 3548.325;  231.125;    0.000
625.996; 3501.325;  219.125;    0.000
626.115; 3479.325;  235.125;    0.000
626.235; 3711.325;  199.125;    0.000
626.354; 3566.325;  226.125;    0.000
626.474; 3629.325;  225.125;    0.000
626.594; 3553.325;  223.125;    0.000
626.713; 3524.325;  231.125;    0.000
626.832; 3504.325;  287.125;    0.000
626.952; 3464.325;  251.125;    0.000
627.071; 3551.325;  254.125;    0.000
627.191; 3559.325;  193.125;    0.000
627.310; 3541.325;  213.125;    0.000
627.429; 3533.325;  259.125;    0.000
627.549; 3529.325;  243.125;    0.000
627.668; 3486.325;  181.125;    0.000
627.787; 3518.325;  232.125;    0.000
627.907; 3543.325;  222.125;    0.000
628.026; 3597.325;  219.125;    0.000
628.145; 3489.325;  201.125;    0.000
628.264; 3570.325;  198.125;    0.000
628.384; 3526.325;  208.125;    0.000
628.503; 3420.325;  251.125;    0.000
628.622; 3437.325;  195.125;    0.000
628.741; 3553.325;  180.125;    0.000
628.860; 3506.325;  235.125;    0.000
628.980; 3486.325;  222.125;    0.000
629.099; 3595.325;  237.125;    0.000
629.218; 3443.325;  175.125;    0.000
629.337; 3383.325;  194.125;    0.000
629.456; 3452.325;  225.125;    0.000
629.575; 3528.325;  239.125;    0.000
629.694; 3534.325;  230.125;    0.000
629.813; 3534.325;  197.125;    0.000
629.932; 3528.325;  225.125;    0.000
630.051; 3527.325;  238.125;    0.000
630.170; 3499.325;  233.125;    0.000
630.289; 3486.325;  231.125;    0.000
630.408; 3462.325;  204.125;    0.000
630.527; 3519.325;  262.125;    0.000
630.646; 3446.325;  181.125;    0.000
630.764; 3354.325;  218.125;    0.000
630.883; 3468.325;  215.125;    0.000
631.002; 3498.325;  224.125;    0.000
631.121; 3444.325;  209.125;    0.000
631.240; 3386.325;  230.125;    0.000
631.359; 3486.325;  235.125;    0.000
631.477; 3455.325;  223.125;    0.000
631.596; 3522.325;  218.125;    0.000
631.715; 3455.325;  234.125;    0.000
631.834; 3416.325;  215.125;    0.000
631.952; 3376.325;  243.125;    0.000
632.071; 3418.325;  219.125;    0.000
632.190; 3354.325;  235.125;    0.000
632.308; 3460.325;  239.125;    0.000
632.427; 3419.325;  211.125;    0.000
632.546; 3377.325;  233.125;    0.000
632.664; 3384.325;  219.125;    0.000
632.783; 3368.325;  203.125;    0.000
632.901; 3443.325;  221.125;    0.000
633.020; 3308.325;  197.125;    0.000
633.138; 3365.325;  244.125;    0.000
633.257; 3405.325;  205.125;    0.000
633.375; 3393.325;  245.125;    0.000
633.494; 3422.325;  218.125;    0.000
633.612; 3441.325;  222.125;    0.000
633.731; 3331.325;  212.125;    0.000
633.849; 3391.325;  218.125;    0.000
633.968; 3385.325;  236.125;    0.000
634.086; 3326.325;  233.125;    0.000
634.204; 3441.325;  215.125;    0.000
634.323; 3444.325;  230.125;    0.000
634.441; 3470.325;  235.125;    0.000
634.559; 3447.325;  202.125;    0.000
634.678; 3344.325;  218.125;    0.000
634.796; 3355.325;  203.125;    0.000
634.914; 3409.325;  227.125;    0.000
635.032; 3396.325;  279.125;    0.000
635.151; 3390.325;  221.125;    0.000
635.269; 3305.325;  207.125;    0.000
635.387; 3354.325;  195.125;    0.000
635.505; 3275.325;  243.125;    0.000
635.623; 3433.325;  269.125;    0.000
635.742; 3336.325;  232.125;    0.000
635.860; 3351.325;  243.125;    0.000
635.978; 3388.325;  215.125;    0.000
636.096; 3350.325;  225.125;    0.000
636.214; 3313.325;  244.125;    0.000
636.332; 3439.325;  226.125;    0.000
636.450; 3336.325;  227.125;    0.000
636.568; 3401.325;  225.125;    0.000
636.686; 3264.325;  194.125;    0.000
636.804; 3295.325;  234.125;    0.000
636.922; 3312.325;  177.125;    0.000
637.040; 3349.325;  225.125;    0.000
637.158; 3299.325;  194.125;    0.000
637.276; 3237.325;  219.125;    0.000
637.394; 3396.325;  219.125;    0.000
637.512; 3363.325;  210.125;    0.000
637.629; 3389.325;  242.125;    0.000
637.747; 3284.325;  193.125;    0.000
637.865; 3389.325;  219.125;    0.000
637.983; 3347.325;  251.125;    0.000
638.101; 3300.325;  221.125;    0.000
638.218; 3293.325;  193.125;    0.000
638.336; 3411.325;  224.125;    0.000
638.454; 3373.325;  227.125;    0.000
638.572; 3404.325;  245.125;    0.000
638.689; 3295.325;  222.125;    0.000
638.807; 3363.325;  244.125;    0.000
638.925; 3246.325;  238.125;    0.000
639.042; 3311.325;  213.125;    0.000
639.160; 3301.325;  186.125;    0.000
639.278; 3326.325;  203.125;    0.000
639.395; 3294.325;  270.125;    0.000
639.513; 3280.325;  227.125;    0.000
639.630; 3320.325;  200.125;    0.000
639.748; 3357.325;  199.125;    0.000
639.865; 3232.325;  233.125;    0.000
639.983; 3436.325;  181.125;    0.000
640.100; 3329.325;  219.125;    0.000
640.218; 3329.325;  234.125;    0.000
640.335; 3257.325;  233.125;    0.000
640.453; 3327.325;  202.125;    0.000
640.570; 3319.325;  214.125;    0.000
640.688; 3333.325;  215.125;    0.000
640.805; 3361.325;  229.125;    0.000
640.922; 3313.325;  244.125;    0.000
641.040; 3324.325;  233.125;    0.000
641.157; 3348.325;  199.125;    0.000
641.274; 3281.325;  205.125;    0.000
641.391; 3339.325;  244.125;    0.000
641.509; 3271.325;  184.125;    0.000
641.626; 3365.325;  244.125;    0.000
641.743; 3351.325;  221.125;    0.000
641.860; 3237.325;  206.125;    0.000
641.978; 3252.325;  272.125;    0.000
642.095; 3312.325;  218.125;    0.000
642.212; 3267.325;  208.125;    0.000
642.329; 3366.325;  218.125;    0.000
642.446; 3221.325;  197.125;    0.000
642.563; 3309.325;  214.125;    0.000
642.681; 3297.325;  203.125;    0.000
642.798; 3312.325;  236.125;    0.000
642.915; 3276.325;  191.125;    0.000
643.032; 3207.325;  226.125;    0.000
643.149; 3359.325;  231.125;    0.000
643.266; 3253.325;  213.125;    0.000
643.383; 3339.325;  240.125;    0.000
643.500; 3371.325;  185.125;    0.000
643.617; 3340.325;  229.125;    0.000
643.734; 3400.325;  205.125;    0.000
643.850; 3361.325;  222.125;    0.000
643.967; 3334.325;  202.125;    0.000
644.084; 3514.325;  264.125;    0.000
644.201; 3365.325;  214.125;    0.000
644.318; 3377.325;  206.125;    0.000
644.435; 3419.325;  225.125;    0.000
644.552; 3356.325;  203.125;    0.000
644.668; 3374.325;  252.125;    0.000
644.785; 3455.325;  213.125;    0.000
644.902; 3387.325;  233.125;    0.000
645.019; 3364.325;  220.125;    0.000
645.135; 3491.325;  225.125;    0.000
645.252; 3382.325;  218.125;    0.000
645.369; 3404.325;  214.125;    0.000
645.485; 3464.325;  210.125;    0.000
645.602; 3531.325;  198.125;    0.000
645.719; 3438.325;  228.125;    0.000
645.835; 3544.325;  209.125;    0.000
645.952; 3489.325;  213.125;    0.000
646.068; 3561.325;  241.125;    0.000
646.185; 3508.325;  219.125;    0.000
646.302; 3626.325;  246.125;    0.000
646.418; 3583.325;  228.125;    0.000
646.535; 3595.325;  256.125;    0.000
646.651; 3487.325;  222.125;    0.000
646.768; 3597.325;  203.125;    0.000
646.884; 3606.325;  199.125;    0.000
647.000; 3552.325;  194.125;    0.000
647.117; 3584.325;  214.125;    0.000
647.233; 3554.325;  209.125;    0.000
647.350; 3621.325;  235.125;    0.000
647.466; 3586.325;  237.125;    0.000
647.582; 3659.325;  231.125;    0.000
647.699; 3753.325;  219.125;    0.000
647.815; 3680.325;  200.125;    0.000
647.931; 3713.325;  173.125;    0.000
648.047; 3658.325;  184.125;    0.000
648.164; 3736.325;  199.125;    0.000
648.280; 3727.325;  209.125;    0.000
648.396; 3789.325;  220.125;    0.000
648.512; 3751.325;  212.125;    0.000
648.629; 3726.325;  214.125;    0.000
648.745; 3653.325;  197.125;    0.000
648.861; 3770.325;  228.125;    0.000
648.977; 3763.325;  238.125;    0.000
649.093; 3746.325;  208.125;    0.000
649.209; 3788.325;  179.125;    0.000
649.325; 3839.325;  256.125;    0.000
649.441; 3852.325;  224.125;    0.000
649.557; 3826.325;  247.125;    0.000
649.673; 3900.325;  214.125;    0.000
649.789; 3809.325;  213.125;    0.000
649.905; 3828.325;  170.125;    0.000
650.021; 3883.325;  236.125;    0.000
650.137; 3896.325;  229.125;    0.000
650.253; 3777.325;  207.125;    0.000
650.369; 3815.325;  198.125;    0.000
650.485; 3971.325;  225.125;    0.000
650.601; 3898.325;  260.125;    0.000
650.717; 3953.325;  196.125;    0.000
650.833; 3959.325;  219.125;    0.000
650.948; 4110.325;  203.125;    0.000
651.064; 4018.325;  232.125;    0.000
651.180; 3876.325;  252.125;    0.000
651.296; 3973.325;  190.125;    0.000
651.411; 4052.325;  235.125;    0.000
651.527; 4176.325;  227.125;    0.000
651.643; 4198.325;  238.125;    0.000
651.759; 4071.325;  260.125;    0.000
651.874; 4085.325;  217.125;    0.000
651.990; 4135.325;  239.125;    0.000
652.105; 4127.325;  215.125;    0.000
652.221; 4226.325;  237.125;    0.000
652.337; 4300.325;  238.125;    0.000
652.452; 4395.325;  230.125;    0.000
652.568; 4318.325;  201.125;    0.000
652.683; 4372.325;  243.125;    0.000
652.799; 4404.325;  218.125;    0.000
652.914; 4505.325;  189.125;    0.000
653.030; 4558.325;  191.125;    0.000
653.145; 4578.325;  240.125;    0.000
653.261; 4587.325;  225.125;    0.000
653.376; 4649.325;  241.125;    0.000
653.492; 4781.325;  188.125;    0.000
653.607; 4846.325;  219.125;    0.000
653.722; 5018.325;  268.125;    0.000
653.838; 5046.325;  262.125;    0.000
653.953; 5015.325;  188.125;    0.000
654.068; 5053.325;  244.125;    0.000
654.184; 5194.325;  247.125;    0.000
654.299; 5246.325;  228.125;    0.000
654.414; 5304.325;  181.125;    0.000
654.530; 5620.325;  210.125;    0.000
654.645; 5569.325;  240.125;    0.000
654.760; 5718.325;  219.125;    0.000
654.875; 5890.325;  178.125;    0.000
654.990; 6053.325;  222.125;    0.000
655.106; 6221.325;  227.125;    0.000
655.221; 6381.325;  270.125;    0.000
655.336; 6570.325;  199.125;    0.000
655.451; 6826.325;  235.125;    0.000
655.566; 7035.325;  251.125;    0.000
655.681; 7195.325;  253.125;    0.000
655.796; 7695.325;  207.125;    0.000
655.911; 7882.325;  213.125;    0.000
656.026; 8374.325;  247.125;    0.000
656.141; 8712.325;  209.125;    0.000
656.256; 9130.325;  226.125;    0.000
656.371; 9134.325;  201.125;    0.000
656.486; 9044.325;  196.125;    0.000
656.601; 8866.325;  239.125;    0.000
656.716; 8609.325;  234.125;    0.000
656.831; 8288.325;  223.125;    0.000
656.946; 8108.325;  246.125;    0.000
657.060; 8015.325;  230.125;    0.000
657.175; 7610.325;  207.125;    0.000
657.290; 7451.325;  213.125;    0.000
657.405; 7163.325;  319.125;    0.000
657.520; 7081.325;  241.125;    0.000
657.634; 6926.325;  235.125;    0.000
657.749; 6706.325;  275.125;    0.000
657.864; 6550.325;  210.125;    0.000
657.979; 6466.325;  227.125;    0.000
658.093; 6291.325;  206.125;    0.000
658.208; 6112.325;  217.125;    0.000
658.323; 5892.325;  227.125;    0.000
658.437; 5912.325;  217.125;    0.000
658.552; 5828.325;  237.125;    0.000
658.666; 5746.325;  233.125;    0.000
658.781; 5529.325;  248.125;    0.000
658.895; 5493.325;  233.125;    0.000
659.010; 5457.325;  238.125;    0.000
659.125; 5305.325;  206.125;    0.000
659.239; 5234.325;  220.125;    0.000
659.353; 5161.325;  236.125;    0.000
659.468; 4983.325;  238.125;    0.000
659.582; 5003.325;  275.125;    0.000
659.697; 4947.325;  239.125;    0.000
659.811; 4974.325;  232.125;    0.000
659.926; 4809.325;  230.125;    0.000
660.040; 4778.325;  257.125;    0.000
660.154; 4748.325;  221.125;    0.000
660.269; 4608.325;  219.125;    0.000
660.383; 4642.325;  228.125;    0.000
660.497; 4633.325;  243.125;    0.000
660.612; 4568.325;  238.125;    0.000
660.726; 4507.325;  260.125;    0.000
660.840; 4499.325;  239.125;    0.000
660.954; 4370.325;  236.125;    0.000
661.068; 4301.325;  239.125;    0.000
661.183; 4291.325;  245.125;    0.000
661.297; 4240.325;  198.125;    0.000
661.411; 4236.325;  203.125;    0.000
661.525; 4230.325;  244.125;    0.000
661.639; 4077.325;  229.125;    0.000
661.753; 4042.325;  238.125;    0.000
661.867; 4061.325;  237.125;    0.000
661.981; 4007.325;  219.125;    0.000
662.095; 3960.325;  232.125;    0.000
662.209; 3895.325;  236.125;    0.000
662.323; 3872.325;  209.125;    0.000
662.437; 3763.325;  206.125;    0.000
662.551; 3872.325;  217.125;    0.000
662.665; 3751.325;  262.125;    0.000
662.779; 3800.325;  234.125;    0.000
662.893; 3757.325;  222.125;    0.000
663.007; 3616.325;  189.125;    0.000
663.121; 3657.325;  258.125;    0.000
663.235; 3604.325;  191.125;    0.000
663.349; 3607.325;  259.125;    0.000
663.462; 3535.325;  209.125;    0.000
663.576; 3575.325;  244.125;    0.000
663.690; 3469.325;  237.125;    0.000
663.804; 3487.325;  205.125;    0.000
663.917; 3444.325;  207.125;    0.000
664.031; 3472.325;  234.125;    0.000
664.145; 3436.325;  216.125;    0.000
664.258; 3391.325;  202.125;    0.000
664.372; 3326.325;  198.125;    0.000
664.486; 3379.325;  181.125;    0.000
664.599; 3339.325;  229.125;    0.000
664.713; 3375.325;  266.125;    0.000
664.827; 3338.325;  185.125;    0.000
664.940; 3246.325;  225.125;    0.000
665.054; 3294.325;  198.125;    0.000
665.167; 3258.325;  208.125;    0.000
665.281; 3234.325;  231.125;    0.000
665.394; 3204.325;  228.125;    0.000
665.508; 3198.325;  204.125;    0.000
665.621; 3232.325;  263.125;    0.000
665.735; 3300.325;  222.125;    0.000
665.848; 3238.325;  237.125;    0.000
665.961; 3187.325;  180.125;    0.000
666.075; 3214.325;  212.125;    0.000
666.188; 3187.325;  229.125;    0.000
666.301; 3133.325;  247.125;    0.000
666.415; 3110.325;  212.125;    0.000
666.528; 3108.325;  268.125;    0.000
666.641; 3078.325;  210.125;    0.000
666.755; 3106.325;  178.125;    0.000
666.868; 3055.325;  227.125;    0.000
666.981; 3094.325;  250.125;    0.000
667.094; 2957.325;  228.125;    0.000
667.207; 3020.325;  235.125;    0.000
667.321; 2968.325;  171.125;    0.000
667.434; 3024.325;  191.125;    0.000
667.547; 3040.325;  279.125;    0.000
667.660; 3005.325;  210.125;    0.000
667.773; 3005.325;  217.125;    0.000
667.886; 2931.325;  209.125;    0.000
667.999; 2925.325;  239.125;    0.000
668.112; 3007.325;  227.125;    0.000
668.225; 2909.325;  185.125;    0.000
668.338; 2917.325;  222.125;    0.000
668.451; 2938.325;  200.125;    0.000
668.564; 2923.325;  237.125;    0.000
668.677; 2848.325;  207.125;    0.000
668.790; 2903.325;  208.125;    0.000
668.903; 2889.325;  243.125;    0.000
669.016; 2874.325;  190.125;    0.000
669.129; 2754.325;  234.125;    0.000
669.242; 2693.325;  185.125;    0.000
669.354; 2814.325;  224.125;    0.000
669.467; 2845.325;  219.125;    0.000
669.580; 2862.325;  249.125;    0.000
669.693; 2826.325;  187.125;    0.000
669.806; 2783.325;  206.125;    0.000
669.918; 2692.325;  192.125;    0.000
670.031; 2793.325;  235.125;    0.000
670.144; 2836.325;  238.125;    0.000
670.256; 2704.325;  237.125;    0.000
670.369; 2850.325;  237.125;    0.000
670.482; 2817.325;  250.125;    0.000
670.594; 2803.325;  273.125;    0.000
670.707; 2631.325;  223.125;    0.000
670.820; 2765.325;  238.125;    0.000
670.932; 2820.325;  224.125;    0.000
671.045; 2663.325;  219.125;    0.000
671.157; 2792.325;  242.125;    0.000
671.270; 2632.325;  235.125;    0.000
671.382; 2619.325;  213.125;    0.000
671.495; 2727.325;  254.125;    0.000
671.607; 2692.325;  253.125;    0.000
671.720; 2657.325;  169.125;    0.000
671.832; 2649.325;  201.125;    0.000
671.944; 2682.325;  250.125;    0.000
672.057; 2614.325;  187.125;    0.000
672.169; 2725.325;  224.125;    0.000
672.281; 2635.325;  238.125;    0.000
672.394; 2719.325;  250.125;    0.000
672.506; 2662.325;  227.125;    0.000
672.618; 2606.325;  223.125;    0.000
672.731; 2561.325;  210.125;    0.000
672.843; 2702.325;  245.125;    0.000
672.955; 2712.325;  263.125;    0.000
673.067; 2630.325;  239.125;    0.000
673.180; 2624.325;  253.125;    0.000
673.292; 2693.325;  243.125;    0.000
673.404; 2662.325;  226.125;    0.000
673.516; 2557.325;  223.125;    0.000
673.628; 2656.325;  223.125;    0.000
673.740; 2605.325;  216.125;    0.000
673.852; 2669.325;  277.125;    0.000
673.964; 2594.325;  211.125;    0.000
674.076; 2553.325;  241.125;    0.000
674.188; 2563.325;  251.125;    0.000
674.300; 2583.325;  268.125;    0.000
674.412; 2535.325;  260.125;    0.000
674.524; 2654.325;  257.125;    0.000
674.636; 2601.325;  222.125;    0.000
674.748; 2556.325;  227.125;    0.000
674.860; 2640.325;  250.125;    0.000
674.972; 2534.325;  240.125;    0.000
675.084; 2572.325;  262.125;    0.000
675.196; 2567.325;  287.125;    0.000
675.307; 2585.325;  257.125;    0.000
675.419; 2639.325;  231.125;    0.000
675.531; 2606.325;  274.125;    0.000
675.643; 2495.325;  235.125;    0.000
675.755; 2540.325;  275.125;    0.000
675.866; 2453.325;  238.125;    0.000
675.978; 2552.325;  209.125;    0.000
676.090; 2440.325;  239.125;    0.000
676.201; 2594.325;  249.125;    0.000
676.313; 2413.325;  237.125;    0.000
676.425; 2511.325;  263.125;    0.000
676.536; 2521.325;  178.125;    0.000
676.648; 2515.325;  245.125;    0.000
676.759; 2472.325;  244.125;    0.000
676.871; 2511.325;  242.125;    0.000
676.983; 2492.325;  245.125;    0.000
677.094; 2467.325;  209.125;    0.000
677.206; 2366.325;  248.125;    0.000
677.317; 2447.325;  260.125;    0.000
677.429; 2510.325;  237.125;    0.000
677.540; 2493.325;  226.125;    0.000
677.651; 2394.325;  226.125;    0.000
677.763; 2394.325;  194.125;    0.000
677.874; 2318.325;  230.125;    0.000
677.986; 2448.325;  202.125;    0.000
678.097; 2331.325;  229.125;    0.000
678.208; 2414.325;  263.125;    0.000
678.320; 2394.325;  243.125;    0.000
678.431; 2390.325;  229.125;    0.000
678.542; 2405.325;  231.125;    0.000
678.653; 2394.325;  224.125;    0.000
678.765; 2408.325;  255.125;    0.000
678.876; 2342.325;  175.125;    0.000
678.987; 2330.325;  204.125;    0.000
679.098; 2295.325;  227.125;    0.000
679.209; 2374.325;  228.125;    0.000
679.320; 2267.325;  223.125;    0.000
679.432; 2390.325;  219.125;    0.000
679.543; 2370.325;  210.125;    0.000
679.654; 2304.325;  249.125;    0.000
679.765; 2270.325;  222.125;    0.000
679.876; 2312.325;  219.125;    0.000
679.987; 2290.325;  213.125;    0.000
680.098; 2264.325;  237.125;    0.000
680.209; 2333.325;  188.125;    0.000
680.320; 2278.325;  243.125;    0.000
680.431; 2359.325;  227.125;    0.000
680.542; 2288.325;  212.125;    0.000
680.653; 2309.325;  266.125;    0.000
680.763; 2315.325;  198.125;    0.000
680.874; 2352.325;  211.125;    0.000
680.985; 2250.325;  207.125;    0.000
681.096; 2245.325;  244.125;    0.000
681.207; 2331.325;  209.125;    0.000
681.318; 2302.325;  215.125;    0.000
681.428; 2301.325;  199.125;    0.000
681.539; 2266.325;  175.125;    0.000
681.650; 2349.325;  224.125;    0.000
681.760; 2256.325;  216.125;    0.000
681.871; 2304.325;  187.125;    0.000
681.982; 2257.325;  237.125;    0.000
682.093; 2242.325;  213.125;    0.000
682.203; 2241.325;  190.125;    0.000
682.314; 2295.325;  230.125;    0.000
682.424; 2243.325;  223.125;    0.000
682.535; 2295.325;  172.125;    0.000
682.646; 2344.325;  268.125;    0.000
682.756; 2357.325;  249.125;    0.000
682.867; 2218.325;  225.125;    0.000
682.977; 2276.325;  211.125;    0.000
683.088; 2218.325;  238.125;    0.000
683.198; 2281.325;  202.125;    0.000
683.308; 2281.325;  196.125;    0.000
683.419; 2374.325;  230.125;    0.000
683.529; 2287.325;  213.125;    0.000
683.640; 2262.325;  225.125;    0.000
683.750; 2201.325;  203.125;    0.000
683.860; 2293.325;  200.125;    0.000
683.971; 2312.325;  269.125;    0.000
684.081; 2282.325;  204.125;    0.000
684.191; 2256.325;  228.125;    0.000
684.301; 2171.325;  219.125;    0.000
684.412; 2225.325;  222.125;    0.000
684.522; 2219.325;  242.125;    0.000
684.632; 2276.325;  234.125;    0.000
684.742; 2187.325;  240.125;    0.000
684.852; 2232.325;  229.125;    0.000
684.963; 2323.325;  237.125;    0.000
685.073; 2246.325;  205.125;    0.000
685.183; 2239.325;  241.125;    0.000
685.293; 2224.325;  202.125;    0.000
685.403; 2257.325;  232.125;    0.000
685.513; 2218.325;  244.125;    0.000
685.623; 2190.325;  224.125;    0.000
685.733; 2372.325;  236.125;    0.000
685.843; 2293.325;  235.125;    0.000
685.953; 2187.325;  216.125;    0.000
686.063; 2226.325;  214.125;    0.000
686.173; 2218.325;  198.125;    0.000
686.283; 2251.325;  250.125;    0.000
686.393; 2243.325;  227.125;    0.000
686.503; 2218.325;  244.125;    0.000
686.612; 2200.325;  247.125;    0.000
686.722; 2282.325;  265.125;    0.000
686.832; 2202.325;  213.125;    0.000
686.942; 2246.325;  241.125;    0.000
687.052; 2202.325;  238.125;    0.000
687.161; 2271.325;  233.125;    0.000
687.271; 2174.325;  232.125;    0.000
687.381; 2202.325;  220.125;    0.000
687.491; 2248.325;  206.125;    0.000
687.600; 2202.325;  283.125;    0.000
687.710; 2190.325;  212.125;    0.000
687.820; 2222.325;  226.125;    0.000
687.929; 2208.325;  202.125;    0.000
688.039; 2199.325;  225.125;    0.000
688.148; 2200.325;  235.125;    0.000
688.258; 2154.325;  224.125;    0.000
688.367; 2232.325;  239.125;    0.000
688.477; 2179.325;  193.125;    0.000
688.586; 2150.325;  226.125;    0.000
688.696; 2157.325;  185.125;    0.000
688.805; 2204.325;  190.125;    0.000
688.915; 2165.325;  209.125;    0.000
689.024; 2242.325;  214.125;    0.000
689.134; 2164.325;  205.125;    0.000
689.243; 2181.325;  190.125;    0.000
689.352; 2259.325;  233.125;    0.000
689.462; 2133.325;  196.125;    0.000
689.571; 2168.325;  227.125;    0.000
689.680; 2273.325;  206.125;    0.000
689.790; 2133.325;  193.125;    0.000
689.899; 2210.325;  204.125;    0.000
690.008; 2165.325;  228.125;    0.000
690.117; 2177.325;  207.125;    0.000
690.227; 2179.325;  231.125;    0.000
690.336; 2223.325;  222.125;    0.000
690.445; 2140.325;  198.125;    0.000
690.554; 2159.325;  202.125;    0.000
690.663; 2147.325;  217.125;    0.000
690.772; 2114.325;  213.125;    0.000
690.881; 2122.325;  225.125;    0.000
690.990; 2129.325;  217.125;    0.000
691.099; 2136.325;  205.125;    0.000
691.209; 2134.325;  220.125;    0.000
691.318; 2150.325;  216.125;    0.000
691.427; 2142.325;  188.125;    0.000
691.536; 2177.325;  224.125;    0.000
691.644; 2173.325;  212.125;    0.000
691.753; 2208.325;  216.125;    0.000
691.862; 2124.325;  250.125;    0.000
691.971; 2036.325;  210.125;    0.000
692.080; 2207.325;  232.125;    0.000
692.189; 2141.325;  218.125;    0.000
692.298; 2163.325;  220.125;    0.000
692.406; 2209.325;  261.125;    0.000
692.515; 2233.325;  253.125;    0.000
692.624; 2116.325;  224.125;    0.000
692.733; 2099.325;  209.125;    0.000
692.842; 2136.325;  214.125;    0.000
692.950; 2129.325;  206.125;    0.000
693.059; 2105.325;  180.125;    0.000
693.168; 2111.325;  220.125;    0.000
693.276; 2056.325;  196.125;    0.000
693.385; 2131.325;  203.125;    0.000
693.494; 2171.325;  263.125;    0.000
693.602; 2125.325;  222.125;    0.000
693.711; 2094.325;  178.125;    0.000
693.819; 2127.325;  230.125;    0.000
693.928; 2090.325;  187.125;    0.000
694.036; 2146.325;  219.125;    0.000
694.145; 2179.325;  223.125;    0.000
694.253; 2120.325;  241.125;    0.000
694.362; 2072.325;  229.125;    0.000
694.470; 2238.325;  223.125;    0.000
694.579; 2128.325;  195.125;    0.000
694.687; 2186.325;  257.125;    0.000
694.795; 2159.325;  230.125;    0.000
694.904; 2089.325;  196.125;    0.000
695.012; 2174.325;  247.125;    0.000
695.120; 2159.325;  215.125;    0.000
695.229; 2176.325;  244.125;    0.000
695.337; 2132.325;  197.125;    0.000
695.445; 2115.325;  270.125;    0.000
695.553; 2118.325;  241.125;    0.000
695.662; 2160.325;  249.125;    0.000
695.770; 2091.325;  244.125;    0.000
695.878; 2129.325;  236.125;    0.000
695.986; 2148.325;  253.125;    0.000
696.094; 2088.325;  242.125;    0.000
696.202; 2093.325;  174.125;    0.000
696.310; 2142.325;  230.125;    0.000
696.419; 2121.325;  218.125;    0.000
696.527; 2101.325;  226.125;    0.000
696.635; 2119.325;  217.125;    0.000
696.743; 2111.325;  221.125;    0.000
696.851; 2144.325;  259.125;    0.000
696.959; 2121.325;  245.125;    0.000
697.067; 2171.325;  235.125;    0.000
697.174; 2124.325;  238.125;    0.000
697.282; 2088.325;  208.125;    0.000
697.390; 2185.325;  265.125;    0.000
697.498; 2141.325;  202.125;    0.000
697.606; 2132.325;  219.125;    0.000
697.714; 2107.325;  245.125;    0.000
697.822; 2137.325;  222.125;    0.000
697.929; 2047.325;  194.125;    0.000
698.037; 2109.325;  223.125;    0.000
698.145; 2053.325;  213.125;    0.000
698.253; 2050.325;  234.125;    0.000
698.360; 2201.325;  211.125;    0.000
698.468; 2090.325;  241.125;    0.000
698.576; 2137.325;  249.125;    0.000
698.683; 2075.325;  268.125;    0.000
698.791; 2040.325;  223.125;    0.000
698.899; 2117.325;  251.125;    0.000
699.006; 2148.325;  216.125;    0.000
699.114; 2163.325;  256.125;    0.000
699.221; 2056.325;  226.125;    0.000
699.329; 2135.325;  255.125;    0.000
699.436; 2061.325;  213.125;    0.000
699.544; 2137.325;  258.125;    0.000
699.651; 2016.325;  214.125;    0.000
699.759; 2095.325;  229.125;    0.000
699.866; 2128.325;  239.125;    0.000
699.974; 2033.325;  224.125;    0.000
700.081; 2083.325;  227.125;    0.000
700.188; 2141.325;  267.125;    0.000
700.296; 2070.325;  222.125;    0.000
700.403; 2107.325;  225.125;    0.000
700.510; 2077.325;  248.125;    0.000
700.618; 2124.325;  223.125;    0.000
700.725; 2069.325;  243.125;    0.000
700.832; 2070.325;  239.125;    0.000
700.940; 2102.325;  284.125;    0.000
701.047; 2095.325;  216.125;    0.000
701.154; 2043.325;  249.125;    0.000
701.261; 2041.325;  229.125;    0.000
701.368; 2086.325;  247.125;    0.000
701.475; 2046.325;  208.125;    0.000
701.582; 2024.325;  262.125;    0.000
701.690; 2102.325;  224.125;    0.000
701.797; 2119.325;  294.125;    0.000
701.904; 2104.325;  303.125;    0.000
702.011; 2142.325;  278.125;    0.000
702.118; 2051.325;  279.125;    0.000
702.225; 2140.325;  342.125;    0.000
702.332; 2100.325;  281.125;    0.000
702.439; 2141.325;  313.125;    0.000
702.546; 2164.325;  295.125;    0.000
702.652; 2102.325;  293.125;    0.000
702.759; 2109.325;  333.125;    0.000
702.866; 2113.325;  272.125;    0.000
702.973; 2239.325;  310.125;    0.000
703.080; 2155.325;  313.125;    0.000
703.187; 2134.325;  316.125;    0.000
703.294; 2159.325;  328.125;    0.000
703.400; 1931.325;  312.125;    0.000
703.507;  500.325;  349.125;    0.000
703.614;  334.325;  298.125;    0.000
703.720;  324.325;  300.125;    0.000
703.827;  312.325;  346.125;    0.000
703.934;  336.325;  308.125;    0.000
704.040;  281.325;  300.125;    0.000
704.147;  300.325;  317.125;    0.000
704.254;  365.325;  350.125;    0.000
704.360;  317.325;  285.125;    0.000
704.467;  325.325;  334.125;    0.000
704.573;  337.325;  330.125;    0.000
704.680;  339.325;  312.125;    0.000
704.786;  291.325;  305.125;    0.000
704.893;  309.325;  330.125;    0.000
704.999;  323.325;  315.125;    0.000
705.106;  365.325;  327.125;    0.000

