
Integration time [ms]:   0.300
Averaging Nr. [scans]: 1
Smoothing Nr. [pixels]: 0
Data measured with spectrometer [name]: UV1
Wave   ;Sample   ;Dark     ;Reference
[nm]   ;[counts] ;[counts] ;[counts] 

236.381;  145.500;  160.350;    0.000
236.451;  214.500;  198.350;    0.000
236.520;  176.500;  179.350;    0.000
236.590;  215.500;  205.350;    0.000
236.660;  185.500;  199.350;    0.000
236.730;  221.500;  178.350;    0.000
236.799;  182.500;  201.350;    0.000
236.869;  173.500;  197.350;    0.000
236.939;  192.500;  180.350;    0.000
237.009;  175.500;  165.350;    0.000
237.078;  165.500;  191.350;    0.000
237.148;  184.500;  146.350;    0.000
237.218;  167.500;  142.350;    0.000
237.287;  153.500;  190.350;    0.000
237.357;  182.500;  182.350;    0.000
237.427;  191.500;  139.350;    0.000
237.496; 1277.500;  221.350;    0.000
237.566; 1254.500;  183.350;    0.000
237.636; 1303.500;  157.350;    0.000
237.705; 1240.500;  189.350;    0.000
237.775; 1188.500;  169.350;    0.000
237.845; 1251.500;  156.350;    0.000
237.914; 1266.500;  185.350;    0.000
237.984; 1310.500;  194.350;    0.000
238.054; 1265.500;  138.350;    0.000
238.123; 1295.500;  166.350;    0.000
238.193; 1262.500;  174.350;    0.000
238.263; 1280.500;  158.350;    0.000
238.332; 1292.500;  167.350;    0.000
238.402; 1265.500;  173.350;    0.000
238.471; 1228.500;  153.350;    0.000
238.541; 1300.500;  167.350;    0.000
238.611; 1293.500;  165.350;    0.000
238.680; 1205.500;  157.350;    0.000
238.750; 1205.500;  152.350;    0.000
238.819; 1261.500;  190.350;    0.000
238.889; 1219.500;  151.350;    0.000
238.958; 1273.500;  166.350;    0.000
239.028; 1197.500;  180.350;    0.000
239.097; 1165.500;  170.350;    0.000
239.167; 1273.500;  177.350;    0.000
239.237; 1204.500;  195.350;    0.000
239.306; 1207.500;  145.350;    0.000
239.376; 1265.500;  158.350;    0.000
239.445; 1283.500;  187.350;    0.000
239.515; 1267.500;  160.350;    0.000
239.584; 1187.500;  173.350;    0.000
239.654; 1200.500;  184.350;    0.000
239.723; 1257.500;  195.350;    0.000
239.793; 1164.500;  183.350;    0.000
239.862; 1214.500;  190.350;    0.000
239.932; 1198.500;  168.350;    0.000
240.001; 1189.500;  164.350;    0.000
240.070; 1237.500;  183.350;    0.000
240.140; 1201.500;  175.350;    0.000
240.209; 1176.500;  135.350;    0.000
240.279; 1252.500;  176.350;    0.000
240.348; 1229.500;  184.350;    0.000
240.418; 1139.500;  157.350;    0.000
240.487; 1161.500;  189.350;    0.000
240.556; 1157.500;  157.350;    0.000
240.626; 1283.500;  174.350;    0.000
240.695; 1221.500;  180.350;    0.000
240.765; 1192.500;  152.350;    0.000
240.834; 1195.500;  136.350;    0.000
240.903; 1225.500;  196.350;    0.000
240.973; 1234.500;  183.350;    0.000
241.042; 1141.500;  150.350;    0.000
241.112; 1231.500;  168.350;    0.000
241.181; 1274.500;  152.350;    0.000
241.250; 1143.500;  132.350;    0.000
241.320; 1266.500;  209.350;    0.000
241.389; 1223.500;  169.350;    0.000
241.458; 1202.500;  204.350;    0.000
241.528; 1200.500;  176.350;    0.000
241.597; 1206.500;  170.350;    0.000
241.666; 1186.500;  168.350;    0.000
241.736; 1200.500;  172.350;    0.000
241.805; 1240.500;  160.350;    0.000
241.874; 1149.500;  176.350;    0.000
241.943; 1246.500;  165.350;    0.000
242.013; 1180.500;  206.350;    0.000
242.082; 1137.500;  162.350;    0.000
242.151; 1165.500;  180.350;    0.000
242.221; 1149.500;  154.350;    0.000
242.290; 1224.500;  122.350;    0.000
242.359; 1169.500;  121.350;    0.000
242.428; 1097.500;  187.350;    0.000
242.498; 1155.500;  140.350;    0.000
242.567; 1187.500;  173.350;    0.000
242.636; 1243.500;  155.350;    0.000
242.705; 1165.500;  108.350;    0.000
242.774; 1159.500;  145.350;    0.000
242.844; 1176.500;  162.350;    0.000
242.913; 1172.500;  178.350;    0.000
242.982; 1188.500;  163.350;    0.000
243.051; 1147.500;  138.350;    0.000
243.120; 1176.500;  172.350;    0.000
243.190; 1125.500;  155.350;    0.000
243.259; 1165.500;  159.350;    0.000
243.328; 1095.500;  173.350;    0.000
243.397; 1166.500;  175.350;    0.000
243.466; 1159.500;  170.350;    0.000
243.535; 1125.500;  161.350;    0.000
243.605; 1109.500;  149.350;    0.000
243.674; 1130.500;  162.350;    0.000
243.743; 1208.500;  175.350;    0.000
243.812; 1172.500;  159.350;    0.000
243.881; 1105.500;  158.350;    0.000
243.950; 1093.500;  154.350;    0.000
244.019; 1174.500;  185.350;    0.000
244.088; 1151.500;  175.350;    0.000
244.158; 1155.500;  167.350;    0.000
244.227; 1187.500;  159.350;    0.000
244.296; 1141.500;  143.350;    0.000
244.365; 1130.500;  182.350;    0.000
244.434; 1076.500;  117.350;    0.000
244.503; 1162.500;  109.350;    0.000
244.572; 1082.500;  147.350;    0.000
244.641; 1101.500;  129.350;    0.000
244.710; 1184.500;  159.350;    0.000
244.779; 1171.500;  166.350;    0.000
244.848; 1030.500;  122.350;    0.000
244.917; 1134.500;  167.350;    0.000
244.986; 1107.500;  158.350;    0.000
245.055; 1111.500;  175.350;    0.000
245.124; 1138.500;  153.350;    0.000
245.193; 1120.500;  155.350;    0.000
245.262; 1080.500;  137.350;    0.000
245.331; 1084.500;  145.350;    0.000
245.400; 1066.500;  107.350;    0.000
245.469; 1052.500;  162.350;    0.000
245.538; 1059.500;  165.350;    0.000
245.607; 1059.500;  178.350;    0.000
245.676; 1023.500;  166.350;    0.000
245.745;  992.500;  169.350;    0.000
245.814; 1051.500;  155.350;    0.000
245.883;  968.500;  186.350;    0.000
245.952; 1022.500;  165.350;    0.000
246.021; 1014.500;  169.350;    0.000
246.090; 1053.500;  170.350;    0.000
246.159; 1044.500;  155.350;    0.000
246.227;  987.500;  161.350;    0.000
246.296;  980.500;  142.350;    0.000
246.365; 1026.500;  160.350;    0.000
246.434; 1027.500;  199.350;    0.000
246.503;  953.500;  155.350;    0.000
246.572;  940.500;  206.350;    0.000
246.641;  953.500;  177.350;    0.000
246.710;  998.500;  178.350;    0.000
246.779;  962.500;  193.350;    0.000
246.847; 1003.500;  147.350;    0.000
246.916; 1015.500;  131.350;    0.000
246.985;  997.500;  168.350;    0.000
247.054;  990.500;  143.350;    0.000
247.123;  960.500;  130.350;    0.000
247.192;  978.500;  175.350;    0.000
247.260;  946.500;  171.350;    0.000
247.329;  969.500;  162.350;    0.000
247.398; 1038.500;  163.350;    0.000
247.467;  967.500;  155.350;    0.000
247.536;  948.500;  149.350;    0.000
247.604;  980.500;  191.350;    0.000
247.673; 1067.500;  193.350;    0.000
247.742;  956.500;  159.350;    0.000
247.811;  964.500;  167.350;    0.000
247.879;  903.500;  176.350;    0.000
247.948;  929.500;  157.350;    0.000
248.017; 1004.500;  150.350;    0.000
248.086;  943.500;  153.350;    0.000
248.154;  967.500;  157.350;    0.000
248.223;  922.500;  198.350;    0.000
248.292;  951.500;  188.350;    0.000
248.361;  935.500;  157.350;    0.000
248.429;  992.500;  138.350;    0.000
248.498;  902.500;  166.350;    0.000
248.567;  952.500;  179.350;    0.000
248.635;  986.500;  210.350;    0.000
248.704;  962.500;  168.350;    0.000
248.773;  925.500;  147.350;    0.000
248.841;  968.500;  155.350;    0.000
248.910; 1013.500;  183.350;    0.000
248.979;  920.500;  171.350;    0.000
249.047;  912.500;  152.350;    0.000
249.116;  927.500;  155.350;    0.000
249.185;  961.500;  217.350;    0.000
249.253;  901.500;  149.350;    0.000
249.322;  937.500;  167.350;    0.000
249.390;  929.500;  182.350;    0.000
249.459;  948.500;  173.350;    0.000
249.528;  885.500;  162.350;    0.000
249.596;  913.500;  162.350;    0.000
249.665;  927.500;  163.350;    0.000
249.733;  951.500;  147.350;    0.000
249.802;  909.500;  170.350;    0.000
249.871;  961.500;  179.350;    0.000
249.939;  883.500;  179.350;    0.000
250.008;  892.500;  201.350;    0.000
250.076;  946.500;  189.350;    0.000
250.145;  939.500;  171.350;    0.000
250.213;  893.500;  161.350;    0.000
250.282;  892.500;  171.350;    0.000
250.350;  887.500;  138.350;    0.000
250.419;  918.500;  172.350;    0.000
250.487;  960.500;  207.350;    0.000
250.556;  957.500;  160.350;    0.000
250.624;  859.500;  187.350;    0.000
250.693;  884.500;  141.350;    0.000
250.761;  968.500;  182.350;    0.000
250.830;  951.500;  203.350;    0.000
250.898;  881.500;  160.350;    0.000
250.967;  872.500;  143.350;    0.000
251.035;  877.500;  142.350;    0.000
251.104;  849.500;  159.350;    0.000
251.172;  882.500;  189.350;    0.000
251.241;  911.500;  134.350;    0.000
251.309;  925.500;  179.350;    0.000
251.378;  843.500;  203.350;    0.000
251.446;  905.500;  151.350;    0.000
251.514;  888.500;  176.350;    0.000
251.583;  870.500;  173.350;    0.000
251.651;  853.500;  163.350;    0.000
251.720;  908.500;  151.350;    0.000
251.788;  923.500;  205.350;    0.000
251.856;  861.500;  126.350;    0.000
251.925;  850.500;  118.350;    0.000
251.993;  877.500;  139.350;    0.000
252.062;  875.500;  161.350;    0.000
252.130;  892.500;  180.350;    0.000
252.198;  877.500;  141.350;    0.000
252.267;  876.500;  145.350;    0.000
252.335;  877.500;  159.350;    0.000
252.403;  856.500;  158.350;    0.000
252.472;  813.500;  142.350;    0.000
252.540;  843.500;  162.350;    0.000
252.608;  865.500;  180.350;    0.000
252.677;  791.500;  137.350;    0.000
252.745;  839.500;  183.350;    0.000
252.813;  785.500;  151.350;    0.000
252.881;  824.500;  109.350;    0.000
252.950;  803.500;  174.350;    0.000
253.018;  716.500;  136.350;    0.000
253.086;  716.500;  149.350;    0.000
253.155;  725.500;  127.350;    0.000
253.223;  753.500;  156.350;    0.000
253.291;  736.500;  163.350;    0.000
253.359;  733.500;  174.350;    0.000
253.428;  679.500;  174.350;    0.000
253.496;  639.500;  161.350;    0.000
253.564;  639.500;  128.350;    0.000
253.632;  687.500;  153.350;    0.000
253.700;  649.500;  185.350;    0.000
253.769;  702.500;  163.350;    0.000
253.837;  708.500;  176.350;    0.000
253.905;  672.500;  164.350;    0.000
253.973;  700.500;  156.350;    0.000
254.041;  631.500;  154.350;    0.000
254.110;  664.500;  165.350;    0.000
254.178;  651.500;  148.350;    0.000
254.246;  641.500;  138.350;    0.000
254.314;  661.500;  164.350;    0.000
254.382;  610.500;  167.350;    0.000
254.450;  633.500;  134.350;    0.000
254.518;  672.500;  192.350;    0.000
254.587;  669.500;  139.350;    0.000
254.655;  631.500;  162.350;    0.000
254.723;  656.500;  131.350;    0.000
254.791;  745.500;  181.350;    0.000
254.859;  661.500;  146.350;    0.000
254.927;  719.500;  189.350;    0.000
254.995;  654.500;  141.350;    0.000
255.063;  691.500;  181.350;    0.000
255.131;  677.500;  156.350;    0.000
255.199;  727.500;  175.350;    0.000
255.267;  708.500;  120.350;    0.000
255.336;  682.500;  186.350;    0.000
255.404;  676.500;  134.350;    0.000
255.472;  699.500;  172.350;    0.000
255.540;  710.500;  157.350;    0.000
255.608;  665.500;  186.350;    0.000
255.676;  682.500;  155.350;    0.000
255.744;  743.500;  143.350;    0.000
255.812;  660.500;  134.350;    0.000
255.880;  760.500;  188.350;    0.000
255.948;  661.500;  163.350;    0.000
256.016;  764.500;  175.350;    0.000
256.084;  694.500;  191.350;    0.000
256.152;  763.500;  187.350;    0.000
256.220;  729.500;  152.350;    0.000
256.288;  741.500;  141.350;    0.000
256.356;  751.500;  139.350;    0.000
256.424;  746.500;  121.350;    0.000
256.491;  734.500;  139.350;    0.000
256.559;  723.500;  144.350;    0.000
256.627;  811.500;  158.350;    0.000
256.695;  784.500;  121.350;    0.000
256.763;  802.500;  150.350;    0.000
256.831;  790.500;  181.350;    0.000
256.899;  802.500;  146.350;    0.000
256.967;  830.500;   71.350;    0.000
257.035;  773.500;  164.350;    0.000
257.103;  832.500;  191.350;    0.000
257.171;  736.500;  140.350;    0.000
257.238;  868.500;  165.350;    0.000
257.306;  840.500;  127.350;    0.000
257.374;  867.500;  120.350;    0.000
257.442;  831.500;  139.350;    0.000
257.510;  885.500;  158.350;    0.000
257.578;  859.500;  164.350;    0.000
257.646;  883.500;  151.350;    0.000
257.713;  884.500;  136.350;    0.000
257.781;  890.500;  137.350;    0.000
257.849;  953.500;  151.350;    0.000
257.917;  950.500;  154.350;    0.000
257.985;  902.500;  113.350;    0.000
258.052;  957.500;  140.350;    0.000
258.120;  920.500;  176.350;    0.000
258.188;  983.500;  157.350;    0.000
258.256;  960.500;  153.350;    0.000
258.324; 1032.500;  184.350;    0.000
258.391; 1011.500;  144.350;    0.000
258.459; 1077.500;  162.350;    0.000
258.527; 1054.500;  154.350;    0.000
258.595; 1047.500;  122.350;    0.000
258.662; 1011.500;  164.350;    0.000
258.730; 1068.500;  114.350;    0.000
258.798; 1037.500;  131.350;    0.000
258.865; 1066.500;  171.350;    0.000
258.933; 1098.500;  145.350;    0.000
259.001; 1112.500;  150.350;    0.000
259.069; 1177.500;  123.350;    0.000
259.136; 1193.500;  139.350;    0.000
259.204; 1172.500;  165.350;    0.000
259.272; 1224.500;  114.350;    0.000
259.339; 1203.500;  179.350;    0.000
259.407; 1223.500;  153.350;    0.000
259.475; 1157.500;  143.350;    0.000
259.542; 1137.500;  136.350;    0.000
259.610; 1279.500;  133.350;    0.000
259.677; 1284.500;  159.350;    0.000
259.745; 1284.500;  130.350;    0.000
259.813; 1385.500;  175.350;    0.000
259.880; 1357.500;  158.350;    0.000
259.948; 1352.500;  124.350;    0.000
260.016; 1359.500;  105.350;    0.000
260.083; 1397.500;  169.350;    0.000
260.151; 1283.500;  133.350;    0.000
260.218; 1383.500;  143.350;    0.000
260.286; 1383.500;  134.350;    0.000
260.353; 1436.500;  160.350;    0.000
260.421; 1275.500;  128.350;    0.000
260.489; 1480.500;  150.350;    0.000
260.556; 1446.500;  179.350;    0.000
260.624; 1554.500;  113.350;    0.000
260.691; 1525.500;  128.350;    0.000
260.759; 1528.500;  146.350;    0.000
260.826; 1455.500;  111.350;    0.000
260.894; 1490.500;  115.350;    0.000
260.961; 1516.500;  138.350;    0.000
261.029; 1527.500;  152.350;    0.000
261.096; 1637.500;  175.350;    0.000
261.164; 1596.500;  131.350;    0.000
261.231; 1596.500;  141.350;    0.000
261.299; 1631.500;  125.350;    0.000
261.366; 1584.500;  142.350;    0.000
261.434; 1665.500;  133.350;    0.000
261.501; 1667.500;  137.350;    0.000
261.568; 1725.500;  184.350;    0.000
261.636; 1738.500;  138.350;    0.000
261.703; 1785.500;  161.350;    0.000
261.771; 1679.500;  160.350;    0.000
261.838; 1782.500;  178.350;    0.000
261.906; 1705.500;  128.350;    0.000
261.973; 1814.500;  139.350;    0.000
262.040; 1819.500;  148.350;    0.000
262.108; 1796.500;  130.350;    0.000
262.175; 1740.500;  117.350;    0.000
262.243; 1919.500;  174.350;    0.000
262.310; 1804.500;  145.350;    0.000
262.377; 1942.500;  108.350;    0.000
262.445; 1881.500;  147.350;    0.000
262.512; 1913.500;  124.350;    0.000
262.579; 1866.500;  127.350;    0.000
262.647; 1917.500;  166.350;    0.000
262.714; 1942.500;  150.350;    0.000
262.781; 1883.500;  121.350;    0.000
262.849; 1941.500;  126.350;    0.000
262.916; 1948.500;  119.350;    0.000
262.983; 2073.500;  155.350;    0.000
263.051; 2064.500;  137.350;    0.000
263.118; 2038.500;  160.350;    0.000
263.185; 2055.500;  151.350;    0.000
263.252; 1975.500;  167.350;    0.000
263.320; 2049.500;  123.350;    0.000
263.387; 2061.500;  134.350;    0.000
263.454; 2140.500;  144.350;    0.000
263.522; 2088.500;  153.350;    0.000
263.589; 2064.500;  161.350;    0.000
263.656; 2115.500;  117.350;    0.000
263.723; 2129.500;  101.350;    0.000
263.790; 2069.500;  128.350;    0.000
263.858; 2171.500;  142.350;    0.000
263.925; 2159.500;  182.350;    0.000
263.992; 2168.500;  146.350;    0.000
264.059; 2117.500;  132.350;    0.000
264.126; 2173.500;  154.350;    0.000
264.194; 2250.500;  153.350;    0.000
264.261; 2216.500;  157.350;    0.000
264.328; 2281.500;  171.350;    0.000
264.395; 2211.500;  166.350;    0.000
264.462; 2303.500;  165.350;    0.000
264.529; 2224.500;  124.350;    0.000
264.597; 2207.500;  120.350;    0.000
264.664; 2331.500;  159.350;    0.000
264.731; 2302.500;  145.350;    0.000
264.798; 2342.500;  100.350;    0.000
264.865; 2395.500;  166.350;    0.000
264.932; 2338.500;  132.350;    0.000
264.999; 2340.500;  137.350;    0.000
265.066; 2420.500;  124.350;    0.000
265.133; 2306.500;  162.350;    0.000
265.201; 2376.500;  163.350;    0.000
265.268; 2480.500;  174.350;    0.000
265.335; 2449.500;  132.350;    0.000
265.402; 2411.500;  116.350;    0.000
265.469; 2404.500;  121.350;    0.000
265.536; 2439.500;  157.350;    0.000
265.603; 2499.500;  151.350;    0.000
265.670; 2455.500;  164.350;    0.000
265.737; 2528.500;  142.350;    0.000
265.804; 2441.500;  146.350;    0.000
265.871; 2520.500;  168.350;    0.000
265.938; 2542.500;  131.350;    0.000
266.005; 2536.500;  208.350;    0.000
266.072; 2613.500;  125.350;    0.000
266.139; 2533.500;  161.350;    0.000
266.206; 2607.500;  134.350;    0.000
266.273; 2632.500;  155.350;    0.000
266.340; 2669.500;  122.350;    0.000
266.407; 2617.500;  134.350;    0.000
266.474; 2563.500;  126.350;    0.000
266.541; 2662.500;  153.350;    0.000
266.608; 2657.500;  129.350;    0.000
266.675; 2777.500;  185.350;    0.000
266.742; 2661.500;  153.350;    0.000
266.808; 2706.500;  169.350;    0.000
266.875; 2714.500;  156.350;    0.000
266.942; 2681.500;  172.350;    0.000
267.009; 2731.500;  150.350;    0.000
267.076; 2777.500;  184.350;    0.000
267.143; 2702.500;  170.350;    0.000
267.210; 2722.500;  132.350;    0.000
267.277; 2731.500;  146.350;    0.000
267.344; 2758.500;  159.350;    0.000
267.410; 2675.500;  174.350;    0.000
267.477; 2788.500;  169.350;    0.000
267.544; 2728.500;  130.350;    0.000
267.611; 2754.500;  169.350;    0.000
267.678; 2834.500;  197.350;    0.000
267.745; 2796.500;  185.350;    0.000
267.811; 2757.500;  160.350;    0.000
267.878; 2739.500;  143.350;    0.000
267.945; 2702.500;  126.350;    0.000
268.012; 2698.500;  172.350;    0.000
268.079; 2821.500;  156.350;    0.000
268.145; 2787.500;  128.350;    0.000
268.212; 2766.500;  107.350;    0.000
268.279; 2802.500;  135.350;    0.000
268.346; 2870.500;  166.350;    0.000
268.412; 2789.500;  150.350;    0.000
268.479; 2824.500;  176.350;    0.000
268.546; 2810.500;  119.350;    0.000
268.613; 2874.500;  201.350;    0.000
268.679; 2816.500;  141.350;    0.000
268.746; 2863.500;  177.350;    0.000
268.813; 2733.500;  134.350;    0.000
268.879; 2892.500;  141.350;    0.000
268.946; 2898.500;  172.350;    0.000
269.013; 2811.500;  150.350;    0.000
269.079; 2796.500;  124.350;    0.000
269.146; 2739.500;  135.350;    0.000
269.213; 2769.500;  200.350;    0.000
269.280; 2738.500;  142.350;    0.000
269.346; 2860.500;  153.350;    0.000
269.413; 2775.500;  140.350;    0.000
269.479; 2822.500;  171.350;    0.000
269.546; 2791.500;  156.350;    0.000
269.613; 2736.500;  145.350;    0.000
269.679; 2801.500;  168.350;    0.000
269.746; 2686.500;  136.350;    0.000
269.813; 2772.500;  153.350;    0.000
269.879; 2702.500;  162.350;    0.000
269.946; 2731.500;  156.350;    0.000
270.012; 2725.500;  178.350;    0.000
270.079; 2706.500;  132.350;    0.000
270.145; 2949.500;  146.350;    0.000
270.212; 2848.500;  145.350;    0.000
270.279; 2866.500;  184.350;    0.000
270.345; 2685.500;  143.350;    0.000
270.412; 2876.500;  158.350;    0.000
270.478; 2739.500;  143.350;    0.000
270.545; 2725.500;  150.350;    0.000
270.611; 2784.500;  156.350;    0.000
270.678; 2779.500;  121.350;    0.000
270.744; 2707.500;  161.350;    0.000
270.811; 2674.500;  173.350;    0.000
270.877; 2771.500;  115.350;    0.000
270.944; 2693.500;  114.350;    0.000
271.010; 2742.500;  122.350;    0.000
271.077; 2770.500;  142.350;    0.000
271.143; 2818.500;  152.350;    0.000
271.210; 2664.500;  135.350;    0.000
271.276; 2701.500;  107.350;    0.000
271.342; 2678.500;  173.350;    0.000
271.409; 2704.500;  171.350;    0.000
271.475; 2728.500;  136.350;    0.000
271.542; 2717.500;  121.350;    0.000
271.608; 2655.500;  133.350;    0.000
271.675; 2676.500;  136.350;    0.000
271.741; 2781.500;  151.350;    0.000
271.807; 2873.500;  130.350;    0.000
271.874; 2765.500;  168.350;    0.000
271.940; 2736.500;  156.350;    0.000
272.007; 2789.500;  122.350;    0.000
272.073; 2733.500;  121.350;    0.000
272.139; 2657.500;  137.350;    0.000
272.206; 2675.500;  152.350;    0.000
272.272; 2675.500;  162.350;    0.000
272.338; 2809.500;  197.350;    0.000
272.405; 2707.500;  144.350;    0.000
272.471; 2693.500;  160.350;    0.000
272.537; 2660.500;  142.350;    0.000
272.604; 2702.500;  141.350;    0.000
272.670; 2763.500;  182.350;    0.000
272.736; 2722.500;  126.350;    0.000
272.802; 2725.500;  146.350;    0.000
272.869; 2781.500;  163.350;    0.000
272.935; 2804.500;  132.350;    0.000
273.001; 2730.500;  119.350;    0.000
273.068; 2598.500;  137.350;    0.000
273.134; 2853.500;  155.350;    0.000
273.200; 2725.500;  165.350;    0.000
273.266; 2787.500;  156.350;    0.000
273.333; 2744.500;  143.350;    0.000
273.399; 2760.500;  128.350;    0.000
273.465; 2861.500;  167.350;    0.000
273.531; 2801.500;  122.350;    0.000
273.597; 2844.500;  182.350;    0.000
273.664; 2771.500;  177.350;    0.000
273.730; 2707.500;  124.350;    0.000
273.796; 2841.500;  143.350;    0.000
273.862; 2789.500;  155.350;    0.000
273.928; 2883.500;  137.350;    0.000
273.995; 2972.500;  188.350;    0.000
274.061; 2880.500;  154.350;    0.000
274.127; 2851.500;  161.350;    0.000
274.193; 2839.500;   95.350;    0.000
274.259; 2978.500;  128.350;    0.000
274.325; 2943.500;  146.350;    0.000
274.391; 2875.500;  113.350;    0.000
274.457; 2962.500;  150.350;    0.000
274.524; 3026.500;  165.350;    0.000
274.590; 3008.500;  140.350;    0.000
274.656; 3006.500;  165.350;    0.000
274.722; 3020.500;  118.350;    0.000
274.788; 3040.500;  143.350;    0.000
274.854; 3052.500;  150.350;    0.000
274.920; 3083.500;   88.350;    0.000
274.986; 2988.500;  178.350;    0.000
275.052; 3177.500;  145.350;    0.000
275.118; 2923.500;  105.350;    0.000
275.184; 3087.500;  129.350;    0.000
275.250; 3072.500;  138.350;    0.000
275.316; 3063.500;  173.350;    0.000
275.382; 3161.500;  106.350;    0.000
275.448; 3136.500;  160.350;    0.000
275.514; 3264.500;  162.350;    0.000
275.580; 3197.500;  135.350;    0.000
275.646; 3242.500;  120.350;    0.000
275.712; 3231.500;  157.350;    0.000
275.778; 3169.500;  128.350;    0.000
275.844; 3309.500;  117.350;    0.000
275.910; 3365.500;  121.350;    0.000
275.976; 3372.500;  172.350;    0.000
276.042; 3366.500;  114.350;    0.000
276.108; 3469.500;  200.350;    0.000
276.174; 3499.500;  132.350;    0.000
276.240; 3557.500;  128.350;    0.000
276.306; 3523.500;  124.350;    0.000
276.372; 3658.500;  133.350;    0.000
276.437; 3653.500;  146.350;    0.000
276.503; 3708.500;  136.350;    0.000
276.569; 3769.500;  162.350;    0.000
276.635; 3842.500;  128.350;    0.000
276.701; 3996.500;  148.350;    0.000
276.767; 3969.500;  155.350;    0.000
276.833; 3975.500;  128.350;    0.000
276.899; 4113.500;  145.350;    0.000
276.964; 4178.500;  124.350;    0.000
277.030; 4265.500;  130.350;    0.000
277.096; 4331.500;  139.350;    0.000
277.162; 4438.500;  164.350;    0.000
277.228; 4593.500;  108.350;    0.000
277.293; 4798.500;  138.350;    0.000
277.359; 4919.500;  123.350;    0.000
277.425; 5140.500;  183.350;    0.000
277.491; 5282.500;  144.350;    0.000
277.557; 6425.500;  130.350;    0.000
277.622; 8174.500;  151.350;    0.000
277.688; 8214.500;  169.350;    0.000
277.754; 8103.500;  199.350;    0.000
277.820; 9176.500;  170.350;    0.000
277.885;10737.500;  173.350;    0.000
277.951;13382.500;  187.350;    0.000
278.017;11526.500;  152.350;    0.000
278.083;10222.500;  137.350;    0.000
278.148; 9681.500;  147.350;    0.000
278.214; 9905.500;  162.350;    0.000
278.280;10448.500;  171.350;    0.000
278.345; 9740.500;  174.350;    0.000
278.411; 8930.500;  152.350;    0.000
278.477; 9395.500;  173.350;    0.000
278.542; 9971.500;  161.350;    0.000
278.608;10873.500;  155.350;    0.000
278.674;11881.500;  169.350;    0.000
278.739;13352.500;  142.350;    0.000
278.805;15160.500;  164.350;    0.000
278.871;18020.500;  160.350;    0.000
278.936;23545.500;  121.350;    0.000
279.002;35655.500;  166.350;    0.000
279.067;46851.500;  199.350;    0.000
279.133;44601.500;  150.350;    0.000
279.199;39563.500;  154.350;    0.000
279.264;40483.500;  154.350;    0.000
279.330;47506.500;  159.350;    0.000
279.395;61532.500;  143.350;    0.000
279.461;65297.500;  173.350;    0.000
279.527;65297.500;  163.350;    0.000
279.592;65297.500;  167.350;    0.000
279.658;65297.500;  189.350;    0.000
279.723;65297.500;  153.350;    0.000
279.789;65297.500;  174.350;    0.000
279.854;63190.500;  129.350;    0.000
279.920;51798.500;  165.350;    0.000
279.985;46390.500;  152.350;    0.000
280.051;47458.500;  164.350;    0.000
280.116;56123.500;  187.350;    0.000
280.182;65297.500;  160.350;    0.000
280.247;65297.500;  124.350;    0.000
280.313;65297.500;  154.350;    0.000
280.378;50356.500;  152.350;    0.000
280.444;36482.500;  165.350;    0.000
280.509;28638.500;  164.350;    0.000
280.574;23981.500;  160.350;    0.000
280.640;20545.500;  167.350;    0.000
280.705;18149.500;  190.350;    0.000
280.771;16530.500;  154.350;    0.000
280.836;14994.500;  158.350;    0.000
280.902;14077.500;  124.350;    0.000
280.967;13085.500;  179.350;    0.000
281.032;12359.500;  187.350;    0.000
281.098;11660.500;  155.350;    0.000
281.163;11108.500;  133.350;    0.000
281.229;10367.500;  170.350;    0.000
281.294; 9869.500;  175.350;    0.000
281.359; 9440.500;  163.350;    0.000
281.425; 9171.500;  161.350;    0.000
281.490; 8905.500;  162.350;    0.000
281.555; 8440.500;  137.350;    0.000
281.621; 8321.500;  163.350;    0.000
281.686; 8015.500;  155.350;    0.000
281.751; 7598.500;  158.350;    0.000
281.816; 7367.500;  139.350;    0.000
281.882; 7271.500;  150.350;    0.000
281.947; 7127.500;  165.350;    0.000
282.012; 6840.500;  171.350;    0.000
282.078; 6790.500;  177.350;    0.000
282.143; 6542.500;  149.350;    0.000
282.208; 6474.500;  181.350;    0.000
282.273; 6410.500;  166.350;    0.000
282.339; 6129.500;  165.350;    0.000
282.404; 6102.500;  166.350;    0.000
282.469; 6096.500;  150.350;    0.000
282.534; 6052.500;  176.350;    0.000
282.600; 5844.500;  117.350;    0.000
282.665; 5697.500;  134.350;    0.000
282.730; 5816.500;  155.350;    0.000
282.795; 5613.500;  193.350;    0.000
282.860; 5609.500;  160.350;    0.000
282.926; 5517.500;  174.350;    0.000
282.991; 5417.500;  161.350;    0.000
283.056; 5535.500;  157.350;    0.000
283.121; 5427.500;  178.350;    0.000
283.186; 5275.500;  152.350;    0.000
283.251; 5271.500;  167.350;    0.000
283.316; 5129.500;  186.350;    0.000
283.382; 5196.500;  148.350;    0.000
283.447; 5134.500;  191.350;    0.000
283.512; 5084.500;  132.350;    0.000
283.577; 5100.500;  179.350;    0.000
283.642; 5007.500;  185.350;    0.000
283.707; 5013.500;  136.350;    0.000
283.772; 5026.500;  119.350;    0.000
283.837; 4965.500;  136.350;    0.000
283.902; 5031.500;  135.350;    0.000
283.967; 4996.500;  146.350;    0.000
284.032; 4995.500;  140.350;    0.000
284.097; 5008.500;  199.350;    0.000
284.163; 4965.500;  144.350;    0.000
284.228; 5044.500;  183.350;    0.000
284.293; 5017.500;  141.350;    0.000
284.358; 5088.500;  146.350;    0.000
284.423; 5105.500;  127.350;    0.000
284.488; 5139.500;  186.350;    0.000
284.553; 5251.500;  155.350;    0.000
284.618; 5223.500;  118.350;    0.000
284.683; 5657.500;  145.350;    0.000
284.748; 5791.500;  139.350;    0.000
284.812; 5974.500;  147.350;    0.000
284.877; 6568.500;  123.350;    0.000
284.942; 7404.500;  153.350;    0.000
285.007; 8693.500;  168.350;    0.000
285.072;11992.500;  181.350;    0.000
285.137;21400.500;  147.350;    0.000
285.202;28051.500;  175.350;    0.000
285.267;22819.500;  182.350;    0.000
285.332;14331.500;  136.350;    0.000
285.397;10491.500;  138.350;    0.000
285.462; 8807.500;  151.350;    0.000
285.527; 7666.500;  159.350;    0.000
285.591; 6976.500;  177.350;    0.000
285.656; 6286.500;  144.350;    0.000
285.721; 6008.500;  125.350;    0.000
285.786; 5872.500;  169.350;    0.000
285.851; 5596.500;  175.350;    0.000
285.916; 5399.500;  164.350;    0.000
285.981; 5234.500;  134.350;    0.000
286.045; 5231.500;  154.350;    0.000
286.110; 5151.500;  136.350;    0.000
286.175; 4805.500;  155.350;    0.000
286.240; 5020.500;  138.350;    0.000
286.305; 4936.500;  213.350;    0.000
286.369; 4798.500;  221.350;    0.000
286.434; 4798.500;  172.350;    0.000
286.499; 4725.500;  161.350;    0.000
286.564; 4885.500;  189.350;    0.000
286.628; 4691.500;  144.350;    0.000
286.693; 4690.500;  176.350;    0.000
286.758; 4754.500;  168.350;    0.000
286.823; 4641.500;  142.350;    0.000
286.887; 4629.500;  134.350;    0.000
286.952; 4652.500;  180.350;    0.000
287.017; 4530.500;  204.350;    0.000
287.082; 4636.500;  120.350;    0.000
287.146; 4523.500;  173.350;    0.000
287.211; 4449.500;  167.350;    0.000
287.276; 4635.500;  164.350;    0.000
287.340; 4486.500;  138.350;    0.000
287.405; 4475.500;  172.350;    0.000
287.470; 4498.500;  142.350;    0.000
287.534; 4577.500;  155.350;    0.000
287.599; 4522.500;  166.350;    0.000
287.663; 4394.500;  171.350;    0.000
287.728; 4458.500;  190.350;    0.000
287.793; 4406.500;  197.350;    0.000
287.857; 4483.500;  165.350;    0.000
287.922; 4484.500;  147.350;    0.000
287.987; 4430.500;  167.350;    0.000
288.051; 4424.500;  151.350;    0.000
288.116; 4506.500;  154.350;    0.000
288.180; 4410.500;  186.350;    0.000
288.245; 4371.500;  161.350;    0.000
288.309; 4406.500;  177.350;    0.000
288.374; 4475.500;  151.350;    0.000
288.439; 4422.500;  169.350;    0.000
288.503; 4372.500;  133.350;    0.000
288.568; 4418.500;  206.350;    0.000
288.632; 4322.500;  192.350;    0.000
288.697; 4446.500;  183.350;    0.000
288.761; 4324.500;  148.350;    0.000
288.826; 4347.500;  136.350;    0.000
288.890; 4240.500;  185.350;    0.000
288.955; 4302.500;  150.350;    0.000
289.019; 4332.500;  165.350;    0.000
289.084; 4321.500;  150.350;    0.000
289.148; 4318.500;  146.350;    0.000
289.212; 4329.500;  172.350;    0.000
289.277; 4336.500;  177.350;    0.000
289.341; 4119.500;  190.350;    0.000
289.406; 4217.500;  117.350;    0.000
289.470; 4318.500;  173.350;    0.000
289.535; 4283.500;  170.350;    0.000
289.599; 4257.500;  154.350;    0.000
289.663; 4346.500;  173.350;    0.000
289.728; 4261.500;  176.350;    0.000
289.792; 4352.500;  138.350;    0.000
289.857; 4220.500;  203.350;    0.000
289.921; 4231.500;  143.350;    0.000
289.985; 4300.500;  150.350;    0.000
290.050; 4421.500;  170.350;    0.000
290.114; 4155.500;  125.350;    0.000
290.178; 4303.500;  161.350;    0.000
290.243; 4276.500;  119.350;    0.000
290.307; 4279.500;  169.350;    0.000
290.371; 4223.500;  169.350;    0.000
290.436; 4326.500;  170.350;    0.000
290.500; 4216.500;  144.350;    0.000
290.564; 4305.500;  179.350;    0.000
290.629; 4200.500;  166.350;    0.000
290.693; 4276.500;  156.350;    0.000
290.757; 4232.500;  147.350;    0.000
290.821; 4201.500;  170.350;    0.000
290.886; 4447.500;  167.350;    0.000
290.950; 4361.500;  187.350;    0.000
291.014; 4325.500;  164.350;    0.000
291.078; 4269.500;  115.350;    0.000
291.143; 4383.500;  149.350;    0.000
291.207; 4380.500;  163.350;    0.000
291.271; 4383.500;  177.350;    0.000
291.335; 4539.500;  148.350;    0.000
291.399; 4657.500;  155.350;    0.000
291.464; 4768.500;  114.350;    0.000
291.528; 4993.500;  153.350;    0.000
291.592; 4814.500;  156.350;    0.000
291.656; 4744.500;  170.350;    0.000
291.720; 4605.500;  159.350;    0.000
291.784; 4545.500;  159.350;    0.000
291.849; 4567.500;  154.350;    0.000
291.913; 4518.500;  118.350;    0.000
291.977; 4623.500;  157.350;    0.000
292.041; 4675.500;  163.350;    0.000
292.105; 4621.500;  135.350;    0.000
292.169; 4752.500;  155.350;    0.000
292.233; 4624.500;  163.350;    0.000
292.297; 4770.500;  144.350;    0.000
292.361; 4876.500;  143.350;    0.000
292.425; 4989.500;  177.350;    0.000
292.490; 5163.500;  159.350;    0.000
292.554; 5379.500;  137.350;    0.000
292.618; 5632.500;  144.350;    0.000
292.682; 6191.500;  169.350;    0.000
292.746; 7129.500;  166.350;    0.000
292.810; 9476.500;  147.350;    0.000
292.874;11902.500;  160.350;    0.000
292.938;11967.500;  174.350;    0.000
293.002;10806.500;  148.350;    0.000
293.066; 9505.500;  115.350;    0.000
293.130; 8789.500;  133.350;    0.000
293.194; 8206.500;  148.350;    0.000
293.258; 7882.500;  167.350;    0.000
293.322; 7706.500;  166.350;    0.000
293.386; 7983.500;  193.350;    0.000
293.450; 8469.500;  142.350;    0.000
293.514; 9758.500;  170.350;    0.000
293.577;13142.500;  153.350;    0.000
293.641;17958.500;  171.350;    0.000
293.705;19174.500;  168.350;    0.000
293.769;16833.500;  155.350;    0.000
293.833;14220.500;  161.350;    0.000
293.897;12500.500;  124.350;    0.000
293.961;10842.500;  165.350;    0.000
294.025; 9780.500;  118.350;    0.000
294.089; 8805.500;  125.350;    0.000
294.152; 8075.500;  160.350;    0.000
294.216; 7573.500;  160.350;    0.000
294.280; 7184.500;  158.350;    0.000
294.344; 6899.500;  119.350;    0.000
294.408; 6515.500;  168.350;    0.000
294.472; 6410.500;  156.350;    0.000
294.536; 6067.500;  192.350;    0.000
294.599; 5853.500;  171.350;    0.000
294.663; 5826.500;  139.350;    0.000
294.727; 5598.500;  136.350;    0.000
294.791; 5560.500;  118.350;    0.000
294.855; 5406.500;  118.350;    0.000
294.918; 5213.500;  127.350;    0.000
294.982; 5060.500;  167.350;    0.000
295.046; 5110.500;  178.350;    0.000
295.110; 4969.500;  157.350;    0.000
295.173; 4798.500;  101.350;    0.000
295.237; 4823.500;  145.350;    0.000
295.301; 4751.500;  135.350;    0.000
295.364; 4678.500;  185.350;    0.000
295.428; 4673.500;  112.350;    0.000
295.492; 4640.500;  142.350;    0.000
295.556; 4636.500;  170.350;    0.000
295.619; 4504.500;  193.350;    0.000
295.683; 4500.500;  144.350;    0.000
295.747; 4425.500;  152.350;    0.000
295.810; 4439.500;  139.350;    0.000
295.874; 4483.500;  157.350;    0.000
295.938; 4301.500;  128.350;    0.000
296.001; 4327.500;  164.350;    0.000
296.065; 4433.500;  184.350;    0.000
296.128; 4156.500;  127.350;    0.000
296.192; 4312.500;  166.350;    0.000
296.256; 4293.500;  154.350;    0.000
296.319; 4186.500;  128.350;    0.000
296.383; 4261.500;  146.350;    0.000
296.447; 4145.500;  155.350;    0.000
296.510; 4021.500;  177.350;    0.000
296.574; 4023.500;  169.350;    0.000
296.637; 4080.500;  140.350;    0.000
296.701; 4011.500;  181.350;    0.000
296.764; 3997.500;  131.350;    0.000
296.828; 4203.500;  194.350;    0.000
296.891; 4014.500;  146.350;    0.000
296.955; 4023.500;  160.350;    0.000
297.018; 3980.500;  174.350;    0.000
297.082; 4121.500;  153.350;    0.000
297.145; 4064.500;  133.350;    0.000
297.209; 3866.500;  149.350;    0.000
297.272; 4034.500;  150.350;    0.000
297.336; 3937.500;  119.350;    0.000
297.399; 3989.500;  160.350;    0.000
297.463; 3919.500;  158.350;    0.000
297.526; 3936.500;  160.350;    0.000
297.590; 3958.500;  173.350;    0.000
297.653; 3949.500;  121.350;    0.000
297.717; 3839.500;  168.350;    0.000
297.780; 3828.500;  131.350;    0.000
297.843; 3785.500;  154.350;    0.000
297.907; 3830.500;  126.350;    0.000
297.970; 3867.500;  180.350;    0.000
298.034; 3832.500;  140.350;    0.000
298.097; 3871.500;  207.350;    0.000
298.160; 3855.500;  177.350;    0.000
298.224; 3798.500;  165.350;    0.000
298.287; 3812.500;  160.350;    0.000
298.350; 3771.500;  176.350;    0.000
298.414; 3782.500;  155.350;    0.000
298.477; 3758.500;  132.350;    0.000
298.540; 3882.500;  162.350;    0.000
298.604; 3739.500;  180.350;    0.000
298.667; 3734.500;  208.350;    0.000
298.730; 3808.500;  177.350;    0.000
298.794; 3602.500;  126.350;    0.000
298.857; 3788.500;  171.350;    0.000
298.920; 3708.500;  124.350;    0.000
298.984; 3654.500;  146.350;    0.000
299.047; 3691.500;  140.350;    0.000
299.110; 3582.500;  159.350;    0.000
299.173; 3611.500;  177.350;    0.000
299.237; 3673.500;  196.350;    0.000
299.300; 3660.500;  121.350;    0.000
299.363; 3586.500;  172.350;    0.000
299.426; 3544.500;  117.350;    0.000
299.489; 3452.500;  138.350;    0.000
299.553; 3501.500;  198.350;    0.000
299.616; 3579.500;  158.350;    0.000
299.679; 3554.500;  148.350;    0.000
299.742; 3485.500;  138.350;    0.000
299.805; 3637.500;  157.350;    0.000
299.868; 3459.500;  183.350;    0.000
299.932; 3628.500;  137.350;    0.000
299.995; 3420.500;  152.350;    0.000
300.058; 3501.500;  171.350;    0.000
300.121; 3515.500;  172.350;    0.000
300.184; 3500.500;  161.350;    0.000
300.247; 3455.500;  156.350;    0.000
300.310; 3501.500;  154.350;    0.000
300.374; 3397.500;  147.350;    0.000
300.437; 3454.500;  144.350;    0.000
300.500; 3515.500;  152.350;    0.000
300.563; 3404.500;  160.350;    0.000
300.626; 3407.500;  167.350;    0.000
300.689; 3531.500;  193.350;    0.000
300.752; 3332.500;  134.350;    0.000
300.815; 3476.500;  194.350;    0.000
300.878; 3453.500;  156.350;    0.000
300.941; 3494.500;  177.350;    0.000
301.004; 3338.500;  160.350;    0.000
301.067; 3427.500;  153.350;    0.000
301.130; 3365.500;  167.350;    0.000
301.193; 3427.500;  156.350;    0.000
301.256; 3352.500;  176.350;    0.000
301.319; 3372.500;  172.350;    0.000
301.382; 3408.500;  150.350;    0.000
301.445; 3535.500;  183.350;    0.000
301.508; 3414.500;  118.350;    0.000
301.571; 3309.500;  142.350;    0.000
301.634; 3431.500;  164.350;    0.000
301.697; 3331.500;  169.350;    0.000
301.760; 3416.500;  197.350;    0.000
301.823; 3320.500;  155.350;    0.000
301.885; 3423.500;  165.350;    0.000
301.948; 3468.500;  168.350;    0.000
302.011; 3288.500;  172.350;    0.000
302.074; 3493.500;  182.350;    0.000
302.137; 3369.500;  161.350;    0.000
302.200; 3338.500;  174.350;    0.000
302.263; 3391.500;  158.350;    0.000
302.326; 3403.500;  168.350;    0.000
302.388; 3227.500;  165.350;    0.000
302.451; 3359.500;  158.350;    0.000
302.514; 3330.500;  181.350;    0.000
302.577; 3364.500;  147.350;    0.000
302.640; 3346.500;  178.350;    0.000
302.703; 3256.500;  164.350;    0.000
302.765; 3314.500;  149.350;    0.000
302.828; 3338.500;  192.350;    0.000
302.891; 3211.500;  201.350;    0.000
302.954; 3224.500;  135.350;    0.000
303.016; 3269.500;  180.350;    0.000
303.079; 3376.500;  192.350;    0.000
303.142; 3344.500;  176.350;    0.000
303.205; 3350.500;  176.350;    0.000
303.267; 3245.500;  163.350;    0.000
303.330; 3253.500;  162.350;    0.000
303.393; 3341.500;  164.350;    0.000
303.456; 3391.500;  180.350;    0.000
303.518; 3340.500;  162.350;    0.000
303.581; 3291.500;  137.350;    0.000
303.644; 3283.500;  135.350;    0.000
303.706; 3279.500;  170.350;    0.000
303.769; 3316.500;  216.350;    0.000
303.832; 3217.500;  143.350;    0.000
303.894; 3284.500;  162.350;    0.000
303.957; 3262.500;  149.350;    0.000
304.020; 3316.500;  111.350;    0.000
304.082; 3215.500;  158.350;    0.000
304.145; 3231.500;  149.350;    0.000
304.207; 3265.500;  169.350;    0.000
304.270; 3234.500;  170.350;    0.000
304.333; 3243.500;  185.350;    0.000
304.395; 3258.500;  179.350;    0.000
304.458; 3242.500;  174.350;    0.000
304.520; 3309.500;  160.350;    0.000
304.583; 3418.500;  175.350;    0.000
304.646; 3228.500;  160.350;    0.000
304.708; 3248.500;  173.350;    0.000
304.771; 3302.500;  115.350;    0.000
304.833; 3283.500;  172.350;    0.000
304.896; 3236.500;  187.350;    0.000
304.958; 3171.500;  142.350;    0.000
305.021; 3293.500;  164.350;    0.000
305.083; 3198.500;  139.350;    0.000
305.146; 3270.500;  162.350;    0.000
305.208; 3259.500;  135.350;    0.000
305.271; 3110.500;  159.350;    0.000
305.333; 3339.500;  210.350;    0.000
305.396; 3264.500;  151.350;    0.000
305.458; 3382.500;  195.350;    0.000
305.520; 3204.500;  179.350;    0.000
305.583; 3380.500;  157.350;    0.000
305.645; 3296.500;  187.350;    0.000
305.708; 3177.500;  159.350;    0.000
305.770; 3222.500;  189.350;    0.000
305.833; 3349.500;  147.350;    0.000
305.895; 3227.500;  154.350;    0.000
305.957; 3169.500;  143.350;    0.000
306.020; 3243.500;  133.350;    0.000
306.082; 3288.500;  146.350;    0.000
306.144; 3281.500;  171.350;    0.000
306.207; 3186.500;  151.350;    0.000
306.269; 3265.500;  169.350;    0.000
306.331; 3204.500;  162.350;    0.000
306.394; 3291.500;  171.350;    0.000
306.456; 3279.500;  155.350;    0.000
306.518; 3252.500;  183.350;    0.000
306.581; 3275.500;  180.350;    0.000
306.643; 3221.500;  199.350;    0.000
306.705; 3324.500;  163.350;    0.000
306.768; 3210.500;  183.350;    0.000
306.830; 3289.500;  183.350;    0.000
306.892; 3250.500;  190.350;    0.000
306.954; 3201.500;  161.350;    0.000
307.017; 3315.500;  151.350;    0.000
307.079; 3252.500;  147.350;    0.000
307.141; 3299.500;  179.350;    0.000
307.203; 3372.500;  143.350;    0.000
307.266; 3395.500;  142.350;    0.000
307.328; 3426.500;  161.350;    0.000
307.390; 3447.500;  189.350;    0.000
307.452; 3410.500;  155.350;    0.000
307.514; 3401.500;  211.350;    0.000
307.577; 3336.500;  201.350;    0.000
307.639; 3380.500;  192.350;    0.000
307.701; 3536.500;  162.350;    0.000
307.763; 3384.500;  155.350;    0.000
307.825; 3399.500;  193.350;    0.000
307.887; 3465.500;  214.350;    0.000
307.949; 3329.500;  208.350;    0.000
308.012; 3467.500;  175.350;    0.000
308.074; 3421.500;  155.350;    0.000
308.136; 3296.500;  172.350;    0.000
308.198; 3453.500;  171.350;    0.000
308.260; 3455.500;  182.350;    0.000
308.322; 3586.500;  177.350;    0.000
308.384; 3499.500;  207.350;    0.000
308.446; 3447.500;  170.350;    0.000
308.508; 3435.500;  177.350;    0.000
308.570; 3474.500;  195.350;    0.000
308.632; 3622.500;  190.350;    0.000
308.694; 3504.500;  161.350;    0.000
308.756; 3478.500;  173.350;    0.000
308.818; 3592.500;  190.350;    0.000
308.880; 3542.500;  197.350;    0.000
308.942; 3622.500;  223.350;    0.000
309.004; 3599.500;  176.350;    0.000
309.066; 3652.500;  182.350;    0.000
309.128; 3705.500;  185.350;    0.000
309.190; 3726.500;  166.350;    0.000
309.252; 3924.500;  191.350;    0.000
309.314; 3984.500;  208.350;    0.000
309.376; 3941.500;  205.350;    0.000
309.438; 3849.500;  166.350;    0.000
309.500; 3828.500;  195.350;    0.000
309.562; 3923.500;  163.350;    0.000
309.624; 3971.500;  162.350;    0.000
309.686; 4051.500;  194.350;    0.000
309.747; 3915.500;  179.350;    0.000
309.809; 3849.500;  211.350;    0.000
309.871; 3880.500;  191.350;    0.000
309.933; 3784.500;  151.350;    0.000
309.995; 3700.500;  179.350;    0.000
310.057; 3686.500;  175.350;    0.000
310.119; 3717.500;  161.350;    0.000
310.180; 3687.500;  167.350;    0.000
310.242; 3711.500;  171.350;    0.000
310.304; 3773.500;  209.350;    0.000
310.366; 3610.500;  229.350;    0.000
310.428; 3635.500;  132.350;    0.000
310.489; 3666.500;  165.350;    0.000
310.551; 3712.500;  193.350;    0.000
310.613; 3573.500;  182.350;    0.000
310.675; 3680.500;  186.350;    0.000
310.737; 3630.500;  192.350;    0.000
310.798; 3652.500;  194.350;    0.000
310.860; 3649.500;  220.350;    0.000
310.922; 3695.500;  161.350;    0.000
310.983; 3587.500;  203.350;    0.000
311.045; 3570.500;  198.350;    0.000
311.107; 3721.500;  179.350;    0.000
311.169; 3611.500;  154.350;    0.000
311.230; 3686.500;  134.350;    0.000
311.292; 3694.500;  215.350;    0.000
311.354; 3604.500;  171.350;    0.000
311.415; 3555.500;  195.350;    0.000
311.477; 3544.500;  185.350;    0.000
311.539; 3602.500;  183.350;    0.000
311.600; 3624.500;  183.350;    0.000
311.662; 3641.500;  207.350;    0.000
311.724; 3592.500;  193.350;    0.000
311.785; 3629.500;  180.350;    0.000
311.847; 3514.500;  155.350;    0.000
311.908; 3611.500;  179.350;    0.000
311.970; 3695.500;  193.350;    0.000
312.032; 3591.500;  188.350;    0.000
312.093; 3627.500;  166.350;    0.000
312.155; 3588.500;  147.350;    0.000
312.216; 3572.500;  177.350;    0.000
312.278; 3524.500;  162.350;    0.000
312.339; 3598.500;  158.350;    0.000
312.401; 3678.500;  181.350;    0.000
312.462; 3671.500;  153.350;    0.000
312.524; 3589.500;  186.350;    0.000
312.585; 3657.500;  191.350;    0.000
312.647; 3590.500;  131.350;    0.000
312.708; 3634.500;  170.350;    0.000
312.770; 3628.500;  194.350;    0.000
312.831; 3643.500;  161.350;    0.000
312.893; 3647.500;  179.350;    0.000
312.954; 3710.500;  183.350;    0.000
313.016; 3664.500;  189.350;    0.000
313.077; 3615.500;  169.350;    0.000
313.139; 3616.500;  148.350;    0.000
313.200; 3602.500;  155.350;    0.000
313.261; 3694.500;  213.350;    0.000
313.323; 3591.500;  162.350;    0.000
313.384; 3668.500;  160.350;    0.000
313.446; 3585.500;  202.350;    0.000
313.507; 3650.500;  149.350;    0.000
313.568; 3682.500;  194.350;    0.000
313.630; 3566.500;  163.350;    0.000
313.691; 3607.500;  158.350;    0.000
313.752; 3607.500;  179.350;    0.000
313.814; 3634.500;  180.350;    0.000
313.875; 3586.500;  191.350;    0.000
313.936; 3710.500;  169.350;    0.000
313.998; 3624.500;  165.350;    0.000
314.059; 3618.500;  211.350;    0.000
314.120; 3612.500;  190.350;    0.000
314.182; 3704.500;  185.350;    0.000
314.243; 3552.500;  186.350;    0.000
314.304; 3659.500;  178.350;    0.000
314.365; 3722.500;  187.350;    0.000
314.427; 3637.500;  145.350;    0.000
314.488; 3591.500;  184.350;    0.000
314.549; 3543.500;  181.350;    0.000
314.610; 3716.500;  151.350;    0.000
314.672; 3614.500;  153.350;    0.000
314.733; 3643.500;  148.350;    0.000
314.794; 3578.500;  156.350;    0.000
314.855; 3708.500;  196.350;    0.000
314.917; 3603.500;  157.350;    0.000
314.978; 3618.500;  174.350;    0.000
315.039; 3648.500;  168.350;    0.000
315.100; 3612.500;  154.350;    0.000
315.161; 3569.500;  176.350;    0.000
315.222; 3616.500;  198.350;    0.000
315.283; 3552.500;  169.350;    0.000
315.345; 3635.500;  162.350;    0.000
315.406; 3601.500;  199.350;    0.000
315.467; 3631.500;  180.350;    0.000
315.528; 3537.500;  179.350;    0.000
315.589; 3659.500;  166.350;    0.000
315.650; 3590.500;  179.350;    0.000
315.711; 3683.500;  177.350;    0.000
315.772; 3524.500;  180.350;    0.000
315.833; 3681.500;  157.350;    0.000
315.894; 3560.500;  133.350;    0.000
315.955; 3592.500;  205.350;    0.000
316.016; 3536.500;  190.350;    0.000
316.078; 3513.500;  174.350;    0.000
316.139; 3579.500;  208.350;    0.000
316.200; 3543.500;  166.350;    0.000
316.261; 3557.500;  186.350;    0.000
316.322; 3493.500;  185.350;    0.000
316.383; 3497.500;  179.350;    0.000
316.444; 3586.500;  172.350;    0.000
316.504; 3430.500;  181.350;    0.000
316.565; 3561.500;  197.350;    0.000
316.626; 3597.500;  196.350;    0.000
316.687; 3603.500;  173.350;    0.000
316.748; 3544.500;  178.350;    0.000
316.809; 3602.500;  178.350;    0.000
316.870; 3543.500;  134.350;    0.000
316.931; 3603.500;  166.350;    0.000
316.992; 3612.500;  200.350;    0.000
317.053; 3599.500;  169.350;    0.000
317.114; 3614.500;  185.350;    0.000
317.175; 3618.500;  213.350;    0.000
317.235; 3486.500;  199.350;    0.000
317.296; 3473.500;  190.350;    0.000
317.357; 3516.500;  152.350;    0.000
317.418; 3476.500;  192.350;    0.000
317.479; 3506.500;  170.350;    0.000
317.540; 3562.500;  179.350;    0.000
317.601; 3449.500;  155.350;    0.000
317.661; 3499.500;  154.350;    0.000
317.722; 3543.500;  190.350;    0.000
317.783; 3470.500;  149.350;    0.000
317.844; 3558.500;  207.350;    0.000
317.904; 3521.500;  153.350;    0.000
317.965; 3478.500;  179.350;    0.000
318.026; 3548.500;  235.350;    0.000
318.087; 3500.500;  184.350;    0.000
318.148; 3550.500;  201.350;    0.000
318.208; 3437.500;  220.350;    0.000
318.269; 3574.500;  175.350;    0.000
318.330; 3443.500;  185.350;    0.000
318.390; 3493.500;  180.350;    0.000
318.451; 3556.500;  164.350;    0.000
318.512; 3439.500;  150.350;    0.000
318.572; 3556.500;  205.350;    0.000
318.633; 3518.500;  224.350;    0.000
318.694; 3419.500;  202.350;    0.000
318.754; 3519.500;  196.350;    0.000
318.815; 3574.500;  187.350;    0.000
318.876; 3539.500;  200.350;    0.000
318.936; 3516.500;  232.350;    0.000
318.997; 3464.500;  211.350;    0.000
319.058; 3464.500;  194.350;    0.000
319.118; 3442.500;  197.350;    0.000
319.179; 3488.500;  162.350;    0.000
319.239; 3615.500;  188.350;    0.000
319.300; 3433.500;  205.350;    0.000
319.361; 3487.500;  179.350;    0.000
319.421; 3408.500;  182.350;    0.000
319.482; 3385.500;  189.350;    0.000
319.542; 3580.500;  180.350;    0.000
319.603; 3479.500;  204.350;    0.000
319.663; 3448.500;  195.350;    0.000
319.724; 3417.500;  135.350;    0.000
319.784; 3475.500;  184.350;    0.000
319.845; 3493.500;  160.350;    0.000
319.905; 3452.500;  206.350;    0.000
319.966; 3411.500;  203.350;    0.000
320.026; 3473.500;  203.350;    0.000
320.087; 3514.500;  206.350;    0.000
320.147; 3409.500;  180.350;    0.000
320.208; 3449.500;  189.350;    0.000
320.268; 3434.500;  179.350;    0.000
320.329; 3387.500;  215.350;    0.000
320.389; 3442.500;  193.350;    0.000
320.449; 3359.500;  210.350;    0.000
320.510; 3373.500;  206.350;    0.000
320.570; 3406.500;  221.350;    0.000
320.631; 3586.500;  203.350;    0.000
320.691; 3430.500;  190.350;    0.000
320.751; 3458.500;  205.350;    0.000
320.812; 3389.500;  191.350;    0.000
320.872; 3446.500;  216.350;    0.000
320.932; 3474.500;  209.350;    0.000
320.993; 3440.500;  189.350;    0.000
321.053; 3524.500;  228.350;    0.000
321.113; 3425.500;  163.350;    0.000
321.174; 3444.500;  204.350;    0.000
321.234; 3504.500;  214.350;    0.000
321.294; 3505.500;  184.350;    0.000
321.355; 3469.500;  216.350;    0.000
321.415; 3431.500;  187.350;    0.000
321.475; 3403.500;  216.350;    0.000
321.535; 3425.500;  189.350;    0.000
321.596; 3361.500;  186.350;    0.000
321.656; 3435.500;  204.350;    0.000
321.716; 3386.500;  183.350;    0.000
321.776; 3416.500;  194.350;    0.000
321.837; 3503.500;  190.350;    0.000
321.897; 3437.500;  219.350;    0.000
321.957; 3416.500;  222.350;    0.000
322.017; 3334.500;  183.350;    0.000
322.077; 3397.500;  239.350;    0.000
322.138; 3518.500;  219.350;    0.000
322.198; 3445.500;  185.350;    0.000
322.258; 3497.500;  231.350;    0.000
322.318; 3336.500;  197.350;    0.000
322.378; 3387.500;  179.350;    0.000
322.438; 3366.500;  217.350;    0.000
322.499; 3337.500;  238.350;    0.000
322.559; 3289.500;  197.350;    0.000
322.619; 3369.500;  204.350;    0.000
322.679; 3376.500;  199.350;    0.000
322.739; 3406.500;  194.350;    0.000
322.799; 3447.500;  203.350;    0.000
322.859; 3465.500;  234.350;    0.000
322.919; 3455.500;  194.350;    0.000
322.979; 3469.500;  219.350;    0.000
323.039; 3418.500;  193.350;    0.000
323.099; 3396.500;  207.350;    0.000
323.159; 3413.500;  213.350;    0.000
323.219; 3374.500;  171.350;    0.000
323.279; 3249.500;  215.350;    0.000
323.339; 3332.500;  170.350;    0.000
323.399; 3321.500;  195.350;    0.000
323.459; 3391.500;  234.350;    0.000
323.519; 3354.500;  201.350;    0.000
323.579; 3325.500;  167.350;    0.000
323.639; 3291.500;  209.350;    0.000
323.699; 3439.500;  217.350;    0.000
323.759; 3358.500;  213.350;    0.000
323.819; 3364.500;  216.350;    0.000
323.879; 3415.500;  193.350;    0.000
323.939; 3358.500;  182.350;    0.000
323.999; 3328.500;  206.350;    0.000
324.059; 3366.500;  196.350;    0.000
324.119; 3299.500;  240.350;    0.000
324.178; 3312.500;  186.350;    0.000
324.238; 3240.500;  179.350;    0.000
324.298; 3415.500;  195.350;    0.000
324.358; 3358.500;  208.350;    0.000
324.418; 3378.500;  190.350;    0.000
324.478; 3333.500;  197.350;    0.000
324.538; 3385.500;  157.350;    0.000
324.597; 3320.500;  219.350;    0.000
324.657; 3296.500;  176.350;    0.000
324.717; 3442.500;  179.350;    0.000
324.777; 3227.500;  190.350;    0.000
324.837; 3331.500;  172.350;    0.000
324.896; 3369.500;  199.350;    0.000
324.956; 3345.500;  216.350;    0.000
325.016; 3320.500;  191.350;    0.000
325.076; 3406.500;  185.350;    0.000
325.135; 3302.500;  174.350;    0.000
325.195; 3337.500;  175.350;    0.000
325.255; 3317.500;  144.350;    0.000
325.315; 3313.500;  201.350;    0.000
325.374; 3364.500;  198.350;    0.000
325.434; 3308.500;  181.350;    0.000
325.494; 3409.500;  183.350;    0.000
325.553; 3383.500;  172.350;    0.000
325.613; 3425.500;  200.350;    0.000
325.673; 3319.500;  177.350;    0.000
325.732; 3351.500;  174.350;    0.000
325.792; 3279.500;  181.350;    0.000
325.852; 3382.500;  214.350;    0.000
325.911; 3295.500;  230.350;    0.000
325.971; 3364.500;  198.350;    0.000
326.031; 3354.500;  201.350;    0.000
326.090; 3294.500;  214.350;    0.000
326.150; 3162.500;  163.350;    0.000
326.209; 3314.500;  207.350;    0.000
326.269; 3415.500;  201.350;    0.000
326.328; 3426.500;  208.350;    0.000
326.388; 3246.500;  169.350;    0.000
326.448; 3410.500;  229.350;    0.000
326.507; 3308.500;  243.350;    0.000
326.567; 3334.500;  162.350;    0.000
326.626; 3338.500;  200.350;    0.000
326.686; 3272.500;  166.350;    0.000
326.745; 3248.500;  178.350;    0.000
326.805; 3281.500;  185.350;    0.000
326.864; 3250.500;  209.350;    0.000
326.924; 3228.500;  234.350;    0.000
326.983; 3291.500;  197.350;    0.000
327.043; 3289.500;  217.350;    0.000
327.102; 3227.500;  174.350;    0.000
327.161; 3212.500;  172.350;    0.000
327.221; 3273.500;  183.350;    0.000
327.280; 3194.500;  200.350;    0.000
327.340; 3317.500;  200.350;    0.000
327.399; 3160.500;  219.350;    0.000
327.459; 3215.500;  246.350;    0.000
327.518; 3221.500;  217.350;    0.000
327.577; 3184.500;  212.350;    0.000
327.637; 3245.500;  188.350;    0.000
327.696; 3181.500;  201.350;    0.000
327.755; 3176.500;  199.350;    0.000
327.815; 3167.500;  224.350;    0.000
327.874; 3233.500;  236.350;    0.000
327.933; 3205.500;  182.350;    0.000
327.993; 3249.500;  206.350;    0.000
328.052; 3183.500;  191.350;    0.000
328.111; 3246.500;  222.350;    0.000
328.171; 3247.500;  200.350;    0.000
328.230; 3057.500;  203.350;    0.000
328.289; 3303.500;  219.350;    0.000
328.349; 3226.500;  231.350;    0.000
328.408; 3098.500;  223.350;    0.000
328.467; 3162.500;  226.350;    0.000
328.526; 3141.500;  197.350;    0.000
328.586; 3172.500;  221.350;    0.000
328.645; 3176.500;  199.350;    0.000
328.704; 3136.500;  227.350;    0.000
328.763; 3168.500;  201.350;    0.000
328.822; 3197.500;  230.350;    0.000
328.882; 3137.500;  244.350;    0.000
328.941; 3135.500;  221.350;    0.000
329.000; 3197.500;  207.350;    0.000
329.059; 3221.500;  208.350;    0.000
329.118; 3107.500;  203.350;    0.000
329.177; 3125.500;  198.350;    0.000
329.237; 3124.500;  218.350;    0.000
329.296; 3195.500;  213.350;    0.000
329.355; 3119.500;  208.350;    0.000
329.414; 3150.500;  231.350;    0.000
329.473; 3151.500;  221.350;    0.000
329.532; 3183.500;  243.350;    0.000
329.591; 3072.500;  210.350;    0.000
329.650; 3192.500;  232.350;    0.000
329.709; 3094.500;  211.350;    0.000
329.768; 3208.500;  194.350;    0.000
329.827; 3102.500;  237.350;    0.000
329.886; 3299.500;  213.350;    0.000
329.945; 3251.500;  190.350;    0.000
330.004; 3304.500;  233.350;    0.000
330.063; 3169.500;  191.350;    0.000
330.122; 3372.500;  234.350;    0.000
330.181; 3628.500;  220.350;    0.000
330.240; 3682.500;  191.350;    0.000
330.299; 3417.500;  210.350;    0.000
330.358; 3197.500;  191.350;    0.000
330.417; 3197.500;  225.350;    0.000
330.476; 3093.500;  226.350;    0.000
330.535; 3204.500;  217.350;    0.000
330.594; 3133.500;  205.350;    0.000
330.653; 3047.500;  193.350;    0.000
330.712; 3167.500;  206.350;    0.000
330.771; 3073.500;  175.350;    0.000
330.830; 3041.500;  204.350;    0.000
330.889; 3011.500;  198.350;    0.000
330.948; 3038.500;  198.350;    0.000
331.006; 3084.500;  207.350;    0.000
331.065; 3025.500;  203.350;    0.000
331.124; 3055.500;  210.350;    0.000
331.183; 2960.500;  165.350;    0.000
331.242; 3062.500;  195.350;    0.000
331.301; 3091.500;  191.350;    0.000
331.359; 3023.500;  205.350;    0.000
331.418; 2990.500;  183.350;    0.000
331.477; 3061.500;  198.350;    0.000
331.536; 3114.500;  211.350;    0.000
331.595; 3008.500;  191.350;    0.000
331.653; 2912.500;  232.350;    0.000
331.712; 3058.500;  225.350;    0.000
331.771; 3025.500;  199.350;    0.000
331.830; 3068.500;  189.350;    0.000
331.888; 2985.500;  219.350;    0.000
331.947; 2995.500;  188.350;    0.000
332.006; 3150.500;  180.350;    0.000
332.065; 3041.500;  177.350;    0.000
332.123; 3091.500;  214.350;    0.000
332.182; 2981.500;  223.350;    0.000
332.241; 3030.500;  202.350;    0.000
332.299; 3100.500;  180.350;    0.000
332.358; 3051.500;  206.350;    0.000
332.417; 3024.500;  195.350;    0.000
332.475; 3013.500;  221.350;    0.000
332.534; 3042.500;  207.350;    0.000
332.592; 3089.500;  190.350;    0.000
332.651; 3106.500;  203.350;    0.000
332.710; 3085.500;  219.350;    0.000
332.768; 3107.500;  210.350;    0.000
332.827; 3128.500;  173.350;    0.000
332.885; 3175.500;  239.350;    0.000
332.944; 3144.500;  145.350;    0.000
333.003; 3213.500;  197.350;    0.000
333.061; 3224.500;  179.350;    0.000
333.120; 3173.500;  198.350;    0.000
333.178; 3350.500;  185.350;    0.000
333.237; 3391.500;  204.350;    0.000
333.295; 3339.500;  266.350;    0.000
333.354; 3345.500;  181.350;    0.000
333.412; 3329.500;  189.350;    0.000
333.471; 3358.500;  216.350;    0.000
333.529; 3414.500;  220.350;    0.000
333.588; 3362.500;  193.350;    0.000
333.646; 3479.500;  186.350;    0.000
333.705; 3463.500;  210.350;    0.000
333.763; 3392.500;  222.350;    0.000
333.822; 3332.500;  222.350;    0.000
333.880; 3320.500;  202.350;    0.000
333.938; 3322.500;  205.350;    0.000
333.997; 3362.500;  199.350;    0.000
334.055; 3359.500;  199.350;    0.000
334.114; 3311.500;  237.350;    0.000
334.172; 3371.500;  155.350;    0.000
334.230; 3254.500;  208.350;    0.000
334.289; 3364.500;  191.350;    0.000
334.347; 3262.500;  211.350;    0.000
334.405; 3228.500;  212.350;    0.000
334.464; 3250.500;  179.350;    0.000
334.522; 3250.500;  160.350;    0.000
334.580; 3271.500;  195.350;    0.000
334.639; 3282.500;  191.350;    0.000
334.697; 3307.500;  194.350;    0.000
334.755; 3084.500;  185.350;    0.000
334.814; 3282.500;  214.350;    0.000
334.872; 3202.500;  179.350;    0.000
334.930; 3268.500;  169.350;    0.000
334.988; 3164.500;  201.350;    0.000
335.047; 3191.500;  188.350;    0.000
335.105; 3178.500;  175.350;    0.000
335.163; 3190.500;  191.350;    0.000
335.221; 3147.500;  196.350;    0.000
335.280; 3215.500;  182.350;    0.000
335.338; 3158.500;  202.350;    0.000
335.396; 3332.500;  219.350;    0.000
335.454; 3192.500;  187.350;    0.000
335.512; 3224.500;  236.350;    0.000
335.570; 3314.500;  209.350;    0.000
335.629; 3136.500;  247.350;    0.000
335.687; 3211.500;  219.350;    0.000
335.745; 3271.500;  203.350;    0.000
335.803; 3153.500;  220.350;    0.000
335.861; 3194.500;  208.350;    0.000
335.919; 3201.500;  223.350;    0.000
335.977; 3164.500;  201.350;    0.000
336.035; 3258.500;  193.350;    0.000
336.094; 3213.500;  178.350;    0.000
336.152; 3164.500;  182.350;    0.000
336.210; 3245.500;  199.350;    0.000
336.268; 3243.500;  216.350;    0.000
336.326; 3128.500;  216.350;    0.000
336.384; 3227.500;  201.350;    0.000
336.442; 3119.500;  197.350;    0.000
336.500; 3173.500;  203.350;    0.000
336.558; 3108.500;  198.350;    0.000
336.616; 3133.500;  210.350;    0.000
336.674; 3186.500;  192.350;    0.000
336.732; 3158.500;  182.350;    0.000
336.790; 3159.500;  189.350;    0.000
336.848; 3171.500;  233.350;    0.000
336.906; 3085.500;  235.350;    0.000
336.964; 3194.500;  208.350;    0.000
337.022; 3116.500;  249.350;    0.000
337.080; 3152.500;  204.350;    0.000
337.138; 3104.500;  176.350;    0.000
337.195; 3087.500;  207.350;    0.000
337.253; 3116.500;  214.350;    0.000
337.311; 3129.500;  210.350;    0.000
337.369; 3105.500;  222.350;    0.000
337.427; 2961.500;  236.350;    0.000
337.485; 3026.500;  241.350;    0.000
337.543; 3111.500;  217.350;    0.000
337.601; 3085.500;  221.350;    0.000
337.658; 2975.500;  205.350;    0.000
337.716; 3061.500;  210.350;    0.000
337.774; 3112.500;  196.350;    0.000
337.832; 2966.500;  200.350;    0.000
337.890; 2995.500;  192.350;    0.000
337.947; 3034.500;  192.350;    0.000
338.005; 2995.500;  211.350;    0.000
338.063; 2943.500;  176.350;    0.000
338.121; 3036.500;  222.350;    0.000
338.178; 3002.500;  198.350;    0.000
338.236; 3044.500;  210.350;    0.000
338.294; 3034.500;  211.350;    0.000
338.352; 3036.500;  212.350;    0.000
338.409; 3031.500;  199.350;    0.000
338.467; 2922.500;  205.350;    0.000
338.525; 3025.500;  217.350;    0.000
338.583; 2948.500;  197.350;    0.000
338.640; 2975.500;  226.350;    0.000
338.698; 2916.500;  201.350;    0.000
338.756; 3022.500;  192.350;    0.000
338.813; 3075.500;  220.350;    0.000
338.871; 2997.500;  258.350;    0.000
338.928; 2956.500;  223.350;    0.000
338.986; 3059.500;  200.350;    0.000
339.044; 2960.500;  206.350;    0.000
339.101; 3004.500;  250.350;    0.000
339.159; 3011.500;  245.350;    0.000
339.216; 3007.500;  227.350;    0.000
339.274; 3008.500;  260.350;    0.000
339.332; 3045.500;  223.350;    0.000
339.389; 3043.500;  233.350;    0.000
339.447; 2940.500;  206.350;    0.000
339.504; 2926.500;  229.350;    0.000
339.562; 2971.500;  194.350;    0.000
339.619; 3103.500;  245.350;    0.000
339.677; 3066.500;  238.350;    0.000
339.734; 2933.500;  197.350;    0.000
339.792; 2916.500;  210.350;    0.000
339.849; 2990.500;  201.350;    0.000
339.907; 2988.500;  252.350;    0.000
339.964; 2940.500;  191.350;    0.000
340.022; 2951.500;  246.350;    0.000
340.079; 2937.500;  213.350;    0.000
340.137; 2960.500;  240.350;    0.000
340.194; 2963.500;  208.350;    0.000
340.252; 2897.500;  215.350;    0.000
340.309; 3044.500;  203.350;    0.000
340.366; 2901.500;  194.350;    0.000
340.424; 2929.500;  226.350;    0.000
340.481; 2962.500;  234.350;    0.000
340.538; 2929.500;  205.350;    0.000
340.596; 3015.500;  197.350;    0.000
340.653; 2925.500;  233.350;    0.000
340.711; 3121.500;  273.350;    0.000
340.768; 3018.500;  237.350;    0.000
340.825; 2993.500;  224.350;    0.000
340.883; 3030.500;  240.350;    0.000
340.940; 2885.500;  216.350;    0.000
340.997; 2871.500;  228.350;    0.000
341.054; 3006.500;  200.350;    0.000
341.112; 3013.500;  220.350;    0.000
341.169; 3032.500;  226.350;    0.000
341.226; 2957.500;  206.350;    0.000
341.284; 2916.500;  204.350;    0.000
341.341; 2952.500;  214.350;    0.000
341.398; 3053.500;  160.350;    0.000
341.455; 2945.500;  209.350;    0.000
341.512; 2973.500;  233.350;    0.000
341.570; 3069.500;  240.350;    0.000
341.627; 3007.500;  209.350;    0.000
341.684; 2861.500;  178.350;    0.000
341.741; 3035.500;  254.350;    0.000
341.798; 2977.500;  232.350;    0.000
341.856; 2959.500;  196.350;    0.000
341.913; 3006.500;  244.350;    0.000
341.970; 3053.500;  203.350;    0.000
342.027; 2964.500;  235.350;    0.000
342.084; 2933.500;  214.350;    0.000
342.141; 3014.500;  194.350;    0.000
342.198; 2978.500;  194.350;    0.000
342.255; 2951.500;  219.350;    0.000
342.313; 3069.500;  195.350;    0.000
342.370; 3001.500;  207.350;    0.000
342.427; 3006.500;  217.350;    0.000
342.484; 2958.500;  213.350;    0.000
342.541; 2988.500;  215.350;    0.000
342.598; 2965.500;  247.350;    0.000
342.655; 3017.500;  205.350;    0.000
342.712; 3024.500;  226.350;    0.000
342.769; 2936.500;  212.350;    0.000
342.826; 2997.500;  203.350;    0.000
342.883; 2943.500;  207.350;    0.000
342.940; 2905.500;  204.350;    0.000
342.997; 3003.500;  237.350;    0.000
343.054; 3063.500;  210.350;    0.000
343.111; 2959.500;  209.350;    0.000
343.168; 3068.500;  201.350;    0.000
343.225; 3129.500;  208.350;    0.000
343.282; 3146.500;  216.350;    0.000
343.339; 3154.500;  237.350;    0.000
343.395; 3118.500;  218.350;    0.000
343.452; 3127.500;  234.350;    0.000
343.509; 3183.500;  214.350;    0.000
343.566; 3182.500;  222.350;    0.000
343.623; 3242.500;  226.350;    0.000
343.680; 3124.500;  245.350;    0.000
343.737; 3402.500;  209.350;    0.000
343.794; 3324.500;  227.350;    0.000
343.850; 3338.500;  197.350;    0.000
343.907; 3262.500;  211.350;    0.000
343.964; 3305.500;  190.350;    0.000
344.021; 3364.500;  252.350;    0.000
344.078; 3385.500;  261.350;    0.000
344.134; 3334.500;  206.350;    0.000
344.191; 3316.500;  231.350;    0.000
344.248; 3295.500;  225.350;    0.000
344.305; 3317.500;  210.350;    0.000
344.361; 3343.500;  194.350;    0.000
344.418; 3254.500;  219.350;    0.000
344.475; 3215.500;  245.350;    0.000
344.532; 3316.500;  238.350;    0.000
344.588; 3303.500;  235.350;    0.000
344.645; 3298.500;  229.350;    0.000
344.702; 3184.500;  145.350;    0.000
344.758; 3240.500;  240.350;    0.000
344.815; 3209.500;  215.350;    0.000
344.872; 3188.500;  203.350;    0.000
344.928; 3258.500;  208.350;    0.000
344.985; 3109.500;  216.350;    0.000
345.042; 3215.500;  234.350;    0.000
345.098; 3143.500;  183.350;    0.000
345.155; 3237.500;  241.350;    0.000
345.212; 3012.500;  222.350;    0.000
345.268; 3263.500;  234.350;    0.000
345.325; 3162.500;  181.350;    0.000
345.381; 3218.500;  251.350;    0.000
345.438; 3237.500;  256.350;    0.000
345.495; 3155.500;  247.350;    0.000
345.551; 3226.500;  231.350;    0.000
345.608; 3090.500;  206.350;    0.000
345.664; 3240.500;  201.350;    0.000
345.721; 3171.500;  216.350;    0.000
345.777; 3218.500;  195.350;    0.000
345.834; 3092.500;  195.350;    0.000
345.890; 3124.500;  227.350;    0.000
345.947; 3193.500;  240.350;    0.000
346.003; 3170.500;  248.350;    0.000
346.060; 3058.500;  213.350;    0.000
346.116; 3217.500;  225.350;    0.000
346.173; 3111.500;  199.350;    0.000
346.229; 3085.500;  264.350;    0.000
346.285; 3098.500;  246.350;    0.000
346.342; 3120.500;  240.350;    0.000
346.398; 3193.500;  222.350;    0.000
346.455; 3150.500;  231.350;    0.000
346.511; 3225.500;  214.350;    0.000
346.567; 3158.500;  231.350;    0.000
346.624; 3235.500;  222.350;    0.000
346.680; 3195.500;  197.350;    0.000
346.737; 3256.500;  225.350;    0.000
346.793; 3285.500;  255.350;    0.000
346.849; 3214.500;  245.350;    0.000
346.906; 3242.500;  221.350;    0.000
346.962; 3196.500;  260.350;    0.000
347.018; 3237.500;  238.350;    0.000
347.074; 3221.500;  257.350;    0.000
347.131; 3162.500;  200.350;    0.000
347.187; 3206.500;  232.350;    0.000
347.243; 3231.500;  240.350;    0.000
347.300; 3127.500;  249.350;    0.000
347.356; 3225.500;  250.350;    0.000
347.412; 3276.500;  252.350;    0.000
347.468; 3154.500;  254.350;    0.000
347.524; 3294.500;  280.350;    0.000
347.581; 3174.500;  228.350;    0.000
347.637; 3305.500;  261.350;    0.000
347.693; 3289.500;  238.350;    0.000
347.749; 3264.500;  261.350;    0.000
347.805; 3174.500;  238.350;    0.000
347.862; 3232.500;  246.350;    0.000
347.918; 3315.500;  256.350;    0.000
347.974; 3255.500;  277.350;    0.000
348.030; 3239.500;  242.350;    0.000
348.086; 3216.500;  223.350;    0.000
348.142; 3243.500;  215.350;    0.000
348.198; 3208.500;  272.350;    0.000
348.254; 3330.500;  292.350;    0.000
348.311; 3246.500;  235.350;    0.000
348.367; 3311.500;  263.350;    0.000
348.423; 3262.500;  193.350;    0.000
348.479; 3271.500;  266.350;    0.000
348.535; 3144.500;  238.350;    0.000
348.591; 3302.500;  237.350;    0.000
348.647; 3230.500;  239.350;    0.000
348.703; 3276.500;  240.350;    0.000
348.759; 3262.500;  253.350;    0.000
348.815; 3307.500;  255.350;    0.000
348.871; 3310.500;  256.350;    0.000
348.927; 3362.500;  261.350;    0.000
348.983; 3259.500;  258.350;    0.000
349.039; 3214.500;  204.350;    0.000
349.095; 3212.500;  215.350;    0.000
349.151; 3258.500;  230.350;    0.000
349.207; 3304.500;  216.350;    0.000
349.263; 3334.500;  235.350;    0.000
349.319; 3334.500;  244.350;    0.000
349.374; 3333.500;  213.350;    0.000
349.430; 3306.500;  241.350;    0.000
349.486; 3375.500;  248.350;    0.000
349.542; 3364.500;  259.350;    0.000
349.598; 3214.500;  208.350;    0.000
349.654; 3341.500;  242.350;    0.000
349.710; 3320.500;  246.350;    0.000
349.766; 3338.500;  226.350;    0.000
349.821; 3325.500;  227.350;    0.000
349.877; 3428.500;  226.350;    0.000
349.933; 3333.500;  249.350;    0.000
349.989; 3357.500;  263.350;    0.000
350.045; 3280.500;  267.350;    0.000
350.100; 3303.500;  219.350;    0.000
350.156; 3289.500;  207.350;    0.000
350.212; 3405.500;  230.350;    0.000
350.268; 3377.500;  223.350;    0.000
350.323; 3235.500;  217.350;    0.000
350.379; 3268.500;  227.350;    0.000
350.435; 3307.500;  219.350;    0.000
350.491; 3239.500;  195.350;    0.000
350.546; 3269.500;  229.350;    0.000
350.602; 3252.500;  222.350;    0.000
350.658; 3365.500;  225.350;    0.000
350.713; 3340.500;  231.350;    0.000
350.769; 3196.500;  193.350;    0.000
350.825; 3309.500;  182.350;    0.000
350.880; 3351.500;  193.350;    0.000
350.936; 3301.500;  222.350;    0.000
350.992; 3217.500;  217.350;    0.000
351.047; 3237.500;  226.350;    0.000
351.103; 3377.500;  187.350;    0.000
351.158; 3346.500;  212.350;    0.000
351.214; 3317.500;  207.350;    0.000
351.270; 3341.500;  194.350;    0.000
351.325; 3263.500;  213.350;    0.000
351.381; 3333.500;  223.350;    0.000
351.436; 3344.500;  222.350;    0.000
351.492; 3343.500;  219.350;    0.000
351.547; 3411.500;  205.350;    0.000
351.603; 3396.500;  218.350;    0.000
351.658; 3327.500;  199.350;    0.000
351.714; 3437.500;  201.350;    0.000
351.769; 3320.500;  209.350;    0.000
351.825; 3474.500;  226.350;    0.000
351.880; 3331.500;  189.350;    0.000
351.936; 3380.500;  201.350;    0.000
351.991; 3397.500;  220.350;    0.000
352.047; 3377.500;  232.350;    0.000
352.102; 3354.500;  185.350;    0.000
352.158; 3396.500;  228.350;    0.000
352.213; 3337.500;  204.350;    0.000
352.268; 3291.500;  220.350;    0.000
352.324; 3249.500;  206.350;    0.000
352.379; 3382.500;  182.350;    0.000
352.434; 3345.500;  214.350;    0.000
352.490; 3569.500;  250.350;    0.000
352.545; 3424.500;  290.350;    0.000
352.601; 3377.500;  247.350;    0.000
352.656; 3376.500;  203.350;    0.000
352.711; 3277.500;  197.350;    0.000
352.767; 3331.500;  169.350;    0.000
352.822; 3393.500;  191.350;    0.000
352.877; 3433.500;  235.350;    0.000
352.932; 3487.500;  231.350;    0.000
352.988; 3357.500;  224.350;    0.000
353.043; 3512.500;  226.350;    0.000
353.098; 3367.500;  227.350;    0.000
353.153; 3317.500;  239.350;    0.000
353.209; 3314.500;  217.350;    0.000
353.264; 3407.500;  198.350;    0.000
353.319; 3391.500;  247.350;    0.000
353.374; 3380.500;  199.350;    0.000
353.430; 3485.500;  247.350;    0.000
353.485; 3428.500;  242.350;    0.000
353.540; 3472.500;  237.350;    0.000
353.595; 3354.500;  233.350;    0.000
353.650; 3415.500;  221.350;    0.000
353.705; 3449.500;  259.350;    0.000
353.761; 3391.500;  223.350;    0.000
353.816; 3309.500;  234.350;    0.000
353.871; 3332.500;  226.350;    0.000
353.926; 3412.500;  232.350;    0.000
353.981; 3455.500;  245.350;    0.000
354.036; 3432.500;  247.350;    0.000
354.091; 3369.500;  233.350;    0.000
354.146; 3485.500;  253.350;    0.000
354.201; 3405.500;  236.350;    0.000
354.256; 3396.500;  210.350;    0.000
354.311; 3453.500;  279.350;    0.000
354.367; 3401.500;  208.350;    0.000
354.422; 3367.500;  228.350;    0.000
354.477; 3453.500;  202.350;    0.000
354.532; 3407.500;  215.350;    0.000
354.587; 3459.500;  249.350;    0.000
354.642; 3351.500;  206.350;    0.000
354.697; 3462.500;  226.350;    0.000
354.751; 3461.500;  241.350;    0.000
354.806; 3398.500;  249.350;    0.000
354.861; 3490.500;  216.350;    0.000
354.916; 3452.500;  249.350;    0.000
354.971; 3500.500;  217.350;    0.000
355.026; 3435.500;  236.350;    0.000
355.081; 3496.500;  242.350;    0.000
355.136; 3346.500;  216.350;    0.000
355.191; 3439.500;  216.350;    0.000
355.246; 3429.500;  258.350;    0.000
355.301; 3452.500;  250.350;    0.000
355.355; 3539.500;  251.350;    0.000
355.410; 3520.500;  216.350;    0.000
355.465; 3440.500;  224.350;    0.000
355.520; 3481.500;  221.350;    0.000
355.575; 3405.500;  255.350;    0.000
355.630; 3386.500;  225.350;    0.000
355.684; 3409.500;  210.350;    0.000
355.739; 3359.500;  232.350;    0.000
355.794; 3497.500;  202.350;    0.000
355.849; 3407.500;  211.350;    0.000
355.904; 3488.500;  226.350;    0.000
355.958; 3319.500;  191.350;    0.000
356.013; 3376.500;  208.350;    0.000
356.068; 3385.500;  229.350;    0.000
356.123; 3484.500;  243.350;    0.000
356.177; 3431.500;  227.350;    0.000
356.232; 3472.500;  243.350;    0.000
356.287; 3473.500;  216.350;    0.000
356.341; 3499.500;  242.350;    0.000
356.396; 3389.500;  175.350;    0.000
356.451; 3472.500;  271.350;    0.000
356.505; 3491.500;  225.350;    0.000
356.560; 3489.500;  260.350;    0.000
356.615; 3560.500;  213.350;    0.000
356.669; 3449.500;  213.350;    0.000
356.724; 3443.500;  221.350;    0.000
356.778; 3432.500;  232.350;    0.000
356.833; 3367.500;  178.350;    0.000
356.888; 3497.500;  236.350;    0.000
356.942; 3427.500;  224.350;    0.000
356.997; 3570.500;  228.350;    0.000
357.051; 3515.500;  226.350;    0.000
357.106; 3470.500;  185.350;    0.000
357.160; 3383.500;  202.350;    0.000
357.215; 3378.500;  232.350;    0.000
357.269; 3532.500;  224.350;    0.000
357.324; 3478.500;  219.350;    0.000
357.378; 3466.500;  196.350;    0.000
357.433; 3464.500;  241.350;    0.000
357.487; 3520.500;  244.350;    0.000
357.542; 3457.500;  210.350;    0.000
357.596; 3436.500;  231.350;    0.000
357.651; 3584.500;  248.350;    0.000
357.705; 3533.500;  232.350;    0.000
357.760; 3421.500;  224.350;    0.000
357.814; 3521.500;  221.350;    0.000
357.868; 3531.500;  207.350;    0.000
357.923; 3563.500;  234.350;    0.000
357.977; 3517.500;  218.350;    0.000
358.032; 3511.500;  244.350;    0.000
358.086; 3487.500;  246.350;    0.000
358.140; 3442.500;  235.350;    0.000
358.195; 3452.500;  237.350;    0.000
358.249; 3499.500;  233.350;    0.000
358.303; 3476.500;  254.350;    0.000
358.358; 3468.500;  217.350;    0.000
358.412; 3488.500;  245.350;    0.000
358.466; 3459.500;  230.350;    0.000
358.521; 3500.500;  214.350;    0.000
358.575; 3537.500;  243.350;    0.000
358.629; 3413.500;  230.350;    0.000
358.683; 3507.500;  232.350;    0.000
358.738; 3414.500;  249.350;    0.000
358.792; 3493.500;  249.350;    0.000
358.846; 3469.500;  271.350;    0.000
358.900; 3449.500;  265.350;    0.000
358.954; 3460.500;  236.350;    0.000
359.009; 3460.500;  254.350;    0.000
359.063; 3479.500;  216.350;    0.000
359.117; 3487.500;  245.350;    0.000
359.171; 3497.500;  252.350;    0.000
359.225; 3509.500;  240.350;    0.000
359.280; 3461.500;  239.350;    0.000
359.334; 3558.500;  234.350;    0.000
359.388; 3438.500;  258.350;    0.000
359.442; 3457.500;  220.350;    0.000
359.496; 3423.500;  206.350;    0.000
359.550; 3517.500;  279.350;    0.000
359.604; 3446.500;  263.350;    0.000
359.658; 3390.500;  251.350;    0.000
359.712; 3525.500;  244.350;    0.000
359.766; 3380.500;  217.350;    0.000
359.820; 3519.500;  235.350;    0.000
359.875; 3494.500;  249.350;    0.000
359.929; 3418.500;  269.350;    0.000
359.983; 3413.500;  240.350;    0.000
360.037; 3551.500;  252.350;    0.000
360.091; 3394.500;  271.350;    0.000
360.145; 3352.500;  222.350;    0.000
360.199; 3448.500;  302.350;    0.000
360.253; 3443.500;  234.350;    0.000
360.306; 3510.500;  258.350;    0.000
360.360; 3460.500;  249.350;    0.000
360.414; 3491.500;  231.350;    0.000
360.468; 3515.500;  261.350;    0.000
360.522; 3462.500;  277.350;    0.000
360.576; 3466.500;  273.350;    0.000
360.630; 3501.500;  264.350;    0.000
360.684; 3480.500;  223.350;    0.000
360.738; 3522.500;  266.350;    0.000
360.792; 3558.500;  252.350;    0.000
360.846; 3444.500;  234.350;    0.000
360.899; 3553.500;  296.350;    0.000
360.953; 3519.500;  273.350;    0.000
361.007; 3404.500;  251.350;    0.000
361.061; 3498.500;  250.350;    0.000
361.115; 3439.500;  267.350;    0.000
361.168; 3515.500;  308.350;    0.000
361.222; 3384.500;  246.350;    0.000
361.276; 3513.500;  261.350;    0.000
361.330; 3496.500;  233.350;    0.000
361.384; 3382.500;  269.350;    0.000
361.437; 3384.500;  270.350;    0.000
361.491; 3391.500;  263.350;    0.000
361.545; 3381.500;  288.350;    0.000
361.599; 3449.500;  270.350;    0.000
361.652; 3412.500;  256.350;    0.000
361.706; 3519.500;  263.350;    0.000
361.760; 3432.500;  237.350;    0.000
361.813; 3391.500;  278.350;    0.000
361.867; 3475.500;  317.350;    0.000
361.921; 3377.500;  260.350;    0.000
361.974; 3426.500;  239.350;    0.000
362.028; 3477.500;  266.350;    0.000
362.082; 3470.500;  269.350;    0.000
362.135; 3400.500;  262.350;    0.000
362.189; 3313.500;  258.350;    0.000
362.242; 3414.500;  273.350;    0.000
362.296; 3549.500;  261.350;    0.000
362.350; 3542.500;  272.350;    0.000
362.403; 3523.500;  291.350;    0.000
362.457; 3407.500;  253.350;    0.000
362.510; 3374.500;  266.350;    0.000
362.564; 3359.500;  260.350;    0.000
362.617; 3344.500;  280.350;    0.000
362.671; 3342.500;  281.350;    0.000
362.724; 3398.500;  234.350;    0.000
362.778; 3496.500;  311.350;    0.000
362.831; 3402.500;  276.350;    0.000
362.885; 3463.500;  288.350;    0.000
362.938; 3292.500;  284.350;    0.000
362.992;  326.500;  245.350;    0.000
363.045;  277.500;  277.350;    0.000
363.099;  260.500;  246.350;    0.000
363.152;  304.500;  290.350;    0.000
363.205;  287.500;  256.350;    0.000
363.259;  266.500;  238.350;    0.000
363.312;  275.500;  290.350;    0.000
363.366;  281.500;  287.350;    0.000
363.419;  301.500;  279.350;    0.000
363.472;  300.500;  304.350;    0.000
363.526;  306.500;  305.350;    0.000
363.579;  264.500;  281.350;    0.000
363.632;  267.500;  279.350;    0.000
363.686;  281.500;  277.350;    0.000
363.739;  281.500;  268.350;    0.000
363.792;  306.500;  274.350;    0.000

