
Integration time [ms]:   0.300
Averaging Nr. [scans]: 1
Smoothing Nr. [pixels]: 0
Data measured with spectrometer [name]: VIS
Wave   ;Sample   ;Dark     ;Reference
[nm]   ;[counts] ;[counts] ;[counts] 

450.961;  224.450;  204.125;    0.000
451.100;  210.450;  219.125;    0.000
451.239;  208.450;  196.125;    0.000
451.377;  231.450;  252.125;    0.000
451.516;  207.450;  215.125;    0.000
451.655;  231.450;  214.125;    0.000
451.794;  224.450;  241.125;    0.000
451.932;  235.450;  242.125;    0.000
452.071;  192.450;  204.125;    0.000
452.210;  222.450;  243.125;    0.000
452.348;  230.450;  241.125;    0.000
452.487;  249.450;  246.125;    0.000
452.626;  232.450;  235.125;    0.000
452.764;  211.450;  230.125;    0.000
452.903;  232.450;  199.125;    0.000
453.042;  310.450;  178.125;    0.000
453.180; 4303.450;  291.125;    0.000
453.319; 4365.450;  335.125;    0.000
453.458; 4440.450;  245.125;    0.000
453.596; 4505.450;  325.125;    0.000
453.735; 4554.450;  291.125;    0.000
453.873; 4562.450;  295.125;    0.000
454.012; 4579.450;  291.125;    0.000
454.150; 4659.450;  292.125;    0.000
454.289; 4637.450;  328.125;    0.000
454.427; 4770.450;  295.125;    0.000
454.566; 4792.450;  295.125;    0.000
454.704; 4750.450;  301.125;    0.000
454.843; 4906.450;  278.125;    0.000
454.981; 5009.450;  306.125;    0.000
455.120; 4958.450;  237.125;    0.000
455.258; 4955.450;  325.125;    0.000
455.397; 4972.450;  276.125;    0.000
455.535; 5148.450;  269.125;    0.000
455.674; 5155.450;  259.125;    0.000
455.812; 5216.450;  264.125;    0.000
455.951; 5236.450;  286.125;    0.000
456.089; 5191.450;  302.125;    0.000
456.227; 5193.450;  230.125;    0.000
456.366; 5360.450;  303.125;    0.000
456.504; 5527.450;  316.125;    0.000
456.642; 5587.450;  309.125;    0.000
456.781; 5510.450;  299.125;    0.000
456.919; 5587.450;  281.125;    0.000
457.057; 5615.450;  253.125;    0.000
457.196; 5688.450;  268.125;    0.000
457.334; 5738.450;  292.125;    0.000
457.472; 5924.450;  287.125;    0.000
457.610; 5970.450;  300.125;    0.000
457.749; 6186.450;  342.125;    0.000
457.887; 6165.450;  310.125;    0.000
458.025; 6272.450;  310.125;    0.000
458.163; 6317.450;  323.125;    0.000
458.301; 6372.450;  336.125;    0.000
458.440; 6340.450;  297.125;    0.000
458.578; 6667.450;  295.125;    0.000
458.716; 6693.450;  309.125;    0.000
458.854; 6845.450;  335.125;    0.000
458.992; 6833.450;  244.125;    0.000
459.130; 6913.450;  370.125;    0.000
459.269; 6940.450;  313.125;    0.000
459.407; 7097.450;  370.125;    0.000
459.545; 7233.450;  341.125;    0.000
459.683; 7271.450;  336.125;    0.000
459.821; 7399.450;  311.125;    0.000
459.959; 7537.450;  330.125;    0.000
460.097; 7621.450;  355.125;    0.000
460.235; 7715.450;  348.125;    0.000
460.373; 7800.450;  338.125;    0.000
460.511; 7794.450;  361.125;    0.000
460.649; 7899.450;  295.125;    0.000
460.787; 7701.450;  325.125;    0.000
460.925; 7864.450;  266.125;    0.000
461.063; 8067.450;  365.125;    0.000
461.201; 8090.450;  334.125;    0.000
461.339; 8144.450;  341.125;    0.000
461.477; 8193.450;  304.125;    0.000
461.615; 8115.450;  311.125;    0.000
461.753; 8396.450;  342.125;    0.000
461.891; 8412.450;  333.125;    0.000
462.029; 8695.450;  336.125;    0.000
462.166; 8757.450;  272.125;    0.000
462.304; 8696.450;  313.125;    0.000
462.442; 9061.450;  313.125;    0.000
462.580; 8985.450;  328.125;    0.000
462.718; 9206.450;  358.125;    0.000
462.856; 9219.450;  302.125;    0.000
462.993; 9201.450;  360.125;    0.000
463.131; 9267.450;  280.125;    0.000
463.269; 9269.450;  312.125;    0.000
463.407; 8864.450;  263.125;    0.000
463.545; 8686.450;  253.125;    0.000
463.682; 9049.450;  296.125;    0.000
463.820; 9176.450;  308.125;    0.000
463.958; 9615.450;  300.125;    0.000
464.095; 9769.450;  289.125;    0.000
464.233; 9742.450;  340.125;    0.000
464.371; 9577.450;  300.125;    0.000
464.509; 9563.450;  266.125;    0.000
464.646; 9616.450;  294.125;    0.000
464.784; 9421.450;  284.125;    0.000
464.921; 9344.450;  350.125;    0.000
465.059; 9165.450;  256.125;    0.000
465.197; 9072.450;  289.125;    0.000
465.334; 8753.450;  287.125;    0.000
465.472; 8627.450;  322.125;    0.000
465.609; 8445.450;  311.125;    0.000
465.747; 8475.450;  336.125;    0.000
465.885; 8363.450;  308.125;    0.000
466.022; 8269.450;  299.125;    0.000
466.160; 8336.450;  293.125;    0.000
466.297; 8243.450;  317.125;    0.000
466.435; 8088.450;  336.125;    0.000
466.572; 8156.450;  282.125;    0.000
466.710; 8005.450;  299.125;    0.000
466.847; 8149.450;  288.125;    0.000
466.985; 8132.450;  274.125;    0.000
467.122; 8117.450;  302.125;    0.000
467.260; 8147.450;  271.125;    0.000
467.397; 8027.450;  263.125;    0.000
467.534; 8179.450;  320.125;    0.000
467.672; 8091.450;  309.125;    0.000
467.809; 8029.450;  275.125;    0.000
467.947; 7962.450;  319.125;    0.000
468.084; 8080.450;  309.125;    0.000
468.221; 8012.450;  302.125;    0.000
468.359; 7992.450;  286.125;    0.000
468.496; 8047.450;  293.125;    0.000
468.633; 8128.450;  273.125;    0.000
468.771; 8127.450;  296.125;    0.000
468.908; 8177.450;  277.125;    0.000
469.045; 8053.450;  303.125;    0.000
469.183; 8274.450;  314.125;    0.000
469.320; 8253.450;  278.125;    0.000
469.457; 8180.450;  308.125;    0.000
469.594; 8333.450;  272.125;    0.000
469.732; 8499.450;  321.125;    0.000
469.869; 8380.450;  299.125;    0.000
470.006; 8601.450;  267.125;    0.000
470.143; 8685.450;  298.125;    0.000
470.280; 8695.450;  272.125;    0.000
470.417; 8802.450;  314.125;    0.000
470.555; 8671.450;  305.125;    0.000
470.692; 8661.450;  309.125;    0.000
470.829; 8587.450;  311.125;    0.000
470.966; 8656.450;  260.125;    0.000
471.103; 8698.450;  267.125;    0.000
471.240; 8580.450;  290.125;    0.000
471.377; 8587.450;  290.125;    0.000
471.514; 8550.450;  295.125;    0.000
471.651; 8613.450;  300.125;    0.000
471.789; 8566.450;  281.125;    0.000
471.926; 8423.450;  291.125;    0.000
472.063; 8276.450;  305.125;    0.000
472.200; 8248.450;  285.125;    0.000
472.337; 8389.450;  288.125;    0.000
472.474; 8372.450;  276.125;    0.000
472.611; 8178.450;  309.125;    0.000
472.748; 8219.450;  280.125;    0.000
472.884; 8337.450;  300.125;    0.000
473.021; 8253.450;  280.125;    0.000
473.158; 8311.450;  304.125;    0.000
473.295; 8270.450;  308.125;    0.000
473.432; 8162.450;  294.125;    0.000
473.569; 8219.450;  288.125;    0.000
473.706; 8095.450;  254.125;    0.000
473.843; 8320.450;  282.125;    0.000
473.980; 8126.450;  286.125;    0.000
474.117; 8102.450;  257.125;    0.000
474.253; 8238.450;  298.125;    0.000
474.390; 8118.450;  253.125;    0.000
474.527; 8205.450;  271.125;    0.000
474.664; 8280.450;  257.125;    0.000
474.801; 8184.450;  296.125;    0.000
474.937; 8352.450;  263.125;    0.000
475.074; 8300.450;  262.125;    0.000
475.211; 8235.450;  299.125;    0.000
475.348; 8411.450;  308.125;    0.000
475.484; 8349.450;  278.125;    0.000
475.621; 8371.450;  287.125;    0.000
475.758; 8327.450;  231.125;    0.000
475.894; 8520.450;  295.125;    0.000
476.031; 8446.450;  290.125;    0.000
476.168; 8445.450;  287.125;    0.000
476.304; 8466.450;  331.125;    0.000
476.441; 8442.450;  301.125;    0.000
476.578; 8569.450;  263.125;    0.000
476.714; 8696.450;  261.125;    0.000
476.851; 8583.450;  247.125;    0.000
476.987; 8592.450;  297.125;    0.000
477.124; 8772.450;  296.125;    0.000
477.261; 8655.450;  299.125;    0.000
477.397; 8893.450;  292.125;    0.000
477.534; 8842.450;  289.125;    0.000
477.670; 8999.450;  268.125;    0.000
477.807; 9031.450;  234.125;    0.000
477.943; 9236.450;  279.125;    0.000
478.080; 8945.450;  276.125;    0.000
478.216; 9246.450;  248.125;    0.000
478.353; 9246.450;  296.125;    0.000
478.489; 9300.450;  267.125;    0.000
478.626; 9517.450;  243.125;    0.000
478.762; 9613.450;  252.125;    0.000
478.898; 9460.450;  266.125;    0.000
479.035; 9480.450;  290.125;    0.000
479.171; 9599.450;  247.125;    0.000
479.308; 9531.450;  283.125;    0.000
479.444; 9513.450;  244.125;    0.000
479.580; 9633.450;  259.125;    0.000
479.717; 9703.450;  301.125;    0.000
479.853; 9656.450;  257.125;    0.000
479.989; 9748.450;  249.125;    0.000
480.126; 9741.450;  218.125;    0.000
480.262; 9885.450;  275.125;    0.000
480.398; 9876.450;  246.125;    0.000
480.535; 9871.450;  246.125;    0.000
480.671; 9877.450;  272.125;    0.000
480.807; 9847.450;  281.125;    0.000
480.943; 9763.450;  233.125;    0.000
481.080; 9699.450;  303.125;    0.000
481.216; 9676.450;  229.125;    0.000
481.352; 9535.450;  240.125;    0.000
481.488; 9644.450;  284.125;    0.000
481.624; 9602.450;  236.125;    0.000
481.760; 9522.450;  255.125;    0.000
481.897; 9461.450;  206.125;    0.000
482.033; 9388.450;  254.125;    0.000
482.169; 9407.450;  268.125;    0.000
482.305; 9266.450;  214.125;    0.000
482.441; 9456.450;  225.125;    0.000
482.577; 9315.450;  251.125;    0.000
482.713; 9525.450;  221.125;    0.000
482.849; 9372.450;  218.125;    0.000
482.985; 9372.450;  245.125;    0.000
483.121; 9435.450;  224.125;    0.000
483.258; 9460.450;  249.125;    0.000
483.394; 9357.450;  224.125;    0.000
483.530; 9423.450;  247.125;    0.000
483.665; 9557.450;  256.125;    0.000
483.801; 9470.450;  220.125;    0.000
483.937; 9565.450;  200.125;    0.000
484.073; 9563.450;  272.125;    0.000
484.209; 9430.450;  243.125;    0.000
484.345; 9645.450;  274.125;    0.000
484.481; 9702.450;  264.125;    0.000
484.617; 9627.450;  270.125;    0.000
484.753; 9660.450;  244.125;    0.000
484.889; 9768.450;  293.125;    0.000
485.025; 9755.450;  257.125;    0.000
485.161; 9792.450;  264.125;    0.000
485.296; 9698.450;  247.125;    0.000
485.432; 9613.450;  240.125;    0.000
485.568; 9873.450;  240.125;    0.000
485.704; 9838.450;  232.125;    0.000
485.840; 9737.450;  280.125;    0.000
485.975; 9746.450;  253.125;    0.000
486.111; 9731.450;  250.125;    0.000
486.247; 9745.450;  272.125;    0.000
486.383; 9804.450;  258.125;    0.000
486.518; 9837.450;  256.125;    0.000
486.654; 9768.450;  250.125;    0.000
486.790; 9798.450;  259.125;    0.000
486.926; 9855.450;  256.125;    0.000
487.061; 9743.450;  267.125;    0.000
487.197; 9653.450;  224.125;    0.000
487.333; 9645.450;  265.125;    0.000
487.468; 9816.450;  223.125;    0.000
487.604; 9808.450;  298.125;    0.000
487.740; 9708.450;  261.125;    0.000
487.875; 9759.450;  278.125;    0.000
488.011; 9697.450;  292.125;    0.000
488.146; 9705.450;  239.125;    0.000
488.282; 9651.450;  265.125;    0.000
488.417; 9787.450;  286.125;    0.000
488.553; 9648.450;  271.125;    0.000
488.688; 9589.450;  252.125;    0.000
488.824; 9713.450;  239.125;    0.000
488.960; 9890.450;  266.125;    0.000
489.095; 9560.450;  229.125;    0.000
489.230; 9625.450;  247.125;    0.000
489.366; 9675.450;  260.125;    0.000
489.501; 9707.450;  257.125;    0.000
489.637; 9772.450;  233.125;    0.000
489.772; 9727.450;  254.125;    0.000
489.908; 9703.450;  235.125;    0.000
490.043; 9714.450;  266.125;    0.000
490.178; 9926.450;  228.125;    0.000
490.314; 9663.450;  310.125;    0.000
490.449; 9778.450;  251.125;    0.000
490.585; 9764.450;  221.125;    0.000
490.720; 9688.450;  203.125;    0.000
490.855; 9578.450;  266.125;    0.000
490.991; 9712.450;  249.125;    0.000
491.126; 9732.450;  313.125;    0.000
491.261; 9749.450;  284.125;    0.000
491.396; 9639.450;  225.125;    0.000
491.532; 9652.450;  227.125;    0.000
491.667; 9723.450;  210.125;    0.000
491.802; 9787.450;  214.125;    0.000
491.937; 9743.450;  246.125;    0.000
492.073; 9832.450;  250.125;    0.000
492.208; 9909.450;  267.125;    0.000
492.343; 9968.450;  245.125;    0.000
492.478; 9958.450;  271.125;    0.000
492.613;10088.450;  253.125;    0.000
492.749; 9917.450;  249.125;    0.000
492.884; 9681.450;  217.125;    0.000
493.019; 9987.450;  244.125;    0.000
493.154; 9884.450;  265.125;    0.000
493.289; 9897.450;  266.125;    0.000
493.424; 9921.450;  226.125;    0.000
493.559; 9939.450;  222.125;    0.000
493.694; 9678.450;  218.125;    0.000
493.829; 9885.450;  246.125;    0.000
493.964; 9829.450;  243.125;    0.000
494.099; 9893.450;  269.125;    0.000
494.234; 9970.450;  249.125;    0.000
494.369; 9918.450;  279.125;    0.000
494.504; 9857.450;  261.125;    0.000
494.639; 9615.450;  289.125;    0.000
494.774; 9873.450;  252.125;    0.000
494.909; 9762.450;  250.125;    0.000
495.044; 9882.450;  207.125;    0.000
495.179; 9759.450;  266.125;    0.000
495.314; 9874.450;  228.125;    0.000
495.449; 9879.450;  262.125;    0.000
495.584; 9892.450;  281.125;    0.000
495.719; 9900.450;  251.125;    0.000
495.854; 9910.450;  237.125;    0.000
495.988; 9958.450;  238.125;    0.000
496.123; 9888.450;  255.125;    0.000
496.258; 9989.450;  264.125;    0.000
496.393;10079.450;  253.125;    0.000
496.528;10138.450;  244.125;    0.000
496.663;10158.450;  267.125;    0.000
496.797;10389.450;  271.125;    0.000
496.932;10467.450;  262.125;    0.000
497.067;10338.450;  260.125;    0.000
497.202;10514.450;  264.125;    0.000
497.336;10614.450;  243.125;    0.000
497.471;10853.450;  251.125;    0.000
497.606;10948.450;  219.125;    0.000
497.740;11146.450;  264.125;    0.000
497.875;11350.450;  252.125;    0.000
498.010;11392.450;  241.125;    0.000
498.144;11699.450;  261.125;    0.000
498.279;12021.450;  221.125;    0.000
498.414;12228.450;  246.125;    0.000
498.548;12374.450;  212.125;    0.000
498.683;12759.450;  260.125;    0.000
498.817;12876.450;  244.125;    0.000
498.952;13267.450;  252.125;    0.000
499.087;13749.450;  251.125;    0.000
499.221;14254.450;  282.125;    0.000
499.356;14636.450;  264.125;    0.000
499.490;15283.450;  280.125;    0.000
499.625;15622.450;  256.125;    0.000
499.759;16315.450;  253.125;    0.000
499.894;16908.449;  261.125;    0.000
500.028;17721.449;  304.125;    0.000
500.162;17918.449;  272.125;    0.000
500.297;18296.449;  274.125;    0.000
500.431;18538.449;  320.125;    0.000
500.566;18499.449;  268.125;    0.000
500.700;18445.449;  280.125;    0.000
500.835;17654.449;  288.125;    0.000
500.969;17029.449;  253.125;    0.000
501.103;16588.449;  234.125;    0.000
501.238;16046.450;  302.125;    0.000
501.372;15225.450;  292.125;    0.000
501.506;14696.450;  222.125;    0.000
501.641;14131.450;  274.125;    0.000
501.775;13653.450;  245.125;    0.000
501.909;13060.450;  283.125;    0.000
502.043;12987.450;  252.125;    0.000
502.178;12615.450;  293.125;    0.000
502.312;12110.450;  223.125;    0.000
502.446;11947.450;  292.125;    0.000
502.580;11705.450;  253.125;    0.000
502.715;11546.450;  282.125;    0.000
502.849;11414.450;  258.125;    0.000
502.983;11198.450;  267.125;    0.000
503.117;11176.450;  226.125;    0.000
503.251;10857.450;  260.125;    0.000
503.385;10678.450;  291.125;    0.000
503.520;10460.450;  279.125;    0.000
503.654;10364.450;  229.125;    0.000
503.788;10397.450;  259.125;    0.000
503.922;10159.450;  246.125;    0.000
504.056;10252.450;  269.125;    0.000
504.190;10201.450;  265.125;    0.000
504.324;10101.450;  298.125;    0.000
504.458;10085.450;  235.125;    0.000
504.592; 9896.450;  275.125;    0.000
504.726; 9925.450;  226.125;    0.000
504.860; 9561.450;  298.125;    0.000
504.994; 9445.450;  253.125;    0.000
505.128; 9399.450;  283.125;    0.000
505.262; 9211.450;  255.125;    0.000
505.396; 8941.450;  219.125;    0.000
505.530; 8763.450;  279.125;    0.000
505.664; 8645.450;  306.125;    0.000
505.798; 8792.450;  297.125;    0.000
505.932; 8570.450;  273.125;    0.000
506.066; 8495.450;  271.125;    0.000
506.199; 8354.450;  273.125;    0.000
506.333; 8369.450;  227.125;    0.000
506.467; 8185.450;  302.125;    0.000
506.601; 8164.450;  254.125;    0.000
506.735; 8126.450;  299.125;    0.000
506.869; 8022.450;  278.125;    0.000
507.002; 7997.450;  259.125;    0.000
507.136; 8077.450;  285.125;    0.000
507.270; 7823.450;  255.125;    0.000
507.404; 8076.450;  273.125;    0.000
507.537; 7800.450;  245.125;    0.000
507.671; 7937.450;  251.125;    0.000
507.805; 7645.450;  286.125;    0.000
507.939; 7764.450;  261.125;    0.000
508.072; 7667.450;  298.125;    0.000
508.206; 7631.450;  238.125;    0.000
508.340; 7609.450;  289.125;    0.000
508.473; 7661.450;  255.125;    0.000
508.607; 7579.450;  266.125;    0.000
508.740; 7508.450;  253.125;    0.000
508.874; 7580.450;  233.125;    0.000
509.008; 7495.450;  274.125;    0.000
509.141; 7403.450;  235.125;    0.000
509.275; 7446.450;  225.125;    0.000
509.408; 7415.450;  254.125;    0.000
509.542; 7375.450;  244.125;    0.000
509.675; 7346.450;  263.125;    0.000
509.809; 7370.450;  271.125;    0.000
509.942; 7396.450;  246.125;    0.000
510.076; 7182.450;  221.125;    0.000
510.209; 7248.450;  270.125;    0.000
510.343; 7336.450;  265.125;    0.000
510.476; 7308.450;  291.125;    0.000
510.610; 7143.450;  251.125;    0.000
510.743; 7208.450;  304.125;    0.000
510.877; 7117.450;  259.125;    0.000
511.010; 7039.450;  274.125;    0.000
511.143; 7015.450;  255.125;    0.000
511.277; 7132.450;  267.125;    0.000
511.410; 7167.450;  270.125;    0.000
511.543; 7049.450;  231.125;    0.000
511.677; 6964.450;  275.125;    0.000
511.810; 7048.450;  265.125;    0.000
511.943; 7165.450;  231.125;    0.000
512.077; 7006.450;  225.125;    0.000
512.210; 6967.450;  235.125;    0.000
512.343; 7033.450;  251.125;    0.000
512.476; 7085.450;  260.125;    0.000
512.610; 6889.450;  289.125;    0.000
512.743; 7100.450;  270.125;    0.000
512.876; 7118.450;  289.125;    0.000
513.009; 7001.450;  293.125;    0.000
513.142; 7071.450;  282.125;    0.000
513.276; 7077.450;  244.125;    0.000
513.409; 7027.450;  277.125;    0.000
513.542; 7002.450;  254.125;    0.000
513.675; 7009.450;  258.125;    0.000
513.808; 7068.450;  243.125;    0.000
513.941; 6997.450;  274.125;    0.000
514.074; 6978.450;  296.125;    0.000
514.207; 7132.450;  267.125;    0.000
514.340; 6981.450;  283.125;    0.000
514.474; 6995.450;  255.125;    0.000
514.607; 6989.450;  291.125;    0.000
514.740; 7038.450;  296.125;    0.000
514.873; 7077.450;  275.125;    0.000
515.006; 7259.450;  313.125;    0.000
515.139; 7146.450;  253.125;    0.000
515.272; 7177.450;  263.125;    0.000
515.404; 7274.450;  258.125;    0.000
515.537; 7475.450;  285.125;    0.000
515.670; 7464.450;  286.125;    0.000
515.803; 7350.450;  266.125;    0.000
515.936; 7553.450;  251.125;    0.000
516.069; 7430.450;  231.125;    0.000
516.202; 7738.450;  278.125;    0.000
516.335; 7851.450;  295.125;    0.000
516.468; 8176.450;  239.125;    0.000
516.600; 9413.450;  229.125;    0.000
516.733;10882.450;  301.125;    0.000
516.866;10910.450;  287.125;    0.000
516.999;10258.450;  265.125;    0.000
517.132;12333.450;  291.125;    0.000
517.264;16073.450;  262.125;    0.000
517.397;15764.450;  292.125;    0.000
517.530;12520.450;  299.125;    0.000
517.663;11034.450;  268.125;    0.000
517.795;10391.450;  323.125;    0.000
517.928;10023.450;  281.125;    0.000
518.061;10049.450;  242.125;    0.000
518.193;12245.450;  279.125;    0.000
518.326;18088.449;  288.125;    0.000
518.459;19108.449;  251.125;    0.000
518.591;14780.450;  314.125;    0.000
518.724;11741.450;  279.125;    0.000
518.857;10387.450;  245.125;    0.000
518.989; 9567.450;  290.125;    0.000
519.122; 9037.450;  319.125;    0.000
519.254; 8783.450;  295.125;    0.000
519.387; 8307.450;  271.125;    0.000
519.519; 8066.450;  312.125;    0.000
519.652; 7864.450;  289.125;    0.000
519.784; 7759.450;  311.125;    0.000
519.917; 7514.450;  283.125;    0.000
520.049; 7490.450;  281.125;    0.000
520.182; 7466.450;  242.125;    0.000
520.314; 7387.450;  310.125;    0.000
520.447; 7192.450;  215.125;    0.000
520.579; 7174.450;  277.125;    0.000
520.712; 7054.450;  224.125;    0.000
520.844; 6950.450;  293.125;    0.000
520.976; 6986.450;  281.125;    0.000
521.109; 6863.450;  279.125;    0.000
521.241; 6854.450;  318.125;    0.000
521.373; 6752.450;  242.125;    0.000
521.506; 6676.450;  246.125;    0.000
521.638; 6640.450;  312.125;    0.000
521.770; 6490.450;  257.125;    0.000
521.903; 6570.450;  295.125;    0.000
522.035; 6481.450;  283.125;    0.000
522.167; 6601.450;  281.125;    0.000
522.300; 6393.450;  262.125;    0.000
522.432; 6350.450;  272.125;    0.000
522.564; 6318.450;  277.125;    0.000
522.696; 6233.450;  295.125;    0.000
522.828; 6221.450;  284.125;    0.000
522.961; 6211.450;  295.125;    0.000
523.093; 6240.450;  282.125;    0.000
523.225; 6168.450;  270.125;    0.000
523.357; 6147.450;  285.125;    0.000
523.489; 6017.450;  292.125;    0.000
523.621; 6132.450;  285.125;    0.000
523.753; 6047.450;  273.125;    0.000
523.885; 6017.450;  271.125;    0.000
524.018; 5948.450;  276.125;    0.000
524.150; 5957.450;  320.125;    0.000
524.282; 6079.450;  304.125;    0.000
524.414; 6046.450;  302.125;    0.000
524.546; 5979.450;  305.125;    0.000
524.678; 6023.450;  264.125;    0.000
524.810; 5899.450;  258.125;    0.000
524.942; 5868.450;  252.125;    0.000
525.074; 5818.450;  275.125;    0.000
525.206; 5798.450;  286.125;    0.000
525.338; 5842.450;  280.125;    0.000
525.469; 5806.450;  267.125;    0.000
525.601; 5721.450;  266.125;    0.000
525.733; 5710.450;  283.125;    0.000
525.865; 5760.450;  273.125;    0.000
525.997; 5760.450;  286.125;    0.000
526.129; 5716.450;  249.125;    0.000
526.261; 5685.450;  233.125;    0.000
526.393; 5772.450;  257.125;    0.000
526.524; 5681.450;  184.125;    0.000
526.656; 5509.450;  259.125;    0.000
526.788; 5717.450;  268.125;    0.000
526.920; 5597.450;  262.125;    0.000
527.052; 5615.450;  250.125;    0.000
527.183; 5635.450;  264.125;    0.000
527.315; 5579.450;  301.125;    0.000
527.447; 5635.450;  262.125;    0.000
527.578; 5653.450;  267.125;    0.000
527.710; 5708.450;  299.125;    0.000
527.842; 5542.450;  266.125;    0.000
527.973; 5520.450;  240.125;    0.000
528.105; 5504.450;  275.125;    0.000
528.237; 5587.450;  239.125;    0.000
528.368; 5481.450;  275.125;    0.000
528.500; 5574.450;  271.125;    0.000
528.632; 5669.450;  252.125;    0.000
528.763; 5535.450;  253.125;    0.000
528.895; 5572.450;  259.125;    0.000
529.026; 5511.450;  209.125;    0.000
529.158; 5476.450;  291.125;    0.000
529.289; 5613.450;  280.125;    0.000
529.421; 5552.450;  274.125;    0.000
529.552; 5461.450;  253.125;    0.000
529.684; 5452.450;  310.125;    0.000
529.815; 5625.450;  305.125;    0.000
529.947; 5567.450;  234.125;    0.000
530.078; 5539.450;  259.125;    0.000
530.210; 5555.450;  264.125;    0.000
530.341; 5505.450;  267.125;    0.000
530.472; 5591.450;  232.125;    0.000
530.604; 5414.450;  293.125;    0.000
530.735; 5576.450;  275.125;    0.000
530.867; 5544.450;  280.125;    0.000
530.998; 5577.450;  295.125;    0.000
531.129; 5756.450;  274.125;    0.000
531.260; 5568.450;  272.125;    0.000
531.392; 5611.450;  275.125;    0.000
531.523; 5643.450;  244.125;    0.000
531.654; 5635.450;  289.125;    0.000
531.786; 5695.450;  259.125;    0.000
531.917; 5843.450;  286.125;    0.000
532.048; 5762.450;  293.125;    0.000
532.179; 5652.450;  288.125;    0.000
532.311; 5630.450;  296.125;    0.000
532.442; 5672.450;  277.125;    0.000
532.573; 5584.450;  273.125;    0.000
532.704; 5556.450;  308.125;    0.000
532.835; 5607.450;  308.125;    0.000
532.966; 5634.450;  274.125;    0.000
533.097; 5503.450;  310.125;    0.000
533.229; 5535.450;  294.125;    0.000
533.360; 5581.450;  324.125;    0.000
533.491; 5564.450;  278.125;    0.000
533.622; 5512.450;  319.125;    0.000
533.753; 5510.450;  303.125;    0.000
533.884; 5634.450;  269.125;    0.000
534.015; 5645.450;  266.125;    0.000
534.146; 5573.450;  283.125;    0.000
534.277; 5671.450;  299.125;    0.000
534.408; 5546.450;  265.125;    0.000
534.539; 5722.450;  310.125;    0.000
534.670; 5609.450;  319.125;    0.000
534.801; 5561.450;  281.125;    0.000
534.932; 5512.450;  239.125;    0.000
535.063; 5570.450;  276.125;    0.000
535.194; 5448.450;  361.125;    0.000
535.324; 5415.450;  283.125;    0.000
535.455; 5405.450;  282.125;    0.000
535.586; 5531.450;  331.125;    0.000
535.717; 5406.450;  262.125;    0.000
535.848; 5471.450;  308.125;    0.000
535.979; 5422.450;  273.125;    0.000
536.109; 5405.450;  277.125;    0.000
536.240; 5370.450;  293.125;    0.000
536.371; 5498.450;  295.125;    0.000
536.502; 5362.450;  330.125;    0.000
536.632; 5306.450;  280.125;    0.000
536.763; 5427.450;  332.125;    0.000
536.894; 5432.450;  334.125;    0.000
537.025; 5218.450;  295.125;    0.000
537.155; 5320.450;  321.125;    0.000
537.286; 5322.450;  292.125;    0.000
537.417; 5382.450;  314.125;    0.000
537.547; 5267.450;  287.125;    0.000
537.678; 5310.450;  287.125;    0.000
537.808; 5379.450;  278.125;    0.000
537.939; 5326.450;  304.125;    0.000
538.070; 5248.450;  303.125;    0.000
538.200; 5282.450;  279.125;    0.000
538.331; 5202.450;  321.125;    0.000
538.461; 5198.450;  313.125;    0.000
538.592; 5424.450;  290.125;    0.000
538.722; 5203.450;  285.125;    0.000
538.853; 5316.450;  261.125;    0.000
538.983; 5246.450;  280.125;    0.000
539.114; 5352.450;  310.125;    0.000
539.244; 5301.450;  281.125;    0.000
539.375; 5242.450;  292.125;    0.000
539.505; 5221.450;  286.125;    0.000
539.636; 5328.450;  276.125;    0.000
539.766; 5135.450;  287.125;    0.000
539.896; 5109.450;  292.125;    0.000
540.027; 5334.450;  262.125;    0.000
540.157; 5275.450;  269.125;    0.000
540.287; 5245.450;  282.125;    0.000
540.418; 5330.450;  269.125;    0.000
540.548; 5325.450;  328.125;    0.000
540.678; 5304.450;  271.125;    0.000
540.809; 5368.450;  272.125;    0.000
540.939; 5379.450;  299.125;    0.000
541.069; 5400.450;  266.125;    0.000
541.200; 5289.450;  242.125;    0.000
541.330; 5347.450;  257.125;    0.000
541.460; 5295.450;  270.125;    0.000
541.590; 5280.450;  287.125;    0.000
541.720; 5263.450;  255.125;    0.000
541.851; 5327.450;  273.125;    0.000
541.981; 5458.450;  244.125;    0.000
542.111; 5360.450;  263.125;    0.000
542.241; 5401.450;  271.125;    0.000
542.371; 5416.450;  263.125;    0.000
542.501; 5512.450;  274.125;    0.000
542.631; 5532.450;  288.125;    0.000
542.761; 5605.450;  261.125;    0.000
542.891; 5647.450;  253.125;    0.000
543.021; 5605.450;  249.125;    0.000
543.151; 5541.450;  261.125;    0.000
543.281; 5593.450;  256.125;    0.000
543.411; 5571.450;  290.125;    0.000
543.542; 5548.450;  278.125;    0.000
543.671; 5627.450;  238.125;    0.000
543.801; 5447.450;  256.125;    0.000
543.931; 5589.450;  254.125;    0.000
544.061; 5428.450;  237.125;    0.000
544.191; 5589.450;  245.125;    0.000
544.321; 5638.450;  267.125;    0.000
544.451; 5712.450;  262.125;    0.000
544.581; 5597.450;  221.125;    0.000
544.711; 5669.450;  252.125;    0.000
544.841; 5655.450;  264.125;    0.000
544.970; 5718.450;  315.125;    0.000
545.100; 5763.450;  245.125;    0.000
545.230; 5875.450;  276.125;    0.000
545.360; 5837.450;  278.125;    0.000
545.490; 5844.450;  268.125;    0.000
545.619; 5796.450;  237.125;    0.000
545.749; 5618.450;  228.125;    0.000
545.879; 5696.450;  234.125;    0.000
546.009; 5641.450;  287.125;    0.000
546.138; 5523.450;  222.125;    0.000
546.268; 5583.450;  228.125;    0.000
546.398; 5516.450;  244.125;    0.000
546.527; 5647.450;  233.125;    0.000
546.657; 5537.450;  189.125;    0.000
546.786; 5716.450;  247.125;    0.000
546.916; 5606.450;  244.125;    0.000
547.046; 5683.450;  214.125;    0.000
547.175; 5594.450;  242.125;    0.000
547.305; 5585.450;  252.125;    0.000
547.434; 5569.450;  191.125;    0.000
547.564; 5514.450;  208.125;    0.000
547.693; 5518.450;  213.125;    0.000
547.823; 5626.450;  209.125;    0.000
547.953; 5659.450;  250.125;    0.000
548.082; 5489.450;  231.125;    0.000
548.211; 5606.450;  226.125;    0.000
548.341; 5618.450;  254.125;    0.000
548.470; 5578.450;  266.125;    0.000
548.600; 5538.450;  229.125;    0.000
548.729; 5569.450;  225.125;    0.000
548.859; 5648.450;  185.125;    0.000
548.988; 5548.450;  225.125;    0.000
549.117; 5706.450;  241.125;    0.000
549.247; 5640.450;  236.125;    0.000
549.376; 5581.450;  220.125;    0.000
549.505; 5811.450;  254.125;    0.000
549.635; 5825.450;  268.125;    0.000
549.764; 5556.450;  194.125;    0.000
549.893; 5747.450;  232.125;    0.000
550.023; 5763.450;  222.125;    0.000
550.152; 5610.450;  223.125;    0.000
550.281; 5603.450;  210.125;    0.000
550.410; 5693.450;  197.125;    0.000
550.539; 5830.450;  222.125;    0.000
550.669; 5738.450;  245.125;    0.000
550.798; 5788.450;  265.125;    0.000
550.927; 5670.450;  249.125;    0.000
551.056; 5641.450;  184.125;    0.000
551.185; 5800.450;  247.125;    0.000
551.314; 5786.450;  258.125;    0.000
551.443; 5753.450;  224.125;    0.000
551.573; 5786.450;  204.125;    0.000
551.702; 5831.450;  220.125;    0.000
551.831; 5815.450;  287.125;    0.000
551.960; 5726.450;  259.125;    0.000
552.089; 5901.450;  222.125;    0.000
552.218; 5968.450;  254.125;    0.000
552.347; 5952.450;  260.125;    0.000
552.476; 6104.450;  251.125;    0.000
552.605; 6144.450;  229.125;    0.000
552.734; 6197.450;  261.125;    0.000
552.863; 6363.450;  225.125;    0.000
552.992; 6411.450;  202.125;    0.000
553.121; 6237.450;  193.125;    0.000
553.249; 6131.450;  224.125;    0.000
553.378; 6205.450;  274.125;    0.000
553.507; 6232.450;  248.125;    0.000
553.636; 6092.450;  203.125;    0.000
553.765; 6049.450;  224.125;    0.000
553.894; 5990.450;  246.125;    0.000
554.023; 5993.450;  229.125;    0.000
554.151; 5929.450;  216.125;    0.000
554.280; 5889.450;  223.125;    0.000
554.409; 5939.450;  240.125;    0.000
554.538; 5884.450;  277.125;    0.000
554.666; 5887.450;  244.125;    0.000
554.795; 5797.450;  240.125;    0.000
554.924; 5783.450;  257.125;    0.000
555.052; 5870.450;  266.125;    0.000
555.181; 5839.450;  244.125;    0.000
555.310; 5764.450;  262.125;    0.000
555.439; 5709.450;  260.125;    0.000
555.567; 5700.450;  234.125;    0.000
555.696; 5726.450;  237.125;    0.000
555.824; 5598.450;  232.125;    0.000
555.953; 5533.450;  279.125;    0.000
556.082; 5465.450;  234.125;    0.000
556.210; 5607.450;  235.125;    0.000
556.339; 5628.450;  198.125;    0.000
556.467; 5590.450;  216.125;    0.000
556.596; 5669.450;  273.125;    0.000
556.724; 5615.450;  245.125;    0.000
556.853; 5548.450;  241.125;    0.000
556.981; 5509.450;  219.125;    0.000
557.110; 5542.450;  242.125;    0.000
557.238; 5415.450;  202.125;    0.000
557.367; 5508.450;  254.125;    0.000
557.495; 5547.450;  260.125;    0.000
557.623; 5419.450;  207.125;    0.000
557.752; 5422.450;  219.125;    0.000
557.880; 5392.450;  209.125;    0.000
558.008; 5491.450;  243.125;    0.000
558.137; 5386.450;  244.125;    0.000
558.265; 5430.450;  221.125;    0.000
558.393; 5438.450;  297.125;    0.000
558.522; 5483.450;  232.125;    0.000
558.650; 5558.450;  299.125;    0.000
558.778; 5408.450;  210.125;    0.000
558.906; 5394.450;  240.125;    0.000
559.035; 5484.450;  252.125;    0.000
559.163; 5380.450;  246.125;    0.000
559.291; 5510.450;  213.125;    0.000
559.419; 5479.450;  221.125;    0.000
559.548; 5434.450;  208.125;    0.000
559.676; 5423.450;  254.125;    0.000
559.804; 5561.450;  213.125;    0.000
559.932; 5424.450;  208.125;    0.000
560.060; 5518.450;  276.125;    0.000
560.188; 5680.450;  278.125;    0.000
560.316; 5708.450;  217.125;    0.000
560.444; 5593.450;  254.125;    0.000
560.572; 5703.450;  226.125;    0.000
560.700; 5754.450;  282.125;    0.000
560.828; 5765.450;  211.125;    0.000
560.956; 5713.450;  264.125;    0.000
561.085; 5663.450;  295.125;    0.000
561.212; 5676.450;  229.125;    0.000
561.340; 5656.450;  259.125;    0.000
561.468; 5741.450;  253.125;    0.000
561.596; 5743.450;  240.125;    0.000
561.724; 5712.450;  259.125;    0.000
561.852; 5739.450;  224.125;    0.000
561.980; 5701.450;  251.125;    0.000
562.108; 5813.450;  214.125;    0.000
562.236; 5834.450;  258.125;    0.000
562.364; 5903.450;  237.125;    0.000
562.492; 5936.450;  228.125;    0.000
562.619; 5759.450;  223.125;    0.000
562.747; 5999.450;  263.125;    0.000
562.875; 5892.450;  257.125;    0.000
563.003; 5908.450;  216.125;    0.000
563.130; 6033.450;  190.125;    0.000
563.258; 5902.450;  225.125;    0.000
563.386; 5954.450;  259.125;    0.000
563.514; 6103.450;  264.125;    0.000
563.641; 6065.450;  230.125;    0.000
563.769; 6251.450;  257.125;    0.000
563.897; 6444.450;  210.125;    0.000
564.024; 6492.450;  221.125;    0.000
564.152; 6604.450;  256.125;    0.000
564.280; 6587.450;  225.125;    0.000
564.407; 6510.450;  262.125;    0.000
564.535; 6557.450;  235.125;    0.000
564.662; 6599.450;  238.125;    0.000
564.790; 6847.450;  248.125;    0.000
564.917; 6848.450;  214.125;    0.000
565.045; 6928.450;  253.125;    0.000
565.173; 6903.450;  225.125;    0.000
565.300; 6908.450;  261.125;    0.000
565.428; 6964.450;  218.125;    0.000
565.555; 6985.450;  245.125;    0.000
565.682; 7137.450;  242.125;    0.000
565.810; 7342.450;  228.125;    0.000
565.937; 7515.450;  230.125;    0.000
566.065; 7791.450;  251.125;    0.000
566.192; 7811.450;  196.125;    0.000
566.320; 8035.450;  217.125;    0.000
566.447; 8366.450;  224.125;    0.000
566.574; 8288.450;  221.125;    0.000
566.702; 8386.450;  221.125;    0.000
566.829; 8528.450;  252.125;    0.000
566.956; 8702.450;  214.125;    0.000
567.083; 8734.450;  204.125;    0.000
567.211; 8703.450;  216.125;    0.000
567.338; 8780.450;  228.125;    0.000
567.465; 8973.450;  208.125;    0.000
567.593; 9232.450;  205.125;    0.000
567.720; 9104.450;  194.125;    0.000
567.847; 9126.450;  268.125;    0.000
567.974; 9109.450;  198.125;    0.000
568.101; 9097.450;  224.125;    0.000
568.228; 9629.450;  236.125;    0.000
568.356; 9547.450;  207.125;    0.000
568.483; 8768.450;  220.125;    0.000
568.610; 8695.450;  181.125;    0.000
568.737; 9215.450;  216.125;    0.000
568.864; 9887.450;  258.125;    0.000
568.991; 9240.450;  203.125;    0.000
569.118; 8381.450;  232.125;    0.000
569.245; 7888.450;  192.125;    0.000
569.372; 7462.450;  226.125;    0.000
569.499; 7544.450;  211.125;    0.000
569.626; 7307.450;  247.125;    0.000
569.753; 7111.450;  248.125;    0.000
569.880; 6925.450;  226.125;    0.000
570.007; 7026.450;  215.125;    0.000
570.134; 6791.450;  205.125;    0.000
570.261; 6858.450;  187.125;    0.000
570.388; 6798.450;  258.125;    0.000
570.515; 6545.450;  241.125;    0.000
570.642; 6774.450;  211.125;    0.000
570.768; 6640.450;  228.125;    0.000
570.895; 6564.450;  229.125;    0.000
571.022; 6570.450;  203.125;    0.000
571.149; 6503.450;  206.125;    0.000
571.276; 6368.450;  191.125;    0.000
571.402; 6211.450;  218.125;    0.000
571.529; 6297.450;  192.125;    0.000
571.656; 6222.450;  209.125;    0.000
571.783; 6226.450;  181.125;    0.000
571.909; 6143.450;  251.125;    0.000
572.036; 6038.450;  225.125;    0.000
572.163; 6179.450;  214.125;    0.000
572.289; 5924.450;  252.125;    0.000
572.416; 5934.450;  220.125;    0.000
572.543; 5928.450;  225.125;    0.000
572.669; 5944.450;  226.125;    0.000
572.796; 5796.450;  231.125;    0.000
572.922; 5861.450;  258.125;    0.000
573.049; 5766.450;  202.125;    0.000
573.176; 5789.450;  254.125;    0.000
573.302; 5699.450;  215.125;    0.000
573.429; 5793.450;  251.125;    0.000
573.555; 5763.450;  221.125;    0.000
573.682; 5772.450;  227.125;    0.000
573.808; 5677.450;  259.125;    0.000
573.935; 5614.450;  233.125;    0.000
574.061; 5717.450;  241.125;    0.000
574.188; 5776.450;  238.125;    0.000
574.314; 5795.450;  221.125;    0.000
574.440; 5739.450;  221.125;    0.000
574.567; 5660.450;  216.125;    0.000
574.693; 5707.450;  224.125;    0.000
574.820; 5681.450;  199.125;    0.000
574.946; 5640.450;  248.125;    0.000
575.072; 5646.450;  220.125;    0.000
575.198; 5697.450;  262.125;    0.000
575.325; 5622.450;  232.125;    0.000
575.451; 5725.450;  225.125;    0.000
575.577; 5651.450;  216.125;    0.000
575.704; 5700.450;  248.125;    0.000
575.830; 5611.450;  227.125;    0.000
575.956; 5612.450;  206.125;    0.000
576.082; 5655.450;  222.125;    0.000
576.208; 5574.450;  206.125;    0.000
576.335; 5539.450;  256.125;    0.000
576.461; 5502.450;  247.125;    0.000
576.587; 5573.450;  219.125;    0.000
576.713; 5480.450;  215.125;    0.000
576.839; 5624.450;  225.125;    0.000
576.965; 5580.450;  230.125;    0.000
577.091; 5440.450;  235.125;    0.000
577.217; 5503.450;  235.125;    0.000
577.343; 5529.450;  233.125;    0.000
577.469; 5473.450;  242.125;    0.000
577.596; 5487.450;  241.125;    0.000
577.722; 5557.450;  255.125;    0.000
577.848; 5424.450;  235.125;    0.000
577.974; 5405.450;  210.125;    0.000
578.099; 5423.450;  239.125;    0.000
578.225; 5470.450;  258.125;    0.000
578.351; 5499.450;  209.125;    0.000
578.477; 5487.450;  255.125;    0.000
578.603; 5395.450;  213.125;    0.000
578.729; 5526.450;  221.125;    0.000
578.855; 5446.450;  209.125;    0.000
578.981; 5484.450;  206.125;    0.000
579.107; 5466.450;  221.125;    0.000
579.232; 5596.450;  206.125;    0.000
579.358; 5474.450;  226.125;    0.000
579.484; 5434.450;  244.125;    0.000
579.610; 5499.450;  261.125;    0.000
579.735; 5452.450;  270.125;    0.000
579.861; 5477.450;  255.125;    0.000
579.987; 5542.450;  249.125;    0.000
580.113; 5644.450;  260.125;    0.000
580.238; 5524.450;  206.125;    0.000
580.364; 5441.450;  249.125;    0.000
580.490; 5513.450;  225.125;    0.000
580.615; 5600.450;  266.125;    0.000
580.741; 5515.450;  224.125;    0.000
580.867; 5503.450;  251.125;    0.000
580.992; 5599.450;  270.125;    0.000
581.118; 5727.450;  248.125;    0.000
581.243; 5405.450;  251.125;    0.000
581.369; 5612.450;  192.125;    0.000
581.494; 5632.450;  259.125;    0.000
581.620; 5692.450;  245.125;    0.000
581.745; 5570.450;  232.125;    0.000
581.871; 5513.450;  243.125;    0.000
581.996; 5715.450;  216.125;    0.000
582.122; 5723.450;  263.125;    0.000
582.247; 5609.450;  254.125;    0.000
582.373; 5738.450;  232.125;    0.000
582.498; 5727.450;  275.125;    0.000
582.624; 5754.450;  260.125;    0.000
582.749; 5652.450;  251.125;    0.000
582.874; 5729.450;  245.125;    0.000
583.000; 5788.450;  278.125;    0.000
583.125; 5714.450;  211.125;    0.000
583.250; 5768.450;  246.125;    0.000
583.376; 6009.450;  259.125;    0.000
583.501; 5831.450;  254.125;    0.000
583.626; 5903.450;  209.125;    0.000
583.751; 5970.450;  239.125;    0.000
583.877; 5857.450;  255.125;    0.000
584.002; 6031.450;  263.125;    0.000
584.127; 6062.450;  205.125;    0.000
584.252; 5978.450;  196.125;    0.000
584.377; 6176.450;  249.125;    0.000
584.503; 6083.450;  219.125;    0.000
584.628; 6224.450;  243.125;    0.000
584.753; 6274.450;  250.125;    0.000
584.878; 6196.450;  208.125;    0.000
585.003; 6461.450;  234.125;    0.000
585.128; 6532.450;  207.125;    0.000
585.253; 6517.450;  219.125;    0.000
585.378; 6586.450;  205.125;    0.000
585.503; 6679.450;  256.125;    0.000
585.628; 6651.450;  217.125;    0.000
585.753; 6775.450;  213.125;    0.000
585.878; 6743.450;  147.125;    0.000
586.003; 6960.450;  256.125;    0.000
586.128; 7012.450;  214.125;    0.000
586.253; 7152.450;  254.125;    0.000
586.378; 7430.450;  252.125;    0.000
586.503; 7454.450;  219.125;    0.000
586.628; 7471.450;  226.125;    0.000
586.753; 7801.450;  237.125;    0.000
586.878; 7953.450;  185.125;    0.000
587.003; 8238.450;  248.125;    0.000
587.127; 8586.450;  237.125;    0.000
587.252; 8688.450;  221.125;    0.000
587.377; 9299.450;  244.125;    0.000
587.502; 9503.450;  260.125;    0.000
587.627; 9998.450;  232.125;    0.000
587.751;10564.450;  250.125;    0.000
587.876;11239.450;  234.125;    0.000
588.001;12036.450;  248.125;    0.000
588.125;13010.450;  236.125;    0.000
588.250;14842.450;  192.125;    0.000
588.375;16787.449;  265.125;    0.000
588.499;19688.449;  235.125;    0.000
588.624;24041.449;  212.125;    0.000
588.749;31842.449;  214.125;    0.000
588.873;45702.449;  236.125;    0.000
588.998;59006.449;  230.125;    0.000
589.122;56139.449;  231.125;    0.000
589.247;44803.449;  250.125;    0.000
589.372;39210.449;  247.125;    0.000
589.496;46002.449;  230.125;    0.000
589.621;52654.449;  237.125;    0.000
589.745;45380.449;  277.125;    0.000
589.870;32974.449;  283.125;    0.000
589.994;25668.449;  263.125;    0.000
590.118;20996.449;  239.125;    0.000
590.243;18128.449;  218.125;    0.000
590.367;16047.450;  226.125;    0.000
590.492;14638.450;  269.125;    0.000
590.616;13381.450;  205.125;    0.000
590.740;12235.450;  243.125;    0.000
590.865;11787.450;  281.125;    0.000
590.989;10928.450;  233.125;    0.000
591.114;10498.450;  222.125;    0.000
591.238;10075.450;  204.125;    0.000
591.362; 9830.450;  283.125;    0.000
591.486; 9448.450;  236.125;    0.000
591.611; 9291.450;  228.125;    0.000
591.735; 8946.450;  249.125;    0.000
591.859; 8812.450;  202.125;    0.000
591.983; 8768.450;  257.125;    0.000
592.107; 8549.450;  230.125;    0.000
592.232; 8424.450;  266.125;    0.000
592.356; 8296.450;  232.125;    0.000
592.480; 8143.450;  245.125;    0.000
592.604; 8185.450;  254.125;    0.000
592.728; 7999.450;  233.125;    0.000
592.852; 8033.450;  213.125;    0.000
592.976; 8019.450;  234.125;    0.000
593.100; 7858.450;  246.125;    0.000
593.224; 7959.450;  305.125;    0.000
593.349; 7852.450;  240.125;    0.000
593.473; 7629.450;  206.125;    0.000
593.597; 7656.450;  243.125;    0.000
593.721; 7596.450;  247.125;    0.000
593.844; 7552.450;  230.125;    0.000
593.968; 7585.450;  226.125;    0.000
594.092; 7387.450;  193.125;    0.000
594.216; 7263.450;  237.125;    0.000
594.340; 7345.450;  235.125;    0.000
594.464; 7157.450;  225.125;    0.000
594.588; 7197.450;  269.125;    0.000
594.712; 6978.450;  242.125;    0.000
594.836; 6886.450;  240.125;    0.000
594.959; 6825.450;  255.125;    0.000
595.083; 6653.450;  258.125;    0.000
595.207; 6635.450;  264.125;    0.000
595.331; 6484.450;  215.125;    0.000
595.455; 6542.450;  234.125;    0.000
595.578; 6411.450;  215.125;    0.000
595.702; 6295.450;  259.125;    0.000
595.826; 6188.450;  232.125;    0.000
595.949; 6115.450;  251.125;    0.000
596.073; 6186.450;  197.125;    0.000
596.197; 6126.450;  239.125;    0.000
596.320; 6010.450;  229.125;    0.000
596.444; 5953.450;  264.125;    0.000
596.568; 5888.450;  207.125;    0.000
596.691; 5688.450;  234.125;    0.000
596.815; 5830.450;  241.125;    0.000
596.938; 5866.450;  244.125;    0.000
597.062; 5773.450;  210.125;    0.000
597.186; 5819.450;  247.125;    0.000
597.309; 5639.450;  215.125;    0.000
597.433; 5666.450;  266.125;    0.000
597.556; 5574.450;  234.125;    0.000
597.680; 5665.450;  261.125;    0.000
597.803; 5658.450;  239.125;    0.000
597.926; 5400.450;  251.125;    0.000
598.050; 5540.450;  227.125;    0.000
598.173; 5482.450;  247.125;    0.000
598.297; 5477.450;  244.125;    0.000
598.420; 5466.450;  243.125;    0.000
598.543; 5479.450;  237.125;    0.000
598.667; 5429.450;  239.125;    0.000
598.790; 5356.450;  217.125;    0.000
598.913; 5407.450;  244.125;    0.000
599.037; 5328.450;  249.125;    0.000
599.160; 5414.450;  222.125;    0.000
599.283; 5391.450;  235.125;    0.000
599.406; 5339.450;  228.125;    0.000
599.530; 5362.450;  234.125;    0.000
599.653; 5159.450;  228.125;    0.000
599.776; 5300.450;  263.125;    0.000
599.899; 5292.450;  197.125;    0.000
600.022; 5228.450;  224.125;    0.000
600.145; 5214.450;  211.125;    0.000
600.269; 5288.450;  246.125;    0.000
600.392; 5227.450;  233.125;    0.000
600.515; 5193.450;  266.125;    0.000
600.638; 5055.450;  246.125;    0.000
600.761; 5104.450;  213.125;    0.000
600.884; 5157.450;  279.125;    0.000
601.007; 5124.450;  268.125;    0.000
601.130; 5115.450;  203.125;    0.000
601.253; 5104.450;  241.125;    0.000
601.376; 5221.450;  248.125;    0.000
601.499; 4983.450;  241.125;    0.000
601.622; 5261.450;  266.125;    0.000
601.745; 5064.450;  237.125;    0.000
601.868; 5107.450;  256.125;    0.000
601.991; 5169.450;  260.125;    0.000
602.113; 5054.450;  246.125;    0.000
602.236; 5125.450;  243.125;    0.000
602.359; 5037.450;  220.125;    0.000
602.482; 5006.450;  236.125;    0.000
602.605; 5095.450;  216.125;    0.000
602.728; 4978.450;  247.125;    0.000
602.850; 5023.450;  255.125;    0.000
602.973; 4989.450;  224.125;    0.000
603.096; 5006.450;  258.125;    0.000
603.219; 4946.450;  222.125;    0.000
603.341; 4930.450;  235.125;    0.000
603.464; 4858.450;  223.125;    0.000
603.587; 4977.450;  250.125;    0.000
603.709; 4946.450;  229.125;    0.000
603.832; 4970.450;  285.125;    0.000
603.955; 4980.450;  225.125;    0.000
604.077; 4944.450;  235.125;    0.000
604.200; 4901.450;  209.125;    0.000
604.323; 5008.450;  240.125;    0.000
604.445; 4876.450;  198.125;    0.000
604.568; 4961.450;  230.125;    0.000
604.690; 4941.450;  225.125;    0.000
604.813; 4875.450;  248.125;    0.000
604.935; 4927.450;  204.125;    0.000
605.058; 4917.450;  191.125;    0.000
605.180; 4961.450;  237.125;    0.000
605.303; 4831.450;  224.125;    0.000
605.425; 4950.450;  244.125;    0.000
605.547; 4968.450;  268.125;    0.000
605.670; 4887.450;  211.125;    0.000
605.792; 4889.450;  266.125;    0.000
605.915; 4840.450;  202.125;    0.000
606.037; 4922.450;  236.125;    0.000
606.159; 4901.450;  234.125;    0.000
606.282; 4886.450;  223.125;    0.000
606.404; 4869.450;  217.125;    0.000
606.526; 4865.450;  221.125;    0.000
606.648; 4788.450;  204.125;    0.000
606.771; 4903.450;  265.125;    0.000
606.893; 4746.450;  211.125;    0.000
607.015; 4801.450;  206.125;    0.000
607.137; 4741.450;  222.125;    0.000
607.260; 4781.450;  228.125;    0.000
607.382; 4844.450;  202.125;    0.000
607.504; 4818.450;  257.125;    0.000
607.626; 4899.450;  249.125;    0.000
607.748; 4817.450;  233.125;    0.000
607.870; 4759.450;  222.125;    0.000
607.992; 4793.450;  227.125;    0.000
608.114; 4802.450;  228.125;    0.000
608.237; 4868.450;  254.125;    0.000
608.359; 4625.450;  216.125;    0.000
608.481; 4738.450;  197.125;    0.000
608.603; 4801.450;  209.125;    0.000
608.725; 4776.450;  220.125;    0.000
608.847; 4769.450;  259.125;    0.000
608.969; 4819.450;  242.125;    0.000
609.090; 4734.450;  218.125;    0.000
609.212; 4645.450;  200.125;    0.000
609.334; 4759.450;  212.125;    0.000
609.456; 4787.450;  231.125;    0.000
609.578; 4678.450;  249.125;    0.000
609.700; 4712.450;  185.125;    0.000
609.822; 4595.450;  200.125;    0.000
609.944; 4850.450;  236.125;    0.000
610.065; 4760.450;  255.125;    0.000
610.187; 4710.450;  208.125;    0.000
610.309; 4707.450;  202.125;    0.000
610.431; 4848.450;  232.125;    0.000
610.552; 4700.450;  232.125;    0.000
610.674; 4667.450;  217.125;    0.000
610.796; 4718.450;  186.125;    0.000
610.918; 4674.450;  211.125;    0.000
611.039; 4681.450;  244.125;    0.000
611.161; 4769.450;  202.125;    0.000
611.282; 4672.450;  212.125;    0.000
611.404; 4692.450;  235.125;    0.000
611.526; 4738.450;  213.125;    0.000
611.647; 4759.450;  248.125;    0.000
611.769; 4683.450;  205.125;    0.000
611.890; 4797.450;  224.125;    0.000
612.012; 4729.450;  189.125;    0.000
612.133; 4788.450;  186.125;    0.000
612.255; 4678.450;  246.125;    0.000
612.377; 4626.450;  230.125;    0.000
612.498; 4729.450;  196.125;    0.000
612.619; 4641.450;  234.125;    0.000
612.741; 4573.450;  221.125;    0.000
612.862; 4612.450;  227.125;    0.000
612.984; 4768.450;  189.125;    0.000
613.105; 4693.450;  232.125;    0.000
613.226; 4691.450;  199.125;    0.000
613.348; 4681.450;  260.125;    0.000
613.469; 4787.450;  217.125;    0.000
613.590; 4639.450;  236.125;    0.000
613.712; 4651.450;  226.125;    0.000
613.833; 4638.450;  231.125;    0.000
613.954; 4691.450;  236.125;    0.000
614.076; 4604.450;  236.125;    0.000
614.197; 4750.450;  228.125;    0.000
614.318; 4590.450;  207.125;    0.000
614.439; 4598.450;  237.125;    0.000
614.560; 4674.450;  202.125;    0.000
614.682; 4651.450;  230.125;    0.000
614.803; 4606.450;  236.125;    0.000
614.924; 4662.450;  257.125;    0.000
615.045; 4698.450;  228.125;    0.000
615.166; 4764.450;  221.125;    0.000
615.287; 4870.450;  199.125;    0.000
615.408; 5030.450;  228.125;    0.000
615.529; 5048.450;  200.125;    0.000
615.650; 4828.450;  224.125;    0.000
615.771; 4897.450;  202.125;    0.000
615.892; 4822.450;  215.125;    0.000
616.013; 5200.450;  246.125;    0.000
616.134; 5467.450;  210.125;    0.000
616.255; 5181.450;  232.125;    0.000
616.376; 4879.450;  241.125;    0.000
616.497; 4836.450;  213.125;    0.000
616.618; 4753.450;  171.125;    0.000
616.739; 4826.450;  221.125;    0.000
616.860; 4649.450;  244.125;    0.000
616.981; 4744.450;  240.125;    0.000
617.102; 4807.450;  234.125;    0.000
617.222; 4757.450;  265.125;    0.000
617.343; 4808.450;  206.125;    0.000
617.464; 4729.450;  246.125;    0.000
617.585; 4661.450;  256.125;    0.000
617.705; 4748.450;  249.125;    0.000
617.826; 4559.450;  218.125;    0.000
617.947; 4781.450;  225.125;    0.000
618.068; 4705.450;  199.125;    0.000
618.188; 4669.450;  202.125;    0.000
618.309; 4759.450;  220.125;    0.000
618.430; 4630.450;  229.125;    0.000
618.550; 4599.450;  252.125;    0.000
618.671; 4657.450;  233.125;    0.000
618.791; 4687.450;  227.125;    0.000
618.912; 4590.450;  236.125;    0.000
619.033; 4642.450;  220.125;    0.000
619.153; 4626.450;  228.125;    0.000
619.274; 4613.450;  208.125;    0.000
619.394; 4580.450;  255.125;    0.000
619.515; 4584.450;  206.125;    0.000
619.635; 4484.450;  204.125;    0.000
619.756; 4636.450;  252.125;    0.000
619.876; 4593.450;  238.125;    0.000
619.996; 4629.450;  249.125;    0.000
620.117; 4583.450;  223.125;    0.000
620.237; 4609.450;  210.125;    0.000
620.358; 4681.450;  264.125;    0.000
620.478; 4487.450;  263.125;    0.000
620.598; 4545.450;  238.125;    0.000
620.719; 4532.450;  225.125;    0.000
620.839; 4575.450;  259.125;    0.000
620.959; 4483.450;  218.125;    0.000
621.079; 4518.450;  253.125;    0.000
621.200; 4515.450;  245.125;    0.000
621.320; 4631.450;  254.125;    0.000
621.440; 4492.450;  233.125;    0.000
621.560; 4412.450;  235.125;    0.000
621.681; 4394.450;  234.125;    0.000
621.801; 4420.450;  240.125;    0.000
621.921; 4470.450;  239.125;    0.000
622.041; 4475.450;  288.125;    0.000
622.161; 4451.450;  229.125;    0.000
622.281; 4492.450;  223.125;    0.000
622.401; 4477.450;  240.125;    0.000
622.521; 4532.450;  267.125;    0.000
622.641; 4432.450;  226.125;    0.000
622.761; 4410.450;  252.125;    0.000
622.882; 4469.450;  207.125;    0.000
623.002; 4445.450;  226.125;    0.000
623.121; 4401.450;  207.125;    0.000
623.241; 4433.450;  215.125;    0.000
623.361; 4376.450;  222.125;    0.000
623.481; 4329.450;  187.125;    0.000
623.601; 4451.450;  283.125;    0.000
623.721; 4427.450;  283.125;    0.000
623.841; 4505.450;  233.125;    0.000
623.961; 4413.450;  215.125;    0.000
624.081; 4363.450;  219.125;    0.000
624.201; 4366.450;  221.125;    0.000
624.320; 4296.450;  215.125;    0.000
624.440; 4389.450;  222.125;    0.000
624.560; 4411.450;  231.125;    0.000
624.680; 4324.450;  225.125;    0.000
624.799; 4262.450;  230.125;    0.000
624.919; 4347.450;  243.125;    0.000
625.039; 4359.450;  203.125;    0.000
625.159; 4282.450;  257.125;    0.000
625.278; 4277.450;  230.125;    0.000
625.398; 4350.450;  195.125;    0.000
625.518; 4308.450;  211.125;    0.000
625.637; 4360.450;  267.125;    0.000
625.757; 4318.450;  228.125;    0.000
625.876; 4297.450;  231.125;    0.000
625.996; 4296.450;  219.125;    0.000
626.115; 4301.450;  235.125;    0.000
626.235; 4363.450;  199.125;    0.000
626.354; 4378.450;  226.125;    0.000
626.474; 4261.450;  225.125;    0.000
626.594; 4331.450;  223.125;    0.000
626.713; 4289.450;  231.125;    0.000
626.832; 4434.450;  287.125;    0.000
626.952; 4284.450;  251.125;    0.000
627.071; 4311.450;  254.125;    0.000
627.191; 4192.450;  193.125;    0.000
627.310; 4353.450;  213.125;    0.000
627.429; 4334.450;  259.125;    0.000
627.549; 4297.450;  243.125;    0.000
627.668; 4142.450;  181.125;    0.000
627.787; 4329.450;  232.125;    0.000
627.907; 4243.450;  222.125;    0.000
628.026; 4236.450;  219.125;    0.000
628.145; 4187.450;  201.125;    0.000
628.264; 4176.450;  198.125;    0.000
628.384; 4293.450;  208.125;    0.000
628.503; 4220.450;  251.125;    0.000
628.622; 4241.450;  195.125;    0.000
628.741; 4262.450;  180.125;    0.000
628.860; 4223.450;  235.125;    0.000
628.980; 4335.450;  222.125;    0.000
629.099; 4325.450;  237.125;    0.000
629.218; 4317.450;  175.125;    0.000
629.337; 4082.450;  194.125;    0.000
629.456; 4250.450;  225.125;    0.000
629.575; 4118.450;  239.125;    0.000
629.694; 4235.450;  230.125;    0.000
629.813; 4259.450;  197.125;    0.000
629.932; 4144.450;  225.125;    0.000
630.051; 4196.450;  238.125;    0.000
630.170; 4232.450;  233.125;    0.000
630.289; 4274.450;  231.125;    0.000
630.408; 4026.450;  204.125;    0.000
630.527; 4103.450;  262.125;    0.000
630.646; 4219.450;  181.125;    0.000
630.764; 4203.450;  218.125;    0.000
630.883; 4254.450;  215.125;    0.000
631.002; 4292.450;  224.125;    0.000
631.121; 4146.450;  209.125;    0.000
631.240; 4200.450;  230.125;    0.000
631.359; 4306.450;  235.125;    0.000
631.477; 4310.450;  223.125;    0.000
631.596; 4199.450;  218.125;    0.000
631.715; 4290.450;  234.125;    0.000
631.834; 4123.450;  215.125;    0.000
631.952; 4248.450;  243.125;    0.000
632.071; 4146.450;  219.125;    0.000
632.190; 4138.450;  235.125;    0.000
632.308; 4192.450;  239.125;    0.000
632.427; 4188.450;  211.125;    0.000
632.546; 4151.450;  233.125;    0.000
632.664; 4118.450;  219.125;    0.000
632.783; 4174.450;  203.125;    0.000
632.901; 4211.450;  221.125;    0.000
633.020; 4139.450;  197.125;    0.000
633.138; 4206.450;  244.125;    0.000
633.257; 4072.450;  205.125;    0.000
633.375; 4192.450;  245.125;    0.000
633.494; 4144.450;  218.125;    0.000
633.612; 4170.450;  222.125;    0.000
633.731; 4080.450;  212.125;    0.000
633.849; 4159.450;  218.125;    0.000
633.968; 4147.450;  236.125;    0.000
634.086; 4097.450;  233.125;    0.000
634.204; 4190.450;  215.125;    0.000
634.323; 4165.450;  230.125;    0.000
634.441; 4228.450;  235.125;    0.000
634.559; 4122.450;  202.125;    0.000
634.678; 4073.450;  218.125;    0.000
634.796; 3984.450;  203.125;    0.000
634.914; 4101.450;  227.125;    0.000
635.032; 4159.450;  279.125;    0.000
635.151; 4188.450;  221.125;    0.000
635.269; 4147.450;  207.125;    0.000
635.387; 4167.450;  195.125;    0.000
635.505; 4029.450;  243.125;    0.000
635.623; 4220.450;  269.125;    0.000
635.742; 4069.450;  232.125;    0.000
635.860; 4022.450;  243.125;    0.000
635.978; 4082.450;  215.125;    0.000
636.096; 3999.450;  225.125;    0.000
636.214; 4131.450;  244.125;    0.000
636.332; 4005.450;  226.125;    0.000
636.450; 4034.450;  227.125;    0.000
636.568; 4096.450;  225.125;    0.000
636.686; 4104.450;  194.125;    0.000
636.804; 4052.450;  234.125;    0.000
636.922; 4087.450;  177.125;    0.000
637.040; 4048.450;  225.125;    0.000
637.158; 4177.450;  194.125;    0.000
637.276; 4137.450;  219.125;    0.000
637.394; 3973.450;  219.125;    0.000
637.512; 4154.450;  210.125;    0.000
637.629; 4123.450;  242.125;    0.000
637.747; 4029.450;  193.125;    0.000
637.865; 4111.450;  219.125;    0.000
637.983; 4129.450;  251.125;    0.000
638.101; 4032.450;  221.125;    0.000
638.218; 4014.450;  193.125;    0.000
638.336; 4163.450;  224.125;    0.000
638.454; 3990.450;  227.125;    0.000
638.572; 4051.450;  245.125;    0.000
638.689; 4103.450;  222.125;    0.000
638.807; 4160.450;  244.125;    0.000
638.925; 4090.450;  238.125;    0.000
639.042; 4000.450;  213.125;    0.000
639.160; 4026.450;  186.125;    0.000
639.278; 4000.450;  203.125;    0.000
639.395; 3987.450;  270.125;    0.000
639.513; 4138.450;  227.125;    0.000
639.630; 4109.450;  200.125;    0.000
639.748; 4040.450;  199.125;    0.000
639.865; 4095.450;  233.125;    0.000
639.983; 4100.450;  181.125;    0.000
640.100; 4090.450;  219.125;    0.000
640.218; 4103.450;  234.125;    0.000
640.335; 4037.450;  233.125;    0.000
640.453; 4104.450;  202.125;    0.000
640.570; 3987.450;  214.125;    0.000
640.688; 4152.450;  215.125;    0.000
640.805; 4024.450;  229.125;    0.000
640.922; 4011.450;  244.125;    0.000
641.040; 3991.450;  233.125;    0.000
641.157; 4048.450;  199.125;    0.000
641.274; 4025.450;  205.125;    0.000
641.391; 4075.450;  244.125;    0.000
641.509; 4004.450;  184.125;    0.000
641.626; 4190.450;  244.125;    0.000
641.743; 4059.450;  221.125;    0.000
641.860; 4071.450;  206.125;    0.000
641.978; 3982.450;  272.125;    0.000
642.095; 4117.450;  218.125;    0.000
642.212; 4060.450;  208.125;    0.000
642.329; 4110.450;  218.125;    0.000
642.446; 4040.450;  197.125;    0.000
642.563; 4036.450;  214.125;    0.000
642.681; 4219.450;  203.125;    0.000
642.798; 4021.450;  236.125;    0.000
642.915; 4096.450;  191.125;    0.000
643.032; 4091.450;  226.125;    0.000
643.149; 4117.450;  231.125;    0.000
643.266; 4088.450;  213.125;    0.000
643.383; 4185.450;  240.125;    0.000
643.500; 4097.450;  185.125;    0.000
643.617; 4290.450;  229.125;    0.000
643.734; 4153.450;  205.125;    0.000
643.850; 4147.450;  222.125;    0.000
643.967; 4185.450;  202.125;    0.000
644.084; 4257.450;  264.125;    0.000
644.201; 4138.450;  214.125;    0.000
644.318; 4237.450;  206.125;    0.000
644.435; 4102.450;  225.125;    0.000
644.552; 4361.450;  203.125;    0.000
644.668; 4291.450;  252.125;    0.000
644.785; 4226.450;  213.125;    0.000
644.902; 4245.450;  233.125;    0.000
645.019; 4216.450;  220.125;    0.000
645.135; 4217.450;  225.125;    0.000
645.252; 4220.450;  218.125;    0.000
645.369; 4224.450;  214.125;    0.000
645.485; 4229.450;  210.125;    0.000
645.602; 4309.450;  198.125;    0.000
645.719; 4353.450;  228.125;    0.000
645.835; 4357.450;  209.125;    0.000
645.952; 4335.450;  213.125;    0.000
646.068; 4329.450;  241.125;    0.000
646.185; 4351.450;  219.125;    0.000
646.302; 4409.450;  246.125;    0.000
646.418; 4415.450;  228.125;    0.000
646.535; 4422.450;  256.125;    0.000
646.651; 4413.450;  222.125;    0.000
646.768; 4484.450;  203.125;    0.000
646.884; 4469.450;  199.125;    0.000
647.000; 4506.450;  194.125;    0.000
647.117; 4578.450;  214.125;    0.000
647.233; 4567.450;  209.125;    0.000
647.350; 4597.450;  235.125;    0.000
647.466; 4645.450;  237.125;    0.000
647.582; 4710.450;  231.125;    0.000
647.699; 4686.450;  219.125;    0.000
647.815; 4740.450;  200.125;    0.000
647.931; 4765.450;  173.125;    0.000
648.047; 4685.450;  184.125;    0.000
648.164; 4760.450;  199.125;    0.000
648.280; 4716.450;  209.125;    0.000
648.396; 4757.450;  220.125;    0.000
648.512; 4739.450;  212.125;    0.000
648.629; 4793.450;  214.125;    0.000
648.745; 4695.450;  197.125;    0.000
648.861; 4711.450;  228.125;    0.000
648.977; 4755.450;  238.125;    0.000
649.093; 4756.450;  208.125;    0.000
649.209; 4901.450;  179.125;    0.000
649.325; 4874.450;  256.125;    0.000
649.441; 4946.450;  224.125;    0.000
649.557; 4918.450;  247.125;    0.000
649.673; 4931.450;  214.125;    0.000
649.789; 4911.450;  213.125;    0.000
649.905; 4862.450;  170.125;    0.000
650.021; 4886.450;  236.125;    0.000
650.137; 4972.450;  229.125;    0.000
650.253; 5050.450;  207.125;    0.000
650.369; 4980.450;  198.125;    0.000
650.485; 5018.450;  225.125;    0.000
650.601; 5126.450;  260.125;    0.000
650.717; 5033.450;  196.125;    0.000
650.833; 5108.450;  219.125;    0.000
650.948; 5153.450;  203.125;    0.000
651.064; 5054.450;  232.125;    0.000
651.180; 5184.450;  252.125;    0.000
651.296; 5243.450;  190.125;    0.000
651.411; 5197.450;  235.125;    0.000
651.527; 5367.450;  227.125;    0.000
651.643; 5330.450;  238.125;    0.000
651.759; 5383.450;  260.125;    0.000
651.874; 5384.450;  217.125;    0.000
651.990; 5431.450;  239.125;    0.000
652.105; 5510.450;  215.125;    0.000
652.221; 5588.450;  237.125;    0.000
652.337; 5604.450;  238.125;    0.000
652.452; 5565.450;  230.125;    0.000
652.568; 5628.450;  201.125;    0.000
652.683; 5862.450;  243.125;    0.000
652.799; 5629.450;  218.125;    0.000
652.914; 5783.450;  189.125;    0.000
653.030; 5811.450;  191.125;    0.000
653.145; 6009.450;  240.125;    0.000
653.261; 6064.450;  225.125;    0.000
653.376; 6067.450;  241.125;    0.000
653.492; 6258.450;  188.125;    0.000
653.607; 6374.450;  219.125;    0.000
653.722; 6265.450;  268.125;    0.000
653.838; 6583.450;  262.125;    0.000
653.953; 6866.450;  188.125;    0.000
654.068; 6866.450;  244.125;    0.000
654.184; 6792.450;  247.125;    0.000
654.299; 7011.450;  228.125;    0.000
654.414; 7294.450;  181.125;    0.000
654.530; 7452.450;  210.125;    0.000
654.645; 7548.450;  240.125;    0.000
654.760; 7613.450;  219.125;    0.000
654.875; 7870.450;  178.125;    0.000
654.990; 8214.450;  222.125;    0.000
655.106; 8449.450;  227.125;    0.000
655.221; 8703.450;  270.125;    0.000
655.336; 8941.450;  199.125;    0.000
655.451; 9278.450;  235.125;    0.000
655.566; 9472.450;  251.125;    0.000
655.681;10161.450;  253.125;    0.000
655.796;10518.450;  207.125;    0.000
655.911;10973.450;  213.125;    0.000
656.026;11674.450;  247.125;    0.000
656.141;12215.450;  209.125;    0.000
656.256;12839.450;  226.125;    0.000
656.371;13032.450;  201.125;    0.000
656.486;12693.450;  196.125;    0.000
656.601;12334.450;  239.125;    0.000
656.716;12102.450;  234.125;    0.000
656.831;11612.450;  223.125;    0.000
656.946;11353.450;  246.125;    0.000
657.060;10961.450;  230.125;    0.000
657.175;10626.450;  207.125;    0.000
657.290;10298.450;  213.125;    0.000
657.405;10135.450;  319.125;    0.000
657.520; 9703.450;  241.125;    0.000
657.634; 9285.450;  235.125;    0.000
657.749; 9172.450;  275.125;    0.000
657.864; 8910.450;  210.125;    0.000
657.979; 8554.450;  227.125;    0.000
658.093; 8578.450;  206.125;    0.000
658.208; 8165.450;  217.125;    0.000
658.323; 7989.450;  227.125;    0.000
658.437; 7848.450;  217.125;    0.000
658.552; 7862.450;  237.125;    0.000
658.666; 7656.450;  233.125;    0.000
658.781; 7539.450;  248.125;    0.000
658.895; 7407.450;  233.125;    0.000
659.010; 7363.450;  238.125;    0.000
659.125; 7220.450;  206.125;    0.000
659.239; 6915.450;  220.125;    0.000
659.353; 7072.450;  236.125;    0.000
659.468; 6854.450;  238.125;    0.000
659.582; 6678.450;  275.125;    0.000
659.697; 6571.450;  239.125;    0.000
659.811; 6530.450;  232.125;    0.000
659.926; 6419.450;  230.125;    0.000
660.040; 6292.450;  257.125;    0.000
660.154; 6310.450;  221.125;    0.000
660.269; 6198.450;  219.125;    0.000
660.383; 6112.450;  228.125;    0.000
660.497; 6150.450;  243.125;    0.000
660.612; 6011.450;  238.125;    0.000
660.726; 5994.450;  260.125;    0.000
660.840; 5922.450;  239.125;    0.000
660.954; 5811.450;  236.125;    0.000
661.068; 5770.450;  239.125;    0.000
661.183; 5608.450;  245.125;    0.000
661.297; 5626.450;  198.125;    0.000
661.411; 5548.450;  203.125;    0.000
661.525; 5430.450;  244.125;    0.000
661.639; 5526.450;  229.125;    0.000
661.753; 5293.450;  238.125;    0.000
661.867; 5214.450;  237.125;    0.000
661.981; 5171.450;  219.125;    0.000
662.095; 5268.450;  232.125;    0.000
662.209; 5122.450;  236.125;    0.000
662.323; 5081.450;  209.125;    0.000
662.437; 5008.450;  206.125;    0.000
662.551; 4914.450;  217.125;    0.000
662.665; 5005.450;  262.125;    0.000
662.779; 4884.450;  234.125;    0.000
662.893; 4849.450;  222.125;    0.000
663.007; 4665.450;  189.125;    0.000
663.121; 4728.450;  258.125;    0.000
663.235; 4631.450;  191.125;    0.000
663.349; 4661.450;  259.125;    0.000
663.462; 4593.450;  209.125;    0.000
663.576; 4529.450;  244.125;    0.000
663.690; 4479.450;  237.125;    0.000
663.804; 4420.450;  205.125;    0.000
663.917; 4419.450;  207.125;    0.000
664.031; 4395.450;  234.125;    0.000
664.145; 4405.450;  216.125;    0.000
664.258; 4408.450;  202.125;    0.000
664.372; 4225.450;  198.125;    0.000
664.486; 4300.450;  181.125;    0.000
664.599; 4296.450;  229.125;    0.000
664.713; 4337.450;  266.125;    0.000
664.827; 4239.450;  185.125;    0.000
664.940; 4245.450;  225.125;    0.000
665.054; 4153.450;  198.125;    0.000
665.167; 4185.450;  208.125;    0.000
665.281; 4121.450;  231.125;    0.000
665.394; 4186.450;  228.125;    0.000
665.508; 4101.450;  204.125;    0.000
665.621; 4149.450;  263.125;    0.000
665.735; 4171.450;  222.125;    0.000
665.848; 4105.450;  237.125;    0.000
665.961; 3960.450;  180.125;    0.000
666.075; 3943.450;  212.125;    0.000
666.188; 3935.450;  229.125;    0.000
666.301; 4020.450;  247.125;    0.000
666.415; 3831.450;  212.125;    0.000
666.528; 3989.450;  268.125;    0.000
666.641; 3888.450;  210.125;    0.000
666.755; 3878.450;  178.125;    0.000
666.868; 3811.450;  227.125;    0.000
666.981; 3840.450;  250.125;    0.000
667.094; 3857.450;  228.125;    0.000
667.207; 3809.450;  235.125;    0.000
667.321; 3638.450;  171.125;    0.000
667.434; 3792.450;  191.125;    0.000
667.547; 3837.450;  279.125;    0.000
667.660; 3771.450;  210.125;    0.000
667.773; 3681.450;  217.125;    0.000
667.886; 3786.450;  209.125;    0.000
667.999; 3761.450;  239.125;    0.000
668.112; 3733.450;  227.125;    0.000
668.225; 3804.450;  185.125;    0.000
668.338; 3585.450;  222.125;    0.000
668.451; 3624.450;  200.125;    0.000
668.564; 3585.450;  237.125;    0.000
668.677; 3603.450;  207.125;    0.000
668.790; 3525.450;  208.125;    0.000
668.903; 3585.450;  243.125;    0.000
669.016; 3451.450;  190.125;    0.000
669.129; 3545.450;  234.125;    0.000
669.242; 3504.450;  185.125;    0.000
669.354; 3507.450;  224.125;    0.000
669.467; 3437.450;  219.125;    0.000
669.580; 3610.450;  249.125;    0.000
669.693; 3515.450;  187.125;    0.000
669.806; 3475.450;  206.125;    0.000
669.918; 3364.450;  192.125;    0.000
670.031; 3509.450;  235.125;    0.000
670.144; 3488.450;  238.125;    0.000
670.256; 3444.450;  237.125;    0.000
670.369; 3386.450;  237.125;    0.000
670.482; 3351.450;  250.125;    0.000
670.594; 3413.450;  273.125;    0.000
670.707; 3427.450;  223.125;    0.000
670.820; 3393.450;  238.125;    0.000
670.932; 3428.450;  224.125;    0.000
671.045; 3376.450;  219.125;    0.000
671.157; 3439.450;  242.125;    0.000
671.270; 3328.450;  235.125;    0.000
671.382; 3305.450;  213.125;    0.000
671.495; 3289.450;  254.125;    0.000
671.607; 3317.450;  253.125;    0.000
671.720; 3348.450;  169.125;    0.000
671.832; 3265.450;  201.125;    0.000
671.944; 3249.450;  250.125;    0.000
672.057; 3271.450;  187.125;    0.000
672.169; 3357.450;  224.125;    0.000
672.281; 3323.450;  238.125;    0.000
672.394; 3287.450;  250.125;    0.000
672.506; 3235.450;  227.125;    0.000
672.618; 3306.450;  223.125;    0.000
672.731; 3189.450;  210.125;    0.000
672.843; 3174.450;  245.125;    0.000
672.955; 3218.450;  263.125;    0.000
673.067; 3284.450;  239.125;    0.000
673.180; 3256.450;  253.125;    0.000
673.292; 3243.450;  243.125;    0.000
673.404; 3268.450;  226.125;    0.000
673.516; 3286.450;  223.125;    0.000
673.628; 3179.450;  223.125;    0.000
673.740; 3229.450;  216.125;    0.000
673.852; 3228.450;  277.125;    0.000
673.964; 3227.450;  211.125;    0.000
674.076; 3172.450;  241.125;    0.000
674.188; 3140.450;  251.125;    0.000
674.300; 3197.450;  268.125;    0.000
674.412; 3197.450;  260.125;    0.000
674.524; 3158.450;  257.125;    0.000
674.636; 3165.450;  222.125;    0.000
674.748; 3203.450;  227.125;    0.000
674.860; 3237.450;  250.125;    0.000
674.972; 3107.450;  240.125;    0.000
675.084; 3216.450;  262.125;    0.000
675.196; 3123.450;  287.125;    0.000
675.307; 3212.450;  257.125;    0.000
675.419; 3093.450;  231.125;    0.000
675.531; 3132.450;  274.125;    0.000
675.643; 3063.450;  235.125;    0.000
675.755; 3064.450;  275.125;    0.000
675.866; 3021.450;  238.125;    0.000
675.978; 2999.450;  209.125;    0.000
676.090; 3073.450;  239.125;    0.000
676.201; 3096.450;  249.125;    0.000
676.313; 3031.450;  237.125;    0.000
676.425; 3081.450;  263.125;    0.000
676.536; 3024.450;  178.125;    0.000
676.648; 2985.450;  245.125;    0.000
676.759; 2995.450;  244.125;    0.000
676.871; 3020.450;  242.125;    0.000
676.983; 2975.450;  245.125;    0.000
677.094; 2993.450;  209.125;    0.000
677.206; 3023.450;  248.125;    0.000
677.317; 3022.450;  260.125;    0.000
677.429; 2967.450;  237.125;    0.000
677.540; 2982.450;  226.125;    0.000
677.651; 2903.450;  226.125;    0.000
677.763; 2986.450;  194.125;    0.000
677.874; 2904.450;  230.125;    0.000
677.986; 2942.450;  202.125;    0.000
678.097; 2798.450;  229.125;    0.000
678.208; 2864.450;  263.125;    0.000
678.320; 2892.450;  243.125;    0.000
678.431; 2913.450;  229.125;    0.000
678.542; 2892.450;  231.125;    0.000
678.653; 2896.450;  224.125;    0.000
678.765; 2905.450;  255.125;    0.000
678.876; 2865.450;  175.125;    0.000
678.987; 2841.450;  204.125;    0.000
679.098; 2903.450;  227.125;    0.000
679.209; 2899.450;  228.125;    0.000
679.320; 2865.450;  223.125;    0.000
679.432; 2747.450;  219.125;    0.000
679.543; 2859.450;  210.125;    0.000
679.654; 2878.450;  249.125;    0.000
679.765; 2848.450;  222.125;    0.000
679.876; 2855.450;  219.125;    0.000
679.987; 2784.450;  213.125;    0.000
680.098; 2864.450;  237.125;    0.000
680.209; 2772.450;  188.125;    0.000
680.320; 2815.450;  243.125;    0.000
680.431; 2836.450;  227.125;    0.000
680.542; 2885.450;  212.125;    0.000
680.653; 2929.450;  266.125;    0.000
680.763; 2755.450;  198.125;    0.000
680.874; 2734.450;  211.125;    0.000
680.985; 2809.450;  207.125;    0.000
681.096; 2797.450;  244.125;    0.000
681.207; 2841.450;  209.125;    0.000
681.318; 2776.450;  215.125;    0.000
681.428; 2832.450;  199.125;    0.000
681.539; 2815.450;  175.125;    0.000
681.650; 2803.450;  224.125;    0.000
681.760; 2797.450;  216.125;    0.000
681.871; 2757.450;  187.125;    0.000
681.982; 2705.450;  237.125;    0.000
682.093; 2830.450;  213.125;    0.000
682.203; 2750.450;  190.125;    0.000
682.314; 2769.450;  230.125;    0.000
682.424; 2763.450;  223.125;    0.000
682.535; 2765.450;  172.125;    0.000
682.646; 2798.450;  268.125;    0.000
682.756; 2750.450;  249.125;    0.000
682.867; 2817.450;  225.125;    0.000
682.977; 2764.450;  211.125;    0.000
683.088; 2771.450;  238.125;    0.000
683.198; 2810.450;  202.125;    0.000
683.308; 2766.450;  196.125;    0.000
683.419; 2697.450;  230.125;    0.000
683.529; 2707.450;  213.125;    0.000
683.640; 2858.450;  225.125;    0.000
683.750; 2708.450;  203.125;    0.000
683.860; 2696.450;  200.125;    0.000
683.971; 2711.450;  269.125;    0.000
684.081; 2742.450;  204.125;    0.000
684.191; 2736.450;  228.125;    0.000
684.301; 2767.450;  219.125;    0.000
684.412; 2743.450;  222.125;    0.000
684.522; 2674.450;  242.125;    0.000
684.632; 2666.450;  234.125;    0.000
684.742; 2773.450;  240.125;    0.000
684.852; 2664.450;  229.125;    0.000
684.963; 2834.450;  237.125;    0.000
685.073; 2714.450;  205.125;    0.000
685.183; 2804.450;  241.125;    0.000
685.293; 2681.450;  202.125;    0.000
685.403; 2695.450;  232.125;    0.000
685.513; 2768.450;  244.125;    0.000
685.623; 2722.450;  224.125;    0.000
685.733; 2679.450;  236.125;    0.000
685.843; 2771.450;  235.125;    0.000
685.953; 2724.450;  216.125;    0.000
686.063; 2657.450;  214.125;    0.000
686.173; 2716.450;  198.125;    0.000
686.283; 2618.450;  250.125;    0.000
686.393; 2672.450;  227.125;    0.000
686.503; 2699.450;  244.125;    0.000
686.612; 2705.450;  247.125;    0.000
686.722; 2717.450;  265.125;    0.000
686.832; 2828.450;  213.125;    0.000
686.942; 2803.450;  241.125;    0.000
687.052; 2720.450;  238.125;    0.000
687.161; 2679.450;  233.125;    0.000
687.271; 2699.450;  232.125;    0.000
687.381; 2665.450;  220.125;    0.000
687.491; 2666.450;  206.125;    0.000
687.600; 2653.450;  283.125;    0.000
687.710; 2670.450;  212.125;    0.000
687.820; 2684.450;  226.125;    0.000
687.929; 2713.450;  202.125;    0.000
688.039; 2674.450;  225.125;    0.000
688.148; 2645.450;  235.125;    0.000
688.258; 2562.450;  224.125;    0.000
688.367; 2607.450;  239.125;    0.000
688.477; 2563.450;  193.125;    0.000
688.586; 2678.450;  226.125;    0.000
688.696; 2663.450;  185.125;    0.000
688.805; 2816.450;  190.125;    0.000
688.915; 2646.450;  209.125;    0.000
689.024; 2674.450;  214.125;    0.000
689.134; 2624.450;  205.125;    0.000
689.243; 2582.450;  190.125;    0.000
689.352; 2659.450;  233.125;    0.000
689.462; 2584.450;  196.125;    0.000
689.571; 2666.450;  227.125;    0.000
689.680; 2701.450;  206.125;    0.000
689.790; 2580.450;  193.125;    0.000
689.899; 2676.450;  204.125;    0.000
690.008; 2595.450;  228.125;    0.000
690.117; 2610.450;  207.125;    0.000
690.227; 2567.450;  231.125;    0.000
690.336; 2657.450;  222.125;    0.000
690.445; 2601.450;  198.125;    0.000
690.554; 2684.450;  202.125;    0.000
690.663; 2646.450;  217.125;    0.000
690.772; 2748.450;  213.125;    0.000
690.881; 2671.450;  225.125;    0.000
690.990; 2657.450;  217.125;    0.000
691.099; 2497.450;  205.125;    0.000
691.209; 2566.450;  220.125;    0.000
691.318; 2653.450;  216.125;    0.000
691.427; 2536.450;  188.125;    0.000
691.536; 2589.450;  224.125;    0.000
691.644; 2565.450;  212.125;    0.000
691.753; 2564.450;  216.125;    0.000
691.862; 2677.450;  250.125;    0.000
691.971; 2569.450;  210.125;    0.000
692.080; 2615.450;  232.125;    0.000
692.189; 2609.450;  218.125;    0.000
692.298; 2539.450;  220.125;    0.000
692.406; 2615.450;  261.125;    0.000
692.515; 2555.450;  253.125;    0.000
692.624; 2546.450;  224.125;    0.000
692.733; 2527.450;  209.125;    0.000
692.842; 2590.450;  214.125;    0.000
692.950; 2510.450;  206.125;    0.000
693.059; 2534.450;  180.125;    0.000
693.168; 2640.450;  220.125;    0.000
693.276; 2562.450;  196.125;    0.000
693.385; 2518.450;  203.125;    0.000
693.494; 2616.450;  263.125;    0.000
693.602; 2536.450;  222.125;    0.000
693.711; 2493.450;  178.125;    0.000
693.819; 2540.450;  230.125;    0.000
693.928; 2534.450;  187.125;    0.000
694.036; 2533.450;  219.125;    0.000
694.145; 2553.450;  223.125;    0.000
694.253; 2581.450;  241.125;    0.000
694.362; 2517.450;  229.125;    0.000
694.470; 2578.450;  223.125;    0.000
694.579; 2541.450;  195.125;    0.000
694.687; 2539.450;  257.125;    0.000
694.795; 2553.450;  230.125;    0.000
694.904; 2547.450;  196.125;    0.000
695.012; 2620.450;  247.125;    0.000
695.120; 2517.450;  215.125;    0.000
695.229; 2636.450;  244.125;    0.000
695.337; 2541.450;  197.125;    0.000
695.445; 2604.450;  270.125;    0.000
695.553; 2619.450;  241.125;    0.000
695.662; 2561.450;  249.125;    0.000
695.770; 2577.450;  244.125;    0.000
695.878; 2613.450;  236.125;    0.000
695.986; 2543.450;  253.125;    0.000
696.094; 2498.450;  242.125;    0.000
696.202; 2513.450;  174.125;    0.000
696.310; 2595.450;  230.125;    0.000
696.419; 2605.450;  218.125;    0.000
696.527; 2592.450;  226.125;    0.000
696.635; 2582.450;  217.125;    0.000
696.743; 2561.450;  221.125;    0.000
696.851; 2590.450;  259.125;    0.000
696.959; 2545.450;  245.125;    0.000
697.067; 2563.450;  235.125;    0.000
697.174; 2542.450;  238.125;    0.000
697.282; 2519.450;  208.125;    0.000
697.390; 2638.450;  265.125;    0.000
697.498; 2581.450;  202.125;    0.000
697.606; 2542.450;  219.125;    0.000
697.714; 2488.450;  245.125;    0.000
697.822; 2556.450;  222.125;    0.000
697.929; 2522.450;  194.125;    0.000
698.037; 2501.450;  223.125;    0.000
698.145; 2540.450;  213.125;    0.000
698.253; 2455.450;  234.125;    0.000
698.360; 2499.450;  211.125;    0.000
698.468; 2466.450;  241.125;    0.000
698.576; 2553.450;  249.125;    0.000
698.683; 2557.450;  268.125;    0.000
698.791; 2506.450;  223.125;    0.000
698.899; 2536.450;  251.125;    0.000
699.006; 2488.450;  216.125;    0.000
699.114; 2533.450;  256.125;    0.000
699.221; 2523.450;  226.125;    0.000
699.329; 2522.450;  255.125;    0.000
699.436; 2431.450;  213.125;    0.000
699.544; 2517.450;  258.125;    0.000
699.651; 2435.450;  214.125;    0.000
699.759; 2508.450;  229.125;    0.000
699.866; 2494.450;  239.125;    0.000
699.974; 2468.450;  224.125;    0.000
700.081; 2535.450;  227.125;    0.000
700.188; 2560.450;  267.125;    0.000
700.296; 2505.450;  222.125;    0.000
700.403; 2480.450;  225.125;    0.000
700.510; 2493.450;  248.125;    0.000
700.618; 2512.450;  223.125;    0.000
700.725; 2431.450;  243.125;    0.000
700.832; 2467.450;  239.125;    0.000
700.940; 2483.450;  284.125;    0.000
701.047; 2463.450;  216.125;    0.000
701.154; 2437.450;  249.125;    0.000
701.261; 2412.450;  229.125;    0.000
701.368; 2540.450;  247.125;    0.000
701.475; 2482.450;  208.125;    0.000
701.582; 2418.450;  262.125;    0.000
701.690; 2431.450;  224.125;    0.000
701.797; 2503.450;  294.125;    0.000
701.904; 2591.450;  303.125;    0.000
702.011; 2556.450;  278.125;    0.000
702.118; 2530.450;  279.125;    0.000
702.225; 2498.450;  342.125;    0.000
702.332; 2530.450;  281.125;    0.000
702.439; 2586.450;  313.125;    0.000
702.546; 2511.450;  295.125;    0.000
702.652; 2480.450;  293.125;    0.000
702.759; 2578.450;  333.125;    0.000
702.866; 2524.450;  272.125;    0.000
702.973; 2540.450;  310.125;    0.000
703.080; 2522.450;  313.125;    0.000
703.187; 2527.450;  316.125;    0.000
703.294; 2554.450;  328.125;    0.000
703.400; 2261.450;  312.125;    0.000
703.507;  519.450;  349.125;    0.000
703.614;  290.450;  298.125;    0.000
703.720;  314.450;  300.125;    0.000
703.827;  350.450;  346.125;    0.000
703.934;  319.450;  308.125;    0.000
704.040;  270.450;  300.125;    0.000
704.147;  344.450;  317.125;    0.000
704.254;  324.450;  350.125;    0.000
704.360;  322.450;  285.125;    0.000
704.467;  348.450;  334.125;    0.000
704.573;  348.450;  330.125;    0.000
704.680;  319.450;  312.125;    0.000
704.786;  329.450;  305.125;    0.000
704.893;  336.450;  330.125;    0.000
704.999;  327.450;  315.125;    0.000
705.106;  361.450;  327.125;    0.000

