
Integration time [ms]:   0.300
Averaging Nr. [scans]: 1
Smoothing Nr. [pixels]: 0
Data measured with spectrometer [name]: NIR
Wave   ;Sample   ;Dark     ;Reference
[nm]   ;[counts] ;[counts] ;[counts] 

691.496;  -56.025;  155.525;    0.000
691.696;  -31.025;  186.525;    0.000
691.896; -100.025;  113.525;    0.000
692.096;  -42.025;  169.525;    0.000
692.296;  -89.025;  119.525;    0.000
692.496;  -42.025;  182.525;    0.000
692.695;  -85.025;  119.525;    0.000
692.895;  -18.025;  183.525;    0.000
693.095;  -79.025;  119.525;    0.000
693.295;  -20.025;  156.525;    0.000
693.495;  -47.025;  145.525;    0.000
693.695;  -56.025;  144.525;    0.000
693.894;  -31.025;  174.525;    0.000
694.094;  -53.025;  148.525;    0.000
694.294;  -48.025;  114.525;    0.000
694.494;  152.975;  137.525;    0.000
694.693; 2141.975;  112.525;    0.000
694.893; 2510.975;   85.525;    0.000
695.093; 2443.975;  152.525;    0.000
695.293; 2337.975;  159.525;    0.000
695.492; 2562.975;  131.525;    0.000
695.692; 2482.975;  134.525;    0.000
695.891; 2519.975;  161.525;    0.000
696.091; 2541.975;  180.525;    0.000
696.291; 2532.975;  120.525;    0.000
696.490; 2613.975;  146.525;    0.000
696.690; 2521.975;  145.525;    0.000
696.889; 2561.975;  171.525;    0.000
697.089; 2588.975;   98.525;    0.000
697.288; 2524.975;  172.525;    0.000
697.488; 2546.975;  137.525;    0.000
697.687; 2582.975;  171.525;    0.000
697.887; 2538.975;  142.525;    0.000
698.086; 2556.975;  159.525;    0.000
698.286; 2624.975;  122.525;    0.000
698.485; 2545.975;  121.525;    0.000
698.684; 2555.975;   94.525;    0.000
698.884; 2495.975;  131.525;    0.000
699.083; 2600.975;  112.525;    0.000
699.282; 2526.975;  119.525;    0.000
699.482; 2544.975;  117.525;    0.000
699.681; 2619.975;  115.525;    0.000
699.880; 2591.975;  166.525;    0.000
700.080; 2622.975;  194.525;    0.000
700.279; 2541.975;   98.525;    0.000
700.478; 2544.975;  159.525;    0.000
700.677; 2553.975;  134.525;    0.000
700.877; 2617.975;  171.525;    0.000
701.076; 2623.975;  141.525;    0.000
701.275; 2574.975;  119.525;    0.000
701.474; 2646.975;  132.525;    0.000
701.673; 2586.975;  141.525;    0.000
701.872; 2568.975;  158.525;    0.000
702.071; 2617.975;  129.525;    0.000
702.271; 2601.975;  122.525;    0.000
702.470; 2753.975;  158.525;    0.000
702.669; 2705.975;  145.525;    0.000
702.868; 2688.975;  135.525;    0.000
703.067; 2656.975;  169.525;    0.000
703.266; 2616.975;  125.525;    0.000
703.465; 2638.975;  153.525;    0.000
703.664; 2650.975;  113.525;    0.000
703.863; 2760.975;  170.525;    0.000
704.062; 2612.975;  115.525;    0.000
704.260; 2650.975;  133.525;    0.000
704.459; 2665.975;  123.525;    0.000
704.658; 2685.975;  105.525;    0.000
704.857; 2684.975;  125.525;    0.000
705.056; 2660.975;  108.525;    0.000
705.255; 2663.975;  117.525;    0.000
705.454; 2672.975;  126.525;    0.000
705.652; 2736.975;  137.525;    0.000
705.851; 2640.975;   95.525;    0.000
706.050; 2654.975;  120.525;    0.000
706.249; 2613.975;   81.525;    0.000
706.447; 2744.975;  105.525;    0.000
706.646; 2644.975;  107.525;    0.000
706.845; 2786.975;  104.525;    0.000
707.043; 2711.975;  136.525;    0.000
707.242; 2678.975;   89.525;    0.000
707.441; 2722.975;  147.525;    0.000
707.639; 2786.975;  156.525;    0.000
707.838; 2701.975;  114.525;    0.000
708.037; 2657.975;  100.525;    0.000
708.235; 2783.975;  103.525;    0.000
708.434; 2749.975;  102.525;    0.000
708.632; 2811.975;  100.525;    0.000
708.831; 2854.975;  121.525;    0.000
709.029; 2782.975;  102.525;    0.000
709.228; 2757.975;   88.525;    0.000
709.426; 2770.975;  135.525;    0.000
709.625; 2805.975;  128.525;    0.000
709.823; 2763.975;  123.525;    0.000
710.022; 2755.975;  137.525;    0.000
710.220; 2780.975;  134.525;    0.000
710.418; 2929.975;  122.525;    0.000
710.617; 2842.975;   64.525;    0.000
710.815; 2811.975;   94.525;    0.000
711.013; 2809.975;  127.525;    0.000
711.212; 2836.975;  105.525;    0.000
711.410; 2848.975;  117.525;    0.000
711.608; 2929.975;  114.525;    0.000
711.807; 2919.975;  119.525;    0.000
712.005; 2898.975;   92.525;    0.000
712.203; 2848.975;   95.525;    0.000
712.401; 2988.975;  107.525;    0.000
712.599; 2870.975;  127.525;    0.000
712.798; 2911.975;  120.525;    0.000
712.996; 2921.975;   76.525;    0.000
713.194; 2938.975;  118.525;    0.000
713.392; 2896.975;   60.525;    0.000
713.590; 2945.975;   92.525;    0.000
713.788; 3027.975;  110.525;    0.000
713.986; 2936.975;  130.525;    0.000
714.184; 2953.975;   71.525;    0.000
714.382; 3042.975;   86.525;    0.000
714.580; 2966.975;   74.525;    0.000
714.778; 3185.975;  133.525;    0.000
714.976; 3070.975;   81.525;    0.000
715.174; 3124.975;  100.525;    0.000
715.372; 3227.975;  141.525;    0.000
715.570; 3449.975;   73.525;    0.000
715.768; 3524.975;  119.525;    0.000
715.966; 3519.975;   81.525;    0.000
716.164; 3512.975;  130.525;    0.000
716.362; 3457.975;  125.525;    0.000
716.560; 3474.975;  109.525;    0.000
716.758; 3432.975;   96.525;    0.000
716.955; 3335.975;   83.525;    0.000
717.153; 3292.975;   87.525;    0.000
717.351; 3254.975;  123.525;    0.000
717.549; 3291.975;  121.525;    0.000
717.746; 3284.975;  128.525;    0.000
717.944; 3287.975;  132.525;    0.000
718.142; 3306.975;  120.525;    0.000
718.340; 3355.975;   94.525;    0.000
718.537; 3199.975;   95.525;    0.000
718.735; 3230.975;  152.525;    0.000
718.933; 3309.975;  124.525;    0.000
719.130; 3299.975;  114.525;    0.000
719.328; 3187.975;   63.525;    0.000
719.525; 3221.975;  146.525;    0.000
719.723; 3225.975;   96.525;    0.000
719.920; 3192.975;  120.525;    0.000
720.118; 3163.975;   59.525;    0.000
720.316; 3167.975;  116.525;    0.000
720.513; 3258.975;  127.525;    0.000
720.711; 3194.975;  110.525;    0.000
720.908; 3226.975;   92.525;    0.000
721.105; 3123.975;  138.525;    0.000
721.303; 3197.975;   90.525;    0.000
721.500; 3285.975;  126.525;    0.000
721.698; 3237.975;  103.525;    0.000
721.895; 3311.975;  206.525;    0.000
722.092; 3239.975;   63.525;    0.000
722.290; 3270.975;  123.525;    0.000
722.487; 3122.975;  137.525;    0.000
722.684; 3140.975;  126.525;    0.000
722.882; 3195.975;  119.525;    0.000
723.079; 3147.975;  132.525;    0.000
723.276; 3289.975;   98.525;    0.000
723.473; 3191.975;   97.525;    0.000
723.671; 3198.975;   43.525;    0.000
723.868; 3303.975;  142.525;    0.000
724.065; 3305.975;  102.525;    0.000
724.262; 3224.975;  119.525;    0.000
724.459; 3321.975;   73.525;    0.000
724.656; 3385.975;  128.525;    0.000
724.854; 3249.975;  135.525;    0.000
725.051; 3230.975;   81.525;    0.000
725.248; 3346.975;   88.525;    0.000
725.445; 3318.975;  129.525;    0.000
725.642; 3272.975;   76.525;    0.000
725.839; 3308.975;  134.525;    0.000
726.036; 3317.975;  101.525;    0.000
726.233; 3293.975;   68.525;    0.000
726.430; 3277.975;  121.525;    0.000
726.627; 3344.975;  136.525;    0.000
726.824; 3398.975;   87.525;    0.000
727.021; 3464.975;  141.525;    0.000
727.218; 3318.975;   92.525;    0.000
727.414; 3342.975;  121.525;    0.000
727.611; 3306.975;  100.525;    0.000
727.808; 3283.975;  130.525;    0.000
728.005; 3270.975;   83.525;    0.000
728.202; 3289.975;  120.525;    0.000
728.399; 3385.975;   75.525;    0.000
728.595; 3385.975;  148.525;    0.000
728.792; 3389.975;   79.525;    0.000
728.989; 3447.975;   86.525;    0.000
729.186; 3414.975;   80.525;    0.000
729.382; 3420.975;   72.525;    0.000
729.579; 3356.975;  112.525;    0.000
729.776; 3312.975;  106.525;    0.000
729.972; 3341.975;   77.525;    0.000
730.169; 3373.975;  118.525;    0.000
730.366; 3372.975;   92.525;    0.000
730.562; 3418.975;  104.525;    0.000
730.759; 3410.975;   95.525;    0.000
730.955; 3138.975;   85.525;    0.000
731.152; 3408.975;   79.525;    0.000
731.348; 3378.975;   72.525;    0.000
731.545; 3357.975;   56.525;    0.000
731.741; 3443.975;  106.525;    0.000
731.938; 3389.975;  113.525;    0.000
732.134; 3362.975;  106.525;    0.000
732.331; 3475.975;   82.525;    0.000
732.527; 3380.975;   80.525;    0.000
732.724; 3357.975;   97.525;    0.000
732.920; 3432.975;  127.525;    0.000
733.116; 3419.975;  115.525;    0.000
733.313; 3425.975;  153.525;    0.000
733.509; 3388.975;   76.525;    0.000
733.705; 3462.975;  159.525;    0.000
733.902; 3448.975;   82.525;    0.000
734.098; 3513.975;   70.525;    0.000
734.294; 3582.975;  105.525;    0.000
734.490; 3606.975;  110.525;    0.000
734.687; 3555.975;  102.525;    0.000
734.883; 3520.975;   77.525;    0.000
735.079; 3436.975;   93.525;    0.000
735.275; 3529.975;  109.525;    0.000
735.471; 3461.975;   99.525;    0.000
735.667; 3551.975;  107.525;    0.000
735.863; 3420.975;   89.525;    0.000
736.060; 3492.975;  105.525;    0.000
736.256; 3548.975;  113.525;    0.000
736.452; 3592.975;   90.525;    0.000
736.648; 3535.975;   88.525;    0.000
736.844; 3530.975;  129.525;    0.000
737.040; 3568.975;  139.525;    0.000
737.236; 3576.975;  129.525;    0.000
737.432; 3544.975;   67.525;    0.000
737.628; 3579.975;  104.525;    0.000
737.824; 3635.975;  111.525;    0.000
738.019; 3566.975;  116.525;    0.000
738.215; 3582.975;  135.525;    0.000
738.411; 3698.975;  118.525;    0.000
738.607; 3547.975;   58.525;    0.000
738.803; 3577.975;   32.525;    0.000
738.999; 3741.975;  120.525;    0.000
739.195; 3657.975;   76.525;    0.000
739.390; 3697.975;  119.525;    0.000
739.586; 3597.975;   83.525;    0.000
739.782; 3762.975;  134.525;    0.000
739.978; 3700.975;  122.525;    0.000
740.173; 3666.975;   96.525;    0.000
740.369; 3722.975;   86.525;    0.000
740.565; 3832.975;  122.525;    0.000
740.760; 3851.975;   99.525;    0.000
740.956; 3752.975;  137.525;    0.000
741.152; 3949.975;  108.525;    0.000
741.347; 3787.975;   65.525;    0.000
741.543; 3916.975;   73.525;    0.000
741.738; 3945.975;  142.525;    0.000
741.934; 4168.975;  131.525;    0.000
742.129; 4368.975;   66.525;    0.000
742.325; 4817.975;  143.525;    0.000
742.520; 5030.975;  119.525;    0.000
742.716; 4854.975;  109.525;    0.000
742.911; 4614.975;   62.525;    0.000
743.107; 4624.975;  119.525;    0.000
743.302; 4572.975;   78.525;    0.000
743.498; 4525.975;  130.525;    0.000
743.693; 4587.975;   75.525;    0.000
743.888; 4819.975;  135.525;    0.000
744.084; 5404.975;  106.525;    0.000
744.279; 6314.975;  101.525;    0.000
744.474; 6412.975;   91.525;    0.000
744.670; 6007.975;  144.525;    0.000
744.865; 5463.975;  128.525;    0.000
745.060; 5266.975;   63.525;    0.000
745.255; 5093.975;  155.525;    0.000
745.451; 4930.975;  110.525;    0.000
745.646; 4911.975;  150.525;    0.000
745.841; 4883.975;  128.525;    0.000
746.036; 4875.975;  110.525;    0.000
746.231; 4976.975;  126.525;    0.000
746.426; 5227.975;   83.525;    0.000
746.622; 5907.975;  157.525;    0.000
746.817; 7513.975;  112.525;    0.000
747.012; 8141.975;  115.525;    0.000
747.207; 7528.975;  161.525;    0.000
747.402; 6805.975;   88.525;    0.000
747.597; 6321.975;  103.525;    0.000
747.792; 6112.975;  152.525;    0.000
747.987; 5764.975;   80.525;    0.000
748.182; 5704.975;   89.525;    0.000
748.377; 5406.975;  104.525;    0.000
748.572; 5334.975;  138.525;    0.000
748.767; 5180.975;  100.525;    0.000
748.961; 4932.975;  106.525;    0.000
749.156; 4838.975;  113.525;    0.000
749.351; 4817.975;  116.525;    0.000
749.546; 4645.975;  107.525;    0.000
749.741; 4646.975;  102.525;    0.000
749.936; 4530.975;  105.525;    0.000
750.130; 4537.975;  111.525;    0.000
750.325; 4406.975;   72.525;    0.000
750.520; 4364.975;   96.525;    0.000
750.715; 4343.975;  135.525;    0.000
750.909; 4347.975;  107.525;    0.000
751.104; 4286.975;  106.525;    0.000
751.299; 4357.975;  144.525;    0.000
751.493; 4212.975;  116.525;    0.000
751.688; 4243.975;   96.525;    0.000
751.882; 4199.975;   92.525;    0.000
752.077; 4195.975;  109.525;    0.000
752.272; 4158.975;   96.525;    0.000
752.466; 4090.975;  110.525;    0.000
752.661; 4161.975;  120.525;    0.000
752.855; 4149.975;   70.525;    0.000
753.050; 4111.975;  129.525;    0.000
753.244; 4073.975;  126.525;    0.000
753.439; 4103.975;  115.525;    0.000
753.633; 4050.975;  120.525;    0.000
753.828; 4010.975;  129.525;    0.000
754.022; 3971.975;  139.525;    0.000
754.216; 4004.975;  121.525;    0.000
754.411; 4035.975;  108.525;    0.000
754.605; 3995.975;   94.525;    0.000
754.799; 4009.975;  125.525;    0.000
754.994; 3997.975;  160.525;    0.000
755.188; 4018.975;  151.525;    0.000
755.382; 3901.975;  102.525;    0.000
755.576; 3953.975;  103.525;    0.000
755.771; 3940.975;   99.525;    0.000
755.965; 4022.975;  158.525;    0.000
756.159; 3941.975;   96.525;    0.000
756.353; 3940.975;  157.525;    0.000
756.547; 3934.975;  132.525;    0.000
756.742; 3894.975;  106.525;    0.000
756.936; 3909.975;  113.525;    0.000
757.130; 3952.975;  114.525;    0.000
757.324; 3958.975;  111.525;    0.000
757.518; 3939.975;  142.525;    0.000
757.712; 4049.975;  137.525;    0.000
757.906; 3902.975;   93.525;    0.000
758.100; 4000.975;  119.525;    0.000
758.294; 3931.975;  132.525;    0.000
758.488; 3901.975;  153.525;    0.000
758.682; 4030.975;  101.525;    0.000
758.876; 3791.975;  129.525;    0.000
759.070; 3926.975;  168.525;    0.000
759.264; 3853.975;   96.525;    0.000
759.458; 3826.975;  117.525;    0.000
759.651; 3999.975;  135.525;    0.000
759.845; 3923.975;  127.525;    0.000
760.039; 3917.975;  120.525;    0.000
760.233; 3940.975;  124.525;    0.000
760.427; 3967.975;  115.525;    0.000
760.620; 3931.975;  130.525;    0.000
760.814; 3875.975;  102.525;    0.000
761.008; 3916.975;  174.525;    0.000
761.202; 3874.975;  132.525;    0.000
761.395; 3877.975;  126.525;    0.000
761.589; 3951.975;  133.525;    0.000
761.783; 3869.975;  147.525;    0.000
761.976; 3934.975;  147.525;    0.000
762.170; 3999.975;  174.525;    0.000
762.363; 3952.975;   97.525;    0.000
762.557; 3921.975;  141.525;    0.000
762.750; 3924.975;  112.525;    0.000
762.944; 3893.975;  110.525;    0.000
763.138; 3895.975;  125.525;    0.000
763.331; 3916.975;  101.525;    0.000
763.524; 4076.975;  101.525;    0.000
763.718; 4106.975;  156.525;    0.000
763.911; 3994.975;  143.525;    0.000
764.105; 3945.975;  139.525;    0.000
764.298; 3996.975;   89.525;    0.000
764.492; 4008.975;  111.525;    0.000
764.685; 3943.975;  136.525;    0.000
764.878; 3913.975;  146.525;    0.000
765.072; 4028.975;  110.525;    0.000
765.265; 4040.975;  141.525;    0.000
765.458; 3930.975;   82.525;    0.000
765.651; 4125.975;  144.525;    0.000
765.845; 4048.975;   79.525;    0.000
766.038; 4092.975;  123.525;    0.000
766.231; 4228.975;  125.525;    0.000
766.424; 5751.975;  131.525;    0.000
766.617; 5902.975;   62.525;    0.000
766.811; 4288.975;  142.525;    0.000
767.004; 4160.975;  134.525;    0.000
767.197; 4178.975;  147.525;    0.000
767.390; 3981.975;  100.525;    0.000
767.583; 4047.975;  121.525;    0.000
767.776; 4170.975;   91.525;    0.000
767.969; 4058.975;  113.525;    0.000
768.162; 4081.975;  170.525;    0.000
768.355; 4002.975;  134.525;    0.000
768.548; 4153.975;  177.525;    0.000
768.741; 4073.975;   96.525;    0.000
768.934; 4101.975;  143.525;    0.000
769.127; 4302.975;  147.525;    0.000
769.320; 4123.975;   93.525;    0.000
769.513; 4332.975;  137.525;    0.000
769.706; 4704.975;   96.525;    0.000
769.898; 5818.975;  118.525;    0.000
770.091; 4939.975;  138.525;    0.000
770.284; 4333.975;  133.525;    0.000
770.477; 4362.975;  137.525;    0.000
770.670; 4468.975;  124.525;    0.000
770.862; 4341.975;  125.525;    0.000
771.055; 4419.975;  135.525;    0.000
771.248; 4432.975;  109.525;    0.000
771.441; 4495.975;  141.525;    0.000
771.633; 4422.975;  142.525;    0.000
771.826; 4480.975;  123.525;    0.000
772.018; 4451.975;  136.525;    0.000
772.211; 4472.975;  145.525;    0.000
772.404; 4589.975;  127.525;    0.000
772.596; 4707.975;  193.525;    0.000
772.789; 4776.975;   64.525;    0.000
772.981; 4787.975;  142.525;    0.000
773.174; 4700.975;  105.525;    0.000
773.366; 4808.975;  166.525;    0.000
773.559; 4913.975;  125.525;    0.000
773.751; 4914.975;  126.525;    0.000
773.944; 4921.975;  147.525;    0.000
774.136; 5134.975;  155.525;    0.000
774.329; 5228.975;  127.525;    0.000
774.521; 5402.975;  133.525;    0.000
774.713; 5555.975;  139.525;    0.000
774.906; 5748.975;  170.525;    0.000
775.098; 5955.975;  144.525;    0.000
775.290; 6182.975;  162.525;    0.000
775.483; 6427.975;  137.525;    0.000
775.675; 6737.975;  148.525;    0.000
775.867; 7226.975;   81.525;    0.000
776.059; 7727.975;  134.525;    0.000
776.251; 8475.975;  137.525;    0.000
776.444; 9501.975;  155.525;    0.000
776.636;10926.975;  148.525;    0.000
776.828;13427.975;  129.525;    0.000
777.020;18495.975;  133.525;    0.000
777.212;26969.975;  137.525;    0.000
777.404;30012.975;  124.525;    0.000
777.596;27987.975;  142.525;    0.000
777.788;21085.975;  155.525;    0.000
777.980;16489.975;  119.525;    0.000
778.172;13726.975;  129.525;    0.000
778.364;11724.975;  122.525;    0.000
778.556;10557.975;  129.525;    0.000
778.748; 9432.975;  178.525;    0.000
778.940; 8734.975;  128.525;    0.000
779.132; 7995.975;  145.525;    0.000
779.324; 7546.975;   89.525;    0.000
779.516; 7062.975;  161.525;    0.000
779.708; 6820.975;  183.525;    0.000
779.900; 6353.975;  124.525;    0.000
780.091; 6095.975;  143.525;    0.000
780.283; 5907.975;  135.525;    0.000
780.475; 5673.975;  129.525;    0.000
780.667; 5576.975;  178.525;    0.000
780.859; 5378.975;  146.525;    0.000
781.050; 5183.975;  156.525;    0.000
781.242; 5129.975;  138.525;    0.000
781.434; 5100.975;  117.525;    0.000
781.625; 4980.975;  161.525;    0.000
781.817; 4859.975;  127.525;    0.000
782.008; 4771.975;  138.525;    0.000
782.200; 4770.975;  139.525;    0.000
782.392; 4750.975;  179.525;    0.000
782.583; 4602.975;  137.525;    0.000
782.775; 4467.975;  162.525;    0.000
782.966; 4481.975;  159.525;    0.000
783.158; 4401.975;  118.525;    0.000
783.349; 4425.975;  160.525;    0.000
783.541; 4377.975;  139.525;    0.000
783.732; 4291.975;  145.525;    0.000
783.924; 4352.975;  146.525;    0.000
784.115; 4388.975;  125.525;    0.000
784.306; 4246.975;  118.525;    0.000
784.498; 4124.975;  144.525;    0.000
784.689; 4287.975;  145.525;    0.000
784.880; 4176.975;  137.525;    0.000
785.072; 4170.975;  157.525;    0.000
785.263; 4157.975;  149.525;    0.000
785.454; 4178.975;  128.525;    0.000
785.645; 3989.975;  131.525;    0.000
785.837; 4088.975;  137.525;    0.000
786.028; 4197.975;  161.525;    0.000
786.219; 3996.975;  155.525;    0.000
786.410; 4173.975;  146.525;    0.000
786.601; 4182.975;  120.525;    0.000
786.792; 4170.975;  179.525;    0.000
786.984; 4174.975;  113.525;    0.000
787.175; 4052.975;  156.525;    0.000
787.366; 4000.975;  131.525;    0.000
787.557; 4073.975;  138.525;    0.000
787.748; 4055.975;  112.525;    0.000
787.939; 4117.975;  115.525;    0.000
788.130; 4138.975;  150.525;    0.000
788.321; 4102.975;  122.525;    0.000
788.512; 4110.975;  147.525;    0.000
788.703; 4119.975;  126.525;    0.000
788.894; 4092.975;   80.525;    0.000
789.084; 4213.975;  127.525;    0.000
789.275; 4161.975;  141.525;    0.000
789.466; 4145.975;  108.525;    0.000
789.657; 4181.975;  137.525;    0.000
789.848; 4224.975;  126.525;    0.000
790.039; 4158.975;  144.525;    0.000
790.229; 4272.975;  105.525;    0.000
790.420; 4186.975;   96.525;    0.000
790.611; 4214.975;  171.525;    0.000
790.801; 4140.975;   89.525;    0.000
790.992; 4181.975;  140.525;    0.000
791.183; 4172.975;  143.525;    0.000
791.373; 4141.975;  128.525;    0.000
791.564; 4101.975;   96.525;    0.000
791.755; 4124.975;  111.525;    0.000
791.945; 4212.975;  112.525;    0.000
792.136; 4146.975;  124.525;    0.000
792.326; 4112.975;   88.525;    0.000
792.517; 4182.975;  130.525;    0.000
792.707; 4168.975;  144.525;    0.000
792.898; 4182.975;  120.525;    0.000
793.088; 4185.975;  106.525;    0.000
793.279; 4316.975;  104.525;    0.000
793.469; 4273.975;  103.525;    0.000
793.660; 4246.975;  120.525;    0.000
793.850; 4467.975;  106.525;    0.000
794.040; 4718.975;  135.525;    0.000
794.231; 4732.975;   80.525;    0.000
794.421; 4950.975;  120.525;    0.000
794.611; 5569.975;  154.525;    0.000
794.802; 6195.975;  103.525;    0.000
794.992; 6655.975;  120.525;    0.000
795.182; 6624.975;  156.525;    0.000
795.372; 6325.975;  104.525;    0.000
795.563; 5842.975;  153.525;    0.000
795.753; 5431.975;  112.525;    0.000
795.943; 5259.975;  128.525;    0.000
796.133; 4898.975;  128.525;    0.000
796.323; 4796.975;  152.525;    0.000
796.513; 4663.975;  123.525;    0.000
796.703; 4369.975;  134.525;    0.000
796.893; 4437.975;  120.525;    0.000
797.083; 4353.975;  136.525;    0.000
797.273; 4264.975;  128.525;    0.000
797.463; 4195.975;  140.525;    0.000
797.653; 4084.975;   75.525;    0.000
797.843; 4056.975;  114.525;    0.000
798.033; 4028.975;   90.525;    0.000
798.223; 3964.975;  136.525;    0.000
798.413; 3957.975;  164.525;    0.000
798.603; 3878.975;  150.525;    0.000
798.793; 3820.975;  137.525;    0.000
798.983; 3716.975;  119.525;    0.000
799.172; 3810.975;  136.525;    0.000
799.362; 3670.975;  138.525;    0.000
799.552; 3713.975;  123.525;    0.000
799.742; 3666.975;  117.525;    0.000
799.932; 3676.975;  108.525;    0.000
800.121; 3665.975;  152.525;    0.000
800.311; 3571.975;  117.525;    0.000
800.501; 3588.975;  100.525;    0.000
800.690; 3599.975;  139.525;    0.000
800.880; 3624.975;  138.525;    0.000
801.070; 3622.975;  120.525;    0.000
801.259; 3557.975;  143.525;    0.000
801.449; 3550.975;  110.525;    0.000
801.638; 3505.975;  140.525;    0.000
801.828; 3490.975;  103.525;    0.000
802.017; 3379.975;   78.525;    0.000
802.207; 3508.975;  126.525;    0.000
802.396; 3451.975;  151.525;    0.000
802.586; 3406.975;  106.525;    0.000
802.775; 3481.975;  152.525;    0.000
802.965; 3383.975;  117.525;    0.000
803.154; 3462.975;  171.525;    0.000
803.343; 3423.975;  126.525;    0.000
803.533; 3397.975;  135.525;    0.000
803.722; 3402.975;  144.525;    0.000
803.911; 3315.975;  109.525;    0.000
804.101; 3317.975;  146.525;    0.000
804.290; 3379.975;  115.525;    0.000
804.479; 3310.975;  128.525;    0.000
804.668; 3415.975;  156.525;    0.000
804.857; 3281.975;  151.525;    0.000
805.047; 3328.975;  131.525;    0.000
805.236; 3293.975;  144.525;    0.000
805.425; 3469.975;  160.525;    0.000
805.614; 3301.975;  112.525;    0.000
805.803; 3404.975;  120.525;    0.000
805.992; 3268.975;  148.525;    0.000
806.181; 3402.975;  108.525;    0.000
806.370; 3270.975;  142.525;    0.000
806.559; 3350.975;  116.525;    0.000
806.748; 3242.975;  108.525;    0.000
806.937; 3346.975;  110.525;    0.000
807.126; 3299.975;  126.525;    0.000
807.315; 3247.975;  121.525;    0.000
807.504; 3333.975;  102.525;    0.000
807.693; 3281.975;  134.525;    0.000
807.882; 3339.975;  135.525;    0.000
808.071; 3199.975;  135.525;    0.000
808.260; 3267.975;   93.525;    0.000
808.448; 3326.975;  151.525;    0.000
808.637; 3294.975;  105.525;    0.000
808.826; 3337.975;  178.525;    0.000
809.015; 3333.975;  152.525;    0.000
809.203; 3297.975;  147.525;    0.000
809.392; 3257.975;  144.525;    0.000
809.581; 3355.975;  167.525;    0.000
809.770; 3390.975;  151.525;    0.000
809.958; 3334.975;  128.525;    0.000
810.147; 3322.975;  152.525;    0.000
810.335; 3252.975;  160.525;    0.000
810.524; 3445.975;  130.525;    0.000
810.713; 3417.975;  128.525;    0.000
810.901; 3475.975;  140.525;    0.000
811.090; 3491.975;  152.525;    0.000
811.278; 3470.975;  126.525;    0.000
811.467; 3582.975;  161.525;    0.000
811.655; 3684.975;  184.525;    0.000
811.844; 3545.975;  148.525;    0.000
812.032; 3523.975;  138.525;    0.000
812.220; 3577.975;  157.525;    0.000
812.409; 3533.975;  143.525;    0.000
812.597; 3546.975;  124.525;    0.000
812.785; 3606.975;  170.525;    0.000
812.974; 3533.975;  135.525;    0.000
813.162; 3572.975;  135.525;    0.000
813.350; 3592.975;  182.525;    0.000
813.539; 3599.975;  126.525;    0.000
813.727; 3689.975;  127.525;    0.000
813.915; 3624.975;  140.525;    0.000
814.103; 3572.975;  176.525;    0.000
814.291; 3670.975;  115.525;    0.000
814.479; 3645.975;  119.525;    0.000
814.668; 3820.975;  134.525;    0.000
814.856; 3724.975;  120.525;    0.000
815.044; 3804.975;  164.525;    0.000
815.232; 3849.975;  146.525;    0.000
815.420; 3856.975;  154.525;    0.000
815.608; 4054.975;  137.525;    0.000
815.796; 3916.975;  108.525;    0.000
815.984; 4040.975;  134.525;    0.000
816.172; 4158.975;  123.525;    0.000
816.360; 4214.975;  181.525;    0.000
816.548; 4315.975;  139.525;    0.000
816.736; 4514.975;  138.525;    0.000
816.924; 4576.975;  151.525;    0.000
817.111; 4655.975;  156.525;    0.000
817.299; 4893.975;  147.525;    0.000
817.487; 5273.975;  188.525;    0.000
817.675; 5593.975;  129.525;    0.000
817.863; 6338.975;  128.525;    0.000
818.050; 7819.975;  110.525;    0.000
818.238;12540.975;  166.525;    0.000
818.426;16996.975;  136.525;    0.000
818.613;13062.975;  143.525;    0.000
818.801;11611.975;  150.525;    0.000
818.989;11117.975;  179.525;    0.000
819.176;11522.975;  123.525;    0.000
819.364;15338.975;  148.525;    0.000
819.552;21043.975;   86.525;    0.000
819.739;15281.975;  169.525;    0.000
819.927;11982.975;  130.525;    0.000
820.114;10391.975;  144.525;    0.000
820.302; 9455.975;  166.525;    0.000
820.489; 8749.975;  145.525;    0.000
820.677; 8244.975;  101.525;    0.000
820.864; 8187.975;  149.525;    0.000
821.052; 8449.975;  130.525;    0.000
821.239; 8807.975;  147.525;    0.000
821.426; 9304.975;  121.525;    0.000
821.614;11034.975;  187.525;    0.000
821.801;11801.975;  105.525;    0.000
821.988;10452.975;  167.525;    0.000
822.176;10137.975;  130.525;    0.000
822.363;10114.975;  143.525;    0.000
822.550; 9561.975;  108.525;    0.000
822.737; 8554.975;  109.525;    0.000
822.924; 7964.975;  156.525;    0.000
823.112; 7626.975;  123.525;    0.000
823.299; 7123.975;  128.525;    0.000
823.486; 6806.975;  138.525;    0.000
823.673; 6553.975;  125.525;    0.000
823.860; 6240.975;  138.525;    0.000
824.047; 6495.975;  122.525;    0.000
824.234; 7167.975;  134.525;    0.000
824.421; 6997.975;   95.525;    0.000
824.608; 6316.975;  151.525;    0.000
824.795; 5916.975;  117.525;    0.000
824.982; 5579.975;  143.525;    0.000
825.169; 5083.975;   83.525;    0.000
825.356; 5032.975;  126.525;    0.000
825.543; 4856.975;   92.525;    0.000
825.730; 4548.975;  113.525;    0.000
825.917; 4417.975;  142.525;    0.000
826.104; 4339.975;  182.525;    0.000
826.290; 4276.975;  137.525;    0.000
826.477; 4032.975;  126.525;    0.000
826.664; 4022.975;  135.525;    0.000
826.851; 3904.975;  139.525;    0.000
827.038; 3861.975;  135.525;    0.000
827.224; 3880.975;  143.525;    0.000
827.411; 3818.975;  153.525;    0.000
827.598; 3777.975;  122.525;    0.000
827.784; 3640.975;  138.525;    0.000
827.971; 3568.975;  134.525;    0.000
828.157; 3546.975;  152.525;    0.000
828.344; 3529.975;  135.525;    0.000
828.531; 3402.975;  137.525;    0.000
828.717; 3316.975;  117.525;    0.000
828.904; 3248.975;  127.525;    0.000
829.090; 3385.975;  172.525;    0.000
829.277; 3216.975;  144.525;    0.000
829.463; 3259.975;  159.525;    0.000
829.650; 3336.975;  187.525;    0.000
829.836; 3164.975;  138.525;    0.000
830.022; 3186.975;  196.525;    0.000
830.209; 3164.975;  118.525;    0.000
830.395; 3091.975;  148.525;    0.000
830.581; 3190.975;  108.525;    0.000
830.768; 2954.975;  137.525;    0.000
830.954; 3039.975;  162.525;    0.000
831.140; 3038.975;  117.525;    0.000
831.327; 2953.975;  176.525;    0.000
831.513; 3005.975;  162.525;    0.000
831.699; 3031.975;  157.525;    0.000
831.885; 2935.975;  153.525;    0.000
832.071; 2937.975;  123.525;    0.000
832.257; 2912.975;  142.525;    0.000
832.444; 2914.975;  165.525;    0.000
832.630; 2885.975;  159.525;    0.000
832.816; 2901.975;  145.525;    0.000
833.002; 2874.975;  120.525;    0.000
833.188; 2852.975;  145.525;    0.000
833.374; 2775.975;  137.525;    0.000
833.560; 2836.975;  152.525;    0.000
833.746; 2766.975;  139.525;    0.000
833.932; 2659.975;  170.525;    0.000
834.118; 2754.975;  111.525;    0.000
834.303; 2775.975;  141.525;    0.000
834.489; 2724.975;  146.525;    0.000
834.675; 2791.975;  156.525;    0.000
834.861; 2753.975;   87.525;    0.000
835.047; 2775.975;  134.525;    0.000
835.233; 2707.975;   89.525;    0.000
835.418; 2736.975;  145.525;    0.000
835.604; 2597.975;  136.525;    0.000
835.790; 2702.975;  132.525;    0.000
835.976; 2701.975;  161.525;    0.000
836.161; 2687.975;  157.525;    0.000
836.347; 2568.975;  147.525;    0.000
836.533; 2594.975;  116.525;    0.000
836.718; 2651.975;  168.525;    0.000
836.904; 2626.975;  199.525;    0.000
837.089; 2779.975;  165.525;    0.000
837.275; 2674.975;  166.525;    0.000
837.460; 2685.975;  144.525;    0.000
837.646; 2641.975;  164.525;    0.000
837.831; 2637.975;  122.525;    0.000
838.017; 2639.975;  163.525;    0.000
838.202; 2601.975;  139.525;    0.000
838.388; 2614.975;  174.525;    0.000
838.573; 2600.975;  140.525;    0.000
838.759; 2670.975;  167.525;    0.000
838.944; 2549.975;  142.525;    0.000
839.129; 2612.975;  164.525;    0.000
839.315; 2667.975;  129.525;    0.000
839.500; 2674.975;  150.525;    0.000
839.685; 2597.975;  118.525;    0.000
839.870; 2746.975;  177.525;    0.000
840.056; 2662.975;  144.525;    0.000
840.241; 2609.975;  121.525;    0.000
840.426; 2641.975;  131.525;    0.000
840.611; 2756.975;  177.525;    0.000
840.796; 2707.975;  173.525;    0.000
840.981; 2677.975;  156.525;    0.000
841.166; 2758.975;  145.525;    0.000
841.352; 2762.975;  150.525;    0.000
841.537; 2804.975;  143.525;    0.000
841.722; 2829.975;  165.525;    0.000
841.907; 2776.975;  184.525;    0.000
842.092; 2817.975;  171.525;    0.000
842.277; 2827.975;  155.525;    0.000
842.461; 3032.975;  152.525;    0.000
842.646; 2980.975;  107.525;    0.000
842.831; 3136.975;  160.525;    0.000
843.016; 3220.975;  160.525;    0.000
843.201; 3167.975;  164.525;    0.000
843.386; 3222.975;  134.525;    0.000
843.571; 3448.975;  132.525;    0.000
843.755; 3610.975;  158.525;    0.000
843.940; 3830.975;  152.525;    0.000
844.125; 4271.975;  154.525;    0.000
844.310; 4919.975;  147.525;    0.000
844.494; 6316.975;  158.525;    0.000
844.679; 8385.975;  173.525;    0.000
844.864; 8261.975;  152.525;    0.000
845.048; 6935.975;  139.525;    0.000
845.233; 5917.975;  200.525;    0.000
845.418; 5238.975;  139.525;    0.000
845.602; 4602.975;  147.525;    0.000
845.787; 4360.975;  148.525;    0.000
845.971; 4057.975;  170.525;    0.000
846.156; 3730.975;  136.525;    0.000
846.340; 3625.975;  146.525;    0.000
846.525; 3439.975;  188.525;    0.000
846.709; 3314.975;  128.525;    0.000
846.893; 3252.975;  151.525;    0.000
847.078; 2971.975;  164.525;    0.000
847.262; 3024.975;  155.525;    0.000
847.447; 2837.975;  114.525;    0.000
847.631; 2899.975;  148.525;    0.000
847.815; 2786.975;  114.525;    0.000
848.000; 2811.975;  134.525;    0.000
848.184; 2716.975;  154.525;    0.000
848.368; 2662.975;  145.525;    0.000
848.552; 2677.975;  122.525;    0.000
848.736; 2581.975;  139.525;    0.000
848.921; 2657.975;  143.525;    0.000
849.105; 2592.975;  145.525;    0.000
849.289; 2535.975;  173.525;    0.000
849.473; 2508.975;  147.525;    0.000
849.657; 2462.975;  144.525;    0.000
849.841; 2410.975;  168.525;    0.000
850.025; 2456.975;  205.525;    0.000
850.209; 2503.975;  171.525;    0.000
850.393; 2386.975;  130.525;    0.000
850.577; 2517.975;  146.525;    0.000
850.761; 2467.975;  188.525;    0.000
850.945; 2450.975;  137.525;    0.000
851.129; 2451.975;  192.525;    0.000
851.313; 2325.975;  199.525;    0.000
851.497; 2394.975;  165.525;    0.000
851.680; 2383.975;  196.525;    0.000
851.864; 2289.975;  169.525;    0.000
852.048; 2449.975;  156.525;    0.000
852.232; 2364.975;  150.525;    0.000
852.416; 2431.975;  219.525;    0.000
852.599; 2389.975;  168.525;    0.000
852.783; 2342.975;  165.525;    0.000
852.967; 2312.975;  166.525;    0.000
853.150; 2370.975;  191.525;    0.000
853.334; 2369.975;  158.525;    0.000
853.518; 2402.975;  168.525;    0.000
853.701; 2269.975;  125.525;    0.000
853.885; 2306.975;  165.525;    0.000
854.068; 2291.975;  142.525;    0.000
854.252; 2350.975;  167.525;    0.000
854.435; 2323.975;  146.525;    0.000
854.619; 2222.975;  163.525;    0.000
854.802; 2263.975;  167.525;    0.000
854.986; 2271.975;  163.525;    0.000
855.169; 2309.975;  146.525;    0.000
855.353; 2301.975;  183.525;    0.000
855.536; 2299.975;  140.525;    0.000
855.719; 2379.975;  168.525;    0.000
855.903; 2259.975;  170.525;    0.000
856.086; 2292.975;  145.525;    0.000
856.269; 2296.975;  126.525;    0.000
856.452; 2449.975;  142.525;    0.000
856.636; 2407.975;  140.525;    0.000
856.819; 2577.975;  127.525;    0.000
857.002; 2524.975;  165.525;    0.000
857.185; 2640.975;  111.525;    0.000
857.368; 2516.975;  143.525;    0.000
857.552; 2501.975;  174.525;    0.000
857.735; 2408.975;  194.525;    0.000
857.918; 2464.975;  171.525;    0.000
858.101; 2474.975;  142.525;    0.000
858.284; 2484.975;  118.525;    0.000
858.467; 2422.975;  163.525;    0.000
858.650; 2438.975;  149.525;    0.000
858.833; 2578.975;  120.525;    0.000
859.016; 2567.975;  169.525;    0.000
859.199; 2632.975;  121.525;    0.000
859.382; 2889.975;  184.525;    0.000
859.564; 3103.975;  139.525;    0.000
859.747; 2997.975;  126.525;    0.000
859.930; 2933.975;  109.525;    0.000
860.113; 2852.975;  137.525;    0.000
860.296; 2860.975;  182.525;    0.000
860.478; 2693.975;  136.525;    0.000
860.661; 2756.975;  157.525;    0.000
860.844; 2694.975;  129.525;    0.000
861.027; 2794.975;  163.525;    0.000
861.209; 2604.975;  151.525;    0.000
861.392; 2638.975;  124.525;    0.000
861.575; 2722.975;  163.525;    0.000
861.757; 2767.975;  205.525;    0.000
861.940; 2779.975;  180.525;    0.000
862.122; 2768.975;  148.525;    0.000
862.305; 2795.975;  128.525;    0.000
862.487; 2981.975;  172.525;    0.000
862.670; 3159.975;  123.525;    0.000
862.852; 3569.975;  126.525;    0.000
863.035; 4126.975;  174.525;    0.000
863.217; 4181.975;  160.525;    0.000
863.400; 3728.975;  164.525;    0.000
863.582; 3591.975;  118.525;    0.000
863.764; 3506.975;  143.525;    0.000
863.947; 3303.975;  137.525;    0.000
864.129; 3224.975;  166.525;    0.000
864.311; 3166.975;  128.525;    0.000
864.493; 3155.975;  153.525;    0.000
864.676; 3071.975;  156.525;    0.000
864.858; 3045.975;  159.525;    0.000
865.040; 3108.975;  163.525;    0.000
865.222; 2983.975;  138.525;    0.000
865.404; 2991.975;  157.525;    0.000
865.587; 3243.975;  184.525;    0.000
865.769; 3384.975;  178.525;    0.000
865.951; 3318.975;  104.525;    0.000
866.133; 3417.975;  147.525;    0.000
866.315; 3315.975;  141.525;    0.000
866.497; 3345.975;  132.525;    0.000
866.679; 3464.975;  139.525;    0.000
866.861; 3581.975;  118.525;    0.000
867.043; 3668.975;  154.525;    0.000
867.225; 3933.975;  147.525;    0.000
867.407; 4166.975;  158.525;    0.000
867.589; 4766.975;  172.525;    0.000
867.770; 5768.975;  159.525;    0.000
867.952; 7524.975;  149.525;    0.000
868.134; 9608.975;  156.525;    0.000
868.316; 9675.975;  171.525;    0.000
868.498; 9283.975;  200.525;    0.000
868.679; 8276.975;  174.525;    0.000
868.861; 7048.975;  175.525;    0.000
869.043; 6012.975;  174.525;    0.000
869.224; 5183.975;  122.525;    0.000
869.406; 4965.975;  166.525;    0.000
869.588; 4684.975;  143.525;    0.000
869.769; 4416.975;  152.525;    0.000
869.951; 4342.975;  165.525;    0.000
870.132; 4357.975;  115.525;    0.000
870.314; 4596.975;  139.525;    0.000
870.495; 4848.975;  168.525;    0.000
870.677; 4414.975;  188.525;    0.000
870.858; 4173.975;  123.525;    0.000
871.040; 4646.975;  170.525;    0.000
871.221; 4918.975;  148.525;    0.000
871.403; 4684.975;  140.525;    0.000
871.584; 4357.975;  174.525;    0.000
871.765; 4558.975;  168.525;    0.000
871.947; 4717.975;  191.525;    0.000
872.128; 4297.975;  132.525;    0.000
872.309; 3856.975;  140.525;    0.000
872.491; 3600.975;  157.525;    0.000
872.672; 3319.975;  130.525;    0.000
872.853; 3232.975;  148.525;    0.000
873.034; 3124.975;  138.525;    0.000
873.215; 3068.975;  152.525;    0.000
873.396; 3006.975;  149.525;    0.000
873.578; 2791.975;  173.525;    0.000
873.759; 2756.975;  158.525;    0.000
873.940; 2676.975;  147.525;    0.000
874.121; 2586.975;  136.525;    0.000
874.302; 2531.975;  151.525;    0.000
874.483; 2517.975;  137.525;    0.000
874.664; 2604.975;  163.525;    0.000
874.845; 2578.975;  124.525;    0.000
875.026; 2457.975;  134.525;    0.000
875.207; 2423.975;  164.525;    0.000
875.388; 2482.975;  163.525;    0.000
875.568; 2320.975;  176.525;    0.000
875.749; 2287.975;  108.525;    0.000
875.930; 2282.975;  191.525;    0.000
876.111; 2267.975;  170.525;    0.000
876.292; 2193.975;  180.525;    0.000
876.472; 2214.975;  150.525;    0.000
876.653; 2225.975;  162.525;    0.000
876.834; 2255.975;  176.525;    0.000
877.015; 2227.975;  203.525;    0.000
877.195; 2144.975;  178.525;    0.000
877.376; 2213.975;  141.525;    0.000
877.556; 2212.975;  135.525;    0.000
877.737; 2111.975;  174.525;    0.000
877.918; 2129.975;  150.525;    0.000
878.098; 2094.975;  133.525;    0.000
878.279; 2140.975;  129.525;    0.000
878.459; 2082.975;  162.525;    0.000
878.640; 2205.975;  187.525;    0.000
878.820; 2062.975;  151.525;    0.000
879.000; 2051.975;  159.525;    0.000
879.181; 2032.975;  171.525;    0.000
879.361; 2195.975;  167.525;    0.000
879.542; 2070.975;  126.525;    0.000
879.722; 2103.975;  152.525;    0.000
879.902; 2079.975;  144.525;    0.000
880.083; 2120.975;  154.525;    0.000
880.263; 2153.975;  148.525;    0.000
880.443; 2231.975;  185.525;    0.000
880.623; 2493.975;  172.525;    0.000
880.803; 2725.975;  152.525;    0.000
880.984; 2458.975;  165.525;    0.000
881.164; 2330.975;  164.525;    0.000
881.344; 2297.975;  141.525;    0.000
881.524; 2264.975;  160.525;    0.000
881.704; 2264.975;  164.525;    0.000
881.884; 2287.975;  159.525;    0.000
882.064; 2321.975;  158.525;    0.000
882.244; 2400.975;  147.525;    0.000
882.424; 2428.975;  160.525;    0.000
882.604; 2288.975;  150.525;    0.000
882.784; 2241.975;  138.525;    0.000
882.964; 2110.975;  157.525;    0.000
883.144; 2238.975;  128.525;    0.000
883.324; 2178.975;  220.525;    0.000
883.504; 2142.975;  177.525;    0.000
883.683; 2092.975;  159.525;    0.000
883.863; 1991.975;  143.525;    0.000
884.043; 1957.975;  156.525;    0.000
884.223; 1997.975;  152.525;    0.000
884.402; 1999.975;  169.525;    0.000
884.582; 2006.975;  162.525;    0.000
884.762; 1991.975;  172.525;    0.000
884.941; 1958.975;  220.525;    0.000
885.121; 2008.975;  128.525;    0.000
885.301; 2027.975;  141.525;    0.000
885.480; 1929.975;  141.525;    0.000
885.660; 1985.975;  132.525;    0.000
885.839; 1989.975;  146.525;    0.000
886.019; 1978.975;  170.525;    0.000
886.198; 1919.975;  143.525;    0.000
886.378; 1812.975;  159.525;    0.000
886.557; 1994.975;  148.525;    0.000
886.737; 1918.975;  125.525;    0.000
886.916; 1857.975;  177.525;    0.000
887.095; 1901.975;  186.525;    0.000
887.275; 1868.975;  134.525;    0.000
887.454; 1867.975;  148.525;    0.000
887.633; 1925.975;  171.525;    0.000
887.813; 1870.975;  187.525;    0.000
887.992; 1932.975;  157.525;    0.000
888.171; 1898.975;  143.525;    0.000
888.350; 1875.975;  182.525;    0.000
888.530; 1880.975;  142.525;    0.000
888.709; 1849.975;  160.525;    0.000
888.888; 1878.975;  197.525;    0.000
889.067; 1869.975;  126.525;    0.000
889.246; 1871.975;  197.525;    0.000
889.425; 1956.975;  161.525;    0.000
889.604; 1914.975;  180.525;    0.000
889.783; 1889.975;  135.525;    0.000
889.962; 1784.975;  107.525;    0.000
890.141; 1813.975;  167.525;    0.000
890.320; 1814.975;  149.525;    0.000
890.499; 1871.975;  194.525;    0.000
890.678; 1826.975;  138.525;    0.000
890.857; 1874.975;  146.525;    0.000
891.036; 1888.975;  178.525;    0.000
891.214; 1801.975;  151.525;    0.000
891.393; 1833.975;  137.525;    0.000
891.572; 1839.975;  177.525;    0.000
891.751; 1877.975;  149.525;    0.000
891.930; 1888.975;  189.525;    0.000
892.108; 1916.975;  136.525;    0.000
892.287; 1842.975;  129.525;    0.000
892.466; 1891.975;  163.525;    0.000
892.644; 1932.975;  147.525;    0.000
892.823; 1898.975;  127.525;    0.000
893.001; 1882.975;  192.525;    0.000
893.180; 1821.975;  157.525;    0.000
893.359; 1873.975;  176.525;    0.000
893.537; 1784.975;  146.525;    0.000
893.716; 1837.975;  154.525;    0.000
893.894; 1811.975;  166.525;    0.000
894.073; 1872.975;  163.525;    0.000
894.251; 1856.975;  166.525;    0.000
894.429; 1792.975;  149.525;    0.000
894.608; 1896.975;  141.525;    0.000
894.786; 1787.975;  139.525;    0.000
894.964; 1912.975;  180.525;    0.000
895.143; 1872.975;  193.525;    0.000
895.321; 1820.975;  163.525;    0.000
895.499; 1880.975;  163.525;    0.000
895.677; 1803.975;  194.525;    0.000
895.856; 1954.975;  176.525;    0.000
896.034; 1880.975;  173.525;    0.000
896.212; 1900.975;  180.525;    0.000
896.390; 1820.975;  146.525;    0.000
896.568; 1863.975;  167.525;    0.000
896.746; 1887.975;  158.525;    0.000
896.924; 1906.975;  163.525;    0.000
897.102; 1882.975;  170.525;    0.000
897.280; 1844.975;  159.525;    0.000
897.458; 1877.975;  182.525;    0.000
897.636; 1891.975;  151.525;    0.000
897.814; 1885.975;  130.525;    0.000
897.992; 1935.975;  213.525;    0.000
898.170; 1906.975;  164.525;    0.000
898.348; 1892.975;  159.525;    0.000
898.526; 2047.975;  182.525;    0.000
898.704; 1896.975;  209.525;    0.000
898.882; 1963.975;  145.525;    0.000
899.059; 1891.975;  172.525;    0.000
899.237; 1924.975;  172.525;    0.000
899.415; 1899.975;  211.525;    0.000
899.593; 1916.975;  151.525;    0.000
899.770; 1981.975;  147.525;    0.000
899.948; 1975.975;  218.525;    0.000
900.125; 2028.975;  166.525;    0.000
900.303; 1989.975;  146.525;    0.000
900.481; 1948.975;  174.525;    0.000
900.658; 2056.975;  198.525;    0.000
900.836; 1977.975;  125.525;    0.000
901.013; 1934.975;  197.525;    0.000
901.191; 2004.975;  181.525;    0.000
901.368; 2040.975;  185.525;    0.000
901.546; 2070.975;  197.525;    0.000
901.723; 2102.975;  205.525;    0.000
901.901; 2077.975;  187.525;    0.000
902.078; 2182.975;  163.525;    0.000
902.255; 2098.975;  141.525;    0.000
902.433; 2187.975;  183.525;    0.000
902.610; 2125.975;  181.525;    0.000
902.787; 2188.975;  174.525;    0.000
902.964; 2183.975;  174.525;    0.000
903.142; 2243.975;  141.525;    0.000
903.319; 2283.975;  214.525;    0.000
903.496; 2380.975;  187.525;    0.000
903.673; 2334.975;  183.525;    0.000
903.850; 2299.975;  125.525;    0.000
904.027; 2407.975;  197.525;    0.000
904.204; 2451.975;  197.525;    0.000
904.381; 2656.975;  196.525;    0.000
904.558; 2963.975;  176.525;    0.000
904.735; 3291.975;  179.525;    0.000
904.912; 3289.975;  203.525;    0.000
905.089; 3231.975;  159.525;    0.000
905.266; 3174.975;  176.525;    0.000
905.443; 2939.975;  184.525;    0.000
905.620; 2885.975;  168.525;    0.000
905.797; 2722.975;  214.525;    0.000
905.974; 2583.975;  154.525;    0.000
906.151; 2623.975;  132.525;    0.000
906.327; 2601.975;  192.525;    0.000
906.504; 2596.975;  186.525;    0.000
906.681; 2425.975;  171.525;    0.000
906.858; 2383.975;  181.525;    0.000
907.034; 2365.975;  164.525;    0.000
907.211; 2272.975;  184.525;    0.000
907.388; 2344.975;  177.525;    0.000
907.564; 2290.975;  150.525;    0.000
907.741; 2283.975;  195.525;    0.000
907.917; 2272.975;  190.525;    0.000
908.094; 2258.975;  214.525;    0.000
908.271; 2148.975;  173.525;    0.000
908.447; 2279.975;  229.525;    0.000
908.623; 2191.975;  162.525;    0.000
908.800; 2150.975;  195.525;    0.000
908.976; 2123.975;  171.525;    0.000
909.153; 2142.975;  167.525;    0.000
909.329; 2149.975;  227.525;    0.000
909.505; 2089.975;  167.525;    0.000
909.682; 2071.975;  174.525;    0.000
909.858; 1979.975;  158.525;    0.000
910.034; 2005.975;  188.525;    0.000
910.211; 2060.975;  158.525;    0.000
910.387; 2056.975;  208.525;    0.000
910.563; 2013.975;  203.525;    0.000
910.739; 1989.975;  201.525;    0.000
910.915; 2046.975;  170.525;    0.000
911.091; 1990.975;  171.525;    0.000
911.268; 1964.975;  220.525;    0.000
911.444; 1988.975;  202.525;    0.000
911.620; 2036.975;  175.525;    0.000
911.796; 1919.975;  175.525;    0.000
911.972; 1991.975;  164.525;    0.000
912.148; 2032.975;  174.525;    0.000
912.324; 2020.975;  155.525;    0.000
912.500; 1942.975;  156.525;    0.000
912.676; 1965.975;  138.525;    0.000
912.851; 2007.975;  158.525;    0.000
913.027; 2070.975;  161.525;    0.000
913.203; 1984.975;  168.525;    0.000
913.379; 1889.975;  172.525;    0.000
913.555; 1970.975;  193.525;    0.000
913.730; 2029.975;  149.525;    0.000
913.906; 2031.975;  159.525;    0.000
914.082; 2004.975;  184.525;    0.000
914.258; 1980.975;  194.525;    0.000
914.433; 1983.975;  175.525;    0.000
914.609; 1970.975;  175.525;    0.000
914.784; 1945.975;  170.525;    0.000
914.960; 1948.975;  212.525;    0.000
915.136; 1938.975;  157.525;    0.000
915.311; 2109.975;  204.525;    0.000
915.487; 1917.975;  180.525;    0.000
915.662; 2064.975;  203.525;    0.000
915.838; 2016.975;  194.525;    0.000
916.013; 1999.975;  217.525;    0.000
916.189; 2084.975;  196.525;    0.000
916.364; 2014.975;  236.525;    0.000
916.539; 1982.975;  192.525;    0.000
916.715; 1908.975;  181.525;    0.000
916.890; 2011.975;  185.525;    0.000
917.065; 1970.975;  166.525;    0.000
917.240; 2009.975;  182.525;    0.000
917.416; 2095.975;  188.525;    0.000
917.591; 1986.975;  185.525;    0.000
917.766; 1949.975;  187.525;    0.000
917.941; 1981.975;  181.525;    0.000
918.116; 2062.975;  207.525;    0.000
918.292; 1963.975;  140.525;    0.000
918.467; 2049.975;  187.525;    0.000
918.642; 1994.975;  208.525;    0.000
918.817; 2092.975;  203.525;    0.000
918.992; 2035.975;  162.525;    0.000
919.167; 2059.975;  206.525;    0.000
919.342; 2066.975;  188.525;    0.000
919.517; 2017.975;  190.525;    0.000
919.692; 2158.975;  174.525;    0.000
919.867; 2105.975;  181.525;    0.000
920.041; 2095.975;  179.525;    0.000
920.216; 2181.975;  186.525;    0.000
920.391; 2194.975;  209.525;    0.000
920.566; 2163.975;  205.525;    0.000
920.741; 2210.975;  205.525;    0.000
920.915; 2335.975;  206.525;    0.000
921.090; 2330.975;  219.525;    0.000
921.265; 2599.975;  185.525;    0.000
921.439; 2831.975;  171.525;    0.000
921.614; 2703.975;  197.525;    0.000
921.789; 2457.975;  189.525;    0.000
921.963; 2459.975;  210.525;    0.000
922.138; 2409.975;  171.525;    0.000
922.312; 2411.975;  194.525;    0.000
922.487; 2423.975;  231.525;    0.000
922.661; 2360.975;  179.525;    0.000
922.836; 2577.975;  213.525;    0.000
923.010; 2654.975;  182.525;    0.000
923.185; 2445.975;  239.525;    0.000
923.359; 2461.975;  200.525;    0.000
923.534; 2430.975;  232.525;    0.000
923.708; 2448.975;  221.525;    0.000
923.882; 2545.975;  193.525;    0.000
924.057; 2508.975;  204.525;    0.000
924.231; 2352.975;  172.525;    0.000
924.405; 2371.975;  202.525;    0.000
924.579; 2404.975;  207.525;    0.000
924.753; 2398.975;  167.525;    0.000
924.928; 2390.975;  202.525;    0.000
925.102; 2342.975;  200.525;    0.000
925.276; 2343.975;  185.525;    0.000
925.450; 2422.975;  170.525;    0.000
925.624; 2337.975;  176.525;    0.000
925.798; 2395.975;  221.525;    0.000
925.972; 2445.975;  162.525;    0.000
926.146; 2617.975;  207.525;    0.000
926.320; 2671.975;  185.525;    0.000
926.494; 2902.975;  192.525;    0.000
926.668; 3021.975;  179.525;    0.000
926.842; 3026.975;  181.525;    0.000
927.016; 3122.975;  224.525;    0.000
927.190; 3055.975;  193.525;    0.000
927.363; 2927.975;  194.525;    0.000
927.537; 2970.975;  210.525;    0.000
927.711; 2791.975;  153.525;    0.000
927.885; 2845.975;  184.525;    0.000
928.058; 2767.975;  197.525;    0.000
928.232; 2637.975;  219.525;    0.000
928.406; 2671.975;  175.525;    0.000
928.579; 2593.975;  179.525;    0.000
928.753; 2570.975;  208.525;    0.000
928.927; 2581.975;  163.525;    0.000
929.100; 2554.975;  138.525;    0.000
929.274; 2379.975;  160.525;    0.000
929.447; 2428.975;  152.525;    0.000
929.621; 2403.975;  168.525;    0.000
929.794; 2400.975;  152.525;    0.000
929.968; 2435.975;  163.525;    0.000
930.141; 2379.975;  164.525;    0.000
930.315; 2224.975;  170.525;    0.000
930.488; 2339.975;  216.525;    0.000
930.661; 2258.975;  184.525;    0.000
930.835; 2303.975;  156.525;    0.000
931.008; 2253.975;  206.525;    0.000
931.181; 2218.975;  163.525;    0.000
931.354; 2203.975;  198.525;    0.000
931.528; 2287.975;  156.525;    0.000
931.701; 2193.975;  170.525;    0.000
931.874; 2130.975;  167.525;    0.000
932.047; 2217.975;  146.525;    0.000
932.220; 2089.975;  159.525;    0.000
932.393; 2121.975;  186.525;    0.000
932.566; 2108.975;  147.525;    0.000
932.739; 2109.975;  192.525;    0.000
932.912; 2096.975;  197.525;    0.000
933.085; 2074.975;  176.525;    0.000
933.258; 2046.975;  171.525;    0.000
933.431; 2078.975;  150.525;    0.000
933.604; 2088.975;  176.525;    0.000
933.777; 2068.975;  215.525;    0.000
933.950; 1991.975;  164.525;    0.000
934.123; 2031.975;  174.525;    0.000
934.296; 2083.975;  203.525;    0.000
934.468; 2026.975;  208.525;    0.000
934.641; 1972.975;  182.525;    0.000
934.814; 2033.975;  170.525;    0.000
934.987; 2019.975;  183.525;    0.000
935.159; 2019.975;  154.525;    0.000
935.332; 2021.975;  178.525;    0.000
935.505; 1936.975;  213.525;    0.000
935.677; 1930.975;  173.525;    0.000
935.850; 2037.975;  190.525;    0.000
936.022; 2063.975;  205.525;    0.000
936.195; 1964.975;  201.525;    0.000
936.367; 1998.975;  189.525;    0.000
936.540; 2039.975;  179.525;    0.000
936.712; 2058.975;  195.525;    0.000
936.885; 2025.975;  207.525;    0.000
937.057; 2000.975;  163.525;    0.000
937.229; 2029.975;  175.525;    0.000
937.402; 2133.975;  168.525;    0.000
937.574; 2133.975;  136.525;    0.000
937.746; 2110.975;  166.525;    0.000
937.919; 2252.975;  178.525;    0.000
938.091; 2344.975;  192.525;    0.000
938.263; 2434.975;  164.525;    0.000
938.435; 2580.975;  204.525;    0.000
938.608; 2813.975;  153.525;    0.000
938.780; 3078.975;  159.525;    0.000
938.952; 3284.975;  160.525;    0.000
939.124; 3319.975;  156.525;    0.000
939.296; 3712.975;  110.525;    0.000
939.468; 3826.975;  135.525;    0.000
939.640; 3455.975;  144.525;    0.000
939.812; 3268.975;  232.525;    0.000
939.984; 2941.975;  128.525;    0.000
940.156; 2724.975;  195.525;    0.000
940.328; 2615.975;  226.525;    0.000
940.500; 2513.975;  146.525;    0.000
940.672; 2528.975;  190.525;    0.000
940.843; 2408.975;  156.525;    0.000
941.015; 2356.975;  200.525;    0.000
941.187; 2235.975;  159.525;    0.000
941.359; 2242.975;  183.525;    0.000
941.531; 2184.975;  137.525;    0.000
941.702; 2194.975;  186.525;    0.000
941.874; 2126.975;  164.525;    0.000
942.046; 2195.975;  202.525;    0.000
942.217; 2047.975;  146.525;    0.000
942.389; 2098.975;  165.525;    0.000
942.560; 2087.975;  191.525;    0.000
942.732; 2075.975;  240.525;    0.000
942.904; 2113.975;  173.525;    0.000
943.075; 1985.975;  157.525;    0.000
943.247; 2001.975;  155.525;    0.000
943.418; 1963.975;  164.525;    0.000
943.589; 1927.975;  150.525;    0.000
943.761; 1936.975;  143.525;    0.000
943.932; 1980.975;  151.525;    0.000
944.104; 1944.975;  194.525;    0.000
944.275; 1907.975;  154.525;    0.000
944.446; 1899.975;  169.525;    0.000
944.617; 1916.975;  138.525;    0.000
944.789; 1906.975;  158.525;    0.000
944.960; 1908.975;  197.525;    0.000
945.131; 1909.975;  139.525;    0.000
945.302; 1859.975;  169.525;    0.000
945.473; 1854.975;  149.525;    0.000
945.645; 1951.975;  171.525;    0.000
945.816; 1936.975;  167.525;    0.000
945.987; 1930.975;  156.525;    0.000
946.158; 2015.975;  185.525;    0.000
946.329; 1963.975;  201.525;    0.000
946.500; 1923.975;  182.525;    0.000
946.671; 1872.975;  156.525;    0.000
946.842; 1953.975;  190.525;    0.000
947.013; 1777.975;  159.525;    0.000
947.183; 1857.975;  209.525;    0.000
947.354; 1761.975;  171.525;    0.000
947.525; 1830.975;  180.525;    0.000
947.696; 1824.975;  163.525;    0.000
947.867; 1880.975;  168.525;    0.000
948.037; 1768.975;  153.525;    0.000
948.208; 1844.975;  178.525;    0.000
948.379; 1879.975;  192.525;    0.000
948.550; 1810.975;  180.525;    0.000
948.720; 1848.975;  196.525;    0.000
948.891; 1862.975;  173.525;    0.000
949.061; 1810.975;  207.525;    0.000
949.232; 1753.975;  176.525;    0.000
949.403; 1773.975;  152.525;    0.000
949.573; 1780.975;  186.525;    0.000
949.744; 1767.975;  181.525;    0.000
949.914; 1771.975;  174.525;    0.000
950.085; 1788.975;  146.525;    0.000
950.255; 1734.975;  162.525;    0.000
950.425; 1824.975;  189.525;    0.000
950.596; 1745.975;  175.525;    0.000
950.766; 1785.975;  209.525;    0.000
950.936; 1814.975;  201.525;    0.000
951.107; 1711.975;  141.525;    0.000
951.277; 1784.975;  211.525;    0.000
951.447; 1766.975;  218.525;    0.000
951.617; 1806.975;  191.525;    0.000
951.788; 1721.975;  193.525;    0.000
951.958; 1751.975;  217.525;    0.000
952.128; 1788.975;  192.525;    0.000
952.298; 1809.975;  237.525;    0.000
952.468; 1755.975;  194.525;    0.000
952.638; 1738.975;  201.525;    0.000
952.808; 1751.975;  203.525;    0.000
952.978; 1770.975;  216.525;    0.000
953.148; 1732.975;  209.525;    0.000
953.318; 1785.975;  213.525;    0.000
953.488; 1721.975;  161.525;    0.000
953.658; 1765.975;  222.525;    0.000
953.828; 1731.975;  196.525;    0.000
953.998; 1730.975;  227.525;    0.000
954.167; 1784.975;  163.525;    0.000
954.337; 1758.975;  201.525;    0.000
954.507; 1704.975;  227.525;    0.000
954.677; 1669.975;  204.525;    0.000
954.846; 1765.975;  210.525;    0.000
955.016; 1686.975;  198.525;    0.000
955.186; 1691.975;  203.525;    0.000
955.355; 1762.975;  198.525;    0.000
955.525; 1770.975;  198.525;    0.000
955.695; 1722.975;  187.525;    0.000
955.864; 1713.975;  243.525;    0.000
956.034; 1619.975;  192.525;    0.000
956.203; 1739.975;  259.525;    0.000
956.373; 1685.975;  185.525;    0.000
956.542; 1689.975;  230.525;    0.000
956.711; 1698.975;  218.525;    0.000
956.881; 1757.975;  232.525;    0.000
957.050; 1761.975;  246.525;    0.000
957.220; 1744.975;  229.525;    0.000
957.389; 1678.975;  211.525;    0.000
957.558; 1693.975;  173.525;    0.000
957.727; 1660.975;  226.525;    0.000
957.897; 1634.975;  209.525;    0.000
958.066; 1646.975;  217.525;    0.000
958.235; 1669.975;  160.525;    0.000
958.404; 1638.975;  199.525;    0.000
958.573; 1672.975;  223.525;    0.000
958.743; 1661.975;  189.525;    0.000
958.912; 1661.975;  199.525;    0.000
959.081; 1676.975;  216.525;    0.000
959.250; 1591.975;  192.525;    0.000
959.419; 1690.975;  216.525;    0.000
959.588; 1660.975;  209.525;    0.000
959.757; 1630.975;  194.525;    0.000
959.926; 1658.975;  200.525;    0.000
960.094; 1599.975;  174.525;    0.000
960.263; 1617.975;  218.525;    0.000
960.432; 1626.975;  173.525;    0.000
960.601; 1639.975;  177.525;    0.000
960.770; 1603.975;  188.525;    0.000
960.939; 1701.975;  167.525;    0.000
961.107; 1552.975;  195.525;    0.000
961.276; 1551.975;  183.525;    0.000
961.445; 1603.975;  195.525;    0.000
961.613; 1587.975;  198.525;    0.000
961.782; 1584.975;  224.525;    0.000
961.951; 1650.975;  178.525;    0.000
962.119; 1627.975;  214.525;    0.000
962.288; 1541.975;  174.525;    0.000
962.456; 1571.975;  197.525;    0.000
962.625; 1648.975;  212.525;    0.000
962.793; 1611.975;  183.525;    0.000
962.962; 1601.975;  189.525;    0.000
963.130; 1560.975;  151.525;    0.000
963.298; 1583.975;  197.525;    0.000
963.467; 1566.975;  202.525;    0.000
963.635; 1623.975;  172.525;    0.000
963.803; 1596.975;  203.525;    0.000
963.972; 1544.975;  204.525;    0.000
964.140; 1579.975;  193.525;    0.000
964.308; 1587.975;  159.525;    0.000
964.477; 1653.975;  142.525;    0.000
964.645; 1568.975;  202.525;    0.000
964.813; 1652.975;  158.525;    0.000
964.981; 1619.975;  179.525;    0.000
965.149; 1629.975;  176.525;    0.000
965.317; 1724.975;  229.525;    0.000
965.485; 1608.975;  179.525;    0.000
965.653; 1590.975;  205.525;    0.000
965.821; 1647.975;  196.525;    0.000
965.989; 1606.975;  202.525;    0.000
966.157; 1618.975;  199.525;    0.000
966.325; 1600.975;  178.525;    0.000
966.493; 1589.975;  177.525;    0.000
966.661; 1489.975;  172.525;    0.000
966.829; 1531.975;  167.525;    0.000
966.996; 1639.975;  202.525;    0.000
967.164; 1596.975;  175.525;    0.000
967.332; 1628.975;  207.525;    0.000
967.500; 1616.975;  170.525;    0.000
967.667; 1677.975;  222.525;    0.000
967.835; 1663.975;  245.525;    0.000
968.003; 1596.975;  180.525;    0.000
968.170; 1590.975;  222.525;    0.000
968.338; 1652.975;  183.525;    0.000
968.505; 1624.975;  197.525;    0.000
968.673; 1649.975;  209.525;    0.000
968.841; 1582.975;  162.525;    0.000
969.008; 1591.975;  187.525;    0.000
969.175; 1636.975;  204.525;    0.000
969.343; 1620.975;  157.525;    0.000
969.510; 1548.975;  189.525;    0.000
969.678; 1573.975;  153.525;    0.000
969.845; 1611.975;  190.525;    0.000
970.012; 1628.975;  162.525;    0.000
970.180; 1672.975;  223.525;    0.000
970.347; 1616.975;  195.525;    0.000
970.514; 1556.975;  185.525;    0.000
970.681; 1609.975;  187.525;    0.000
970.849; 1634.975;  183.525;    0.000
971.016; 1608.975;  168.525;    0.000
971.183; 1656.975;  160.525;    0.000
971.350; 1618.975;  193.525;    0.000
971.517; 1680.975;  202.525;    0.000
971.684; 1699.975;  242.525;    0.000
971.851; 1636.975;  192.525;    0.000
972.018; 1584.975;  194.525;    0.000
972.185; 1643.975;  193.525;    0.000
972.352; 1648.975;  187.525;    0.000
972.519; 1705.975;  233.525;    0.000
972.686; 1628.975;  186.525;    0.000
972.853; 1650.975;  165.525;    0.000
973.020; 1597.975;  183.525;    0.000
973.186; 1608.975;  186.525;    0.000
973.353; 1642.975;  177.525;    0.000
973.520; 1632.975;  203.525;    0.000
973.687; 1679.975;  211.525;    0.000
973.853; 1690.975;  194.525;    0.000
974.020; 1616.975;  201.525;    0.000
974.187; 1611.975;  187.525;    0.000
974.353; 1694.975;  188.525;    0.000
974.520; 1609.975;  136.525;    0.000
974.687; 1647.975;  169.525;    0.000
974.853; 1598.975;  207.525;    0.000
975.020; 1595.975;  190.525;    0.000
975.186; 1715.975;  182.525;    0.000
975.353; 1580.975;  202.525;    0.000
975.519; 1509.975;  189.525;    0.000
975.685; 1555.975;  176.525;    0.000
975.852; 1587.975;  175.525;    0.000
976.018; 1515.975;  155.525;    0.000
976.184; 1610.975;  179.525;    0.000
976.351; 1600.975;  191.525;    0.000
976.517; 1641.975;  246.525;    0.000
976.683; 1595.975;  222.525;    0.000
976.849; 1623.975;  216.525;    0.000
977.016; 1627.975;  212.525;    0.000
977.182; 1582.975;  192.525;    0.000
977.348; 1516.975;  145.525;    0.000
977.514; 1583.975;  195.525;    0.000
977.680; 1563.975;  210.525;    0.000
977.846; 1515.975;  172.525;    0.000
978.012; 1579.975;  190.525;    0.000
978.178; 1598.975;  201.525;    0.000
978.344; 1583.975;  190.525;    0.000
978.510; 1499.975;  199.525;    0.000
978.676; 1589.975;  174.525;    0.000
978.842; 1571.975;  195.525;    0.000
979.008; 1589.975;  205.525;    0.000
979.174; 1497.975;  187.525;    0.000
979.340; 1551.975;  194.525;    0.000
979.505; 1520.975;  221.525;    0.000
979.671; 1621.975;  178.525;    0.000
979.837; 1670.975;  215.525;    0.000
980.003; 1576.975;  176.525;    0.000
980.168; 1577.975;  185.525;    0.000
980.334; 1542.975;  165.525;    0.000
980.499; 1640.975;  231.525;    0.000
980.665; 1597.975;  238.525;    0.000
980.831; 1634.975;  194.525;    0.000
980.996; 1644.975;  169.525;    0.000
981.162; 1571.975;  199.525;    0.000
981.327; 1578.975;  158.525;    0.000
981.493; 1624.975;  193.525;    0.000
981.658; 1519.975;  181.525;    0.000
981.823; 1610.975;  199.525;    0.000
981.989; 1575.975;  186.525;    0.000
982.154; 1551.975;  225.525;    0.000
982.319; 1632.975;  191.525;    0.000
982.485; 1735.975;  205.525;    0.000
982.650; 1613.975;  234.525;    0.000
982.815; 1663.975;  193.525;    0.000
982.980; 1611.975;  177.525;    0.000
983.146; 1594.975;  212.525;    0.000
983.311; 1615.975;  177.525;    0.000
983.476; 1570.975;  185.525;    0.000
983.641; 1575.975;  149.525;    0.000
983.806; 1575.975;  175.525;    0.000
983.971; 1587.975;  234.525;    0.000
984.136; 1607.975;  191.525;    0.000
984.301; 1611.975;  215.525;    0.000
984.466; 1651.975;  207.525;    0.000
984.631; 1599.975;  206.525;    0.000
984.796; 1633.975;  229.525;    0.000
984.961; 1611.975;  220.525;    0.000
985.126; 1679.975;  204.525;    0.000
985.291; 1639.975;  210.525;    0.000
985.455; 1591.975;  193.525;    0.000
985.620; 1652.975;  207.525;    0.000
985.785; 1559.975;  188.525;    0.000
985.950; 1605.975;  168.525;    0.000
986.114; 1539.975;  239.525;    0.000
986.279; 1581.975;  223.525;    0.000
986.444; 1588.975;  154.525;    0.000
986.608; 1691.975;  232.525;    0.000
986.773; 1624.975;  214.525;    0.000
986.937; 1651.975;  220.525;    0.000
987.102; 1650.975;  224.525;    0.000
987.266; 1566.975;  157.525;    0.000
987.431; 1687.975;  246.525;    0.000
987.595; 1638.975;  203.525;    0.000
987.760; 1659.975;  202.525;    0.000
987.924; 1623.975;  208.525;    0.000
988.088; 1603.975;  169.525;    0.000
988.253; 1583.975;  237.525;    0.000
988.417; 1557.975;  202.525;    0.000
988.581; 1619.975;  215.525;    0.000
988.746; 1559.975;  210.525;    0.000
988.910; 1625.975;  191.525;    0.000
989.074; 1567.975;  197.525;    0.000
989.238; 1500.975;  191.525;    0.000
989.402; 1655.975;  222.525;    0.000
989.566; 1649.975;  221.525;    0.000
989.731; 1572.975;  216.525;    0.000
989.895; 1573.975;  183.525;    0.000
990.059; 1642.975;  150.525;    0.000
990.223; 1535.975;  183.525;    0.000
990.387; 1622.975;  241.525;    0.000
990.551; 1608.975;  198.525;    0.000
990.714; 1650.975;  176.525;    0.000
990.878; 1521.975;  203.525;    0.000
991.042; 1595.975;  146.525;    0.000
991.206; 1623.975;  199.525;    0.000
991.370; 1586.975;  223.525;    0.000
991.534; 1643.975;  158.525;    0.000
991.697; 1662.975;  182.525;    0.000
991.861; 1627.975;  195.525;    0.000
992.025; 1605.975;  206.525;    0.000
992.188; 1515.975;  174.525;    0.000
992.352; 1507.975;  183.525;    0.000
992.516; 1635.975;  181.525;    0.000
992.679; 1515.975;  162.525;    0.000
992.843; 1624.975;  173.525;    0.000
993.006; 1553.975;  189.525;    0.000
993.170; 1613.975;  200.525;    0.000
993.333; 1611.975;  167.525;    0.000
993.497; 1569.975;  217.525;    0.000
993.660; 1620.975;  179.525;    0.000
993.824; 1596.975;  195.525;    0.000
993.987; 1644.975;  186.525;    0.000
994.150; 1621.975;  164.525;    0.000
994.314; 1646.975;  215.525;    0.000
994.477; 1600.975;  186.525;    0.000
994.640; 1620.975;  192.525;    0.000
994.803; 1602.975;  215.525;    0.000
994.967; 1632.975;  208.525;    0.000
995.130; 1539.975;  196.525;    0.000
995.293; 1594.975;  221.525;    0.000
995.456; 1586.975;  164.525;    0.000
995.619; 1633.975;  224.525;    0.000
995.782; 1598.975;  184.525;    0.000
995.945; 1607.975;  220.525;    0.000
996.108; 1637.975;  187.525;    0.000
996.271; 1651.975;  192.525;    0.000
996.434; 1660.975;  162.525;    0.000
996.597; 1521.975;  148.525;    0.000
996.760; 1645.975;  186.525;    0.000
996.923; 1624.975;  154.525;    0.000
997.086; 1623.975;  156.525;    0.000
997.248; 1682.975;  215.525;    0.000
997.411; 1580.975;  160.525;    0.000
997.574; 1506.975;  159.525;    0.000
997.737; 1534.975;  179.525;    0.000
997.899; 1601.975;  184.525;    0.000
998.062; 1519.975;  180.525;    0.000
998.225; 1538.975;  168.525;    0.000
998.387; 1623.975;  192.525;    0.000
998.550; 1575.975;  178.525;    0.000
998.712; 1632.975;  192.525;    0.000
998.875; 1615.975;  230.525;    0.000
999.037; 1533.975;  200.525;    0.000
999.200; 1561.975;  196.525;    0.000
999.362; 1535.975;  173.525;    0.000
999.525; 1686.975;  196.525;    0.000
999.687; 1623.975;  159.525;    0.000
999.849; 1582.975;  180.525;    0.000
1000.012; 1680.975;  210.525;    0.000
1000.174; 1595.975;  175.525;    0.000
1000.336; 1597.975;  174.525;    0.000
1000.499; 1655.975;  180.525;    0.000
1000.661; 1629.975;  204.525;    0.000
1000.823; 1588.975;  181.525;    0.000
1000.985; 1587.975;  178.525;    0.000
1001.147; 1666.975;  215.525;    0.000
1001.309; 1615.975;  212.525;    0.000
1001.471; 1690.975;  192.525;    0.000
1001.633; 1658.975;  207.525;    0.000
1001.796; 1719.975;  211.525;    0.000
1001.958; 1849.975;  200.525;    0.000
1002.119; 1707.975;  210.525;    0.000
1002.281; 1869.975;  204.525;    0.000
1002.443; 1859.975;  230.525;    0.000
1002.605; 1913.975;  178.525;    0.000
1002.767; 1982.975;  228.525;    0.000
1002.929; 2023.975;  199.525;    0.000
1003.091; 2068.975;  220.525;    0.000
1003.252; 2209.975;  219.525;    0.000
1003.414; 2294.975;  213.525;    0.000
1003.576; 2397.975;  202.525;    0.000
1003.738; 2435.975;  184.525;    0.000
1003.899; 2616.975;  218.525;    0.000
1004.061; 2680.975;  210.525;    0.000
1004.222; 2841.975;  179.525;    0.000
1004.384; 2890.975;  183.525;    0.000
1004.546; 2923.975;  206.525;    0.000
1004.707; 2968.975;  191.525;    0.000
1004.869; 3024.975;  197.525;    0.000
1005.030; 2998.975;  186.525;    0.000
1005.191; 2899.975;  188.525;    0.000
1005.353; 2895.975;  215.525;    0.000
1005.514; 2740.975;  184.525;    0.000
1005.675; 2638.975;  209.525;    0.000
1005.837; 2437.975;  239.525;    0.000
1005.998; 2433.975;  218.525;    0.000
1006.159; 2425.975;  212.525;    0.000
1006.321; 2472.975;  220.525;    0.000
1006.482; 2559.975;  201.525;    0.000
1006.643; 2770.975;  222.525;    0.000
1006.804; 2892.975;  191.525;    0.000
1006.965; 2826.975;  214.525;    0.000
1007.126; 2914.975;  214.525;    0.000
1007.287; 2961.975;  243.525;    0.000
1007.448; 2905.975;  251.525;    0.000
1007.609; 2930.975;  244.525;    0.000
1007.770; 2653.975;  211.525;    0.000
1007.931; 2745.975;  225.525;    0.000
1008.092; 2760.975;  188.525;    0.000
1008.253; 2778.975;  224.525;    0.000
1008.414; 2913.975;  198.525;    0.000
1008.575; 2958.975;  244.525;    0.000
1008.736; 3040.975;  219.525;    0.000
1008.896; 2868.975;  206.525;    0.000
1009.057; 2845.975;  258.525;    0.000
1009.218; 2766.975;  209.525;    0.000
1009.379; 2841.975;  204.525;    0.000
1009.539; 2978.975;  242.525;    0.000
1009.700; 3028.975;  205.525;    0.000
1009.860; 3034.975;  211.525;    0.000
1010.021; 2921.975;  219.525;    0.000
1010.182; 3000.975;  206.525;    0.000
1010.342; 2895.975;  219.525;    0.000
1010.503; 2966.975;  231.525;    0.000
1010.663; 3075.975;  260.525;    0.000
1010.823; 3130.975;  200.525;    0.000
1010.984; 3180.975;  189.525;    0.000
1011.144; 3135.975;  234.525;    0.000
1011.305; 3223.975;  212.525;    0.000
1011.465; 3411.975;  202.525;    0.000
1011.625; 3393.975;  236.525;    0.000
1011.785; 3476.975;  203.525;    0.000
1011.946; 3419.975;  195.525;    0.000
1012.106; 3409.975;  176.525;    0.000
1012.266; 3401.975;  211.525;    0.000
1012.426; 3426.975;  244.525;    0.000
1012.586; 3408.975;  202.525;    0.000
1012.746; 3353.975;  234.525;    0.000
1012.906; 3350.975;  246.525;    0.000
1013.066; 3404.975;  232.525;    0.000
1013.226; 3493.975;  248.525;    0.000
1013.386; 3340.975;  231.525;    0.000
1013.546; 3388.975;  233.525;    0.000
1013.706; 3319.975;  211.525;    0.000
1013.866; 3350.975;  240.525;    0.000
1014.026; 3468.975;  188.525;    0.000
1014.186; 3384.975;  186.525;    0.000
1014.346; 3294.975;  203.525;    0.000
1014.505; 3553.975;  238.525;    0.000
1014.665; 3635.975;  206.525;    0.000
1014.825; 3574.975;  200.525;    0.000
1014.985; 3396.975;  215.525;    0.000
1015.144; 3689.975;  250.525;    0.000
1015.304; 3920.975;  195.525;    0.000
1015.464; 3787.975;  237.525;    0.000
1015.623; 3583.975;  232.525;    0.000
1015.783; 3942.975;  220.525;    0.000
1015.942; 4434.975;  219.525;    0.000
1016.102; 4330.975;  202.525;    0.000
1016.261; 4187.975;  225.525;    0.000
1016.420; 4543.975;  246.525;    0.000
1016.580; 5295.975;  226.525;    0.000
1016.739; 4979.975;  214.525;    0.000
1016.899; 4785.975;  205.525;    0.000
1017.058; 4951.975;  217.525;    0.000
1017.217; 5241.975;  199.525;    0.000
1017.376; 5081.975;  219.525;    0.000
1017.536; 4491.975;  209.525;    0.000
1017.695; 4592.975;  213.525;    0.000
1017.854; 4763.975;  187.525;    0.000
1018.013; 4690.975;  222.525;    0.000
1018.172; 4380.975;  204.525;    0.000
1018.331; 4455.975;  195.525;    0.000
1018.490; 4670.975;  213.525;    0.000
1018.649; 5057.975;  216.525;    0.000
1018.808; 5349.975;  227.525;    0.000
1018.967; 5056.975;  206.525;    0.000
1019.126; 4949.975;  206.525;    0.000
1019.285; 5425.975;  219.525;    0.000
1019.444; 5230.975;  218.525;    0.000
1019.603; 4834.975;  206.525;    0.000
1019.762; 4686.975;  189.525;    0.000
1019.921; 4790.975;  217.525;    0.000
1020.079; 5134.975;  200.525;    0.000
1020.238; 5555.975;  219.525;    0.000
1020.397; 5197.975;  227.525;    0.000
1020.555; 4763.975;  207.525;    0.000
1020.714; 4993.975;  253.525;    0.000
1020.873; 5475.975;  230.525;    0.000
1021.031; 5427.975;  232.525;    0.000
1021.190; 5118.975;  226.525;    0.000
1021.348; 4957.975;  224.525;    0.000
1021.507; 5374.975;  215.525;    0.000
1021.665; 6015.975;  233.525;    0.000
1021.824; 5491.975;  196.525;    0.000
1021.982; 4947.975;  215.525;    0.000
1022.141; 5062.975;  200.525;    0.000
1022.299; 5897.975;  200.525;    0.000
1022.457; 6137.975;  179.525;    0.000
1022.616; 5467.975;  226.525;    0.000
1022.774; 4911.975;  216.525;    0.000
1022.932; 5225.975;  212.525;    0.000
1023.090; 6148.975;  220.525;    0.000
1023.249; 6104.975;  194.525;    0.000
1023.407; 5495.975;  227.525;    0.000
1023.565; 4923.975;  190.525;    0.000
1023.723; 5510.975;  190.525;    0.000
1023.881; 6156.975;  214.525;    0.000
1024.039; 6218.975;  179.525;    0.000
1024.197; 5757.975;  274.525;    0.000
1024.355; 5329.975;  269.525;    0.000
1024.513; 5479.975;  259.525;    0.000
1024.671; 6092.975;  211.525;    0.000
1024.829; 6409.975;  230.525;    0.000
1024.987; 5894.975;  239.525;    0.000
1025.145; 5362.975;  231.525;    0.000
1025.302; 5441.975;  212.525;    0.000
1025.460; 6182.975;  224.525;    0.000
1025.618; 6534.975;  217.525;    0.000
1025.776; 5929.975;  232.525;    0.000
1025.933; 5485.975;  212.525;    0.000
1026.091; 5514.975;  214.525;    0.000
1026.249; 6145.975;  224.525;    0.000
1026.406; 6507.975;  219.525;    0.000
1026.564; 6204.975;  262.525;    0.000
1026.721; 5788.975;  206.525;    0.000
1026.879; 5681.975;  227.525;    0.000
1027.036; 6120.975;  234.525;    0.000
1027.194; 6517.975;  256.525;    0.000
1027.351; 6680.975;  229.525;    0.000
1027.509; 6054.975;  253.525;    0.000
1027.666; 5688.975;  248.525;    0.000
1027.823; 6246.975;  215.525;    0.000
1027.981; 6542.975;  248.525;    0.000
1028.138; 6810.975;  257.525;    0.000
1028.295; 6435.975;  215.525;    0.000
1028.452; 5842.975;  236.525;    0.000
1028.609; 5961.975;  240.525;    0.000
1028.767; 6719.975;  258.525;    0.000
1028.924; 6935.975;  211.525;    0.000
1029.081; 6711.975;  226.525;    0.000
1029.238; 6327.975;  228.525;    0.000
1029.395; 5980.975;  264.525;    0.000
1029.552; 6311.975;  227.525;    0.000
1029.709; 6855.975;  232.525;    0.000
1029.866; 7145.975;  223.525;    0.000
1030.023; 7093.975;  220.525;    0.000
1030.180; 6118.975;  222.525;    0.000
1030.337; 5989.975;  224.525;    0.000
1030.494; 6475.975;  228.525;    0.000
1030.650; 6786.975;  242.525;    0.000
1030.807; 7646.975;  214.525;    0.000
1030.964; 6825.975;  207.525;    0.000
1031.121; 6582.975;  236.525;    0.000
1031.277; 6185.975;  206.525;    0.000
1031.434; 6451.975;  249.525;    0.000
1031.591; 7221.975;  253.525;    0.000
1031.747; 7522.975;  240.525;    0.000
1031.904; 7435.975;  212.525;    0.000
1032.060; 7084.975;  185.525;    0.000
1032.217; 6783.975;  201.525;    0.000
1032.373; 7162.975;  207.525;    0.000
1032.530; 7529.975;  226.525;    0.000
1032.686; 8447.975;  226.525;    0.000
1032.843; 8708.975;  203.525;    0.000
1032.999; 8047.975;  233.525;    0.000
1033.155; 8295.975;  232.525;    0.000
1033.312; 8082.975;  239.525;    0.000
1033.468; 9273.975;  207.525;    0.000
1033.624;10154.975;  238.525;    0.000
1033.780;10379.975;  255.525;    0.000
1033.937;10457.975;  188.525;    0.000
1034.093; 9507.975;  244.525;    0.000
1034.249; 9728.975;  182.525;    0.000
1034.405; 9613.975;  251.525;    0.000
1034.561;10475.975;  250.525;    0.000
1034.717;10972.975;  208.525;    0.000
1034.873;11109.975;  210.525;    0.000
1035.029;11632.975;  245.525;    0.000
1035.185;11076.975;  230.525;    0.000
1035.341;10435.975;  209.525;    0.000
1035.497;11506.975;  244.525;    0.000
1035.653;11658.975;  229.525;    0.000
1035.809;12558.975;  275.525;    0.000
1035.964;13566.975;  203.525;    0.000
1036.120;12919.975;  215.525;    0.000
1036.276;13033.975;  228.525;    0.000
1036.432;12829.975;  183.525;    0.000
1036.587;12075.975;  214.525;    0.000
1036.743;12317.975;  240.525;    0.000
1036.899;13529.975;  202.525;    0.000
1037.054;13702.975;  182.525;    0.000
1037.210;15566.975;  228.525;    0.000
1037.365;16107.975;  239.525;    0.000
1037.521;14742.975;  230.525;    0.000
1037.676;14388.975;  217.525;    0.000
1037.832;13431.975;  235.525;    0.000
1037.987;13399.975;  210.525;    0.000
1038.143;13407.975;  206.525;    0.000
1038.298;15815.975;  177.525;    0.000
1038.453;15208.975;  215.525;    0.000
1038.609;17179.975;  210.525;    0.000
1038.764;18121.975;  227.525;    0.000
1038.919;16657.975;  197.525;    0.000
1039.074;16129.975;  183.525;    0.000
1039.229;15062.975;  218.525;    0.000
1039.385;14851.975;  251.525;    0.000
1039.540;14922.975;  222.525;    0.000
1039.695;16564.975;  215.525;    0.000
1039.850;18052.975;  204.525;    0.000
1040.005;19367.975;  241.525;    0.000
1040.160;19899.975;  180.525;    0.000
1040.315;20027.975;  197.525;    0.000
1040.470;18478.975;  180.525;    0.000
1040.625;17272.975;  196.525;    0.000
1040.780;17237.975;  245.525;    0.000
1040.935;16679.975;  204.525;    0.000
1041.089;17677.975;  213.525;    0.000
1041.244;20487.975;  200.525;    0.000
1041.399;21890.975;  212.525;    0.000
1041.554;22652.975;  239.525;    0.000
1041.708;24899.975;  238.525;    0.000
1041.863;24716.975;  213.525;    0.000
1042.018;23643.975;  236.525;    0.000
1042.172;22041.975;  238.525;    0.000
1042.327;22270.975;  254.525;    0.000
1042.481;22177.975;  197.525;    0.000
1042.636;22656.975;  205.525;    0.000
1042.791;22961.975;  218.525;    0.000
1042.945;27720.975;  261.525;    0.000
1043.099;29613.975;  201.525;    0.000
1043.254;28492.975;  191.525;    0.000
1043.408;28978.975;  279.525;    0.000
1043.563;30884.975;  203.525;    0.000
1043.717;29696.975;  229.525;    0.000
1043.871;27930.975;  213.525;    0.000
1044.025;28324.975;  240.525;    0.000
1044.180;27429.975;  220.525;    0.000
1044.334;26970.975;  268.525;    0.000
1044.488;29306.975;  261.525;    0.000
1044.642;30289.975;  205.525;    0.000
1044.796;32634.975;  240.525;    0.000
1044.950;36270.977;  258.525;    0.000
1045.104;40231.977;  218.525;    0.000
1045.258;39205.977;  213.525;    0.000
1045.412;38580.977;  223.525;    0.000
1045.566;37253.977;  240.525;    0.000
1045.720;35937.977;  235.525;    0.000
1045.874;33253.977;  221.525;    0.000
1046.028;32718.975;  247.525;    0.000
1046.182;32536.975;  200.525;    0.000
1046.336;32618.975;  220.525;    0.000
1046.489;32878.977;  228.525;    0.000
1046.643;34314.977;  249.525;    0.000
1046.797;38401.977;  230.525;    0.000
1046.951;39854.977;  234.525;    0.000
1047.104;40215.977;  262.525;    0.000
1047.258;42259.977;  210.525;    0.000
1047.411;43507.977;  235.525;    0.000
1047.565;42686.977;  237.525;    0.000
1047.719;41263.977;  237.525;    0.000
1047.872;40501.977;  225.525;    0.000
1048.026;38819.977;  237.525;    0.000
1048.179;40183.977;  220.525;    0.000
1048.332;39727.977;  219.525;    0.000
1048.486;38701.977;  195.525;    0.000
1048.639;38840.977;  213.525;    0.000
1048.792;38325.977;  245.525;    0.000
1048.946;43517.977;  234.525;    0.000
1049.099;46615.977;  226.525;    0.000
1049.252;47642.977;  282.525;    0.000
1049.406;45052.977;  255.525;    0.000
1049.559;46382.977;  223.525;    0.000
1049.712;50892.977;  253.525;    0.000
1049.865;52799.977;  271.525;    0.000
1050.018;52013.977;  241.525;    0.000
1050.171;46368.977;  202.525;    0.000
1050.324;47143.977;  250.525;    0.000
1050.477;46994.977;  251.525;    0.000
1050.630;50565.977;  216.525;    0.000
1050.783;51382.977;  205.525;    0.000
1050.936;48190.977;  219.525;    0.000
1051.089;48423.977;  247.525;    0.000
1051.242;47945.977;  238.525;    0.000
1051.394;53482.977;  252.525;    0.000
1051.547;54371.977;  245.525;    0.000
1051.700;51813.977;  206.525;    0.000
1051.853;52053.977;  270.525;    0.000
1052.005;53920.977;  245.525;    0.000
1052.158;58489.977;  290.525;    0.000
1052.311;62319.977;  237.525;    0.000
1052.463;60268.977;  271.525;    0.000
1052.616;54448.977;  255.525;    0.000
1052.768;49230.977;  257.525;    0.000
1052.921;48898.977;  289.525;    0.000
1053.073;53741.977;  287.525;    0.000
1053.226;58088.977;  268.525;    0.000
1053.378;64548.977;  294.525;    0.000
1053.531;65103.977;  255.525;    0.000
1053.683;63723.977;  293.525;    0.000
1053.835;56284.977;  274.525;    0.000
1053.988;45114.977;  282.525;    0.000
1054.140; 8086.975;  291.525;    0.000
1054.292; 1867.975;  292.525;    0.000
1054.444; 1549.975;  299.525;    0.000
1054.596; 1388.975;  319.525;    0.000
1054.749; 1159.975;  295.525;    0.000
1054.901; 1107.975;  266.525;    0.000
1055.053; 1027.975;  300.525;    0.000
1055.205; 1048.975;  290.525;    0.000
1055.357;  972.975;  304.525;    0.000
1055.509;  915.975;  292.525;    0.000
1055.661;  877.975;  339.525;    0.000
1055.813;  911.975;  306.525;    0.000
1055.965;  850.975;  293.525;    0.000
1056.116;  846.975;  300.525;    0.000
1056.268;  837.975;  306.525;    0.000
1056.420;  890.975;  288.525;    0.000

