
Integration time [ms]:   0.300
Averaging Nr. [scans]: 1
Smoothing Nr. [pixels]: 0
Data measured with spectrometer [name]: UV1
Wave   ;Sample   ;Dark     ;Reference
[nm]   ;[counts] ;[counts] ;[counts] 

236.381;  138.225;  160.350;    0.000
236.451;  165.225;  198.350;    0.000
236.520;  182.225;  179.350;    0.000
236.590;  219.225;  205.350;    0.000
236.660;  158.225;  199.350;    0.000
236.730;  176.225;  178.350;    0.000
236.799;  179.225;  201.350;    0.000
236.869;  184.225;  197.350;    0.000
236.939;  176.225;  180.350;    0.000
237.009;  154.225;  165.350;    0.000
237.078;  143.225;  191.350;    0.000
237.148;  160.225;  146.350;    0.000
237.218;  229.225;  142.350;    0.000
237.287;  181.225;  190.350;    0.000
237.357;  158.225;  182.350;    0.000
237.427;  178.225;  139.350;    0.000
237.496; 1285.225;  221.350;    0.000
237.566; 1191.225;  183.350;    0.000
237.636; 1179.225;  157.350;    0.000
237.705; 1156.225;  189.350;    0.000
237.775; 1230.225;  169.350;    0.000
237.845; 1215.225;  156.350;    0.000
237.914; 1228.225;  185.350;    0.000
237.984; 1240.225;  194.350;    0.000
238.054; 1201.225;  138.350;    0.000
238.123; 1244.225;  166.350;    0.000
238.193; 1210.225;  174.350;    0.000
238.263; 1175.225;  158.350;    0.000
238.332; 1169.225;  167.350;    0.000
238.402; 1219.225;  173.350;    0.000
238.471; 1177.225;  153.350;    0.000
238.541; 1176.225;  167.350;    0.000
238.611; 1138.225;  165.350;    0.000
238.680; 1153.225;  157.350;    0.000
238.750; 1206.225;  152.350;    0.000
238.819; 1195.225;  190.350;    0.000
238.889; 1179.225;  151.350;    0.000
238.958; 1166.225;  166.350;    0.000
239.028; 1117.225;  180.350;    0.000
239.097; 1140.225;  170.350;    0.000
239.167; 1236.225;  177.350;    0.000
239.237; 1208.225;  195.350;    0.000
239.306; 1168.225;  145.350;    0.000
239.376; 1221.225;  158.350;    0.000
239.445; 1225.225;  187.350;    0.000
239.515; 1179.225;  160.350;    0.000
239.584; 1179.225;  173.350;    0.000
239.654; 1117.225;  184.350;    0.000
239.723; 1159.225;  195.350;    0.000
239.793; 1143.225;  183.350;    0.000
239.862; 1132.225;  190.350;    0.000
239.932; 1212.225;  168.350;    0.000
240.001; 1159.225;  164.350;    0.000
240.070; 1196.225;  183.350;    0.000
240.140; 1156.225;  175.350;    0.000
240.209; 1117.225;  135.350;    0.000
240.279; 1155.225;  176.350;    0.000
240.348; 1156.225;  184.350;    0.000
240.418; 1115.225;  157.350;    0.000
240.487; 1157.225;  189.350;    0.000
240.556; 1095.225;  157.350;    0.000
240.626; 1166.225;  174.350;    0.000
240.695; 1115.225;  180.350;    0.000
240.765; 1136.225;  152.350;    0.000
240.834; 1181.225;  136.350;    0.000
240.903; 1120.225;  196.350;    0.000
240.973; 1188.225;  183.350;    0.000
241.042; 1158.225;  150.350;    0.000
241.112; 1115.225;  168.350;    0.000
241.181; 1093.225;  152.350;    0.000
241.250; 1117.225;  132.350;    0.000
241.320; 1165.225;  209.350;    0.000
241.389; 1100.225;  169.350;    0.000
241.458; 1158.225;  204.350;    0.000
241.528; 1113.225;  176.350;    0.000
241.597; 1129.225;  170.350;    0.000
241.666; 1169.225;  168.350;    0.000
241.736; 1175.225;  172.350;    0.000
241.805; 1098.225;  160.350;    0.000
241.874; 1169.225;  176.350;    0.000
241.943; 1163.225;  165.350;    0.000
242.013; 1159.225;  206.350;    0.000
242.082; 1074.225;  162.350;    0.000
242.151; 1108.225;  180.350;    0.000
242.221; 1131.225;  154.350;    0.000
242.290; 1054.225;  122.350;    0.000
242.359;  998.225;  121.350;    0.000
242.428; 1158.225;  187.350;    0.000
242.498; 1121.225;  140.350;    0.000
242.567; 1098.225;  173.350;    0.000
242.636; 1098.225;  155.350;    0.000
242.705; 1080.225;  108.350;    0.000
242.774; 1070.225;  145.350;    0.000
242.844; 1119.225;  162.350;    0.000
242.913; 1120.225;  178.350;    0.000
242.982; 1102.225;  163.350;    0.000
243.051; 1145.225;  138.350;    0.000
243.120; 1160.225;  172.350;    0.000
243.190; 1050.225;  155.350;    0.000
243.259; 1119.225;  159.350;    0.000
243.328; 1066.225;  173.350;    0.000
243.397; 1077.225;  175.350;    0.000
243.466; 1081.225;  170.350;    0.000
243.535; 1096.225;  161.350;    0.000
243.605; 1126.225;  149.350;    0.000
243.674; 1106.225;  162.350;    0.000
243.743; 1073.225;  175.350;    0.000
243.812; 1109.225;  159.350;    0.000
243.881; 1067.225;  158.350;    0.000
243.950; 1072.225;  154.350;    0.000
244.019; 1074.225;  185.350;    0.000
244.088; 1145.225;  175.350;    0.000
244.158; 1117.225;  167.350;    0.000
244.227; 1056.225;  159.350;    0.000
244.296; 1085.225;  143.350;    0.000
244.365; 1092.225;  182.350;    0.000
244.434; 1041.225;  117.350;    0.000
244.503; 1105.225;  109.350;    0.000
244.572; 1063.225;  147.350;    0.000
244.641; 1009.225;  129.350;    0.000
244.710; 1085.225;  159.350;    0.000
244.779; 1087.225;  166.350;    0.000
244.848;  991.225;  122.350;    0.000
244.917; 1098.225;  167.350;    0.000
244.986; 1031.225;  158.350;    0.000
245.055; 1099.225;  175.350;    0.000
245.124; 1070.225;  153.350;    0.000
245.193; 1010.225;  155.350;    0.000
245.262; 1024.225;  137.350;    0.000
245.331; 1030.225;  145.350;    0.000
245.400; 1036.225;  107.350;    0.000
245.469; 1036.225;  162.350;    0.000
245.538;  990.225;  165.350;    0.000
245.607;  995.225;  178.350;    0.000
245.676;  984.225;  166.350;    0.000
245.745; 1007.225;  169.350;    0.000
245.814; 1005.225;  155.350;    0.000
245.883;  980.225;  186.350;    0.000
245.952; 1000.225;  165.350;    0.000
246.021;  957.225;  169.350;    0.000
246.090;  946.225;  170.350;    0.000
246.159;  893.225;  155.350;    0.000
246.227;  981.225;  161.350;    0.000
246.296;  913.225;  142.350;    0.000
246.365;  999.225;  160.350;    0.000
246.434;  942.225;  199.350;    0.000
246.503;  909.225;  155.350;    0.000
246.572;  953.225;  206.350;    0.000
246.641;  941.225;  177.350;    0.000
246.710;  924.225;  178.350;    0.000
246.779;  950.225;  193.350;    0.000
246.847;  941.225;  147.350;    0.000
246.916;  951.225;  131.350;    0.000
246.985;  953.225;  168.350;    0.000
247.054;  905.225;  143.350;    0.000
247.123;  942.225;  130.350;    0.000
247.192;  969.225;  175.350;    0.000
247.260;  940.225;  171.350;    0.000
247.329;  907.225;  162.350;    0.000
247.398;  925.225;  163.350;    0.000
247.467;  926.225;  155.350;    0.000
247.536;  953.225;  149.350;    0.000
247.604;  947.225;  191.350;    0.000
247.673;  892.225;  193.350;    0.000
247.742;  933.225;  159.350;    0.000
247.811;  910.225;  167.350;    0.000
247.879;  879.225;  176.350;    0.000
247.948;  906.225;  157.350;    0.000
248.017;  905.225;  150.350;    0.000
248.086;  959.225;  153.350;    0.000
248.154;  934.225;  157.350;    0.000
248.223;  908.225;  198.350;    0.000
248.292;  910.225;  188.350;    0.000
248.361;  941.225;  157.350;    0.000
248.429;  950.225;  138.350;    0.000
248.498;  926.225;  166.350;    0.000
248.567;  969.225;  179.350;    0.000
248.635;  952.225;  210.350;    0.000
248.704;  913.225;  168.350;    0.000
248.773;  852.225;  147.350;    0.000
248.841;  896.225;  155.350;    0.000
248.910;  921.225;  183.350;    0.000
248.979;  891.225;  171.350;    0.000
249.047;  883.225;  152.350;    0.000
249.116;  927.225;  155.350;    0.000
249.185;  895.225;  217.350;    0.000
249.253;  917.225;  149.350;    0.000
249.322;  888.225;  167.350;    0.000
249.390;  890.225;  182.350;    0.000
249.459;  882.225;  173.350;    0.000
249.528;  894.225;  162.350;    0.000
249.596;  885.225;  162.350;    0.000
249.665;  861.225;  163.350;    0.000
249.733;  832.225;  147.350;    0.000
249.802;  856.225;  170.350;    0.000
249.871;  854.225;  179.350;    0.000
249.939;  851.225;  179.350;    0.000
250.008;  897.225;  201.350;    0.000
250.076;  937.225;  189.350;    0.000
250.145;  867.225;  171.350;    0.000
250.213;  810.225;  161.350;    0.000
250.282;  824.225;  171.350;    0.000
250.350;  837.225;  138.350;    0.000
250.419;  849.225;  172.350;    0.000
250.487;  874.225;  207.350;    0.000
250.556;  906.225;  160.350;    0.000
250.624;  839.225;  187.350;    0.000
250.693;  829.225;  141.350;    0.000
250.761;  843.225;  182.350;    0.000
250.830;  854.225;  203.350;    0.000
250.898;  828.225;  160.350;    0.000
250.967;  854.225;  143.350;    0.000
251.035;  819.225;  142.350;    0.000
251.104;  814.225;  159.350;    0.000
251.172;  830.225;  189.350;    0.000
251.241;  767.225;  134.350;    0.000
251.309;  760.225;  179.350;    0.000
251.378;  818.225;  203.350;    0.000
251.446;  806.225;  151.350;    0.000
251.514;  876.225;  176.350;    0.000
251.583;  866.225;  173.350;    0.000
251.651;  825.225;  163.350;    0.000
251.720;  846.225;  151.350;    0.000
251.788;  900.225;  205.350;    0.000
251.856;  751.225;  126.350;    0.000
251.925;  778.225;  118.350;    0.000
251.993;  767.225;  139.350;    0.000
252.062;  822.225;  161.350;    0.000
252.130;  827.225;  180.350;    0.000
252.198;  758.225;  141.350;    0.000
252.267;  792.225;  145.350;    0.000
252.335;  816.225;  159.350;    0.000
252.403;  764.225;  158.350;    0.000
252.472;  788.225;  142.350;    0.000
252.540;  744.225;  162.350;    0.000
252.608;  843.225;  180.350;    0.000
252.677;  741.225;  137.350;    0.000
252.745;  777.225;  183.350;    0.000
252.813;  775.225;  151.350;    0.000
252.881;  769.225;  109.350;    0.000
252.950;  792.225;  174.350;    0.000
253.018;  753.225;  136.350;    0.000
253.086;  777.225;  149.350;    0.000
253.155;  730.225;  127.350;    0.000
253.223;  695.225;  156.350;    0.000
253.291;  719.225;  163.350;    0.000
253.359;  675.225;  174.350;    0.000
253.428;  697.225;  174.350;    0.000
253.496;  718.225;  161.350;    0.000
253.564;  688.225;  128.350;    0.000
253.632;  692.225;  153.350;    0.000
253.700;  644.225;  185.350;    0.000
253.769;  643.225;  163.350;    0.000
253.837;  646.225;  176.350;    0.000
253.905;  699.225;  164.350;    0.000
253.973;  653.225;  156.350;    0.000
254.041;  685.225;  154.350;    0.000
254.110;  618.225;  165.350;    0.000
254.178;  652.225;  148.350;    0.000
254.246;  656.225;  138.350;    0.000
254.314;  661.225;  164.350;    0.000
254.382;  625.225;  167.350;    0.000
254.450;  680.225;  134.350;    0.000
254.518;  627.225;  192.350;    0.000
254.587;  645.225;  139.350;    0.000
254.655;  659.225;  162.350;    0.000
254.723;  647.225;  131.350;    0.000
254.791;  675.225;  181.350;    0.000
254.859;  704.225;  146.350;    0.000
254.927;  707.225;  189.350;    0.000
254.995;  632.225;  141.350;    0.000
255.063;  678.225;  181.350;    0.000
255.131;  656.225;  156.350;    0.000
255.199;  699.225;  175.350;    0.000
255.267;  654.225;  120.350;    0.000
255.336;  671.225;  186.350;    0.000
255.404;  714.225;  134.350;    0.000
255.472;  695.225;  172.350;    0.000
255.540;  674.225;  157.350;    0.000
255.608;  728.225;  186.350;    0.000
255.676;  688.225;  155.350;    0.000
255.744;  736.225;  143.350;    0.000
255.812;  706.225;  134.350;    0.000
255.880;  764.225;  188.350;    0.000
255.948;  713.225;  163.350;    0.000
256.016;  739.225;  175.350;    0.000
256.084;  781.225;  191.350;    0.000
256.152;  734.225;  187.350;    0.000
256.220;  769.225;  152.350;    0.000
256.288;  723.225;  141.350;    0.000
256.356;  694.225;  139.350;    0.000
256.424;  729.225;  121.350;    0.000
256.491;  762.225;  139.350;    0.000
256.559;  803.225;  144.350;    0.000
256.627;  814.225;  158.350;    0.000
256.695;  774.225;  121.350;    0.000
256.763;  785.225;  150.350;    0.000
256.831;  806.225;  181.350;    0.000
256.899;  844.225;  146.350;    0.000
256.967;  740.225;   71.350;    0.000
257.035;  864.225;  164.350;    0.000
257.103;  867.225;  191.350;    0.000
257.171;  842.225;  140.350;    0.000
257.238;  891.225;  165.350;    0.000
257.306;  863.225;  127.350;    0.000
257.374;  837.225;  120.350;    0.000
257.442;  872.225;  139.350;    0.000
257.510;  892.225;  158.350;    0.000
257.578;  944.225;  164.350;    0.000
257.646;  902.225;  151.350;    0.000
257.713;  907.225;  136.350;    0.000
257.781;  967.225;  137.350;    0.000
257.849;  981.225;  151.350;    0.000
257.917; 1001.225;  154.350;    0.000
257.985;  940.225;  113.350;    0.000
258.052; 1000.225;  140.350;    0.000
258.120;  998.225;  176.350;    0.000
258.188; 1053.225;  157.350;    0.000
258.256;  991.225;  153.350;    0.000
258.324; 1037.225;  184.350;    0.000
258.391; 1071.225;  144.350;    0.000
258.459; 1004.225;  162.350;    0.000
258.527; 1083.225;  154.350;    0.000
258.595; 1126.225;  122.350;    0.000
258.662; 1135.225;  164.350;    0.000
258.730; 1082.225;  114.350;    0.000
258.798; 1117.225;  131.350;    0.000
258.865; 1126.225;  171.350;    0.000
258.933; 1222.225;  145.350;    0.000
259.001; 1142.225;  150.350;    0.000
259.069; 1136.225;  123.350;    0.000
259.136; 1227.225;  139.350;    0.000
259.204; 1226.225;  165.350;    0.000
259.272; 1202.225;  114.350;    0.000
259.339; 1298.225;  179.350;    0.000
259.407; 1319.225;  153.350;    0.000
259.475; 1238.225;  143.350;    0.000
259.542; 1316.225;  136.350;    0.000
259.610; 1274.225;  133.350;    0.000
259.677; 1324.225;  159.350;    0.000
259.745; 1302.225;  130.350;    0.000
259.813; 1362.225;  175.350;    0.000
259.880; 1387.225;  158.350;    0.000
259.948; 1442.225;  124.350;    0.000
260.016; 1391.225;  105.350;    0.000
260.083; 1404.225;  169.350;    0.000
260.151; 1398.225;  133.350;    0.000
260.218; 1496.225;  143.350;    0.000
260.286; 1434.225;  134.350;    0.000
260.353; 1500.225;  160.350;    0.000
260.421; 1441.225;  128.350;    0.000
260.489; 1518.225;  150.350;    0.000
260.556; 1583.225;  179.350;    0.000
260.624; 1580.225;  113.350;    0.000
260.691; 1593.225;  128.350;    0.000
260.759; 1619.225;  146.350;    0.000
260.826; 1572.225;  111.350;    0.000
260.894; 1584.225;  115.350;    0.000
260.961; 1681.225;  138.350;    0.000
261.029; 1763.225;  152.350;    0.000
261.096; 1692.225;  175.350;    0.000
261.164; 1695.225;  131.350;    0.000
261.231; 1795.225;  141.350;    0.000
261.299; 1677.225;  125.350;    0.000
261.366; 1742.225;  142.350;    0.000
261.434; 1745.225;  133.350;    0.000
261.501; 1764.225;  137.350;    0.000
261.568; 1750.225;  184.350;    0.000
261.636; 1821.225;  138.350;    0.000
261.703; 1842.225;  161.350;    0.000
261.771; 1791.225;  160.350;    0.000
261.838; 1791.225;  178.350;    0.000
261.906; 1892.225;  128.350;    0.000
261.973; 1821.225;  139.350;    0.000
262.040; 1850.225;  148.350;    0.000
262.108; 1960.225;  130.350;    0.000
262.175; 1898.225;  117.350;    0.000
262.243; 1993.225;  174.350;    0.000
262.310; 1873.225;  145.350;    0.000
262.377; 1968.225;  108.350;    0.000
262.445; 2015.225;  147.350;    0.000
262.512; 2034.225;  124.350;    0.000
262.579; 2041.225;  127.350;    0.000
262.647; 1991.225;  166.350;    0.000
262.714; 2065.225;  150.350;    0.000
262.781; 2068.225;  121.350;    0.000
262.849; 2124.225;  126.350;    0.000
262.916; 2183.225;  119.350;    0.000
262.983; 2124.225;  155.350;    0.000
263.051; 2117.225;  137.350;    0.000
263.118; 2121.225;  160.350;    0.000
263.185; 2151.225;  151.350;    0.000
263.252; 2224.225;  167.350;    0.000
263.320; 2223.225;  123.350;    0.000
263.387; 2207.225;  134.350;    0.000
263.454; 2215.225;  144.350;    0.000
263.522; 2244.225;  153.350;    0.000
263.589; 2297.225;  161.350;    0.000
263.656; 2246.225;  117.350;    0.000
263.723; 2254.225;  101.350;    0.000
263.790; 2384.225;  128.350;    0.000
263.858; 2311.225;  142.350;    0.000
263.925; 2351.225;  182.350;    0.000
263.992; 2374.225;  146.350;    0.000
264.059; 2376.225;  132.350;    0.000
264.126; 2381.225;  154.350;    0.000
264.194; 2358.225;  153.350;    0.000
264.261; 2472.225;  157.350;    0.000
264.328; 2450.225;  171.350;    0.000
264.395; 2455.225;  166.350;    0.000
264.462; 2345.225;  165.350;    0.000
264.529; 2516.225;  124.350;    0.000
264.597; 2427.225;  120.350;    0.000
264.664; 2510.225;  159.350;    0.000
264.731; 2516.225;  145.350;    0.000
264.798; 2599.225;  100.350;    0.000
264.865; 2589.225;  166.350;    0.000
264.932; 2590.225;  132.350;    0.000
264.999; 2514.225;  137.350;    0.000
265.066; 2603.225;  124.350;    0.000
265.133; 2628.225;  162.350;    0.000
265.201; 2623.225;  163.350;    0.000
265.268; 2564.225;  174.350;    0.000
265.335; 2556.225;  132.350;    0.000
265.402; 2684.225;  116.350;    0.000
265.469; 2643.225;  121.350;    0.000
265.536; 2614.225;  157.350;    0.000
265.603; 2731.225;  151.350;    0.000
265.670; 2745.225;  164.350;    0.000
265.737; 2653.225;  142.350;    0.000
265.804; 2686.225;  146.350;    0.000
265.871; 2832.225;  168.350;    0.000
265.938; 2720.225;  131.350;    0.000
266.005; 2799.225;  208.350;    0.000
266.072; 2845.225;  125.350;    0.000
266.139; 2846.225;  161.350;    0.000
266.206; 2965.225;  134.350;    0.000
266.273; 2845.225;  155.350;    0.000
266.340; 2814.225;  122.350;    0.000
266.407; 2835.225;  134.350;    0.000
266.474; 2848.225;  126.350;    0.000
266.541; 2875.225;  153.350;    0.000
266.608; 2815.225;  129.350;    0.000
266.675; 2892.225;  185.350;    0.000
266.742; 2958.225;  153.350;    0.000
266.808; 2749.225;  169.350;    0.000
266.875; 2870.225;  156.350;    0.000
266.942; 2950.225;  172.350;    0.000
267.009; 2855.225;  150.350;    0.000
267.076; 2958.225;  184.350;    0.000
267.143; 3023.225;  170.350;    0.000
267.210; 2926.225;  132.350;    0.000
267.277; 3020.225;  146.350;    0.000
267.344; 2920.225;  159.350;    0.000
267.410; 2968.225;  174.350;    0.000
267.477; 3016.225;  169.350;    0.000
267.544; 2992.225;  130.350;    0.000
267.611; 3011.225;  169.350;    0.000
267.678; 3051.225;  197.350;    0.000
267.745; 2993.225;  185.350;    0.000
267.811; 3105.225;  160.350;    0.000
267.878; 3175.225;  143.350;    0.000
267.945; 3032.225;  126.350;    0.000
268.012; 3096.225;  172.350;    0.000
268.079; 2921.225;  156.350;    0.000
268.145; 3017.225;  128.350;    0.000
268.212; 3008.225;  107.350;    0.000
268.279; 3059.225;  135.350;    0.000
268.346; 3011.225;  166.350;    0.000
268.412; 3061.225;  150.350;    0.000
268.479; 3007.225;  176.350;    0.000
268.546; 3037.225;  119.350;    0.000
268.613; 2948.225;  201.350;    0.000
268.679; 3056.225;  141.350;    0.000
268.746; 3115.225;  177.350;    0.000
268.813; 2938.225;  134.350;    0.000
268.879; 2979.225;  141.350;    0.000
268.946; 3073.225;  172.350;    0.000
269.013; 3045.225;  150.350;    0.000
269.079; 3010.225;  124.350;    0.000
269.146; 3070.225;  135.350;    0.000
269.213; 2984.225;  200.350;    0.000
269.280; 3011.225;  142.350;    0.000
269.346; 3101.225;  153.350;    0.000
269.413; 3016.225;  140.350;    0.000
269.479; 3016.225;  171.350;    0.000
269.546; 3047.225;  156.350;    0.000
269.613; 3012.225;  145.350;    0.000
269.679; 2957.225;  168.350;    0.000
269.746; 2883.225;  136.350;    0.000
269.813; 3011.225;  153.350;    0.000
269.879; 3020.225;  162.350;    0.000
269.946; 3001.225;  156.350;    0.000
270.012; 3019.225;  178.350;    0.000
270.079; 2920.225;  132.350;    0.000
270.145; 2966.225;  146.350;    0.000
270.212; 2999.225;  145.350;    0.000
270.279; 3027.225;  184.350;    0.000
270.345; 2962.225;  143.350;    0.000
270.412; 3019.225;  158.350;    0.000
270.478; 2982.225;  143.350;    0.000
270.545; 2996.225;  150.350;    0.000
270.611; 3006.225;  156.350;    0.000
270.678; 2968.225;  121.350;    0.000
270.744; 3032.225;  161.350;    0.000
270.811; 3030.225;  173.350;    0.000
270.877; 2841.225;  115.350;    0.000
270.944; 2938.225;  114.350;    0.000
271.010; 3019.225;  122.350;    0.000
271.077; 3041.225;  142.350;    0.000
271.143; 2880.225;  152.350;    0.000
271.210; 2889.225;  135.350;    0.000
271.276; 2902.225;  107.350;    0.000
271.342; 2984.225;  173.350;    0.000
271.409; 3047.225;  171.350;    0.000
271.475; 2981.225;  136.350;    0.000
271.542; 2913.225;  121.350;    0.000
271.608; 2910.225;  133.350;    0.000
271.675; 2897.225;  136.350;    0.000
271.741; 2974.225;  151.350;    0.000
271.807; 2973.225;  130.350;    0.000
271.874; 2969.225;  168.350;    0.000
271.940; 2908.225;  156.350;    0.000
272.007; 2967.225;  122.350;    0.000
272.073; 2864.225;  121.350;    0.000
272.139; 2939.225;  137.350;    0.000
272.206; 2973.225;  152.350;    0.000
272.272; 2913.225;  162.350;    0.000
272.338; 2964.225;  197.350;    0.000
272.405; 2987.225;  144.350;    0.000
272.471; 2956.225;  160.350;    0.000
272.537; 2925.225;  142.350;    0.000
272.604; 2819.225;  141.350;    0.000
272.670; 2951.225;  182.350;    0.000
272.736; 2938.225;  126.350;    0.000
272.802; 3069.225;  146.350;    0.000
272.869; 2835.225;  163.350;    0.000
272.935; 2854.225;  132.350;    0.000
273.001; 2876.225;  119.350;    0.000
273.068; 2932.225;  137.350;    0.000
273.134; 2909.225;  155.350;    0.000
273.200; 3010.225;  165.350;    0.000
273.266; 2998.225;  156.350;    0.000
273.333; 3025.225;  143.350;    0.000
273.399; 2919.225;  128.350;    0.000
273.465; 3031.225;  167.350;    0.000
273.531; 2952.225;  122.350;    0.000
273.597; 3018.225;  182.350;    0.000
273.664; 2999.225;  177.350;    0.000
273.730; 2936.225;  124.350;    0.000
273.796; 3050.225;  143.350;    0.000
273.862; 3159.225;  155.350;    0.000
273.928; 3092.225;  137.350;    0.000
273.995; 3104.225;  188.350;    0.000
274.061; 3017.225;  154.350;    0.000
274.127; 3058.225;  161.350;    0.000
274.193; 2946.225;   95.350;    0.000
274.259; 3035.225;  128.350;    0.000
274.325; 3057.225;  146.350;    0.000
274.391; 3097.225;  113.350;    0.000
274.457; 3184.225;  150.350;    0.000
274.524; 3102.225;  165.350;    0.000
274.590; 3166.225;  140.350;    0.000
274.656; 3095.225;  165.350;    0.000
274.722; 3171.225;  118.350;    0.000
274.788; 3085.225;  143.350;    0.000
274.854; 3064.225;  150.350;    0.000
274.920; 3124.225;   88.350;    0.000
274.986; 3292.225;  178.350;    0.000
275.052; 3184.225;  145.350;    0.000
275.118; 3197.225;  105.350;    0.000
275.184; 3233.225;  129.350;    0.000
275.250; 3217.225;  138.350;    0.000
275.316; 3293.225;  173.350;    0.000
275.382; 3181.225;  106.350;    0.000
275.448; 3303.225;  160.350;    0.000
275.514; 3187.225;  162.350;    0.000
275.580; 3231.225;  135.350;    0.000
275.646; 3403.225;  120.350;    0.000
275.712; 3267.225;  157.350;    0.000
275.778; 3370.225;  128.350;    0.000
275.844; 3430.225;  117.350;    0.000
275.910; 3418.225;  121.350;    0.000
275.976; 3518.225;  172.350;    0.000
276.042; 3378.225;  114.350;    0.000
276.108; 3646.225;  200.350;    0.000
276.174; 3628.225;  132.350;    0.000
276.240; 3566.225;  128.350;    0.000
276.306; 3662.225;  124.350;    0.000
276.372; 3582.225;  133.350;    0.000
276.437; 3628.225;  146.350;    0.000
276.503; 3773.225;  136.350;    0.000
276.569; 3784.225;  162.350;    0.000
276.635; 3852.225;  128.350;    0.000
276.701; 3872.225;  148.350;    0.000
276.767; 3849.225;  155.350;    0.000
276.833; 3945.225;  128.350;    0.000
276.899; 4043.225;  145.350;    0.000
276.964; 4183.225;  124.350;    0.000
277.030; 4147.225;  130.350;    0.000
277.096; 4285.225;  139.350;    0.000
277.162; 4377.225;  164.350;    0.000
277.228; 4428.225;  108.350;    0.000
277.293; 4528.225;  138.350;    0.000
277.359; 4628.225;  123.350;    0.000
277.425; 4949.225;  183.350;    0.000
277.491; 5189.225;  144.350;    0.000
277.557; 5997.225;  130.350;    0.000
277.622; 7875.225;  151.350;    0.000
277.688; 7733.225;  169.350;    0.000
277.754; 7873.225;  199.350;    0.000
277.820; 8439.225;  170.350;    0.000
277.885; 9747.225;  173.350;    0.000
277.951;11922.225;  187.350;    0.000
278.017;10383.225;  152.350;    0.000
278.083; 9173.225;  137.350;    0.000
278.148; 9008.225;  147.350;    0.000
278.214; 8952.225;  162.350;    0.000
278.280; 9352.225;  171.350;    0.000
278.345; 8654.225;  174.350;    0.000
278.411; 7735.225;  152.350;    0.000
278.477; 8211.225;  173.350;    0.000
278.542; 8551.225;  161.350;    0.000
278.608; 9063.225;  155.350;    0.000
278.674; 9686.225;  169.350;    0.000
278.739;10772.225;  142.350;    0.000
278.805;12004.225;  164.350;    0.000
278.871;14036.225;  160.350;    0.000
278.936;17600.225;  121.350;    0.000
279.002;26040.225;  166.350;    0.000
279.067;34259.227;  199.350;    0.000
279.133;32853.227;  150.350;    0.000
279.199;29229.225;  154.350;    0.000
279.264;30589.225;  154.350;    0.000
279.330;35847.227;  159.350;    0.000
279.395;46630.227;  143.350;    0.000
279.461;57205.227;  173.350;    0.000
279.527;62583.227;  163.350;    0.000
279.592;58943.227;  167.350;    0.000
279.658;51682.227;  189.350;    0.000
279.723;51280.227;  153.350;    0.000
279.789;53791.227;  174.350;    0.000
279.854;47550.227;  129.350;    0.000
279.920;38498.227;  165.350;    0.000
279.985;35052.227;  152.350;    0.000
280.051;35753.227;  164.350;    0.000
280.116;42132.227;  187.350;    0.000
280.182;54006.227;  160.350;    0.000
280.247;60026.227;  124.350;    0.000
280.313;52467.227;  154.350;    0.000
280.378;37973.227;  152.350;    0.000
280.444;28193.225;  165.350;    0.000
280.509;22418.225;  164.350;    0.000
280.574;18860.225;  160.350;    0.000
280.640;16344.225;  167.350;    0.000
280.705;14907.225;  190.350;    0.000
280.771;13499.225;  154.350;    0.000
280.836;12782.225;  158.350;    0.000
280.902;11705.225;  124.350;    0.000
280.967;10997.225;  179.350;    0.000
281.032;10536.225;  187.350;    0.000
281.098; 9914.225;  155.350;    0.000
281.163; 9662.225;  133.350;    0.000
281.229; 9265.225;  170.350;    0.000
281.294; 8781.225;  175.350;    0.000
281.359; 8367.225;  163.350;    0.000
281.425; 8474.225;  161.350;    0.000
281.490; 8074.225;  162.350;    0.000
281.555; 7587.225;  137.350;    0.000
281.621; 7607.225;  163.350;    0.000
281.686; 7294.225;  155.350;    0.000
281.751; 7210.225;  158.350;    0.000
281.816; 6818.225;  139.350;    0.000
281.882; 6758.225;  150.350;    0.000
281.947; 6804.225;  165.350;    0.000
282.012; 6436.225;  171.350;    0.000
282.078; 6296.225;  177.350;    0.000
282.143; 6260.225;  149.350;    0.000
282.208; 6030.225;  181.350;    0.000
282.273; 6203.225;  166.350;    0.000
282.339; 6071.225;  165.350;    0.000
282.404; 5959.225;  166.350;    0.000
282.469; 5843.225;  150.350;    0.000
282.534; 5930.225;  176.350;    0.000
282.600; 5854.225;  117.350;    0.000
282.665; 5636.225;  134.350;    0.000
282.730; 5834.225;  155.350;    0.000
282.795; 5696.225;  193.350;    0.000
282.860; 5562.225;  160.350;    0.000
282.926; 5462.225;  174.350;    0.000
282.991; 5461.225;  161.350;    0.000
283.056; 5392.225;  157.350;    0.000
283.121; 5405.225;  178.350;    0.000
283.186; 5380.225;  152.350;    0.000
283.251; 5368.225;  167.350;    0.000
283.316; 5453.225;  186.350;    0.000
283.382; 5227.225;  148.350;    0.000
283.447; 5187.225;  191.350;    0.000
283.512; 5263.225;  132.350;    0.000
283.577; 5265.225;  179.350;    0.000
283.642; 5227.225;  185.350;    0.000
283.707; 5146.225;  136.350;    0.000
283.772; 5170.225;  119.350;    0.000
283.837; 5212.225;  136.350;    0.000
283.902; 5253.225;  135.350;    0.000
283.967; 5280.225;  146.350;    0.000
284.032; 5236.225;  140.350;    0.000
284.097; 5306.225;  199.350;    0.000
284.163; 5465.225;  144.350;    0.000
284.228; 5439.225;  183.350;    0.000
284.293; 5387.225;  141.350;    0.000
284.358; 5421.225;  146.350;    0.000
284.423; 5372.225;  127.350;    0.000
284.488; 5459.225;  186.350;    0.000
284.553; 5786.225;  155.350;    0.000
284.618; 5760.225;  118.350;    0.000
284.683; 5873.225;  145.350;    0.000
284.748; 6185.225;  139.350;    0.000
284.812; 6594.225;  147.350;    0.000
284.877; 7022.225;  123.350;    0.000
284.942; 7939.225;  153.350;    0.000
285.007; 9327.225;  168.350;    0.000
285.072;12109.225;  181.350;    0.000
285.137;17152.225;  147.350;    0.000
285.202;21078.225;  175.350;    0.000
285.267;19418.225;  182.350;    0.000
285.332;14134.225;  136.350;    0.000
285.397;10831.225;  138.350;    0.000
285.462; 9129.225;  151.350;    0.000
285.527; 7998.225;  159.350;    0.000
285.591; 7468.225;  177.350;    0.000
285.656; 7014.225;  144.350;    0.000
285.721; 6532.225;  125.350;    0.000
285.786; 6381.225;  169.350;    0.000
285.851; 6034.225;  175.350;    0.000
285.916; 5913.225;  164.350;    0.000
285.981; 5818.225;  134.350;    0.000
286.045; 5673.225;  154.350;    0.000
286.110; 5683.225;  136.350;    0.000
286.175; 5418.225;  155.350;    0.000
286.240; 5391.225;  138.350;    0.000
286.305; 5450.225;  213.350;    0.000
286.369; 5507.225;  221.350;    0.000
286.434; 5420.225;  172.350;    0.000
286.499; 5202.225;  161.350;    0.000
286.564; 5262.225;  189.350;    0.000
286.628; 5200.225;  144.350;    0.000
286.693; 5258.225;  176.350;    0.000
286.758; 5075.225;  168.350;    0.000
286.823; 5104.225;  142.350;    0.000
286.887; 5062.225;  134.350;    0.000
286.952; 4957.225;  180.350;    0.000
287.017; 5026.225;  204.350;    0.000
287.082; 4994.225;  120.350;    0.000
287.146; 5043.225;  173.350;    0.000
287.211; 5064.225;  167.350;    0.000
287.276; 4897.225;  164.350;    0.000
287.340; 5008.225;  138.350;    0.000
287.405; 5030.225;  172.350;    0.000
287.470; 4906.225;  142.350;    0.000
287.534; 4903.225;  155.350;    0.000
287.599; 5045.225;  166.350;    0.000
287.663; 4831.225;  171.350;    0.000
287.728; 4920.225;  190.350;    0.000
287.793; 4980.225;  197.350;    0.000
287.857; 4910.225;  165.350;    0.000
287.922; 5017.225;  147.350;    0.000
287.987; 4928.225;  167.350;    0.000
288.051; 4957.225;  151.350;    0.000
288.116; 4841.225;  154.350;    0.000
288.180; 4772.225;  186.350;    0.000
288.245; 4829.225;  161.350;    0.000
288.309; 4881.225;  177.350;    0.000
288.374; 4859.225;  151.350;    0.000
288.439; 4711.225;  169.350;    0.000
288.503; 4689.225;  133.350;    0.000
288.568; 4923.225;  206.350;    0.000
288.632; 4827.225;  192.350;    0.000
288.697; 4814.225;  183.350;    0.000
288.761; 4750.225;  148.350;    0.000
288.826; 4759.225;  136.350;    0.000
288.890; 4798.225;  185.350;    0.000
288.955; 4710.225;  150.350;    0.000
289.019; 4858.225;  165.350;    0.000
289.084; 4720.225;  150.350;    0.000
289.148; 4738.225;  146.350;    0.000
289.212; 4776.225;  172.350;    0.000
289.277; 4800.225;  177.350;    0.000
289.341; 4664.225;  190.350;    0.000
289.406; 4773.225;  117.350;    0.000
289.470; 4726.225;  173.350;    0.000
289.535; 4585.225;  170.350;    0.000
289.599; 4741.225;  154.350;    0.000
289.663; 4617.225;  173.350;    0.000
289.728; 4701.225;  176.350;    0.000
289.792; 4582.225;  138.350;    0.000
289.857; 4679.225;  203.350;    0.000
289.921; 4649.225;  143.350;    0.000
289.985; 4701.225;  150.350;    0.000
290.050; 4693.225;  170.350;    0.000
290.114; 4662.225;  125.350;    0.000
290.178; 4668.225;  161.350;    0.000
290.243; 4709.225;  119.350;    0.000
290.307; 4701.225;  169.350;    0.000
290.371; 4709.225;  169.350;    0.000
290.436; 4832.225;  170.350;    0.000
290.500; 4767.225;  144.350;    0.000
290.564; 4861.225;  179.350;    0.000
290.629; 4731.225;  166.350;    0.000
290.693; 4721.225;  156.350;    0.000
290.757; 4683.225;  147.350;    0.000
290.821; 4664.225;  170.350;    0.000
290.886; 4651.225;  167.350;    0.000
290.950; 4756.225;  187.350;    0.000
291.014; 4693.225;  164.350;    0.000
291.078; 4690.225;  115.350;    0.000
291.143; 4869.225;  149.350;    0.000
291.207; 4878.225;  163.350;    0.000
291.271; 4815.225;  177.350;    0.000
291.335; 4893.225;  148.350;    0.000
291.399; 4914.225;  155.350;    0.000
291.464; 5199.225;  114.350;    0.000
291.528; 5186.225;  153.350;    0.000
291.592; 5196.225;  156.350;    0.000
291.656; 5093.225;  170.350;    0.000
291.720; 5082.225;  159.350;    0.000
291.784; 4984.225;  159.350;    0.000
291.849; 5012.225;  154.350;    0.000
291.913; 4867.225;  118.350;    0.000
291.977; 4977.225;  157.350;    0.000
292.041; 5110.225;  163.350;    0.000
292.105; 5087.225;  135.350;    0.000
292.169; 4887.225;  155.350;    0.000
292.233; 4890.225;  163.350;    0.000
292.297; 5051.225;  144.350;    0.000
292.361; 5190.225;  143.350;    0.000
292.425; 5104.225;  177.350;    0.000
292.490; 5272.225;  159.350;    0.000
292.554; 5260.225;  137.350;    0.000
292.618; 5598.225;  144.350;    0.000
292.682; 5768.225;  169.350;    0.000
292.746; 6517.225;  166.350;    0.000
292.810; 7817.225;  147.350;    0.000
292.874; 9201.225;  160.350;    0.000
292.938; 9234.225;  174.350;    0.000
293.002; 8399.225;  148.350;    0.000
293.066; 7571.225;  115.350;    0.000
293.130; 7389.225;  133.350;    0.000
293.194; 7189.225;  148.350;    0.000
293.258; 6876.225;  167.350;    0.000
293.322; 6788.225;  166.350;    0.000
293.386; 6920.225;  193.350;    0.000
293.450; 7359.225;  142.350;    0.000
293.514; 7993.225;  170.350;    0.000
293.577; 9979.225;  153.350;    0.000
293.641;13161.225;  171.350;    0.000
293.705;13617.225;  168.350;    0.000
293.769;12284.225;  155.350;    0.000
293.833;10679.225;  161.350;    0.000
293.897; 9582.225;  124.350;    0.000
293.961; 8655.225;  165.350;    0.000
294.025; 8091.225;  118.350;    0.000
294.089; 7649.225;  125.350;    0.000
294.152; 7256.225;  160.350;    0.000
294.216; 6914.225;  160.350;    0.000
294.280; 6728.225;  158.350;    0.000
294.344; 6490.225;  119.350;    0.000
294.408; 6343.225;  168.350;    0.000
294.472; 6059.225;  156.350;    0.000
294.536; 6006.225;  192.350;    0.000
294.599; 5767.225;  171.350;    0.000
294.663; 5726.225;  139.350;    0.000
294.727; 5556.225;  136.350;    0.000
294.791; 5512.225;  118.350;    0.000
294.855; 5350.225;  118.350;    0.000
294.918; 5464.225;  127.350;    0.000
294.982; 5250.225;  167.350;    0.000
295.046; 5247.225;  178.350;    0.000
295.110; 5269.225;  157.350;    0.000
295.173; 5202.225;  101.350;    0.000
295.237; 5171.225;  145.350;    0.000
295.301; 5074.225;  135.350;    0.000
295.364; 5118.225;  185.350;    0.000
295.428; 5065.225;  112.350;    0.000
295.492; 4990.225;  142.350;    0.000
295.556; 4974.225;  170.350;    0.000
295.619; 4880.225;  193.350;    0.000
295.683; 4956.225;  144.350;    0.000
295.747; 4931.225;  152.350;    0.000
295.810; 4856.225;  139.350;    0.000
295.874; 4994.225;  157.350;    0.000
295.938; 4825.225;  128.350;    0.000
296.001; 4813.225;  164.350;    0.000
296.065; 4752.225;  184.350;    0.000
296.128; 4655.225;  127.350;    0.000
296.192; 4678.225;  166.350;    0.000
296.256; 4653.225;  154.350;    0.000
296.319; 4553.225;  128.350;    0.000
296.383; 4611.225;  146.350;    0.000
296.447; 4652.225;  155.350;    0.000
296.510; 4500.225;  177.350;    0.000
296.574; 4593.225;  169.350;    0.000
296.637; 4589.225;  140.350;    0.000
296.701; 4302.225;  181.350;    0.000
296.764; 4457.225;  131.350;    0.000
296.828; 4607.225;  194.350;    0.000
296.891; 4509.225;  146.350;    0.000
296.955; 4525.225;  160.350;    0.000
297.018; 4528.225;  174.350;    0.000
297.082; 4399.225;  153.350;    0.000
297.145; 4264.225;  133.350;    0.000
297.209; 4425.225;  149.350;    0.000
297.272; 4367.225;  150.350;    0.000
297.336; 4399.225;  119.350;    0.000
297.399; 4432.225;  160.350;    0.000
297.463; 4379.225;  158.350;    0.000
297.526; 4435.225;  160.350;    0.000
297.590; 4414.225;  173.350;    0.000
297.653; 4348.225;  121.350;    0.000
297.717; 4315.225;  168.350;    0.000
297.780; 4280.225;  131.350;    0.000
297.843; 4336.225;  154.350;    0.000
297.907; 4380.225;  126.350;    0.000
297.970; 4255.225;  180.350;    0.000
298.034; 4368.225;  140.350;    0.000
298.097; 4363.225;  207.350;    0.000
298.160; 4253.225;  177.350;    0.000
298.224; 4211.225;  165.350;    0.000
298.287; 4286.225;  160.350;    0.000
298.350; 4321.225;  176.350;    0.000
298.414; 4226.225;  155.350;    0.000
298.477; 4247.225;  132.350;    0.000
298.540; 4240.225;  162.350;    0.000
298.604; 4108.225;  180.350;    0.000
298.667; 4357.225;  208.350;    0.000
298.730; 4314.225;  177.350;    0.000
298.794; 4060.225;  126.350;    0.000
298.857; 4209.225;  171.350;    0.000
298.920; 4049.225;  124.350;    0.000
298.984; 4179.225;  146.350;    0.000
299.047; 4050.225;  140.350;    0.000
299.110; 4009.225;  159.350;    0.000
299.173; 3991.225;  177.350;    0.000
299.237; 4041.225;  196.350;    0.000
299.300; 4034.225;  121.350;    0.000
299.363; 3922.225;  172.350;    0.000
299.426; 3953.225;  117.350;    0.000
299.489; 3934.225;  138.350;    0.000
299.553; 4111.225;  198.350;    0.000
299.616; 3934.225;  158.350;    0.000
299.679; 3888.225;  148.350;    0.000
299.742; 4021.225;  138.350;    0.000
299.805; 4032.225;  157.350;    0.000
299.868; 3984.225;  183.350;    0.000
299.932; 3944.225;  137.350;    0.000
299.995; 3851.225;  152.350;    0.000
300.058; 3939.225;  171.350;    0.000
300.121; 3895.225;  172.350;    0.000
300.184; 3905.225;  161.350;    0.000
300.247; 3857.225;  156.350;    0.000
300.310; 3806.225;  154.350;    0.000
300.374; 3870.225;  147.350;    0.000
300.437; 3774.225;  144.350;    0.000
300.500; 3825.225;  152.350;    0.000
300.563; 3877.225;  160.350;    0.000
300.626; 3794.225;  167.350;    0.000
300.689; 3874.225;  193.350;    0.000
300.752; 3812.225;  134.350;    0.000
300.815; 3853.225;  194.350;    0.000
300.878; 3773.225;  156.350;    0.000
300.941; 3660.225;  177.350;    0.000
301.004; 3766.225;  160.350;    0.000
301.067; 3715.225;  153.350;    0.000
301.130; 3823.225;  167.350;    0.000
301.193; 3743.225;  156.350;    0.000
301.256; 3761.225;  176.350;    0.000
301.319; 3836.225;  172.350;    0.000
301.382; 3790.225;  150.350;    0.000
301.445; 3738.225;  183.350;    0.000
301.508; 3722.225;  118.350;    0.000
301.571; 3755.225;  142.350;    0.000
301.634; 3775.225;  164.350;    0.000
301.697; 3712.225;  169.350;    0.000
301.760; 3782.225;  197.350;    0.000
301.823; 3670.225;  155.350;    0.000
301.885; 3734.225;  165.350;    0.000
301.948; 3626.225;  168.350;    0.000
302.011; 3697.225;  172.350;    0.000
302.074; 3678.225;  182.350;    0.000
302.137; 3692.225;  161.350;    0.000
302.200; 3686.225;  174.350;    0.000
302.263; 3754.225;  158.350;    0.000
302.326; 3701.225;  168.350;    0.000
302.388; 3730.225;  165.350;    0.000
302.451; 3611.225;  158.350;    0.000
302.514; 3646.225;  181.350;    0.000
302.577; 3680.225;  147.350;    0.000
302.640; 3687.225;  178.350;    0.000
302.703; 3718.225;  164.350;    0.000
302.765; 3632.225;  149.350;    0.000
302.828; 3694.225;  192.350;    0.000
302.891; 3583.225;  201.350;    0.000
302.954; 3552.225;  135.350;    0.000
303.016; 3612.225;  180.350;    0.000
303.079; 3707.225;  192.350;    0.000
303.142; 3612.225;  176.350;    0.000
303.205; 3600.225;  176.350;    0.000
303.267; 3595.225;  163.350;    0.000
303.330; 3589.225;  162.350;    0.000
303.393; 3638.225;  164.350;    0.000
303.456; 3613.225;  180.350;    0.000
303.518; 3683.225;  162.350;    0.000
303.581; 3634.225;  137.350;    0.000
303.644; 3653.225;  135.350;    0.000
303.706; 3672.225;  170.350;    0.000
303.769; 3697.225;  216.350;    0.000
303.832; 3628.225;  143.350;    0.000
303.894; 3690.225;  162.350;    0.000
303.957; 3607.225;  149.350;    0.000
304.020; 3665.225;  111.350;    0.000
304.082; 3657.225;  158.350;    0.000
304.145; 3581.225;  149.350;    0.000
304.207; 3664.225;  169.350;    0.000
304.270; 3608.225;  170.350;    0.000
304.333; 3617.225;  185.350;    0.000
304.395; 3711.225;  179.350;    0.000
304.458; 3609.225;  174.350;    0.000
304.520; 3721.225;  160.350;    0.000
304.583; 3677.225;  175.350;    0.000
304.646; 3581.225;  160.350;    0.000
304.708; 3560.225;  173.350;    0.000
304.771; 3523.225;  115.350;    0.000
304.833; 3603.225;  172.350;    0.000
304.896; 3735.225;  187.350;    0.000
304.958; 3617.225;  142.350;    0.000
305.021; 3641.225;  164.350;    0.000
305.083; 3686.225;  139.350;    0.000
305.146; 3522.225;  162.350;    0.000
305.208; 3616.225;  135.350;    0.000
305.271; 3603.225;  159.350;    0.000
305.333; 3655.225;  210.350;    0.000
305.396; 3700.225;  151.350;    0.000
305.458; 3662.225;  195.350;    0.000
305.520; 3759.225;  179.350;    0.000
305.583; 3592.225;  157.350;    0.000
305.645; 3712.225;  187.350;    0.000
305.708; 3649.225;  159.350;    0.000
305.770; 3654.225;  189.350;    0.000
305.833; 3784.225;  147.350;    0.000
305.895; 3701.225;  154.350;    0.000
305.957; 3651.225;  143.350;    0.000
306.020; 3601.225;  133.350;    0.000
306.082; 3784.225;  146.350;    0.000
306.144; 3647.225;  171.350;    0.000
306.207; 3775.225;  151.350;    0.000
306.269; 3682.225;  169.350;    0.000
306.331; 3687.225;  162.350;    0.000
306.394; 3655.225;  171.350;    0.000
306.456; 3704.225;  155.350;    0.000
306.518; 3762.225;  183.350;    0.000
306.581; 3592.225;  180.350;    0.000
306.643; 3728.225;  199.350;    0.000
306.705; 3748.225;  163.350;    0.000
306.768; 3765.225;  183.350;    0.000
306.830; 3844.225;  183.350;    0.000
306.892; 3777.225;  190.350;    0.000
306.954; 3801.225;  161.350;    0.000
307.017; 3699.225;  151.350;    0.000
307.079; 3791.225;  147.350;    0.000
307.141; 3791.225;  179.350;    0.000
307.203; 3809.225;  143.350;    0.000
307.266; 3713.225;  142.350;    0.000
307.328; 3848.225;  161.350;    0.000
307.390; 3872.225;  189.350;    0.000
307.452; 3776.225;  155.350;    0.000
307.514; 3969.225;  211.350;    0.000
307.577; 3855.225;  201.350;    0.000
307.639; 3867.225;  192.350;    0.000
307.701; 3789.225;  162.350;    0.000
307.763; 3921.225;  155.350;    0.000
307.825; 3811.225;  193.350;    0.000
307.887; 3844.225;  214.350;    0.000
307.949; 3950.225;  208.350;    0.000
308.012; 3921.225;  175.350;    0.000
308.074; 4015.225;  155.350;    0.000
308.136; 3892.225;  172.350;    0.000
308.198; 3889.225;  171.350;    0.000
308.260; 3752.225;  182.350;    0.000
308.322; 3917.225;  177.350;    0.000
308.384; 3954.225;  207.350;    0.000
308.446; 3975.225;  170.350;    0.000
308.508; 4015.225;  177.350;    0.000
308.570; 3991.225;  195.350;    0.000
308.632; 4071.225;  190.350;    0.000
308.694; 3934.225;  161.350;    0.000
308.756; 3956.225;  173.350;    0.000
308.818; 4112.225;  190.350;    0.000
308.880; 4016.225;  197.350;    0.000
308.942; 4106.225;  223.350;    0.000
309.004; 4094.225;  176.350;    0.000
309.066; 4149.225;  182.350;    0.000
309.128; 4231.225;  185.350;    0.000
309.190; 4273.225;  166.350;    0.000
309.252; 4424.225;  191.350;    0.000
309.314; 4482.225;  208.350;    0.000
309.376; 4479.225;  205.350;    0.000
309.438; 4410.225;  166.350;    0.000
309.500; 4379.225;  195.350;    0.000
309.562; 4405.225;  163.350;    0.000
309.624; 4402.225;  162.350;    0.000
309.686; 4424.225;  194.350;    0.000
309.747; 4462.225;  179.350;    0.000
309.809; 4350.225;  211.350;    0.000
309.871; 4287.225;  191.350;    0.000
309.933; 4236.225;  151.350;    0.000
309.995; 4109.225;  179.350;    0.000
310.057; 4196.225;  175.350;    0.000
310.119; 4178.225;  161.350;    0.000
310.180; 4118.225;  167.350;    0.000
310.242; 4043.225;  171.350;    0.000
310.304; 4107.225;  209.350;    0.000
310.366; 3991.225;  229.350;    0.000
310.428; 4084.225;  132.350;    0.000
310.489; 4060.225;  165.350;    0.000
310.551; 3974.225;  193.350;    0.000
310.613; 4020.225;  182.350;    0.000
310.675; 4060.225;  186.350;    0.000
310.737; 4083.225;  192.350;    0.000
310.798; 3947.225;  194.350;    0.000
310.860; 3916.225;  220.350;    0.000
310.922; 4011.225;  161.350;    0.000
310.983; 3965.225;  203.350;    0.000
311.045; 3978.225;  198.350;    0.000
311.107; 4058.225;  179.350;    0.000
311.169; 3969.225;  154.350;    0.000
311.230; 3998.225;  134.350;    0.000
311.292; 4007.225;  215.350;    0.000
311.354; 3958.225;  171.350;    0.000
311.415; 3954.225;  195.350;    0.000
311.477; 3983.225;  185.350;    0.000
311.539; 4062.225;  183.350;    0.000
311.600; 4006.225;  183.350;    0.000
311.662; 3964.225;  207.350;    0.000
311.724; 4028.225;  193.350;    0.000
311.785; 4006.225;  180.350;    0.000
311.847; 3974.225;  155.350;    0.000
311.908; 3960.225;  179.350;    0.000
311.970; 3857.225;  193.350;    0.000
312.032; 4117.225;  188.350;    0.000
312.093; 3972.225;  166.350;    0.000
312.155; 3922.225;  147.350;    0.000
312.216; 3949.225;  177.350;    0.000
312.278; 4037.225;  162.350;    0.000
312.339; 3975.225;  158.350;    0.000
312.401; 4003.225;  181.350;    0.000
312.462; 3956.225;  153.350;    0.000
312.524; 4073.225;  186.350;    0.000
312.585; 4013.225;  191.350;    0.000
312.647; 4040.225;  131.350;    0.000
312.708; 3990.225;  170.350;    0.000
312.770; 4089.225;  194.350;    0.000
312.831; 4113.225;  161.350;    0.000
312.893; 4129.225;  179.350;    0.000
312.954; 4121.225;  183.350;    0.000
313.016; 4094.225;  189.350;    0.000
313.077; 4159.225;  169.350;    0.000
313.139; 4105.225;  148.350;    0.000
313.200; 3943.225;  155.350;    0.000
313.261; 4117.225;  213.350;    0.000
313.323; 4034.225;  162.350;    0.000
313.384; 4086.225;  160.350;    0.000
313.446; 4045.225;  202.350;    0.000
313.507; 4046.225;  149.350;    0.000
313.568; 4097.225;  194.350;    0.000
313.630; 4052.225;  163.350;    0.000
313.691; 4224.225;  158.350;    0.000
313.752; 4115.225;  179.350;    0.000
313.814; 3964.225;  180.350;    0.000
313.875; 4079.225;  191.350;    0.000
313.936; 4071.225;  169.350;    0.000
313.998; 4049.225;  165.350;    0.000
314.059; 4058.225;  211.350;    0.000
314.120; 4025.225;  190.350;    0.000
314.182; 4028.225;  185.350;    0.000
314.243; 3990.225;  186.350;    0.000
314.304; 3993.225;  178.350;    0.000
314.365; 3978.225;  187.350;    0.000
314.427; 4031.225;  145.350;    0.000
314.488; 4049.225;  184.350;    0.000
314.549; 4020.225;  181.350;    0.000
314.610; 4235.225;  151.350;    0.000
314.672; 4062.225;  153.350;    0.000
314.733; 3960.225;  148.350;    0.000
314.794; 4053.225;  156.350;    0.000
314.855; 3981.225;  196.350;    0.000
314.917; 4114.225;  157.350;    0.000
314.978; 4124.225;  174.350;    0.000
315.039; 4007.225;  168.350;    0.000
315.100; 3995.225;  154.350;    0.000
315.161; 4121.225;  176.350;    0.000
315.222; 3958.225;  198.350;    0.000
315.283; 3977.225;  169.350;    0.000
315.345; 4008.225;  162.350;    0.000
315.406; 4172.225;  199.350;    0.000
315.467; 3915.225;  180.350;    0.000
315.528; 3916.225;  179.350;    0.000
315.589; 4013.225;  166.350;    0.000
315.650; 3953.225;  179.350;    0.000
315.711; 4059.225;  177.350;    0.000
315.772; 4004.225;  180.350;    0.000
315.833; 3961.225;  157.350;    0.000
315.894; 4099.225;  133.350;    0.000
315.955; 3981.225;  205.350;    0.000
316.016; 3882.225;  190.350;    0.000
316.078; 3909.225;  174.350;    0.000
316.139; 3923.225;  208.350;    0.000
316.200; 3906.225;  166.350;    0.000
316.261; 3895.225;  186.350;    0.000
316.322; 3972.225;  185.350;    0.000
316.383; 3927.225;  179.350;    0.000
316.444; 4048.225;  172.350;    0.000
316.504; 3888.225;  181.350;    0.000
316.565; 3976.225;  197.350;    0.000
316.626; 4027.225;  196.350;    0.000
316.687; 3992.225;  173.350;    0.000
316.748; 3975.225;  178.350;    0.000
316.809; 4035.225;  178.350;    0.000
316.870; 3953.225;  134.350;    0.000
316.931; 3920.225;  166.350;    0.000
316.992; 4011.225;  200.350;    0.000
317.053; 3910.225;  169.350;    0.000
317.114; 3864.225;  185.350;    0.000
317.175; 3929.225;  213.350;    0.000
317.235; 4029.225;  199.350;    0.000
317.296; 4004.225;  190.350;    0.000
317.357; 3902.225;  152.350;    0.000
317.418; 3967.225;  192.350;    0.000
317.479; 3951.225;  170.350;    0.000
317.540; 3873.225;  179.350;    0.000
317.601; 3927.225;  155.350;    0.000
317.661; 3894.225;  154.350;    0.000
317.722; 3972.225;  190.350;    0.000
317.783; 3874.225;  149.350;    0.000
317.844; 3853.225;  207.350;    0.000
317.904; 3934.225;  153.350;    0.000
317.965; 3930.225;  179.350;    0.000
318.026; 3905.225;  235.350;    0.000
318.087; 3954.225;  184.350;    0.000
318.148; 3897.225;  201.350;    0.000
318.208; 3936.225;  220.350;    0.000
318.269; 3934.225;  175.350;    0.000
318.330; 3861.225;  185.350;    0.000
318.390; 3878.225;  180.350;    0.000
318.451; 3833.225;  164.350;    0.000
318.512; 3887.225;  150.350;    0.000
318.572; 3930.225;  205.350;    0.000
318.633; 3857.225;  224.350;    0.000
318.694; 3970.225;  202.350;    0.000
318.754; 3863.225;  196.350;    0.000
318.815; 3906.225;  187.350;    0.000
318.876; 4002.225;  200.350;    0.000
318.936; 3925.225;  232.350;    0.000
318.997; 3824.225;  211.350;    0.000
319.058; 3944.225;  194.350;    0.000
319.118; 3852.225;  197.350;    0.000
319.179; 3898.225;  162.350;    0.000
319.239; 3867.225;  188.350;    0.000
319.300; 3957.225;  205.350;    0.000
319.361; 3913.225;  179.350;    0.000
319.421; 3765.225;  182.350;    0.000
319.482; 3774.225;  189.350;    0.000
319.542; 3856.225;  180.350;    0.000
319.603; 3913.225;  204.350;    0.000
319.663; 3893.225;  195.350;    0.000
319.724; 3843.225;  135.350;    0.000
319.784; 3862.225;  184.350;    0.000
319.845; 3843.225;  160.350;    0.000
319.905; 3809.225;  206.350;    0.000
319.966; 3729.225;  203.350;    0.000
320.026; 3868.225;  203.350;    0.000
320.087; 3872.225;  206.350;    0.000
320.147; 3806.225;  180.350;    0.000
320.208; 3805.225;  189.350;    0.000
320.268; 3851.225;  179.350;    0.000
320.329; 3879.225;  215.350;    0.000
320.389; 3839.225;  193.350;    0.000
320.449; 3896.225;  210.350;    0.000
320.510; 3807.225;  206.350;    0.000
320.570; 3858.225;  221.350;    0.000
320.631; 3796.225;  203.350;    0.000
320.691; 3882.225;  190.350;    0.000
320.751; 3803.225;  205.350;    0.000
320.812; 3882.225;  191.350;    0.000
320.872; 3948.225;  216.350;    0.000
320.932; 3797.225;  209.350;    0.000
320.993; 3826.225;  189.350;    0.000
321.053; 3786.225;  228.350;    0.000
321.113; 3914.225;  163.350;    0.000
321.174; 3927.225;  204.350;    0.000
321.234; 3943.225;  214.350;    0.000
321.294; 3786.225;  184.350;    0.000
321.355; 3790.225;  216.350;    0.000
321.415; 3900.225;  187.350;    0.000
321.475; 3778.225;  216.350;    0.000
321.535; 3908.225;  189.350;    0.000
321.596; 3786.225;  186.350;    0.000
321.656; 3776.225;  204.350;    0.000
321.716; 3851.225;  183.350;    0.000
321.776; 3862.225;  194.350;    0.000
321.837; 3801.225;  190.350;    0.000
321.897; 3808.225;  219.350;    0.000
321.957; 3889.225;  222.350;    0.000
322.017; 3772.225;  183.350;    0.000
322.077; 3772.225;  239.350;    0.000
322.138; 3835.225;  219.350;    0.000
322.198; 3759.225;  185.350;    0.000
322.258; 3767.225;  231.350;    0.000
322.318; 3617.225;  197.350;    0.000
322.378; 3863.225;  179.350;    0.000
322.438; 3610.225;  217.350;    0.000
322.499; 3788.225;  238.350;    0.000
322.559; 3660.225;  197.350;    0.000
322.619; 3625.225;  204.350;    0.000
322.679; 3692.225;  199.350;    0.000
322.739; 3662.225;  194.350;    0.000
322.799; 3733.225;  203.350;    0.000
322.859; 3683.225;  234.350;    0.000
322.919; 3727.225;  194.350;    0.000
322.979; 3747.225;  219.350;    0.000
323.039; 3758.225;  193.350;    0.000
323.099; 3681.225;  207.350;    0.000
323.159; 3728.225;  213.350;    0.000
323.219; 3582.225;  171.350;    0.000
323.279; 3626.225;  215.350;    0.000
323.339; 3736.225;  170.350;    0.000
323.399; 3765.225;  195.350;    0.000
323.459; 3723.225;  234.350;    0.000
323.519; 3838.225;  201.350;    0.000
323.579; 3750.225;  167.350;    0.000
323.639; 3711.225;  209.350;    0.000
323.699; 3729.225;  217.350;    0.000
323.759; 3760.225;  213.350;    0.000
323.819; 3668.225;  216.350;    0.000
323.879; 3862.225;  193.350;    0.000
323.939; 3714.225;  182.350;    0.000
323.999; 3709.225;  206.350;    0.000
324.059; 3711.225;  196.350;    0.000
324.119; 3697.225;  240.350;    0.000
324.178; 3618.225;  186.350;    0.000
324.238; 3704.225;  179.350;    0.000
324.298; 3807.225;  195.350;    0.000
324.358; 3780.225;  208.350;    0.000
324.418; 3651.225;  190.350;    0.000
324.478; 3678.225;  197.350;    0.000
324.538; 3697.225;  157.350;    0.000
324.597; 3658.225;  219.350;    0.000
324.657; 3685.225;  176.350;    0.000
324.717; 3730.225;  179.350;    0.000
324.777; 3624.225;  190.350;    0.000
324.837; 3635.225;  172.350;    0.000
324.896; 3722.225;  199.350;    0.000
324.956; 3653.225;  216.350;    0.000
325.016; 3778.225;  191.350;    0.000
325.076; 3611.225;  185.350;    0.000
325.135; 3694.225;  174.350;    0.000
325.195; 3678.225;  175.350;    0.000
325.255; 3675.225;  144.350;    0.000
325.315; 3680.225;  201.350;    0.000
325.374; 3600.225;  198.350;    0.000
325.434; 3754.225;  181.350;    0.000
325.494; 3626.225;  183.350;    0.000
325.553; 3686.225;  172.350;    0.000
325.613; 3755.225;  200.350;    0.000
325.673; 3587.225;  177.350;    0.000
325.732; 3698.225;  174.350;    0.000
325.792; 3616.225;  181.350;    0.000
325.852; 3620.225;  214.350;    0.000
325.911; 3692.225;  230.350;    0.000
325.971; 3686.225;  198.350;    0.000
326.031; 3614.225;  201.350;    0.000
326.090; 3691.225;  214.350;    0.000
326.150; 3619.225;  163.350;    0.000
326.209; 3649.225;  207.350;    0.000
326.269; 3668.225;  201.350;    0.000
326.328; 3688.225;  208.350;    0.000
326.388; 3596.225;  169.350;    0.000
326.448; 3698.225;  229.350;    0.000
326.507; 3629.225;  243.350;    0.000
326.567; 3569.225;  162.350;    0.000
326.626; 3607.225;  200.350;    0.000
326.686; 3599.225;  166.350;    0.000
326.745; 3648.225;  178.350;    0.000
326.805; 3599.225;  185.350;    0.000
326.864; 3631.225;  209.350;    0.000
326.924; 3652.225;  234.350;    0.000
326.983; 3580.225;  197.350;    0.000
327.043; 3593.225;  217.350;    0.000
327.102; 3598.225;  174.350;    0.000
327.161; 3654.225;  172.350;    0.000
327.221; 3619.225;  183.350;    0.000
327.280; 3607.225;  200.350;    0.000
327.340; 3555.225;  200.350;    0.000
327.399; 3498.225;  219.350;    0.000
327.459; 3676.225;  246.350;    0.000
327.518; 3570.225;  217.350;    0.000
327.577; 3510.225;  212.350;    0.000
327.637; 3594.225;  188.350;    0.000
327.696; 3544.225;  201.350;    0.000
327.755; 3515.225;  199.350;    0.000
327.815; 3612.225;  224.350;    0.000
327.874; 3564.225;  236.350;    0.000
327.933; 3640.225;  182.350;    0.000
327.993; 3519.225;  206.350;    0.000
328.052; 3464.225;  191.350;    0.000
328.111; 3469.225;  222.350;    0.000
328.171; 3521.225;  200.350;    0.000
328.230; 3573.225;  203.350;    0.000
328.289; 3610.225;  219.350;    0.000
328.349; 3511.225;  231.350;    0.000
328.408; 3531.225;  223.350;    0.000
328.467; 3591.225;  226.350;    0.000
328.526; 3543.225;  197.350;    0.000
328.586; 3564.225;  221.350;    0.000
328.645; 3584.225;  199.350;    0.000
328.704; 3620.225;  227.350;    0.000
328.763; 3634.225;  201.350;    0.000
328.822; 3644.225;  230.350;    0.000
328.882; 3573.225;  244.350;    0.000
328.941; 3555.225;  221.350;    0.000
329.000; 3615.225;  207.350;    0.000
329.059; 3556.225;  208.350;    0.000
329.118; 3499.225;  203.350;    0.000
329.177; 3505.225;  198.350;    0.000
329.237; 3714.225;  218.350;    0.000
329.296; 3626.225;  213.350;    0.000
329.355; 3585.225;  208.350;    0.000
329.414; 3668.225;  231.350;    0.000
329.473; 3691.225;  221.350;    0.000
329.532; 3648.225;  243.350;    0.000
329.591; 3650.225;  210.350;    0.000
329.650; 3667.225;  232.350;    0.000
329.709; 3819.225;  211.350;    0.000
329.768; 3852.225;  194.350;    0.000
329.827; 3805.225;  237.350;    0.000
329.886; 3846.225;  213.350;    0.000
329.945; 4038.225;  190.350;    0.000
330.004; 4218.225;  233.350;    0.000
330.063; 4431.225;  191.350;    0.000
330.122; 4985.225;  234.350;    0.000
330.181; 5408.225;  220.350;    0.000
330.240; 5540.225;  191.350;    0.000
330.299; 4926.225;  210.350;    0.000
330.358; 4436.225;  191.350;    0.000
330.417; 4149.225;  225.350;    0.000
330.476; 3815.225;  226.350;    0.000
330.535; 3711.225;  217.350;    0.000
330.594; 3732.225;  205.350;    0.000
330.653; 3677.225;  193.350;    0.000
330.712; 3571.225;  206.350;    0.000
330.771; 3500.225;  175.350;    0.000
330.830; 3484.225;  204.350;    0.000
330.889; 3503.225;  198.350;    0.000
330.948; 3441.225;  198.350;    0.000
331.006; 3454.225;  207.350;    0.000
331.065; 3415.225;  203.350;    0.000
331.124; 3443.225;  210.350;    0.000
331.183; 3380.225;  165.350;    0.000
331.242; 3367.225;  195.350;    0.000
331.301; 3438.225;  191.350;    0.000
331.359; 3448.225;  205.350;    0.000
331.418; 3382.225;  183.350;    0.000
331.477; 3351.225;  198.350;    0.000
331.536; 3422.225;  211.350;    0.000
331.595; 3390.225;  191.350;    0.000
331.653; 3349.225;  232.350;    0.000
331.712; 3388.225;  225.350;    0.000
331.771; 3292.225;  199.350;    0.000
331.830; 3394.225;  189.350;    0.000
331.888; 3300.225;  219.350;    0.000
331.947; 3319.225;  188.350;    0.000
332.006; 3401.225;  180.350;    0.000
332.065; 3469.225;  177.350;    0.000
332.123; 3368.225;  214.350;    0.000
332.182; 3373.225;  223.350;    0.000
332.241; 3324.225;  202.350;    0.000
332.299; 3423.225;  180.350;    0.000
332.358; 3357.225;  206.350;    0.000
332.417; 3407.225;  195.350;    0.000
332.475; 3375.225;  221.350;    0.000
332.534; 3461.225;  207.350;    0.000
332.592; 3324.225;  190.350;    0.000
332.651; 3413.225;  203.350;    0.000
332.710; 3560.225;  219.350;    0.000
332.768; 3396.225;  210.350;    0.000
332.827; 3315.225;  173.350;    0.000
332.885; 3433.225;  239.350;    0.000
332.944; 3487.225;  145.350;    0.000
333.003; 3535.225;  197.350;    0.000
333.061; 3459.225;  179.350;    0.000
333.120; 3566.225;  198.350;    0.000
333.178; 3653.225;  185.350;    0.000
333.237; 3542.225;  204.350;    0.000
333.295; 3558.225;  266.350;    0.000
333.354; 3580.225;  181.350;    0.000
333.412; 3526.225;  189.350;    0.000
333.471; 3593.225;  216.350;    0.000
333.529; 3524.225;  220.350;    0.000
333.588; 3690.225;  193.350;    0.000
333.646; 3605.225;  186.350;    0.000
333.705; 3722.225;  210.350;    0.000
333.763; 3713.225;  222.350;    0.000
333.822; 3585.225;  222.350;    0.000
333.880; 3458.225;  202.350;    0.000
333.938; 3583.225;  205.350;    0.000
333.997; 3544.225;  199.350;    0.000
334.055; 3597.225;  199.350;    0.000
334.114; 3507.225;  237.350;    0.000
334.172; 3380.225;  155.350;    0.000
334.230; 3514.225;  208.350;    0.000
334.289; 3545.225;  191.350;    0.000
334.347; 3495.225;  211.350;    0.000
334.405; 3416.225;  212.350;    0.000
334.464; 3403.225;  179.350;    0.000
334.522; 3480.225;  160.350;    0.000
334.580; 3497.225;  195.350;    0.000
334.639; 3452.225;  191.350;    0.000
334.697; 3353.225;  194.350;    0.000
334.755; 3486.225;  185.350;    0.000
334.814; 3453.225;  214.350;    0.000
334.872; 3457.225;  179.350;    0.000
334.930; 3381.225;  169.350;    0.000
334.988; 3415.225;  201.350;    0.000
335.047; 3430.225;  188.350;    0.000
335.105; 3501.225;  175.350;    0.000
335.163; 3453.225;  191.350;    0.000
335.221; 3411.225;  196.350;    0.000
335.280; 3240.225;  182.350;    0.000
335.338; 3438.225;  202.350;    0.000
335.396; 3377.225;  219.350;    0.000
335.454; 3477.225;  187.350;    0.000
335.512; 3494.225;  236.350;    0.000
335.570; 3467.225;  209.350;    0.000
335.629; 3450.225;  247.350;    0.000
335.687; 3407.225;  219.350;    0.000
335.745; 3435.225;  203.350;    0.000
335.803; 3446.225;  220.350;    0.000
335.861; 3400.225;  208.350;    0.000
335.919; 3446.225;  223.350;    0.000
335.977; 3448.225;  201.350;    0.000
336.035; 3402.225;  193.350;    0.000
336.094; 3416.225;  178.350;    0.000
336.152; 3385.225;  182.350;    0.000
336.210; 3510.225;  199.350;    0.000
336.268; 3467.225;  216.350;    0.000
336.326; 3514.225;  216.350;    0.000
336.384; 3377.225;  201.350;    0.000
336.442; 3363.225;  197.350;    0.000
336.500; 3348.225;  203.350;    0.000
336.558; 3436.225;  198.350;    0.000
336.616; 3458.225;  210.350;    0.000
336.674; 3311.225;  192.350;    0.000
336.732; 3400.225;  182.350;    0.000
336.790; 3433.225;  189.350;    0.000
336.848; 3495.225;  233.350;    0.000
336.906; 3438.225;  235.350;    0.000
336.964; 3452.225;  208.350;    0.000
337.022; 3497.225;  249.350;    0.000
337.080; 3429.225;  204.350;    0.000
337.138; 3374.225;  176.350;    0.000
337.195; 3440.225;  207.350;    0.000
337.253; 3383.225;  214.350;    0.000
337.311; 3355.225;  210.350;    0.000
337.369; 3355.225;  222.350;    0.000
337.427; 3344.225;  236.350;    0.000
337.485; 3353.225;  241.350;    0.000
337.543; 3382.225;  217.350;    0.000
337.601; 3462.225;  221.350;    0.000
337.658; 3414.225;  205.350;    0.000
337.716; 3337.225;  210.350;    0.000
337.774; 3299.225;  196.350;    0.000
337.832; 3280.225;  200.350;    0.000
337.890; 3328.225;  192.350;    0.000
337.947; 3350.225;  192.350;    0.000
338.005; 3281.225;  211.350;    0.000
338.063; 3358.225;  176.350;    0.000
338.121; 3249.225;  222.350;    0.000
338.178; 3303.225;  198.350;    0.000
338.236; 3252.225;  210.350;    0.000
338.294; 3351.225;  211.350;    0.000
338.352; 3270.225;  212.350;    0.000
338.409; 3303.225;  199.350;    0.000
338.467; 3180.225;  205.350;    0.000
338.525; 3311.225;  217.350;    0.000
338.583; 3176.225;  197.350;    0.000
338.640; 3234.225;  226.350;    0.000
338.698; 3290.225;  201.350;    0.000
338.756; 3239.225;  192.350;    0.000
338.813; 3392.225;  220.350;    0.000
338.871; 3423.225;  258.350;    0.000
338.928; 3298.225;  223.350;    0.000
338.986; 3230.225;  200.350;    0.000
339.044; 3248.225;  206.350;    0.000
339.101; 3295.225;  250.350;    0.000
339.159; 3236.225;  245.350;    0.000
339.216; 3296.225;  227.350;    0.000
339.274; 3276.225;  260.350;    0.000
339.332; 3223.225;  223.350;    0.000
339.389; 3298.225;  233.350;    0.000
339.447; 3231.225;  206.350;    0.000
339.504; 3155.225;  229.350;    0.000
339.562; 3279.225;  194.350;    0.000
339.619; 3344.225;  245.350;    0.000
339.677; 3198.225;  238.350;    0.000
339.734; 3206.225;  197.350;    0.000
339.792; 3172.225;  210.350;    0.000
339.849; 3214.225;  201.350;    0.000
339.907; 3259.225;  252.350;    0.000
339.964; 3196.225;  191.350;    0.000
340.022; 3150.225;  246.350;    0.000
340.079; 3191.225;  213.350;    0.000
340.137; 3236.225;  240.350;    0.000
340.194; 3272.225;  208.350;    0.000
340.252; 3223.225;  215.350;    0.000
340.309; 3230.225;  203.350;    0.000
340.366; 3224.225;  194.350;    0.000
340.424; 3207.225;  226.350;    0.000
340.481; 3201.225;  234.350;    0.000
340.538; 3182.225;  205.350;    0.000
340.596; 3158.225;  197.350;    0.000
340.653; 3279.225;  233.350;    0.000
340.711; 3194.225;  273.350;    0.000
340.768; 3253.225;  237.350;    0.000
340.825; 3256.225;  224.350;    0.000
340.883; 3246.225;  240.350;    0.000
340.940; 3224.225;  216.350;    0.000
340.997; 3164.225;  228.350;    0.000
341.054; 3185.225;  200.350;    0.000
341.112; 3277.225;  220.350;    0.000
341.169; 3176.225;  226.350;    0.000
341.226; 3297.225;  206.350;    0.000
341.284; 3265.225;  204.350;    0.000
341.341; 3205.225;  214.350;    0.000
341.398; 3225.225;  160.350;    0.000
341.455; 3307.225;  209.350;    0.000
341.512; 3177.225;  233.350;    0.000
341.570; 3179.225;  240.350;    0.000
341.627; 3225.225;  209.350;    0.000
341.684; 3313.225;  178.350;    0.000
341.741; 3282.225;  254.350;    0.000
341.798; 3283.225;  232.350;    0.000
341.856; 3216.225;  196.350;    0.000
341.913; 3267.225;  244.350;    0.000
341.970; 3209.225;  203.350;    0.000
342.027; 3182.225;  235.350;    0.000
342.084; 3242.225;  214.350;    0.000
342.141; 3205.225;  194.350;    0.000
342.198; 3220.225;  194.350;    0.000
342.255; 3149.225;  219.350;    0.000
342.313; 3250.225;  195.350;    0.000
342.370; 3228.225;  207.350;    0.000
342.427; 3165.225;  217.350;    0.000
342.484; 3165.225;  213.350;    0.000
342.541; 3313.225;  215.350;    0.000
342.598; 3256.225;  247.350;    0.000
342.655; 3253.225;  205.350;    0.000
342.712; 3295.225;  226.350;    0.000
342.769; 3205.225;  212.350;    0.000
342.826; 3287.225;  203.350;    0.000
342.883; 3283.225;  207.350;    0.000
342.940; 3221.225;  204.350;    0.000
342.997; 3216.225;  237.350;    0.000
343.054; 3287.225;  210.350;    0.000
343.111; 3264.225;  209.350;    0.000
343.168; 3292.225;  201.350;    0.000
343.225; 3303.225;  208.350;    0.000
343.282; 3271.225;  216.350;    0.000
343.339; 3368.225;  237.350;    0.000
343.395; 3385.225;  218.350;    0.000
343.452; 3355.225;  234.350;    0.000
343.509; 3382.225;  214.350;    0.000
343.566; 3394.225;  222.350;    0.000
343.623; 3445.225;  226.350;    0.000
343.680; 3401.225;  245.350;    0.000
343.737; 3574.225;  209.350;    0.000
343.794; 3544.225;  227.350;    0.000
343.850; 3528.225;  197.350;    0.000
343.907; 3581.225;  211.350;    0.000
343.964; 3611.225;  190.350;    0.000
344.021; 3564.225;  252.350;    0.000
344.078; 3491.225;  261.350;    0.000
344.134; 3573.225;  206.350;    0.000
344.191; 3477.225;  231.350;    0.000
344.248; 3566.225;  225.350;    0.000
344.305; 3505.225;  210.350;    0.000
344.361; 3572.225;  194.350;    0.000
344.418; 3553.225;  219.350;    0.000
344.475; 3545.225;  245.350;    0.000
344.532; 3486.225;  238.350;    0.000
344.588; 3549.225;  235.350;    0.000
344.645; 3507.225;  229.350;    0.000
344.702; 3401.225;  145.350;    0.000
344.758; 3387.225;  240.350;    0.000
344.815; 3518.225;  215.350;    0.000
344.872; 3479.225;  203.350;    0.000
344.928; 3386.225;  208.350;    0.000
344.985; 3437.225;  216.350;    0.000
345.042; 3524.225;  234.350;    0.000
345.098; 3468.225;  183.350;    0.000
345.155; 3494.225;  241.350;    0.000
345.212; 3394.225;  222.350;    0.000
345.268; 3425.225;  234.350;    0.000
345.325; 3511.225;  181.350;    0.000
345.381; 3499.225;  251.350;    0.000
345.438; 3452.225;  256.350;    0.000
345.495; 3484.225;  247.350;    0.000
345.551; 3421.225;  231.350;    0.000
345.608; 3352.225;  206.350;    0.000
345.664; 3562.225;  201.350;    0.000
345.721; 3501.225;  216.350;    0.000
345.777; 3447.225;  195.350;    0.000
345.834; 3313.225;  195.350;    0.000
345.890; 3363.225;  227.350;    0.000
345.947; 3482.225;  240.350;    0.000
346.003; 3423.225;  248.350;    0.000
346.060; 3312.225;  213.350;    0.000
346.116; 3427.225;  225.350;    0.000
346.173; 3428.225;  199.350;    0.000
346.229; 3526.225;  264.350;    0.000
346.285; 3462.225;  246.350;    0.000
346.342; 3395.225;  240.350;    0.000
346.398; 3458.225;  222.350;    0.000
346.455; 3507.225;  231.350;    0.000
346.511; 3516.225;  214.350;    0.000
346.567; 3468.225;  231.350;    0.000
346.624; 3544.225;  222.350;    0.000
346.680; 3548.225;  197.350;    0.000
346.737; 3522.225;  225.350;    0.000
346.793; 3483.225;  255.350;    0.000
346.849; 3553.225;  245.350;    0.000
346.906; 3455.225;  221.350;    0.000
346.962; 3573.225;  260.350;    0.000
347.018; 3462.225;  238.350;    0.000
347.074; 3566.225;  257.350;    0.000
347.131; 3531.225;  200.350;    0.000
347.187; 3488.225;  232.350;    0.000
347.243; 3487.225;  240.350;    0.000
347.300; 3498.225;  249.350;    0.000
347.356; 3456.225;  250.350;    0.000
347.412; 3550.225;  252.350;    0.000
347.468; 3435.225;  254.350;    0.000
347.524; 3520.225;  280.350;    0.000
347.581; 3442.225;  228.350;    0.000
347.637; 3537.225;  261.350;    0.000
347.693; 3492.225;  238.350;    0.000
347.749; 3606.225;  261.350;    0.000
347.805; 3423.225;  238.350;    0.000
347.862; 3558.225;  246.350;    0.000
347.918; 3537.225;  256.350;    0.000
347.974; 3579.225;  277.350;    0.000
348.030; 3474.225;  242.350;    0.000
348.086; 3584.225;  223.350;    0.000
348.142; 3556.225;  215.350;    0.000
348.198; 3595.225;  272.350;    0.000
348.254; 3642.225;  292.350;    0.000
348.311; 3592.225;  235.350;    0.000
348.367; 3571.225;  263.350;    0.000
348.423; 3511.225;  193.350;    0.000
348.479; 3632.225;  266.350;    0.000
348.535; 3484.225;  238.350;    0.000
348.591; 3657.225;  237.350;    0.000
348.647; 3532.225;  239.350;    0.000
348.703; 3612.225;  240.350;    0.000
348.759; 3717.225;  253.350;    0.000
348.815; 3505.225;  255.350;    0.000
348.871; 3691.225;  256.350;    0.000
348.927; 3577.225;  261.350;    0.000
348.983; 3561.225;  258.350;    0.000
349.039; 3651.225;  204.350;    0.000
349.095; 3655.225;  215.350;    0.000
349.151; 3642.225;  230.350;    0.000
349.207; 3569.225;  216.350;    0.000
349.263; 3581.225;  235.350;    0.000
349.319; 3712.225;  244.350;    0.000
349.374; 3610.225;  213.350;    0.000
349.430; 3620.225;  241.350;    0.000
349.486; 3579.225;  248.350;    0.000
349.542; 3609.225;  259.350;    0.000
349.598; 3645.225;  208.350;    0.000
349.654; 3660.225;  242.350;    0.000
349.710; 3617.225;  246.350;    0.000
349.766; 3682.225;  226.350;    0.000
349.821; 3671.225;  227.350;    0.000
349.877; 3729.225;  226.350;    0.000
349.933; 3657.225;  249.350;    0.000
349.989; 3633.225;  263.350;    0.000
350.045; 3620.225;  267.350;    0.000
350.100; 3634.225;  219.350;    0.000
350.156; 3621.225;  207.350;    0.000
350.212; 3657.225;  230.350;    0.000
350.268; 3621.225;  223.350;    0.000
350.323; 3691.225;  217.350;    0.000
350.379; 3614.225;  227.350;    0.000
350.435; 3631.225;  219.350;    0.000
350.491; 3611.225;  195.350;    0.000
350.546; 3583.225;  229.350;    0.000
350.602; 3586.225;  222.350;    0.000
350.658; 3728.225;  225.350;    0.000
350.713; 3578.225;  231.350;    0.000
350.769; 3562.225;  193.350;    0.000
350.825; 3636.225;  182.350;    0.000
350.880; 3618.225;  193.350;    0.000
350.936; 3665.225;  222.350;    0.000
350.992; 3634.225;  217.350;    0.000
351.047; 3618.225;  226.350;    0.000
351.103; 3601.225;  187.350;    0.000
351.158; 3626.225;  212.350;    0.000
351.214; 3587.225;  207.350;    0.000
351.270; 3708.225;  194.350;    0.000
351.325; 3586.225;  213.350;    0.000
351.381; 3669.225;  223.350;    0.000
351.436; 3656.225;  222.350;    0.000
351.492; 3714.225;  219.350;    0.000
351.547; 3591.225;  205.350;    0.000
351.603; 3682.225;  218.350;    0.000
351.658; 3687.225;  199.350;    0.000
351.714; 3685.225;  201.350;    0.000
351.769; 3804.225;  209.350;    0.000
351.825; 3772.225;  226.350;    0.000
351.880; 3674.225;  189.350;    0.000
351.936; 3604.225;  201.350;    0.000
351.991; 3725.225;  220.350;    0.000
352.047; 3697.225;  232.350;    0.000
352.102; 3581.225;  185.350;    0.000
352.158; 3586.225;  228.350;    0.000
352.213; 3603.225;  204.350;    0.000
352.268; 3713.225;  220.350;    0.000
352.324; 3709.225;  206.350;    0.000
352.379; 3657.225;  182.350;    0.000
352.434; 3732.225;  214.350;    0.000
352.490; 3716.225;  250.350;    0.000
352.545; 3709.225;  290.350;    0.000
352.601; 3707.225;  247.350;    0.000
352.656; 3737.225;  203.350;    0.000
352.711; 3665.225;  197.350;    0.000
352.767; 3655.225;  169.350;    0.000
352.822; 3719.225;  191.350;    0.000
352.877; 3708.225;  235.350;    0.000
352.932; 3671.225;  231.350;    0.000
352.988; 3663.225;  224.350;    0.000
353.043; 3782.225;  226.350;    0.000
353.098; 3746.225;  227.350;    0.000
353.153; 3773.225;  239.350;    0.000
353.209; 3640.225;  217.350;    0.000
353.264; 3706.225;  198.350;    0.000
353.319; 3692.225;  247.350;    0.000
353.374; 3814.225;  199.350;    0.000
353.430; 3779.225;  247.350;    0.000
353.485; 3701.225;  242.350;    0.000
353.540; 3742.225;  237.350;    0.000
353.595; 3739.225;  233.350;    0.000
353.650; 3756.225;  221.350;    0.000
353.705; 3728.225;  259.350;    0.000
353.761; 3757.225;  223.350;    0.000
353.816; 3810.225;  234.350;    0.000
353.871; 3748.225;  226.350;    0.000
353.926; 3841.225;  232.350;    0.000
353.981; 3793.225;  245.350;    0.000
354.036; 3791.225;  247.350;    0.000
354.091; 3744.225;  233.350;    0.000
354.146; 3869.225;  253.350;    0.000
354.201; 3829.225;  236.350;    0.000
354.256; 3739.225;  210.350;    0.000
354.311; 3740.225;  279.350;    0.000
354.367; 3719.225;  208.350;    0.000
354.422; 3703.225;  228.350;    0.000
354.477; 3793.225;  202.350;    0.000
354.532; 3784.225;  215.350;    0.000
354.587; 3791.225;  249.350;    0.000
354.642; 3752.225;  206.350;    0.000
354.697; 3808.225;  226.350;    0.000
354.751; 3793.225;  241.350;    0.000
354.806; 3681.225;  249.350;    0.000
354.861; 3800.225;  216.350;    0.000
354.916; 3811.225;  249.350;    0.000
354.971; 3667.225;  217.350;    0.000
355.026; 3783.225;  236.350;    0.000
355.081; 3785.225;  242.350;    0.000
355.136; 3705.225;  216.350;    0.000
355.191; 3862.225;  216.350;    0.000
355.246; 3750.225;  258.350;    0.000
355.301; 3768.225;  250.350;    0.000
355.355; 3709.225;  251.350;    0.000
355.410; 3743.225;  216.350;    0.000
355.465; 3810.225;  224.350;    0.000
355.520; 3772.225;  221.350;    0.000
355.575; 3815.225;  255.350;    0.000
355.630; 3729.225;  225.350;    0.000
355.684; 3716.225;  210.350;    0.000
355.739; 3662.225;  232.350;    0.000
355.794; 3741.225;  202.350;    0.000
355.849; 3796.225;  211.350;    0.000
355.904; 3785.225;  226.350;    0.000
355.958; 3763.225;  191.350;    0.000
356.013; 3868.225;  208.350;    0.000
356.068; 3753.225;  229.350;    0.000
356.123; 3855.225;  243.350;    0.000
356.177; 3815.225;  227.350;    0.000
356.232; 3838.225;  243.350;    0.000
356.287; 3839.225;  216.350;    0.000
356.341; 3783.225;  242.350;    0.000
356.396; 3876.225;  175.350;    0.000
356.451; 3814.225;  271.350;    0.000
356.505; 3784.225;  225.350;    0.000
356.560; 3806.225;  260.350;    0.000
356.615; 3744.225;  213.350;    0.000
356.669; 3831.225;  213.350;    0.000
356.724; 3800.225;  221.350;    0.000
356.778; 3749.225;  232.350;    0.000
356.833; 3766.225;  178.350;    0.000
356.888; 3841.225;  236.350;    0.000
356.942; 3924.225;  224.350;    0.000
356.997; 3801.225;  228.350;    0.000
357.051; 3837.225;  226.350;    0.000
357.106; 3942.225;  185.350;    0.000
357.160; 3803.225;  202.350;    0.000
357.215; 3753.225;  232.350;    0.000
357.269; 3817.225;  224.350;    0.000
357.324; 3733.225;  219.350;    0.000
357.378; 3746.225;  196.350;    0.000
357.433; 3798.225;  241.350;    0.000
357.487; 3885.225;  244.350;    0.000
357.542; 3781.225;  210.350;    0.000
357.596; 3851.225;  231.350;    0.000
357.651; 3828.225;  248.350;    0.000
357.705; 3870.225;  232.350;    0.000
357.760; 3755.225;  224.350;    0.000
357.814; 3863.225;  221.350;    0.000
357.868; 3874.225;  207.350;    0.000
357.923; 3783.225;  234.350;    0.000
357.977; 3784.225;  218.350;    0.000
358.032; 3748.225;  244.350;    0.000
358.086; 3816.225;  246.350;    0.000
358.140; 3780.225;  235.350;    0.000
358.195; 3778.225;  237.350;    0.000
358.249; 3745.225;  233.350;    0.000
358.303; 3795.225;  254.350;    0.000
358.358; 3811.225;  217.350;    0.000
358.412; 3937.225;  245.350;    0.000
358.466; 3802.225;  230.350;    0.000
358.521; 3819.225;  214.350;    0.000
358.575; 3726.225;  243.350;    0.000
358.629; 3862.225;  230.350;    0.000
358.683; 3801.225;  232.350;    0.000
358.738; 3758.225;  249.350;    0.000
358.792; 3788.225;  249.350;    0.000
358.846; 3772.225;  271.350;    0.000
358.900; 3810.225;  265.350;    0.000
358.954; 3849.225;  236.350;    0.000
359.009; 3834.225;  254.350;    0.000
359.063; 3661.225;  216.350;    0.000
359.117; 3809.225;  245.350;    0.000
359.171; 3822.225;  252.350;    0.000
359.225; 3823.225;  240.350;    0.000
359.280; 3738.225;  239.350;    0.000
359.334; 3717.225;  234.350;    0.000
359.388; 3807.225;  258.350;    0.000
359.442; 3868.225;  220.350;    0.000
359.496; 3842.225;  206.350;    0.000
359.550; 3860.225;  279.350;    0.000
359.604; 3841.225;  263.350;    0.000
359.658; 3764.225;  251.350;    0.000
359.712; 3745.225;  244.350;    0.000
359.766; 3766.225;  217.350;    0.000
359.820; 3845.225;  235.350;    0.000
359.875; 3819.225;  249.350;    0.000
359.929; 3741.225;  269.350;    0.000
359.983; 3803.225;  240.350;    0.000
360.037; 3756.225;  252.350;    0.000
360.091; 3849.225;  271.350;    0.000
360.145; 3744.225;  222.350;    0.000
360.199; 3739.225;  302.350;    0.000
360.253; 3722.225;  234.350;    0.000
360.306; 3717.225;  258.350;    0.000
360.360; 3709.225;  249.350;    0.000
360.414; 3771.225;  231.350;    0.000
360.468; 3790.225;  261.350;    0.000
360.522; 3770.225;  277.350;    0.000
360.576; 3813.225;  273.350;    0.000
360.630; 3895.225;  264.350;    0.000
360.684; 3710.225;  223.350;    0.000
360.738; 3818.225;  266.350;    0.000
360.792; 3804.225;  252.350;    0.000
360.846; 3783.225;  234.350;    0.000
360.899; 3828.225;  296.350;    0.000
360.953; 3754.225;  273.350;    0.000
361.007; 3804.225;  251.350;    0.000
361.061; 3763.225;  250.350;    0.000
361.115; 3826.225;  267.350;    0.000
361.168; 3731.225;  308.350;    0.000
361.222; 3690.225;  246.350;    0.000
361.276; 3841.225;  261.350;    0.000
361.330; 3766.225;  233.350;    0.000
361.384; 3854.225;  269.350;    0.000
361.437; 3738.225;  270.350;    0.000
361.491; 3804.225;  263.350;    0.000
361.545; 3807.225;  288.350;    0.000
361.599; 3896.225;  270.350;    0.000
361.652; 3850.225;  256.350;    0.000
361.706; 3790.225;  263.350;    0.000
361.760; 3815.225;  237.350;    0.000
361.813; 3820.225;  278.350;    0.000
361.867; 3809.225;  317.350;    0.000
361.921; 3810.225;  260.350;    0.000
361.974; 3834.225;  239.350;    0.000
362.028; 3720.225;  266.350;    0.000
362.082; 3811.225;  269.350;    0.000
362.135; 3923.225;  262.350;    0.000
362.189; 3818.225;  258.350;    0.000
362.242; 3838.225;  273.350;    0.000
362.296; 3773.225;  261.350;    0.000
362.350; 3834.225;  272.350;    0.000
362.403; 3820.225;  291.350;    0.000
362.457; 3778.225;  253.350;    0.000
362.510; 3716.225;  266.350;    0.000
362.564; 3769.225;  260.350;    0.000
362.617; 3906.225;  280.350;    0.000
362.671; 3707.225;  281.350;    0.000
362.724; 3792.225;  234.350;    0.000
362.778; 3823.225;  311.350;    0.000
362.831; 3751.225;  276.350;    0.000
362.885; 3792.225;  288.350;    0.000
362.938; 3702.225;  284.350;    0.000
362.992;  319.225;  245.350;    0.000
363.045;  270.225;  277.350;    0.000
363.099;  292.225;  246.350;    0.000
363.152;  287.225;  290.350;    0.000
363.205;  288.225;  256.350;    0.000
363.259;  248.225;  238.350;    0.000
363.312;  288.225;  290.350;    0.000
363.366;  287.225;  287.350;    0.000
363.419;  300.225;  279.350;    0.000
363.472;  307.225;  304.350;    0.000
363.526;  309.225;  305.350;    0.000
363.579;  267.225;  281.350;    0.000
363.632;  310.225;  279.350;    0.000
363.686;  319.225;  277.350;    0.000
363.739;  272.225;  268.350;    0.000
363.792;  281.225;  274.350;    0.000

