
Integration time [ms]:   0.300
Averaging Nr. [scans]: 1
Smoothing Nr. [pixels]: 0
Data measured with spectrometer [name]: NIR
Wave   ;Sample   ;Dark     ;Reference
[nm]   ;[counts] ;[counts] ;[counts] 

691.496;   29.775;  155.525;    0.000
691.696;   67.775;  186.525;    0.000
691.896;   17.775;  113.525;    0.000
692.096;   63.775;  169.525;    0.000
692.296;   -3.225;  119.525;    0.000
692.496;   17.775;  182.525;    0.000
692.695;   26.775;  119.525;    0.000
692.895;   51.775;  183.525;    0.000
693.095;   22.775;  119.525;    0.000
693.295;   82.775;  156.525;    0.000
693.495;   27.775;  145.525;    0.000
693.695;    1.775;  144.525;    0.000
693.894;   14.775;  174.525;    0.000
694.094;   49.775;  148.525;    0.000
694.294;   27.775;  114.525;    0.000
694.494;  450.775;  137.525;    0.000
694.693; 4075.775;  112.525;    0.000
694.893; 4459.775;   85.525;    0.000
695.093; 4583.775;  152.525;    0.000
695.293; 4654.775;  159.525;    0.000
695.492; 4523.775;  131.525;    0.000
695.692; 4510.775;  134.525;    0.000
695.891; 4524.775;  161.525;    0.000
696.091; 4662.775;  180.525;    0.000
696.291; 4649.775;  120.525;    0.000
696.490; 4690.775;  146.525;    0.000
696.690; 4831.775;  145.525;    0.000
696.889; 4684.775;  171.525;    0.000
697.089; 4661.775;   98.525;    0.000
697.288; 4779.775;  172.525;    0.000
697.488; 4751.775;  137.525;    0.000
697.687; 4652.775;  171.525;    0.000
697.887; 4876.775;  142.525;    0.000
698.086; 4767.775;  159.525;    0.000
698.286; 4764.775;  122.525;    0.000
698.485; 4858.775;  121.525;    0.000
698.684; 4722.775;   94.525;    0.000
698.884; 4804.775;  131.525;    0.000
699.083; 4950.775;  112.525;    0.000
699.282; 4820.775;  119.525;    0.000
699.482; 4709.775;  117.525;    0.000
699.681; 4905.775;  115.525;    0.000
699.880; 4832.775;  166.525;    0.000
700.080; 4913.775;  194.525;    0.000
700.279; 4794.775;   98.525;    0.000
700.478; 4837.775;  159.525;    0.000
700.677; 4807.775;  134.525;    0.000
700.877; 4858.775;  171.525;    0.000
701.076; 4877.775;  141.525;    0.000
701.275; 4797.775;  119.525;    0.000
701.474; 4791.775;  132.525;    0.000
701.673; 4836.775;  141.525;    0.000
701.872; 4839.775;  158.525;    0.000
702.071; 4953.775;  129.525;    0.000
702.271; 4983.775;  122.525;    0.000
702.470; 4992.775;  158.525;    0.000
702.669; 4996.775;  145.525;    0.000
702.868; 4966.775;  135.525;    0.000
703.067; 4933.775;  169.525;    0.000
703.266; 4896.775;  125.525;    0.000
703.465; 4876.775;  153.525;    0.000
703.664; 5022.775;  113.525;    0.000
703.863; 5085.775;  170.525;    0.000
704.062; 4911.775;  115.525;    0.000
704.260; 5028.775;  133.525;    0.000
704.459; 5096.775;  123.525;    0.000
704.658; 4951.775;  105.525;    0.000
704.857; 5025.775;  125.525;    0.000
705.056; 5066.775;  108.525;    0.000
705.255; 4992.775;  117.525;    0.000
705.454; 5012.775;  126.525;    0.000
705.652; 5034.775;  137.525;    0.000
705.851; 5053.775;   95.525;    0.000
706.050; 5165.775;  120.525;    0.000
706.249; 5110.775;   81.525;    0.000
706.447; 5054.775;  105.525;    0.000
706.646; 5179.775;  107.525;    0.000
706.845; 5167.775;  104.525;    0.000
707.043; 5125.775;  136.525;    0.000
707.242; 4981.775;   89.525;    0.000
707.441; 5197.775;  147.525;    0.000
707.639; 5176.775;  156.525;    0.000
707.838; 5142.775;  114.525;    0.000
708.037; 5179.775;  100.525;    0.000
708.235; 5109.775;  103.525;    0.000
708.434; 5219.775;  102.525;    0.000
708.632; 5230.775;  100.525;    0.000
708.831; 5161.775;  121.525;    0.000
709.029; 5268.775;  102.525;    0.000
709.228; 5273.775;   88.525;    0.000
709.426; 5238.775;  135.525;    0.000
709.625; 5303.775;  128.525;    0.000
709.823; 5265.775;  123.525;    0.000
710.022; 5296.775;  137.525;    0.000
710.220; 5381.775;  134.525;    0.000
710.418; 5397.775;  122.525;    0.000
710.617; 5416.775;   64.525;    0.000
710.815; 5431.775;   94.525;    0.000
711.013; 5266.775;  127.525;    0.000
711.212; 5413.775;  105.525;    0.000
711.410; 5427.775;  117.525;    0.000
711.608; 5418.775;  114.525;    0.000
711.807; 5394.775;  119.525;    0.000
712.005; 5425.775;   92.525;    0.000
712.203; 5407.775;   95.525;    0.000
712.401; 5494.775;  107.525;    0.000
712.599; 5501.775;  127.525;    0.000
712.798; 5585.775;  120.525;    0.000
712.996; 5509.775;   76.525;    0.000
713.194; 5452.775;  118.525;    0.000
713.392; 5467.775;   60.525;    0.000
713.590; 5627.775;   92.525;    0.000
713.788; 5659.775;  110.525;    0.000
713.986; 5695.775;  130.525;    0.000
714.184; 5648.775;   71.525;    0.000
714.382; 5766.775;   86.525;    0.000
714.580; 5694.775;   74.525;    0.000
714.778; 5780.775;  133.525;    0.000
714.976; 5784.775;   81.525;    0.000
715.174; 5978.775;  100.525;    0.000
715.372; 6063.775;  141.525;    0.000
715.570; 6481.775;   73.525;    0.000
715.768; 6972.775;  119.525;    0.000
715.966; 6860.775;   81.525;    0.000
716.164; 6703.775;  130.525;    0.000
716.362; 6698.775;  125.525;    0.000
716.560; 6489.775;  109.525;    0.000
716.758; 6440.775;   96.525;    0.000
716.955; 6324.775;   83.525;    0.000
717.153; 6274.775;   87.525;    0.000
717.351; 6375.775;  123.525;    0.000
717.549; 6189.775;  121.525;    0.000
717.746; 6094.775;  128.525;    0.000
717.944; 6206.775;  132.525;    0.000
718.142; 6151.775;  120.525;    0.000
718.340; 6136.775;   94.525;    0.000
718.537; 6191.775;   95.525;    0.000
718.735; 6181.775;  152.525;    0.000
718.933; 6109.775;  124.525;    0.000
719.130; 6180.775;  114.525;    0.000
719.328; 6218.775;   63.525;    0.000
719.525; 6160.775;  146.525;    0.000
719.723; 6063.775;   96.525;    0.000
719.920; 6013.775;  120.525;    0.000
720.118; 6014.775;   59.525;    0.000
720.316; 6111.775;  116.525;    0.000
720.513; 6050.775;  127.525;    0.000
720.711; 6046.775;  110.525;    0.000
720.908; 5997.775;   92.525;    0.000
721.105; 6091.775;  138.525;    0.000
721.303; 6138.775;   90.525;    0.000
721.500; 5983.775;  126.525;    0.000
721.698; 6195.775;  103.525;    0.000
721.895; 5969.775;  206.525;    0.000
722.092; 6056.775;   63.525;    0.000
722.290; 6149.775;  123.525;    0.000
722.487; 6010.775;  137.525;    0.000
722.684; 6118.775;  126.525;    0.000
722.882; 6077.775;  119.525;    0.000
723.079; 6154.775;  132.525;    0.000
723.276; 6045.775;   98.525;    0.000
723.473; 6079.775;   97.525;    0.000
723.671; 6019.775;   43.525;    0.000
723.868; 6161.775;  142.525;    0.000
724.065; 6135.775;  102.525;    0.000
724.262; 6235.775;  119.525;    0.000
724.459; 6046.775;   73.525;    0.000
724.656; 6152.775;  128.525;    0.000
724.854; 6155.775;  135.525;    0.000
725.051; 6260.775;   81.525;    0.000
725.248; 6138.775;   88.525;    0.000
725.445; 6321.775;  129.525;    0.000
725.642; 6284.775;   76.525;    0.000
725.839; 6270.775;  134.525;    0.000
726.036; 6328.775;  101.525;    0.000
726.233; 6291.775;   68.525;    0.000
726.430; 6267.775;  121.525;    0.000
726.627; 6246.775;  136.525;    0.000
726.824; 6247.775;   87.525;    0.000
727.021; 6138.775;  141.525;    0.000
727.218; 6192.775;   92.525;    0.000
727.414; 6340.775;  121.525;    0.000
727.611; 6395.775;  100.525;    0.000
727.808; 6258.775;  130.525;    0.000
728.005; 6297.775;   83.525;    0.000
728.202; 6320.775;  120.525;    0.000
728.399; 6328.775;   75.525;    0.000
728.595; 6336.775;  148.525;    0.000
728.792; 6335.775;   79.525;    0.000
728.989; 6299.775;   86.525;    0.000
729.186; 6396.775;   80.525;    0.000
729.382; 6366.775;   72.525;    0.000
729.579; 6378.775;  112.525;    0.000
729.776; 6406.775;  106.525;    0.000
729.972; 6368.775;   77.525;    0.000
730.169; 6432.775;  118.525;    0.000
730.366; 6277.775;   92.525;    0.000
730.562; 6451.775;  104.525;    0.000
730.759; 6453.775;   95.525;    0.000
730.955; 6374.775;   85.525;    0.000
731.152; 6448.775;   79.525;    0.000
731.348; 6413.775;   72.525;    0.000
731.545; 6458.775;   56.525;    0.000
731.741; 6491.775;  106.525;    0.000
731.938; 6429.775;  113.525;    0.000
732.134; 6398.775;  106.525;    0.000
732.331; 6513.775;   82.525;    0.000
732.527; 6527.775;   80.525;    0.000
732.724; 6538.775;   97.525;    0.000
732.920; 6557.775;  127.525;    0.000
733.116; 6499.775;  115.525;    0.000
733.313; 6683.775;  153.525;    0.000
733.509; 6416.775;   76.525;    0.000
733.705; 6577.775;  159.525;    0.000
733.902; 6505.775;   82.525;    0.000
734.098; 6582.775;   70.525;    0.000
734.294; 6550.775;  105.525;    0.000
734.490; 6614.775;  110.525;    0.000
734.687; 6663.775;  102.525;    0.000
734.883; 6591.775;   77.525;    0.000
735.079; 6513.775;   93.525;    0.000
735.275; 6643.775;  109.525;    0.000
735.471; 6523.775;   99.525;    0.000
735.667; 6576.775;  107.525;    0.000
735.863; 6616.775;   89.525;    0.000
736.060; 6739.775;  105.525;    0.000
736.256; 6744.775;  113.525;    0.000
736.452; 6712.775;   90.525;    0.000
736.648; 6590.775;   88.525;    0.000
736.844; 6894.775;  129.525;    0.000
737.040; 6720.775;  139.525;    0.000
737.236; 6772.775;  129.525;    0.000
737.432; 6772.775;   67.525;    0.000
737.628; 7061.775;  104.525;    0.000
737.824; 6761.775;  111.525;    0.000
738.019; 6850.775;  116.525;    0.000
738.215; 6954.775;  135.525;    0.000
738.411; 6758.775;  118.525;    0.000
738.607; 6743.775;   58.525;    0.000
738.803; 6927.775;   32.525;    0.000
738.999; 7045.775;  120.525;    0.000
739.195; 7001.775;   76.525;    0.000
739.390; 7123.775;  119.525;    0.000
739.586; 7072.775;   83.525;    0.000
739.782; 7024.775;  134.525;    0.000
739.978; 7241.775;  122.525;    0.000
740.173; 7135.775;   96.525;    0.000
740.369; 7044.775;   86.525;    0.000
740.565; 7096.775;  122.525;    0.000
740.760; 7260.775;   99.525;    0.000
740.956; 7165.775;  137.525;    0.000
741.152; 7222.775;  108.525;    0.000
741.347; 7268.775;   65.525;    0.000
741.543; 7318.775;   73.525;    0.000
741.738; 7422.775;  142.525;    0.000
741.934; 7741.775;  131.525;    0.000
742.129; 8073.775;   66.525;    0.000
742.325; 9202.775;  143.525;    0.000
742.520; 9863.775;  119.525;    0.000
742.716; 9351.775;  109.525;    0.000
742.911; 8753.775;   62.525;    0.000
743.107; 8785.775;  119.525;    0.000
743.302; 8639.775;   78.525;    0.000
743.498; 8650.775;  130.525;    0.000
743.693; 8888.775;   75.525;    0.000
743.888; 9201.775;  135.525;    0.000
744.084;10381.775;  106.525;    0.000
744.279;12794.775;  101.525;    0.000
744.474;12963.775;   91.525;    0.000
744.670;11316.775;  144.525;    0.000
744.865;10581.775;  128.525;    0.000
745.060;10039.775;   63.525;    0.000
745.255; 9697.775;  155.525;    0.000
745.451; 9402.775;  110.525;    0.000
745.646; 9324.775;  150.525;    0.000
745.841; 9271.775;  128.525;    0.000
746.036; 9404.775;  110.525;    0.000
746.231; 9553.775;  126.525;    0.000
746.426; 9911.775;   83.525;    0.000
746.622;11664.775;  157.525;    0.000
746.817;15210.775;  112.525;    0.000
747.012;16758.775;  115.525;    0.000
747.207;14763.775;  161.525;    0.000
747.402;13218.775;   88.525;    0.000
747.597;12196.775;  103.525;    0.000
747.792;11655.775;  152.525;    0.000
747.987;11093.775;   80.525;    0.000
748.182;11014.775;   89.525;    0.000
748.377;10299.775;  104.525;    0.000
748.572;10062.775;  138.525;    0.000
748.767; 9630.775;  100.525;    0.000
748.961; 9293.775;  106.525;    0.000
749.156; 9175.775;  113.525;    0.000
749.351; 8960.775;  116.525;    0.000
749.546; 8881.775;  107.525;    0.000
749.741; 8711.775;  102.525;    0.000
749.936; 8519.775;  105.525;    0.000
750.130; 8410.775;  111.525;    0.000
750.325; 8510.775;   72.525;    0.000
750.520; 8417.775;   96.525;    0.000
750.715; 8304.775;  135.525;    0.000
750.909; 8220.775;  107.525;    0.000
751.104; 8199.775;  106.525;    0.000
751.299; 8197.775;  144.525;    0.000
751.493; 8319.775;  116.525;    0.000
751.688; 8144.775;   96.525;    0.000
751.882; 7886.775;   92.525;    0.000
752.077; 8112.775;  109.525;    0.000
752.272; 7855.775;   96.525;    0.000
752.466; 7926.775;  110.525;    0.000
752.661; 7904.775;  120.525;    0.000
752.855; 7759.775;   70.525;    0.000
753.050; 7828.775;  129.525;    0.000
753.244; 7838.775;  126.525;    0.000
753.439; 7669.775;  115.525;    0.000
753.633; 7590.775;  120.525;    0.000
753.828; 7672.775;  129.525;    0.000
754.022; 7660.775;  139.525;    0.000
754.216; 7575.775;  121.525;    0.000
754.411; 7707.775;  108.525;    0.000
754.605; 7561.775;   94.525;    0.000
754.799; 7494.775;  125.525;    0.000
754.994; 7554.775;  160.525;    0.000
755.188; 7558.775;  151.525;    0.000
755.382; 7490.775;  102.525;    0.000
755.576; 7465.775;  103.525;    0.000
755.771; 7463.775;   99.525;    0.000
755.965; 7419.775;  158.525;    0.000
756.159; 7375.775;   96.525;    0.000
756.353; 7391.775;  157.525;    0.000
756.547; 7407.775;  132.525;    0.000
756.742; 7464.775;  106.525;    0.000
756.936; 7440.775;  113.525;    0.000
757.130; 7308.775;  114.525;    0.000
757.324; 7498.775;  111.525;    0.000
757.518; 7538.775;  142.525;    0.000
757.712; 7410.775;  137.525;    0.000
757.906; 7522.775;   93.525;    0.000
758.100; 7510.775;  119.525;    0.000
758.294; 7461.775;  132.525;    0.000
758.488; 7441.775;  153.525;    0.000
758.682; 7411.775;  101.525;    0.000
758.876; 7413.775;  129.525;    0.000
759.070; 7517.775;  168.525;    0.000
759.264; 7245.775;   96.525;    0.000
759.458; 7231.775;  117.525;    0.000
759.651; 7344.775;  135.525;    0.000
759.845; 7283.775;  127.525;    0.000
760.039; 7361.775;  120.525;    0.000
760.233; 7457.775;  124.525;    0.000
760.427; 7338.775;  115.525;    0.000
760.620; 7340.775;  130.525;    0.000
760.814; 7236.775;  102.525;    0.000
761.008; 7391.775;  174.525;    0.000
761.202; 7363.775;  132.525;    0.000
761.395; 7371.775;  126.525;    0.000
761.589; 7422.775;  133.525;    0.000
761.783; 7562.775;  147.525;    0.000
761.976; 7302.775;  147.525;    0.000
762.170; 7344.775;  174.525;    0.000
762.363; 7348.775;   97.525;    0.000
762.557; 7359.775;  141.525;    0.000
762.750; 7431.775;  112.525;    0.000
762.944; 7317.775;  110.525;    0.000
763.138; 7388.775;  125.525;    0.000
763.331; 7552.775;  101.525;    0.000
763.524; 7502.775;  101.525;    0.000
763.718; 7670.775;  156.525;    0.000
763.911; 7653.775;  143.525;    0.000
764.105; 7470.775;  139.525;    0.000
764.298; 7430.775;   89.525;    0.000
764.492; 7517.775;  111.525;    0.000
764.685; 7449.775;  136.525;    0.000
764.878; 7445.775;  146.525;    0.000
765.072; 7525.775;  110.525;    0.000
765.265; 7577.775;  141.525;    0.000
765.458; 7595.775;   82.525;    0.000
765.651; 7543.775;  144.525;    0.000
765.845; 7625.775;   79.525;    0.000
766.038; 7697.775;  123.525;    0.000
766.231; 8797.775;  125.525;    0.000
766.424;13474.775;  131.525;    0.000
766.617;14178.775;   62.525;    0.000
766.811; 8429.775;  142.525;    0.000
767.004; 7719.775;  134.525;    0.000
767.197; 7829.775;  147.525;    0.000
767.390; 7727.775;  100.525;    0.000
767.583; 7695.775;  121.525;    0.000
767.776; 7643.775;   91.525;    0.000
767.969; 7758.775;  113.525;    0.000
768.162; 7845.775;  170.525;    0.000
768.355; 7748.775;  134.525;    0.000
768.548; 7844.775;  177.525;    0.000
768.741; 7868.775;   96.525;    0.000
768.934; 7819.775;  143.525;    0.000
769.127; 7839.775;  147.525;    0.000
769.320; 7900.775;   93.525;    0.000
769.513; 8064.775;  137.525;    0.000
769.706; 9254.775;   96.525;    0.000
769.898;13546.775;  118.525;    0.000
770.091;10480.775;  138.525;    0.000
770.284; 8462.775;  133.525;    0.000
770.477; 8166.775;  137.525;    0.000
770.670; 8203.775;  124.525;    0.000
770.862; 8279.775;  125.525;    0.000
771.055; 8096.775;  135.525;    0.000
771.248; 8381.775;  109.525;    0.000
771.441; 8247.775;  141.525;    0.000
771.633; 8362.775;  142.525;    0.000
771.826; 8408.775;  123.525;    0.000
772.018; 8414.775;  136.525;    0.000
772.211; 8545.775;  145.525;    0.000
772.404; 8654.775;  127.525;    0.000
772.596; 8835.775;  193.525;    0.000
772.789; 8898.775;   64.525;    0.000
772.981; 8953.775;  142.525;    0.000
773.174; 8963.775;  105.525;    0.000
773.366; 9143.775;  166.525;    0.000
773.559; 9208.775;  125.525;    0.000
773.751; 9159.775;  126.525;    0.000
773.944; 9593.775;  147.525;    0.000
774.136; 9698.775;  155.525;    0.000
774.329; 9920.775;  127.525;    0.000
774.521;10120.775;  133.525;    0.000
774.713;10392.775;  139.525;    0.000
774.906;10627.775;  170.525;    0.000
775.098;11009.775;  144.525;    0.000
775.290;11438.775;  162.525;    0.000
775.483;12002.775;  137.525;    0.000
775.675;12616.775;  148.525;    0.000
775.867;13610.775;   81.525;    0.000
776.059;14717.775;  134.525;    0.000
776.251;16161.775;  137.525;    0.000
776.444;18199.775;  155.525;    0.000
776.636;21390.775;  148.525;    0.000
776.828;26637.775;  129.525;    0.000
777.020;37667.773;  133.525;    0.000
777.212;55399.773;  137.525;    0.000
777.404;61340.773;  124.525;    0.000
777.596;56593.773;  142.525;    0.000
777.788;41849.773;  155.525;    0.000
777.980;31844.775;  119.525;    0.000
778.172;26086.775;  129.525;    0.000
778.364;22370.775;  122.525;    0.000
778.556;19931.775;  129.525;    0.000
778.748;17821.775;  178.525;    0.000
778.940;16254.775;  128.525;    0.000
779.132;15127.775;  145.525;    0.000
779.324;13893.775;   89.525;    0.000
779.516;13190.775;  161.525;    0.000
779.708;12529.775;  183.525;    0.000
779.900;11885.775;  124.525;    0.000
780.091;11556.775;  143.525;    0.000
780.283;10895.775;  135.525;    0.000
780.475;10713.775;  129.525;    0.000
780.667;10433.775;  178.525;    0.000
780.859;10091.775;  146.525;    0.000
781.050; 9892.775;  156.525;    0.000
781.242; 9572.775;  138.525;    0.000
781.434; 9389.775;  117.525;    0.000
781.625; 9329.775;  161.525;    0.000
781.817; 8950.775;  127.525;    0.000
782.008; 8926.775;  138.525;    0.000
782.200; 8768.775;  139.525;    0.000
782.392; 8623.775;  179.525;    0.000
782.583; 8635.775;  137.525;    0.000
782.775; 8455.775;  162.525;    0.000
782.966; 8299.775;  159.525;    0.000
783.158; 8216.775;  118.525;    0.000
783.349; 8236.775;  160.525;    0.000
783.541; 8148.775;  139.525;    0.000
783.732; 8140.775;  145.525;    0.000
783.924; 8094.775;  146.525;    0.000
784.115; 7948.775;  125.525;    0.000
784.306; 8050.775;  118.525;    0.000
784.498; 7838.775;  144.525;    0.000
784.689; 7856.775;  145.525;    0.000
784.880; 7697.775;  137.525;    0.000
785.072; 7652.775;  157.525;    0.000
785.263; 7909.775;  149.525;    0.000
785.454; 7713.775;  128.525;    0.000
785.645; 7502.775;  131.525;    0.000
785.837; 7721.775;  137.525;    0.000
786.028; 7570.775;  161.525;    0.000
786.219; 7587.775;  155.525;    0.000
786.410; 7473.775;  146.525;    0.000
786.601; 7341.775;  120.525;    0.000
786.792; 7549.775;  179.525;    0.000
786.984; 7403.775;  113.525;    0.000
787.175; 7344.775;  156.525;    0.000
787.366; 7479.775;  131.525;    0.000
787.557; 7503.775;  138.525;    0.000
787.748; 7403.775;  112.525;    0.000
787.939; 7552.775;  115.525;    0.000
788.130; 7530.775;  150.525;    0.000
788.321; 7404.775;  122.525;    0.000
788.512; 7654.775;  147.525;    0.000
788.703; 7580.775;  126.525;    0.000
788.894; 7552.775;   80.525;    0.000
789.084; 7359.775;  127.525;    0.000
789.275; 7438.775;  141.525;    0.000
789.466; 7497.775;  108.525;    0.000
789.657; 7676.775;  137.525;    0.000
789.848; 7598.775;  126.525;    0.000
790.039; 7644.775;  144.525;    0.000
790.229; 7559.775;  105.525;    0.000
790.420; 7621.775;   96.525;    0.000
790.611; 7292.775;  171.525;    0.000
790.801; 7483.775;   89.525;    0.000
790.992; 7606.775;  140.525;    0.000
791.183; 7642.775;  143.525;    0.000
791.373; 7465.775;  128.525;    0.000
791.564; 7466.775;   96.525;    0.000
791.755; 7560.775;  111.525;    0.000
791.945; 7639.775;  112.525;    0.000
792.136; 7475.775;  124.525;    0.000
792.326; 7669.775;   88.525;    0.000
792.517; 7667.775;  130.525;    0.000
792.707; 7586.775;  144.525;    0.000
792.898; 7746.775;  120.525;    0.000
793.088; 7740.775;  106.525;    0.000
793.279; 7849.775;  104.525;    0.000
793.469; 7934.775;  103.525;    0.000
793.660; 8105.775;  120.525;    0.000
793.850; 8187.775;  106.525;    0.000
794.040; 8492.775;  135.525;    0.000
794.231; 8749.775;   80.525;    0.000
794.421; 9391.775;  120.525;    0.000
794.611;10575.775;  154.525;    0.000
794.802;12236.775;  103.525;    0.000
794.992;13004.775;  120.525;    0.000
795.182;13287.775;  156.525;    0.000
795.372;12534.775;  104.525;    0.000
795.563;11286.775;  153.525;    0.000
795.753;10440.775;  112.525;    0.000
795.943; 9722.775;  128.525;    0.000
796.133; 9430.775;  128.525;    0.000
796.323; 8901.775;  152.525;    0.000
796.513; 8377.775;  123.525;    0.000
796.703; 8312.775;  134.525;    0.000
796.893; 8177.775;  120.525;    0.000
797.083; 8119.775;  136.525;    0.000
797.273; 7843.775;  128.525;    0.000
797.463; 7695.775;  140.525;    0.000
797.653; 7612.775;   75.525;    0.000
797.843; 7529.775;  114.525;    0.000
798.033; 7386.775;   90.525;    0.000
798.223; 7298.775;  136.525;    0.000
798.413; 7320.775;  164.525;    0.000
798.603; 7396.775;  150.525;    0.000
798.793; 7227.775;  137.525;    0.000
798.983; 7105.775;  119.525;    0.000
799.172; 7067.775;  136.525;    0.000
799.362; 7032.775;  138.525;    0.000
799.552; 7062.775;  123.525;    0.000
799.742; 6966.775;  117.525;    0.000
799.932; 6947.775;  108.525;    0.000
800.121; 6844.775;  152.525;    0.000
800.311; 6800.775;  117.525;    0.000
800.501; 6969.775;  100.525;    0.000
800.690; 6855.775;  139.525;    0.000
800.880; 6894.775;  138.525;    0.000
801.070; 6756.775;  120.525;    0.000
801.259; 6702.775;  143.525;    0.000
801.449; 6663.775;  110.525;    0.000
801.638; 6802.775;  140.525;    0.000
801.828; 6599.775;  103.525;    0.000
802.017; 6674.775;   78.525;    0.000
802.207; 6693.775;  126.525;    0.000
802.396; 6650.775;  151.525;    0.000
802.586; 6729.775;  106.525;    0.000
802.775; 6730.775;  152.525;    0.000
802.965; 6797.775;  117.525;    0.000
803.154; 6601.775;  171.525;    0.000
803.343; 6723.775;  126.525;    0.000
803.533; 6647.775;  135.525;    0.000
803.722; 6547.775;  144.525;    0.000
803.911; 6613.775;  109.525;    0.000
804.101; 6711.775;  146.525;    0.000
804.290; 6558.775;  115.525;    0.000
804.479; 6554.775;  128.525;    0.000
804.668; 6674.775;  156.525;    0.000
804.857; 6543.775;  151.525;    0.000
805.047; 6582.775;  131.525;    0.000
805.236; 6681.775;  144.525;    0.000
805.425; 6877.775;  160.525;    0.000
805.614; 6533.775;  112.525;    0.000
805.803; 6762.775;  120.525;    0.000
805.992; 6481.775;  148.525;    0.000
806.181; 6681.775;  108.525;    0.000
806.370; 6655.775;  142.525;    0.000
806.559; 6669.775;  116.525;    0.000
806.748; 6759.775;  108.525;    0.000
806.937; 6739.775;  110.525;    0.000
807.126; 6647.775;  126.525;    0.000
807.315; 6880.775;  121.525;    0.000
807.504; 6717.775;  102.525;    0.000
807.693; 6758.775;  134.525;    0.000
807.882; 6742.775;  135.525;    0.000
808.071; 6950.775;  135.525;    0.000
808.260; 6860.775;   93.525;    0.000
808.448; 6805.775;  151.525;    0.000
808.637; 6895.775;  105.525;    0.000
808.826; 6873.775;  178.525;    0.000
809.015; 6845.775;  152.525;    0.000
809.203; 6928.775;  147.525;    0.000
809.392; 6919.775;  144.525;    0.000
809.581; 7166.775;  167.525;    0.000
809.770; 7079.775;  151.525;    0.000
809.958; 7159.775;  128.525;    0.000
810.147; 7172.775;  152.525;    0.000
810.335; 7364.775;  160.525;    0.000
810.524; 7385.775;  130.525;    0.000
810.713; 7360.775;  128.525;    0.000
810.901; 7286.775;  140.525;    0.000
811.090; 7416.775;  152.525;    0.000
811.278; 7402.775;  126.525;    0.000
811.467; 7763.775;  161.525;    0.000
811.655; 8062.775;  184.525;    0.000
811.844; 7769.775;  148.525;    0.000
812.032; 7938.775;  138.525;    0.000
812.220; 7995.775;  157.525;    0.000
812.409; 7982.775;  143.525;    0.000
812.597; 8079.775;  124.525;    0.000
812.785; 8105.775;  170.525;    0.000
812.974; 8309.775;  135.525;    0.000
813.162; 8288.775;  135.525;    0.000
813.350; 8307.775;  182.525;    0.000
813.539; 8422.775;  126.525;    0.000
813.727; 8463.775;  127.525;    0.000
813.915; 8343.775;  140.525;    0.000
814.103; 8636.775;  176.525;    0.000
814.291; 8750.775;  115.525;    0.000
814.479; 8867.775;  119.525;    0.000
814.668; 9146.775;  134.525;    0.000
814.856; 9136.775;  120.525;    0.000
815.044; 9562.775;  164.525;    0.000
815.232; 9597.775;  146.525;    0.000
815.420; 9826.775;  154.525;    0.000
815.608;10045.775;  137.525;    0.000
815.796;10282.775;  108.525;    0.000
815.984;10483.775;  134.525;    0.000
816.172;11077.775;  123.525;    0.000
816.360;11437.775;  181.525;    0.000
816.548;11919.775;  139.525;    0.000
816.736;12749.775;  138.525;    0.000
816.924;13434.775;  151.525;    0.000
817.111;14059.775;  156.525;    0.000
817.299;15399.775;  147.525;    0.000
817.487;16758.775;  188.525;    0.000
817.675;19139.775;  129.525;    0.000
817.863;23007.775;  128.525;    0.000
818.050;31644.775;  110.525;    0.000
818.238;53486.773;  166.525;    0.000
818.426;65208.773;  136.525;    0.000
818.613;54292.773;  143.525;    0.000
818.801;44562.773;  150.525;    0.000
818.989;42106.773;  179.525;    0.000
819.176;46237.773;  123.525;    0.000
819.364;63087.773;  148.525;    0.000
819.552;65208.773;   86.525;    0.000
819.739;64343.773;  169.525;    0.000
819.927;49539.773;  130.525;    0.000
820.114;41225.773;  144.525;    0.000
820.302;35680.773;  166.525;    0.000
820.489;31563.775;  145.525;    0.000
820.677;28476.775;  101.525;    0.000
820.864;26956.775;  149.525;    0.000
821.052;26423.775;  130.525;    0.000
821.239;25652.775;  147.525;    0.000
821.426;25834.775;  121.525;    0.000
821.614;28896.775;  187.525;    0.000
821.801;29736.775;  105.525;    0.000
821.988;26296.775;  167.525;    0.000
822.176;24802.775;  130.525;    0.000
822.363;24853.775;  143.525;    0.000
822.550;23094.775;  108.525;    0.000
822.737;20812.775;  109.525;    0.000
822.924;19668.775;  156.525;    0.000
823.112;18563.775;  123.525;    0.000
823.299;17253.775;  128.525;    0.000
823.486;16505.775;  138.525;    0.000
823.673;15916.775;  125.525;    0.000
823.860;15430.775;  138.525;    0.000
824.047;15352.775;  122.525;    0.000
824.234;16587.775;  134.525;    0.000
824.421;16723.775;   95.525;    0.000
824.608;15032.775;  151.525;    0.000
824.795;13745.775;  117.525;    0.000
824.982;12944.775;  143.525;    0.000
825.169;12232.775;   83.525;    0.000
825.356;11872.775;  126.525;    0.000
825.543;11306.775;   92.525;    0.000
825.730;10711.775;  113.525;    0.000
825.917;10276.775;  142.525;    0.000
826.104;10158.775;  182.525;    0.000
826.290; 9866.775;  137.525;    0.000
826.477; 9533.775;  126.525;    0.000
826.664; 9302.775;  135.525;    0.000
826.851; 9322.775;  139.525;    0.000
827.038; 8745.775;  135.525;    0.000
827.224; 8749.775;  143.525;    0.000
827.411; 8561.775;  153.525;    0.000
827.598; 8381.775;  122.525;    0.000
827.784; 8363.775;  138.525;    0.000
827.971; 8151.775;  134.525;    0.000
828.157; 7857.775;  152.525;    0.000
828.344; 7611.775;  135.525;    0.000
828.531; 7677.775;  137.525;    0.000
828.717; 7448.775;  117.525;    0.000
828.904; 7346.775;  127.525;    0.000
829.090; 7427.775;  172.525;    0.000
829.277; 7228.775;  144.525;    0.000
829.463; 7229.775;  159.525;    0.000
829.650; 7070.775;  187.525;    0.000
829.836; 6903.775;  138.525;    0.000
830.022; 6872.775;  196.525;    0.000
830.209; 6900.775;  118.525;    0.000
830.395; 6689.775;  148.525;    0.000
830.581; 6533.775;  108.525;    0.000
830.768; 6548.775;  137.525;    0.000
830.954; 6372.775;  162.525;    0.000
831.140; 6408.775;  117.525;    0.000
831.327; 6347.775;  176.525;    0.000
831.513; 6399.775;  162.525;    0.000
831.699; 6224.775;  157.525;    0.000
831.885; 6282.775;  153.525;    0.000
832.071; 6190.775;  123.525;    0.000
832.257; 6176.775;  142.525;    0.000
832.444; 5980.775;  165.525;    0.000
832.630; 6082.775;  159.525;    0.000
832.816; 5913.775;  145.525;    0.000
833.002; 5761.775;  120.525;    0.000
833.188; 5666.775;  145.525;    0.000
833.374; 5676.775;  137.525;    0.000
833.560; 5739.775;  152.525;    0.000
833.746; 5565.775;  139.525;    0.000
833.932; 5591.775;  170.525;    0.000
834.118; 5485.775;  111.525;    0.000
834.303; 5498.775;  141.525;    0.000
834.489; 5498.775;  146.525;    0.000
834.675; 5517.775;  156.525;    0.000
834.861; 5448.775;   87.525;    0.000
835.047; 5313.775;  134.525;    0.000
835.233; 5393.775;   89.525;    0.000
835.418; 5359.775;  145.525;    0.000
835.604; 5423.775;  136.525;    0.000
835.790; 5316.775;  132.525;    0.000
835.976; 5281.775;  161.525;    0.000
836.161; 5313.775;  157.525;    0.000
836.347; 5220.775;  147.525;    0.000
836.533; 5226.775;  116.525;    0.000
836.718; 5320.775;  168.525;    0.000
836.904; 5217.775;  199.525;    0.000
837.089; 5189.775;  165.525;    0.000
837.275; 5040.775;  166.525;    0.000
837.460; 5121.775;  144.525;    0.000
837.646; 5218.775;  164.525;    0.000
837.831; 5119.775;  122.525;    0.000
838.017; 5119.775;  163.525;    0.000
838.202; 4982.775;  139.525;    0.000
838.388; 5155.775;  174.525;    0.000
838.573; 4921.775;  140.525;    0.000
838.759; 5068.775;  167.525;    0.000
838.944; 5070.775;  142.525;    0.000
839.129; 4995.775;  164.525;    0.000
839.315; 4848.775;  129.525;    0.000
839.500; 5143.775;  150.525;    0.000
839.685; 4970.775;  118.525;    0.000
839.870; 5093.775;  177.525;    0.000
840.056; 5018.775;  144.525;    0.000
840.241; 5026.775;  121.525;    0.000
840.426; 5120.775;  131.525;    0.000
840.611; 5059.775;  177.525;    0.000
840.796; 5141.775;  173.525;    0.000
840.981; 5045.775;  156.525;    0.000
841.166; 5155.775;  145.525;    0.000
841.352; 5096.775;  150.525;    0.000
841.537; 5204.775;  143.525;    0.000
841.722; 5151.775;  165.525;    0.000
841.907; 5355.775;  184.525;    0.000
842.092; 5302.775;  171.525;    0.000
842.277; 5320.775;  155.525;    0.000
842.461; 5492.775;  152.525;    0.000
842.646; 5598.775;  107.525;    0.000
842.831; 5630.775;  160.525;    0.000
843.016; 5797.775;  160.525;    0.000
843.201; 6050.775;  164.525;    0.000
843.386; 6140.775;  134.525;    0.000
843.571; 6389.775;  132.525;    0.000
843.755; 6969.775;  158.525;    0.000
843.940; 7345.775;  152.525;    0.000
844.125; 8269.775;  154.525;    0.000
844.310; 9800.775;  147.525;    0.000
844.494;12745.775;  158.525;    0.000
844.679;17905.775;  173.525;    0.000
844.864;17471.775;  152.525;    0.000
845.048;14057.775;  139.525;    0.000
845.233;11488.775;  200.525;    0.000
845.418;10037.775;  139.525;    0.000
845.602; 8913.775;  147.525;    0.000
845.787; 8136.775;  148.525;    0.000
845.971; 7467.775;  170.525;    0.000
846.156; 6958.775;  136.525;    0.000
846.340; 6735.775;  146.525;    0.000
846.525; 6379.775;  188.525;    0.000
846.709; 6088.775;  128.525;    0.000
846.893; 5890.775;  151.525;    0.000
847.078; 5665.775;  164.525;    0.000
847.262; 5584.775;  155.525;    0.000
847.447; 5374.775;  114.525;    0.000
847.631; 5304.775;  148.525;    0.000
847.815; 5035.775;  114.525;    0.000
848.000; 5081.775;  134.525;    0.000
848.184; 5020.775;  154.525;    0.000
848.368; 4881.775;  145.525;    0.000
848.552; 4932.775;  122.525;    0.000
848.736; 4736.775;  139.525;    0.000
848.921; 4723.775;  143.525;    0.000
849.105; 4680.775;  145.525;    0.000
849.289; 4521.775;  173.525;    0.000
849.473; 4626.775;  147.525;    0.000
849.657; 4504.775;  144.525;    0.000
849.841; 4468.775;  168.525;    0.000
850.025; 4414.775;  205.525;    0.000
850.209; 4299.775;  171.525;    0.000
850.393; 4303.775;  130.525;    0.000
850.577; 4220.775;  146.525;    0.000
850.761; 4390.775;  188.525;    0.000
850.945; 4169.775;  137.525;    0.000
851.129; 4306.775;  192.525;    0.000
851.313; 4276.775;  199.525;    0.000
851.497; 4140.775;  165.525;    0.000
851.680; 4257.775;  196.525;    0.000
851.864; 4227.775;  169.525;    0.000
852.048; 4151.775;  156.525;    0.000
852.232; 4104.775;  150.525;    0.000
852.416; 4198.775;  219.525;    0.000
852.599; 4193.775;  168.525;    0.000
852.783; 4060.775;  165.525;    0.000
852.967; 4122.775;  166.525;    0.000
853.150; 4124.775;  191.525;    0.000
853.334; 4057.775;  158.525;    0.000
853.518; 4217.775;  168.525;    0.000
853.701; 4040.775;  125.525;    0.000
853.885; 4029.775;  165.525;    0.000
854.068; 3968.775;  142.525;    0.000
854.252; 3983.775;  167.525;    0.000
854.435; 4107.775;  146.525;    0.000
854.619; 3962.775;  163.525;    0.000
854.802; 3957.775;  167.525;    0.000
854.986; 3942.775;  163.525;    0.000
855.169; 3986.775;  146.525;    0.000
855.353; 4022.775;  183.525;    0.000
855.536; 4013.775;  140.525;    0.000
855.719; 4059.775;  168.525;    0.000
855.903; 4059.775;  170.525;    0.000
856.086; 4071.775;  145.525;    0.000
856.269; 4117.775;  126.525;    0.000
856.452; 4177.775;  142.525;    0.000
856.636; 4310.775;  140.525;    0.000
856.819; 4656.775;  127.525;    0.000
857.002; 4756.775;  165.525;    0.000
857.185; 4665.775;  111.525;    0.000
857.368; 4481.775;  143.525;    0.000
857.552; 4419.775;  174.525;    0.000
857.735; 4316.775;  194.525;    0.000
857.918; 4360.775;  171.525;    0.000
858.101; 4249.775;  142.525;    0.000
858.284; 4395.775;  118.525;    0.000
858.467; 4406.775;  163.525;    0.000
858.650; 4526.775;  149.525;    0.000
858.833; 4590.775;  120.525;    0.000
859.016; 4625.775;  169.525;    0.000
859.199; 4896.775;  121.525;    0.000
859.382; 5271.775;  184.525;    0.000
859.564; 5791.775;  139.525;    0.000
859.747; 5609.775;  126.525;    0.000
859.930; 5137.775;  109.525;    0.000
860.113; 5118.775;  137.525;    0.000
860.296; 4902.775;  182.525;    0.000
860.478; 4734.775;  136.525;    0.000
860.661; 4725.775;  157.525;    0.000
860.844; 4709.775;  129.525;    0.000
861.027; 4713.775;  163.525;    0.000
861.209; 4655.775;  151.525;    0.000
861.392; 4665.775;  124.525;    0.000
861.575; 4639.775;  163.525;    0.000
861.757; 4681.775;  205.525;    0.000
861.940; 4649.775;  180.525;    0.000
862.122; 4774.775;  148.525;    0.000
862.305; 4907.775;  128.525;    0.000
862.487; 5130.775;  172.525;    0.000
862.670; 5543.775;  123.525;    0.000
862.852; 6749.775;  126.525;    0.000
863.035; 8207.775;  174.525;    0.000
863.217; 7854.775;  160.525;    0.000
863.400; 7029.775;  164.525;    0.000
863.582; 6630.775;  118.525;    0.000
863.764; 6205.775;  143.525;    0.000
863.947; 5770.775;  137.525;    0.000
864.129; 5645.775;  166.525;    0.000
864.311; 5503.775;  128.525;    0.000
864.493; 5499.775;  153.525;    0.000
864.676; 5387.775;  156.525;    0.000
864.858; 5367.775;  159.525;    0.000
865.040; 5251.775;  163.525;    0.000
865.222; 5310.775;  138.525;    0.000
865.404; 5544.775;  157.525;    0.000
865.587; 5718.775;  184.525;    0.000
865.769; 5974.775;  178.525;    0.000
865.951; 5792.775;  104.525;    0.000
866.133; 5785.775;  147.525;    0.000
866.315; 5814.775;  141.525;    0.000
866.497; 5919.775;  132.525;    0.000
866.679; 5901.775;  139.525;    0.000
866.861; 6242.775;  118.525;    0.000
867.043; 6461.775;  154.525;    0.000
867.225; 7057.775;  147.525;    0.000
867.407; 7628.775;  158.525;    0.000
867.589; 8561.775;  172.525;    0.000
867.770;10523.775;  159.525;    0.000
867.952;14831.775;  149.525;    0.000
868.134;19439.775;  156.525;    0.000
868.316;19194.775;  171.525;    0.000
868.498;18317.775;  200.525;    0.000
868.679;15742.775;  174.525;    0.000
868.861;13136.775;  175.525;    0.000
869.043;10964.775;  174.525;    0.000
869.224; 9541.775;  122.525;    0.000
869.406; 8699.775;  166.525;    0.000
869.588; 8129.775;  143.525;    0.000
869.769; 7596.775;  152.525;    0.000
869.951; 7552.775;  165.525;    0.000
870.132; 7771.775;  115.525;    0.000
870.314; 8420.775;  139.525;    0.000
870.495; 8807.775;  168.525;    0.000
870.677; 7776.775;  188.525;    0.000
870.858; 7692.775;  123.525;    0.000
871.040; 8010.775;  170.525;    0.000
871.221; 9168.775;  148.525;    0.000
871.403; 8618.775;  140.525;    0.000
871.584; 7812.775;  174.525;    0.000
871.765; 7822.775;  168.525;    0.000
871.947; 8447.775;  191.525;    0.000
872.128; 7654.775;  132.525;    0.000
872.309; 6661.775;  140.525;    0.000
872.491; 6074.775;  157.525;    0.000
872.672; 5733.775;  130.525;    0.000
872.853; 5558.775;  148.525;    0.000
873.034; 5409.775;  138.525;    0.000
873.215; 5159.775;  152.525;    0.000
873.396; 4799.775;  149.525;    0.000
873.578; 4753.775;  173.525;    0.000
873.759; 4485.775;  158.525;    0.000
873.940; 4427.775;  147.525;    0.000
874.121; 4262.775;  136.525;    0.000
874.302; 4244.775;  151.525;    0.000
874.483; 4151.775;  137.525;    0.000
874.664; 4175.775;  163.525;    0.000
874.845; 4152.775;  124.525;    0.000
875.026; 4021.775;  134.525;    0.000
875.207; 3908.775;  164.525;    0.000
875.388; 3898.775;  163.525;    0.000
875.568; 3874.775;  176.525;    0.000
875.749; 3750.775;  108.525;    0.000
875.930; 3689.775;  191.525;    0.000
876.111; 3806.775;  170.525;    0.000
876.292; 3599.775;  180.525;    0.000
876.472; 3697.775;  150.525;    0.000
876.653; 3583.775;  162.525;    0.000
876.834; 3547.775;  176.525;    0.000
877.015; 3439.775;  203.525;    0.000
877.195; 3502.775;  178.525;    0.000
877.376; 3449.775;  141.525;    0.000
877.556; 3488.775;  135.525;    0.000
877.737; 3394.775;  174.525;    0.000
877.918; 3340.775;  150.525;    0.000
878.098; 3323.775;  133.525;    0.000
878.279; 3325.775;  129.525;    0.000
878.459; 3364.775;  162.525;    0.000
878.640; 3337.775;  187.525;    0.000
878.820; 3288.775;  151.525;    0.000
879.000; 3274.775;  159.525;    0.000
879.181; 3279.775;  171.525;    0.000
879.361; 3190.775;  167.525;    0.000
879.542; 3307.775;  126.525;    0.000
879.722; 3194.775;  152.525;    0.000
879.902; 3251.775;  144.525;    0.000
880.083; 3396.775;  154.525;    0.000
880.263; 3373.775;  148.525;    0.000
880.443; 3504.775;  185.525;    0.000
880.623; 3901.775;  172.525;    0.000
880.803; 4368.775;  152.525;    0.000
880.984; 3846.775;  165.525;    0.000
881.164; 3661.775;  164.525;    0.000
881.344; 3602.775;  141.525;    0.000
881.524; 3483.775;  160.525;    0.000
881.704; 3576.775;  164.525;    0.000
881.884; 3649.775;  159.525;    0.000
882.064; 3943.775;  158.525;    0.000
882.244; 3995.775;  147.525;    0.000
882.424; 3736.775;  160.525;    0.000
882.604; 3610.775;  150.525;    0.000
882.784; 3473.775;  138.525;    0.000
882.964; 3254.775;  157.525;    0.000
883.144; 3210.775;  128.525;    0.000
883.324; 3306.775;  220.525;    0.000
883.504; 3329.775;  177.525;    0.000
883.683; 3145.775;  159.525;    0.000
883.863; 3109.775;  143.525;    0.000
884.043; 3091.775;  156.525;    0.000
884.223; 3119.775;  152.525;    0.000
884.402; 3159.775;  169.525;    0.000
884.582; 3005.775;  162.525;    0.000
884.762; 2969.775;  172.525;    0.000
884.941; 3034.775;  220.525;    0.000
885.121; 3032.775;  128.525;    0.000
885.301; 3070.775;  141.525;    0.000
885.480; 3045.775;  141.525;    0.000
885.660; 2937.775;  132.525;    0.000
885.839; 2975.775;  146.525;    0.000
886.019; 3036.775;  170.525;    0.000
886.198; 2875.775;  143.525;    0.000
886.378; 2849.775;  159.525;    0.000
886.557; 2881.775;  148.525;    0.000
886.737; 2818.775;  125.525;    0.000
886.916; 2878.775;  177.525;    0.000
887.095; 2932.775;  186.525;    0.000
887.275; 2855.775;  134.525;    0.000
887.454; 2979.775;  148.525;    0.000
887.633; 2891.775;  171.525;    0.000
887.813; 2871.775;  187.525;    0.000
887.992; 2898.775;  157.525;    0.000
888.171; 2842.775;  143.525;    0.000
888.350; 2874.775;  182.525;    0.000
888.530; 2834.775;  142.525;    0.000
888.709; 2842.775;  160.525;    0.000
888.888; 2933.775;  197.525;    0.000
889.067; 2857.775;  126.525;    0.000
889.246; 2947.775;  197.525;    0.000
889.425; 2751.775;  161.525;    0.000
889.604; 2865.775;  180.525;    0.000
889.783; 2781.775;  135.525;    0.000
889.962; 2681.775;  107.525;    0.000
890.141; 2862.775;  167.525;    0.000
890.320; 2718.775;  149.525;    0.000
890.499; 2765.775;  194.525;    0.000
890.678; 2733.775;  138.525;    0.000
890.857; 2679.775;  146.525;    0.000
891.036; 2829.775;  178.525;    0.000
891.214; 2769.775;  151.525;    0.000
891.393; 2729.775;  137.525;    0.000
891.572; 2795.775;  177.525;    0.000
891.751; 2820.775;  149.525;    0.000
891.930; 2741.775;  189.525;    0.000
892.108; 2781.775;  136.525;    0.000
892.287; 2801.775;  129.525;    0.000
892.466; 2804.775;  163.525;    0.000
892.644; 2720.775;  147.525;    0.000
892.823; 2703.775;  127.525;    0.000
893.001; 2707.775;  192.525;    0.000
893.180; 2753.775;  157.525;    0.000
893.359; 2730.775;  176.525;    0.000
893.537; 2796.775;  146.525;    0.000
893.716; 2786.775;  154.525;    0.000
893.894; 2774.775;  166.525;    0.000
894.073; 2799.775;  163.525;    0.000
894.251; 2691.775;  166.525;    0.000
894.429; 2660.775;  149.525;    0.000
894.608; 2711.775;  141.525;    0.000
894.786; 2721.775;  139.525;    0.000
894.964; 2708.775;  180.525;    0.000
895.143; 2704.775;  193.525;    0.000
895.321; 2794.775;  163.525;    0.000
895.499; 2806.775;  163.525;    0.000
895.677; 2821.775;  194.525;    0.000
895.856; 2720.775;  176.525;    0.000
896.034; 2746.775;  173.525;    0.000
896.212; 2701.775;  180.525;    0.000
896.390; 2749.775;  146.525;    0.000
896.568; 2741.775;  167.525;    0.000
896.746; 2790.775;  158.525;    0.000
896.924; 2747.775;  163.525;    0.000
897.102; 2749.775;  170.525;    0.000
897.280; 2761.775;  159.525;    0.000
897.458; 2787.775;  182.525;    0.000
897.636; 2727.775;  151.525;    0.000
897.814; 2776.775;  130.525;    0.000
897.992; 2843.775;  213.525;    0.000
898.170; 2809.775;  164.525;    0.000
898.348; 2830.775;  159.525;    0.000
898.526; 2800.775;  182.525;    0.000
898.704; 2722.775;  209.525;    0.000
898.882; 2784.775;  145.525;    0.000
899.059; 2839.775;  172.525;    0.000
899.237; 2787.775;  172.525;    0.000
899.415; 2902.775;  211.525;    0.000
899.593; 2809.775;  151.525;    0.000
899.770; 2894.775;  147.525;    0.000
899.948; 2852.775;  218.525;    0.000
900.125; 2864.775;  166.525;    0.000
900.303; 2853.775;  146.525;    0.000
900.481; 2835.775;  174.525;    0.000
900.658; 2943.775;  198.525;    0.000
900.836; 2914.775;  125.525;    0.000
901.013; 2988.775;  197.525;    0.000
901.191; 2955.775;  181.525;    0.000
901.368; 3000.775;  185.525;    0.000
901.546; 3102.775;  197.525;    0.000
901.723; 3057.775;  205.525;    0.000
901.901; 3184.775;  187.525;    0.000
902.078; 3178.775;  163.525;    0.000
902.255; 3274.775;  141.525;    0.000
902.433; 3339.775;  183.525;    0.000
902.610; 3227.775;  181.525;    0.000
902.787; 3294.775;  174.525;    0.000
902.964; 3399.775;  174.525;    0.000
903.142; 3425.775;  141.525;    0.000
903.319; 3522.775;  214.525;    0.000
903.496; 3514.775;  187.525;    0.000
903.673; 3661.775;  183.525;    0.000
903.850; 3646.775;  125.525;    0.000
904.027; 3809.775;  197.525;    0.000
904.204; 4019.775;  197.525;    0.000
904.381; 4383.775;  196.525;    0.000
904.558; 5087.775;  176.525;    0.000
904.735; 5807.775;  179.525;    0.000
904.912; 5679.775;  203.525;    0.000
905.089; 5752.775;  159.525;    0.000
905.266; 5322.775;  176.525;    0.000
905.443; 4770.775;  184.525;    0.000
905.620; 4538.775;  168.525;    0.000
905.797; 4260.775;  214.525;    0.000
905.974; 4140.775;  154.525;    0.000
906.151; 4175.775;  132.525;    0.000
906.327; 4139.775;  192.525;    0.000
906.504; 4037.775;  186.525;    0.000
906.681; 3936.775;  171.525;    0.000
906.858; 3812.775;  181.525;    0.000
907.034; 3686.775;  164.525;    0.000
907.211; 3552.775;  184.525;    0.000
907.388; 3493.775;  177.525;    0.000
907.564; 3416.775;  150.525;    0.000
907.741; 3468.775;  195.525;    0.000
907.917; 3291.775;  190.525;    0.000
908.094; 3330.775;  214.525;    0.000
908.271; 3185.775;  173.525;    0.000
908.447; 3222.775;  229.525;    0.000
908.623; 3156.775;  162.525;    0.000
908.800; 3112.775;  195.525;    0.000
908.976; 3083.775;  171.525;    0.000
909.153; 3177.775;  167.525;    0.000
909.329; 3053.775;  227.525;    0.000
909.505; 3054.775;  167.525;    0.000
909.682; 3030.775;  174.525;    0.000
909.858; 3022.775;  158.525;    0.000
910.034; 2997.775;  188.525;    0.000
910.211; 2847.775;  158.525;    0.000
910.387; 3053.775;  208.525;    0.000
910.563; 2927.775;  203.525;    0.000
910.739; 2959.775;  201.525;    0.000
910.915; 2919.775;  170.525;    0.000
911.091; 2920.775;  171.525;    0.000
911.268; 2921.775;  220.525;    0.000
911.444; 2886.775;  202.525;    0.000
911.620; 2880.775;  175.525;    0.000
911.796; 2822.775;  175.525;    0.000
911.972; 2918.775;  164.525;    0.000
912.148; 2905.775;  174.525;    0.000
912.324; 2925.775;  155.525;    0.000
912.500; 2902.775;  156.525;    0.000
912.676; 2837.775;  138.525;    0.000
912.851; 2973.775;  158.525;    0.000
913.027; 2821.775;  161.525;    0.000
913.203; 2889.775;  168.525;    0.000
913.379; 2833.775;  172.525;    0.000
913.555; 2927.775;  193.525;    0.000
913.730; 2859.775;  149.525;    0.000
913.906; 2939.775;  159.525;    0.000
914.082; 2821.775;  184.525;    0.000
914.258; 2843.775;  194.525;    0.000
914.433; 2854.775;  175.525;    0.000
914.609; 2852.775;  175.525;    0.000
914.784; 2866.775;  170.525;    0.000
914.960; 2835.775;  212.525;    0.000
915.136; 2722.775;  157.525;    0.000
915.311; 2909.775;  204.525;    0.000
915.487; 2908.775;  180.525;    0.000
915.662; 2915.775;  203.525;    0.000
915.838; 2884.775;  194.525;    0.000
916.013; 2913.775;  217.525;    0.000
916.189; 2947.775;  196.525;    0.000
916.364; 2816.775;  236.525;    0.000
916.539; 2824.775;  192.525;    0.000
916.715; 2868.775;  181.525;    0.000
916.890; 2859.775;  185.525;    0.000
917.065; 2976.775;  166.525;    0.000
917.240; 2824.775;  182.525;    0.000
917.416; 2942.775;  188.525;    0.000
917.591; 2886.775;  185.525;    0.000
917.766; 2838.775;  187.525;    0.000
917.941; 2710.775;  181.525;    0.000
918.116; 2816.775;  207.525;    0.000
918.292; 2809.775;  140.525;    0.000
918.467; 2873.775;  187.525;    0.000
918.642; 2829.775;  208.525;    0.000
918.817; 2833.775;  203.525;    0.000
918.992; 2862.775;  162.525;    0.000
919.167; 3055.775;  206.525;    0.000
919.342; 3011.775;  188.525;    0.000
919.517; 2913.775;  190.525;    0.000
919.692; 2953.775;  174.525;    0.000
919.867; 3029.775;  181.525;    0.000
920.041; 3044.775;  179.525;    0.000
920.216; 3084.775;  186.525;    0.000
920.391; 3105.775;  209.525;    0.000
920.566; 3183.775;  205.525;    0.000
920.741; 3231.775;  205.525;    0.000
920.915; 3364.775;  206.525;    0.000
921.090; 3724.775;  219.525;    0.000
921.265; 4661.775;  185.525;    0.000
921.439; 5238.775;  171.525;    0.000
921.614; 4546.775;  197.525;    0.000
921.789; 4052.775;  189.525;    0.000
921.963; 3858.775;  210.525;    0.000
922.138; 3615.775;  171.525;    0.000
922.312; 3571.775;  194.525;    0.000
922.487; 3625.775;  231.525;    0.000
922.661; 3824.775;  179.525;    0.000
922.836; 4507.775;  213.525;    0.000
923.010; 4554.775;  182.525;    0.000
923.185; 4202.775;  239.525;    0.000
923.359; 3831.775;  200.525;    0.000
923.534; 3846.775;  232.525;    0.000
923.708; 4002.775;  221.525;    0.000
923.882; 4329.775;  193.525;    0.000
924.057; 4109.775;  204.525;    0.000
924.231; 3904.775;  172.525;    0.000
924.405; 3715.775;  202.525;    0.000
924.579; 3551.775;  207.525;    0.000
924.753; 3549.775;  167.525;    0.000
924.928; 3435.775;  202.525;    0.000
925.102; 3494.775;  200.525;    0.000
925.276; 3494.775;  185.525;    0.000
925.450; 3542.775;  170.525;    0.000
925.624; 3685.775;  176.525;    0.000
925.798; 3688.775;  221.525;    0.000
925.972; 3973.775;  162.525;    0.000
926.146; 4227.775;  207.525;    0.000
926.320; 4651.775;  185.525;    0.000
926.494; 4971.775;  192.525;    0.000
926.668; 5312.775;  179.525;    0.000
926.842; 5539.775;  181.525;    0.000
927.016; 5498.775;  224.525;    0.000
927.190; 5360.775;  193.525;    0.000
927.363; 5120.775;  194.525;    0.000
927.537; 4992.775;  210.525;    0.000
927.711; 4734.775;  153.525;    0.000
927.885; 4551.775;  184.525;    0.000
928.058; 4494.775;  197.525;    0.000
928.232; 4406.775;  219.525;    0.000
928.406; 4266.775;  175.525;    0.000
928.579; 4073.775;  179.525;    0.000
928.753; 4060.775;  208.525;    0.000
928.927; 3969.775;  163.525;    0.000
929.100; 3851.775;  138.525;    0.000
929.274; 3773.775;  160.525;    0.000
929.447; 3743.775;  152.525;    0.000
929.621; 3626.775;  168.525;    0.000
929.794; 3619.775;  152.525;    0.000
929.968; 3534.775;  163.525;    0.000
930.141; 3603.775;  164.525;    0.000
930.315; 3522.775;  170.525;    0.000
930.488; 3475.775;  216.525;    0.000
930.661; 3368.775;  184.525;    0.000
930.835; 3281.775;  156.525;    0.000
931.008; 3312.775;  206.525;    0.000
931.181; 3279.775;  163.525;    0.000
931.354; 3178.775;  198.525;    0.000
931.528; 3166.775;  156.525;    0.000
931.701; 3183.775;  170.525;    0.000
931.874; 2946.775;  167.525;    0.000
932.047; 2984.775;  146.525;    0.000
932.220; 3093.775;  159.525;    0.000
932.393; 3059.775;  186.525;    0.000
932.566; 2922.775;  147.525;    0.000
932.739; 2879.775;  192.525;    0.000
932.912; 2978.775;  197.525;    0.000
933.085; 2921.775;  176.525;    0.000
933.258; 3026.775;  171.525;    0.000
933.431; 2957.775;  150.525;    0.000
933.604; 2890.775;  176.525;    0.000
933.777; 2893.775;  215.525;    0.000
933.950; 2817.775;  164.525;    0.000
934.123; 2813.775;  174.525;    0.000
934.296; 2753.775;  203.525;    0.000
934.468; 2807.775;  208.525;    0.000
934.641; 2839.775;  182.525;    0.000
934.814; 2879.775;  170.525;    0.000
934.987; 2867.775;  183.525;    0.000
935.159; 2719.775;  154.525;    0.000
935.332; 2746.775;  178.525;    0.000
935.505; 2692.775;  213.525;    0.000
935.677; 2712.775;  173.525;    0.000
935.850; 2742.775;  190.525;    0.000
936.022; 2770.775;  205.525;    0.000
936.195; 2777.775;  201.525;    0.000
936.367; 2842.775;  189.525;    0.000
936.540; 2794.775;  179.525;    0.000
936.712; 2777.775;  195.525;    0.000
936.885; 2787.775;  207.525;    0.000
937.057; 2729.775;  163.525;    0.000
937.229; 2891.775;  175.525;    0.000
937.402; 3019.775;  168.525;    0.000
937.574; 2923.775;  136.525;    0.000
937.746; 2968.775;  166.525;    0.000
937.919; 3175.775;  178.525;    0.000
938.091; 3328.775;  192.525;    0.000
938.263; 3494.775;  164.525;    0.000
938.435; 3786.775;  204.525;    0.000
938.608; 4542.775;  153.525;    0.000
938.780; 5280.775;  159.525;    0.000
938.952; 5388.775;  160.525;    0.000
939.124; 5553.775;  156.525;    0.000
939.296; 6335.775;  110.525;    0.000
939.468; 6563.775;  135.525;    0.000
939.640; 5652.775;  144.525;    0.000
939.812; 5118.775;  232.525;    0.000
939.984; 4513.775;  128.525;    0.000
940.156; 4228.775;  195.525;    0.000
940.328; 3952.775;  226.525;    0.000
940.500; 3732.775;  146.525;    0.000
940.672; 3533.775;  190.525;    0.000
940.843; 3307.775;  156.525;    0.000
941.015; 3290.775;  200.525;    0.000
941.187; 3176.775;  159.525;    0.000
941.359; 3210.775;  183.525;    0.000
941.531; 3151.775;  137.525;    0.000
941.702; 3084.775;  186.525;    0.000
941.874; 2947.775;  164.525;    0.000
942.046; 2954.775;  202.525;    0.000
942.217; 3065.775;  146.525;    0.000
942.389; 2970.775;  165.525;    0.000
942.560; 2802.775;  191.525;    0.000
942.732; 2858.775;  240.525;    0.000
942.904; 2779.775;  173.525;    0.000
943.075; 2727.775;  157.525;    0.000
943.247; 2639.775;  155.525;    0.000
943.418; 2593.775;  164.525;    0.000
943.589; 2693.775;  150.525;    0.000
943.761; 2666.775;  143.525;    0.000
943.932; 2712.775;  151.525;    0.000
944.104; 2622.775;  194.525;    0.000
944.275; 2557.775;  154.525;    0.000
944.446; 2569.775;  169.525;    0.000
944.617; 2471.775;  138.525;    0.000
944.789; 2422.775;  158.525;    0.000
944.960; 2449.775;  197.525;    0.000
945.131; 2445.775;  139.525;    0.000
945.302; 2469.775;  169.525;    0.000
945.473; 2432.775;  149.525;    0.000
945.645; 2493.775;  171.525;    0.000
945.816; 2517.775;  167.525;    0.000
945.987; 2541.775;  156.525;    0.000
946.158; 2689.775;  185.525;    0.000
946.329; 2672.775;  201.525;    0.000
946.500; 2555.775;  182.525;    0.000
946.671; 2509.775;  156.525;    0.000
946.842; 2357.775;  190.525;    0.000
947.013; 2345.775;  159.525;    0.000
947.183; 2466.775;  209.525;    0.000
947.354; 2430.775;  171.525;    0.000
947.525; 2337.775;  180.525;    0.000
947.696; 2241.775;  163.525;    0.000
947.867; 2255.775;  168.525;    0.000
948.037; 2399.775;  153.525;    0.000
948.208; 2321.775;  178.525;    0.000
948.379; 2429.775;  192.525;    0.000
948.550; 2363.775;  180.525;    0.000
948.720; 2280.775;  196.525;    0.000
948.891; 2294.775;  173.525;    0.000
949.061; 2311.775;  207.525;    0.000
949.232; 2233.775;  176.525;    0.000
949.403; 2268.775;  152.525;    0.000
949.573; 2272.775;  186.525;    0.000
949.744; 2205.775;  181.525;    0.000
949.914; 2220.775;  174.525;    0.000
950.085; 2225.775;  146.525;    0.000
950.255; 2238.775;  162.525;    0.000
950.425; 2264.775;  189.525;    0.000
950.596; 2249.775;  175.525;    0.000
950.766; 2270.775;  209.525;    0.000
950.936; 2183.775;  201.525;    0.000
951.107; 2223.775;  141.525;    0.000
951.277; 2240.775;  211.525;    0.000
951.447; 2215.775;  218.525;    0.000
951.617; 2261.775;  191.525;    0.000
951.788; 2194.775;  193.525;    0.000
951.958; 2168.775;  217.525;    0.000
952.128; 2146.775;  192.525;    0.000
952.298; 2240.775;  237.525;    0.000
952.468; 2121.775;  194.525;    0.000
952.638; 2083.775;  201.525;    0.000
952.808; 2132.775;  203.525;    0.000
952.978; 2137.775;  216.525;    0.000
953.148; 2134.775;  209.525;    0.000
953.318; 2115.775;  213.525;    0.000
953.488; 2036.775;  161.525;    0.000
953.658; 2124.775;  222.525;    0.000
953.828; 2085.775;  196.525;    0.000
953.998; 2087.775;  227.525;    0.000
954.167; 2024.775;  163.525;    0.000
954.337; 2032.775;  201.525;    0.000
954.507; 1988.775;  227.525;    0.000
954.677; 2003.775;  204.525;    0.000
954.846; 2046.775;  210.525;    0.000
955.016; 2010.775;  198.525;    0.000
955.186; 2096.775;  203.525;    0.000
955.355; 2054.775;  198.525;    0.000
955.525; 1942.775;  198.525;    0.000
955.695; 1895.775;  187.525;    0.000
955.864; 1943.775;  243.525;    0.000
956.034; 1882.775;  192.525;    0.000
956.203; 2017.775;  259.525;    0.000
956.373; 1885.775;  185.525;    0.000
956.542; 1916.775;  230.525;    0.000
956.711; 1912.775;  218.525;    0.000
956.881; 2001.775;  232.525;    0.000
957.050; 1907.775;  246.525;    0.000
957.220; 1933.775;  229.525;    0.000
957.389; 1954.775;  211.525;    0.000
957.558; 1886.775;  173.525;    0.000
957.727; 1867.775;  226.525;    0.000
957.897; 1912.775;  209.525;    0.000
958.066; 1917.775;  217.525;    0.000
958.235; 1807.775;  160.525;    0.000
958.404; 1855.775;  199.525;    0.000
958.573; 1866.775;  223.525;    0.000
958.743; 1838.775;  189.525;    0.000
958.912; 1891.775;  199.525;    0.000
959.081; 1820.775;  216.525;    0.000
959.250; 1872.775;  192.525;    0.000
959.419; 1871.775;  216.525;    0.000
959.588; 1865.775;  209.525;    0.000
959.757; 1804.775;  194.525;    0.000
959.926; 1850.775;  200.525;    0.000
960.094; 1854.775;  174.525;    0.000
960.263; 1838.775;  218.525;    0.000
960.432; 1817.775;  173.525;    0.000
960.601; 1812.775;  177.525;    0.000
960.770; 1771.775;  188.525;    0.000
960.939; 1753.775;  167.525;    0.000
961.107; 1751.775;  195.525;    0.000
961.276; 1785.775;  183.525;    0.000
961.445; 1758.775;  195.525;    0.000
961.613; 1734.775;  198.525;    0.000
961.782; 1767.775;  224.525;    0.000
961.951; 1788.775;  178.525;    0.000
962.119; 1843.775;  214.525;    0.000
962.288; 1851.775;  174.525;    0.000
962.456; 1761.775;  197.525;    0.000
962.625; 1824.775;  212.525;    0.000
962.793; 1790.775;  183.525;    0.000
962.962; 1746.775;  189.525;    0.000
963.130; 1788.775;  151.525;    0.000
963.298; 1749.775;  197.525;    0.000
963.467; 1856.775;  202.525;    0.000
963.635; 1805.775;  172.525;    0.000
963.803; 1819.775;  203.525;    0.000
963.972; 1854.775;  204.525;    0.000
964.140; 1827.775;  193.525;    0.000
964.308; 1794.775;  159.525;    0.000
964.477; 1789.775;  142.525;    0.000
964.645; 1776.775;  202.525;    0.000
964.813; 1787.775;  158.525;    0.000
964.981; 1906.775;  179.525;    0.000
965.149; 1863.775;  176.525;    0.000
965.317; 1857.775;  229.525;    0.000
965.485; 1782.775;  179.525;    0.000
965.653; 1822.775;  205.525;    0.000
965.821; 1761.775;  196.525;    0.000
965.989; 1788.775;  202.525;    0.000
966.157; 1829.775;  199.525;    0.000
966.325; 1735.775;  178.525;    0.000
966.493; 1745.775;  177.525;    0.000
966.661; 1723.775;  172.525;    0.000
966.829; 1680.775;  167.525;    0.000
966.996; 1791.775;  202.525;    0.000
967.164; 1758.775;  175.525;    0.000
967.332; 1833.775;  207.525;    0.000
967.500; 1734.775;  170.525;    0.000
967.667; 1774.775;  222.525;    0.000
967.835; 1770.775;  245.525;    0.000
968.003; 1773.775;  180.525;    0.000
968.170; 1859.775;  222.525;    0.000
968.338; 1767.775;  183.525;    0.000
968.505; 1773.775;  197.525;    0.000
968.673; 1707.775;  209.525;    0.000
968.841; 1751.775;  162.525;    0.000
969.008; 1770.775;  187.525;    0.000
969.175; 1716.775;  204.525;    0.000
969.343; 1725.775;  157.525;    0.000
969.510; 1752.775;  189.525;    0.000
969.678; 1710.775;  153.525;    0.000
969.845; 1771.775;  190.525;    0.000
970.012; 1762.775;  162.525;    0.000
970.180; 1801.775;  223.525;    0.000
970.347; 1710.775;  195.525;    0.000
970.514; 1739.775;  185.525;    0.000
970.681; 1706.775;  187.525;    0.000
970.849; 1665.775;  183.525;    0.000
971.016; 1693.775;  168.525;    0.000
971.183; 1733.775;  160.525;    0.000
971.350; 1700.775;  193.525;    0.000
971.517; 1647.775;  202.525;    0.000
971.684; 1695.775;  242.525;    0.000
971.851; 1741.775;  192.525;    0.000
972.018; 1737.775;  194.525;    0.000
972.185; 1660.775;  193.525;    0.000
972.352; 1700.775;  187.525;    0.000
972.519; 1688.775;  233.525;    0.000
972.686; 1691.775;  186.525;    0.000
972.853; 1603.775;  165.525;    0.000
973.020; 1678.775;  183.525;    0.000
973.186; 1638.775;  186.525;    0.000
973.353; 1686.775;  177.525;    0.000
973.520; 1690.775;  203.525;    0.000
973.687; 1622.775;  211.525;    0.000
973.853; 1651.775;  194.525;    0.000
974.020; 1725.775;  201.525;    0.000
974.187; 1625.775;  187.525;    0.000
974.353; 1687.775;  188.525;    0.000
974.520; 1655.775;  136.525;    0.000
974.687; 1674.775;  169.525;    0.000
974.853; 1743.775;  207.525;    0.000
975.020; 1613.775;  190.525;    0.000
975.186; 1710.775;  182.525;    0.000
975.353; 1618.775;  202.525;    0.000
975.519; 1721.775;  189.525;    0.000
975.685; 1590.775;  176.525;    0.000
975.852; 1659.775;  175.525;    0.000
976.018; 1609.775;  155.525;    0.000
976.184; 1621.775;  179.525;    0.000
976.351; 1647.775;  191.525;    0.000
976.517; 1683.775;  246.525;    0.000
976.683; 1682.775;  222.525;    0.000
976.849; 1713.775;  216.525;    0.000
977.016; 1561.775;  212.525;    0.000
977.182; 1592.775;  192.525;    0.000
977.348; 1592.775;  145.525;    0.000
977.514; 1617.775;  195.525;    0.000
977.680; 1623.775;  210.525;    0.000
977.846; 1647.775;  172.525;    0.000
978.012; 1620.775;  190.525;    0.000
978.178; 1614.775;  201.525;    0.000
978.344; 1523.775;  190.525;    0.000
978.510; 1612.775;  199.525;    0.000
978.676; 1562.775;  174.525;    0.000
978.842; 1616.775;  195.525;    0.000
979.008; 1641.775;  205.525;    0.000
979.174; 1564.775;  187.525;    0.000
979.340; 1636.775;  194.525;    0.000
979.505; 1641.775;  221.525;    0.000
979.671; 1592.775;  178.525;    0.000
979.837; 1567.775;  215.525;    0.000
980.003; 1616.775;  176.525;    0.000
980.168; 1610.775;  185.525;    0.000
980.334; 1547.775;  165.525;    0.000
980.499; 1710.775;  231.525;    0.000
980.665; 1674.775;  238.525;    0.000
980.831; 1650.775;  194.525;    0.000
980.996; 1609.775;  169.525;    0.000
981.162; 1612.775;  199.525;    0.000
981.327; 1559.775;  158.525;    0.000
981.493; 1639.775;  193.525;    0.000
981.658; 1581.775;  181.525;    0.000
981.823; 1605.775;  199.525;    0.000
981.989; 1652.775;  186.525;    0.000
982.154; 1636.775;  225.525;    0.000
982.319; 1660.775;  191.525;    0.000
982.485; 1707.775;  205.525;    0.000
982.650; 1689.775;  234.525;    0.000
982.815; 1690.775;  193.525;    0.000
982.980; 1648.775;  177.525;    0.000
983.146; 1644.775;  212.525;    0.000
983.311; 1704.775;  177.525;    0.000
983.476; 1659.775;  185.525;    0.000
983.641; 1613.775;  149.525;    0.000
983.806; 1654.775;  175.525;    0.000
983.971; 1696.775;  234.525;    0.000
984.136; 1594.775;  191.525;    0.000
984.301; 1568.775;  215.525;    0.000
984.466; 1681.775;  207.525;    0.000
984.631; 1651.775;  206.525;    0.000
984.796; 1578.775;  229.525;    0.000
984.961; 1549.775;  220.525;    0.000
985.126; 1586.775;  204.525;    0.000
985.291; 1625.775;  210.525;    0.000
985.455; 1614.775;  193.525;    0.000
985.620; 1571.775;  207.525;    0.000
985.785; 1609.775;  188.525;    0.000
985.950; 1601.775;  168.525;    0.000
986.114; 1587.775;  239.525;    0.000
986.279; 1561.775;  223.525;    0.000
986.444; 1662.775;  154.525;    0.000
986.608; 1715.775;  232.525;    0.000
986.773; 1637.775;  214.525;    0.000
986.937; 1690.775;  220.525;    0.000
987.102; 1679.775;  224.525;    0.000
987.266; 1633.775;  157.525;    0.000
987.431; 1734.775;  246.525;    0.000
987.595; 1627.775;  203.525;    0.000
987.760; 1635.775;  202.525;    0.000
987.924; 1686.775;  208.525;    0.000
988.088; 1617.775;  169.525;    0.000
988.253; 1593.775;  237.525;    0.000
988.417; 1554.775;  202.525;    0.000
988.581; 1628.775;  215.525;    0.000
988.746; 1541.775;  210.525;    0.000
988.910; 1583.775;  191.525;    0.000
989.074; 1623.775;  197.525;    0.000
989.238; 1569.775;  191.525;    0.000
989.402; 1544.775;  222.525;    0.000
989.566; 1571.775;  221.525;    0.000
989.731; 1528.775;  216.525;    0.000
989.895; 1556.775;  183.525;    0.000
990.059; 1515.775;  150.525;    0.000
990.223; 1556.775;  183.525;    0.000
990.387; 1572.775;  241.525;    0.000
990.551; 1576.775;  198.525;    0.000
990.714; 1532.775;  176.525;    0.000
990.878; 1620.775;  203.525;    0.000
991.042; 1512.775;  146.525;    0.000
991.206; 1504.775;  199.525;    0.000
991.370; 1582.775;  223.525;    0.000
991.534; 1540.775;  158.525;    0.000
991.697; 1482.775;  182.525;    0.000
991.861; 1518.775;  195.525;    0.000
992.025; 1544.775;  206.525;    0.000
992.188; 1533.775;  174.525;    0.000
992.352; 1488.775;  183.525;    0.000
992.516; 1501.775;  181.525;    0.000
992.679; 1507.775;  162.525;    0.000
992.843; 1492.775;  173.525;    0.000
993.006; 1527.775;  189.525;    0.000
993.170; 1500.775;  200.525;    0.000
993.333; 1489.775;  167.525;    0.000
993.497; 1484.775;  217.525;    0.000
993.660; 1496.775;  179.525;    0.000
993.824; 1464.775;  195.525;    0.000
993.987; 1564.775;  186.525;    0.000
994.150; 1435.775;  164.525;    0.000
994.314; 1500.775;  215.525;    0.000
994.477; 1488.775;  186.525;    0.000
994.640; 1508.775;  192.525;    0.000
994.803; 1532.775;  215.525;    0.000
994.967; 1478.775;  208.525;    0.000
995.130; 1428.775;  196.525;    0.000
995.293; 1466.775;  221.525;    0.000
995.456; 1376.775;  164.525;    0.000
995.619; 1488.775;  224.525;    0.000
995.782; 1451.775;  184.525;    0.000
995.945; 1490.775;  220.525;    0.000
996.108; 1413.775;  187.525;    0.000
996.271; 1510.775;  192.525;    0.000
996.434; 1424.775;  162.525;    0.000
996.597; 1434.775;  148.525;    0.000
996.760; 1475.775;  186.525;    0.000
996.923; 1449.775;  154.525;    0.000
997.086; 1483.775;  156.525;    0.000
997.248; 1476.775;  215.525;    0.000
997.411; 1441.775;  160.525;    0.000
997.574; 1464.775;  159.525;    0.000
997.737; 1511.775;  179.525;    0.000
997.899; 1476.775;  184.525;    0.000
998.062; 1376.775;  180.525;    0.000
998.225; 1423.775;  168.525;    0.000
998.387; 1472.775;  192.525;    0.000
998.550; 1446.775;  178.525;    0.000
998.712; 1480.775;  192.525;    0.000
998.875; 1470.775;  230.525;    0.000
999.037; 1422.775;  200.525;    0.000
999.200; 1428.775;  196.525;    0.000
999.362; 1425.775;  173.525;    0.000
999.525; 1410.775;  196.525;    0.000
999.687; 1453.775;  159.525;    0.000
999.849; 1397.775;  180.525;    0.000
1000.012; 1402.775;  210.525;    0.000
1000.174; 1443.775;  175.525;    0.000
1000.336; 1437.775;  174.525;    0.000
1000.499; 1445.775;  180.525;    0.000
1000.661; 1525.775;  204.525;    0.000
1000.823; 1459.775;  181.525;    0.000
1000.985; 1380.775;  178.525;    0.000
1001.147; 1487.775;  215.525;    0.000
1001.309; 1419.775;  212.525;    0.000
1001.471; 1449.775;  192.525;    0.000
1001.633; 1500.775;  207.525;    0.000
1001.796; 1488.775;  211.525;    0.000
1001.958; 1516.775;  200.525;    0.000
1002.119; 1538.775;  210.525;    0.000
1002.281; 1643.775;  204.525;    0.000
1002.443; 1634.775;  230.525;    0.000
1002.605; 1616.775;  178.525;    0.000
1002.767; 1744.775;  228.525;    0.000
1002.929; 1751.775;  199.525;    0.000
1003.091; 1828.775;  220.525;    0.000
1003.252; 1845.775;  219.525;    0.000
1003.414; 1928.775;  213.525;    0.000
1003.576; 1920.775;  202.525;    0.000
1003.738; 2018.775;  184.525;    0.000
1003.899; 2132.775;  218.525;    0.000
1004.061; 2159.775;  210.525;    0.000
1004.222; 2246.775;  179.525;    0.000
1004.384; 2414.775;  183.525;    0.000
1004.546; 2401.775;  206.525;    0.000
1004.707; 2358.775;  191.525;    0.000
1004.869; 2436.775;  197.525;    0.000
1005.030; 2361.775;  186.525;    0.000
1005.191; 2319.775;  188.525;    0.000
1005.353; 2255.775;  215.525;    0.000
1005.514; 2117.775;  184.525;    0.000
1005.675; 2066.775;  209.525;    0.000
1005.837; 2115.775;  239.525;    0.000
1005.998; 2050.775;  218.525;    0.000
1006.159; 1966.775;  212.525;    0.000
1006.321; 2043.775;  220.525;    0.000
1006.482; 2165.775;  201.525;    0.000
1006.643; 2124.775;  222.525;    0.000
1006.804; 2273.775;  191.525;    0.000
1006.965; 2311.775;  214.525;    0.000
1007.126; 2272.775;  214.525;    0.000
1007.287; 2423.775;  243.525;    0.000
1007.448; 2252.775;  251.525;    0.000
1007.609; 2215.775;  244.525;    0.000
1007.770; 2196.775;  211.525;    0.000
1007.931; 2218.775;  225.525;    0.000
1008.092; 2182.775;  188.525;    0.000
1008.253; 2280.775;  224.525;    0.000
1008.414; 2270.775;  198.525;    0.000
1008.575; 2380.775;  244.525;    0.000
1008.736; 2265.775;  219.525;    0.000
1008.896; 2303.775;  206.525;    0.000
1009.057; 2332.775;  258.525;    0.000
1009.218; 2189.775;  209.525;    0.000
1009.379; 2320.775;  204.525;    0.000
1009.539; 2387.775;  242.525;    0.000
1009.700; 2440.775;  205.525;    0.000
1009.860; 2476.775;  211.525;    0.000
1010.021; 2435.775;  219.525;    0.000
1010.182; 2494.775;  206.525;    0.000
1010.342; 2498.775;  219.525;    0.000
1010.503; 2586.775;  231.525;    0.000
1010.663; 2696.775;  260.525;    0.000
1010.823; 2782.775;  200.525;    0.000
1010.984; 2827.775;  189.525;    0.000
1011.144; 2851.775;  234.525;    0.000
1011.305; 3039.775;  212.525;    0.000
1011.465; 3158.775;  202.525;    0.000
1011.625; 3209.775;  236.525;    0.000
1011.785; 3404.775;  203.525;    0.000
1011.946; 3260.775;  195.525;    0.000
1012.106; 3202.775;  176.525;    0.000
1012.266; 3177.775;  211.525;    0.000
1012.426; 3097.775;  244.525;    0.000
1012.586; 3192.775;  202.525;    0.000
1012.746; 2968.775;  234.525;    0.000
1012.906; 3055.775;  246.525;    0.000
1013.066; 3023.775;  232.525;    0.000
1013.226; 2969.775;  248.525;    0.000
1013.386; 2952.775;  231.525;    0.000
1013.546; 2984.775;  233.525;    0.000
1013.706; 2830.775;  211.525;    0.000
1013.866; 2986.775;  240.525;    0.000
1014.026; 2905.775;  188.525;    0.000
1014.186; 2802.775;  186.525;    0.000
1014.346; 2924.775;  203.525;    0.000
1014.505; 2901.775;  238.525;    0.000
1014.665; 2999.775;  206.525;    0.000
1014.825; 2853.775;  200.525;    0.000
1014.985; 2829.775;  215.525;    0.000
1015.144; 3046.775;  250.525;    0.000
1015.304; 3111.775;  195.525;    0.000
1015.464; 2954.775;  237.525;    0.000
1015.623; 2871.775;  232.525;    0.000
1015.783; 3181.775;  220.525;    0.000
1015.942; 3409.775;  219.525;    0.000
1016.102; 3194.775;  202.525;    0.000
1016.261; 3209.775;  225.525;    0.000
1016.420; 3450.775;  246.525;    0.000
1016.580; 3851.775;  226.525;    0.000
1016.739; 3577.775;  214.525;    0.000
1016.899; 3535.775;  205.525;    0.000
1017.058; 3615.775;  217.525;    0.000
1017.217; 3799.775;  199.525;    0.000
1017.376; 3666.775;  219.525;    0.000
1017.536; 3277.775;  209.525;    0.000
1017.695; 3296.775;  213.525;    0.000
1017.854; 3418.775;  187.525;    0.000
1018.013; 3244.775;  222.525;    0.000
1018.172; 3189.775;  204.525;    0.000
1018.331; 3117.775;  195.525;    0.000
1018.490; 3408.775;  213.525;    0.000
1018.649; 3633.775;  216.525;    0.000
1018.808; 3582.775;  227.525;    0.000
1018.967; 3455.775;  206.525;    0.000
1019.126; 3637.775;  206.525;    0.000
1019.285; 3794.775;  219.525;    0.000
1019.444; 3639.775;  218.525;    0.000
1019.603; 3557.775;  206.525;    0.000
1019.762; 3284.775;  189.525;    0.000
1019.921; 3431.775;  217.525;    0.000
1020.079; 3653.775;  200.525;    0.000
1020.238; 3908.775;  219.525;    0.000
1020.397; 3561.775;  227.525;    0.000
1020.555; 3336.775;  207.525;    0.000
1020.714; 3462.775;  253.525;    0.000
1020.873; 3829.775;  230.525;    0.000
1021.031; 3814.775;  232.525;    0.000
1021.190; 3563.775;  226.525;    0.000
1021.348; 3580.775;  224.525;    0.000
1021.507; 3777.775;  215.525;    0.000
1021.665; 3885.775;  233.525;    0.000
1021.824; 3691.775;  196.525;    0.000
1021.982; 3424.775;  215.525;    0.000
1022.141; 3612.775;  200.525;    0.000
1022.299; 4055.775;  200.525;    0.000
1022.457; 4011.775;  179.525;    0.000
1022.616; 3688.775;  226.525;    0.000
1022.774; 3424.775;  216.525;    0.000
1022.932; 3604.775;  212.525;    0.000
1023.090; 4224.775;  220.525;    0.000
1023.249; 4138.775;  194.525;    0.000
1023.407; 3696.775;  227.525;    0.000
1023.565; 3448.775;  190.525;    0.000
1023.723; 3764.775;  190.525;    0.000
1023.881; 4154.775;  214.525;    0.000
1024.039; 4137.775;  179.525;    0.000
1024.197; 3734.775;  274.525;    0.000
1024.355; 3468.775;  269.525;    0.000
1024.513; 3722.775;  259.525;    0.000
1024.671; 4221.775;  211.525;    0.000
1024.829; 4193.775;  230.525;    0.000
1024.987; 3879.775;  239.525;    0.000
1025.145; 3430.775;  231.525;    0.000
1025.302; 3771.775;  212.525;    0.000
1025.460; 4073.775;  224.525;    0.000
1025.618; 4421.775;  217.525;    0.000
1025.776; 3996.775;  232.525;    0.000
1025.933; 3687.775;  212.525;    0.000
1026.091; 3680.775;  214.525;    0.000
1026.249; 4103.775;  224.525;    0.000
1026.406; 4383.775;  219.525;    0.000
1026.564; 4148.775;  262.525;    0.000
1026.721; 3906.775;  206.525;    0.000
1026.879; 3656.775;  227.525;    0.000
1027.036; 4152.775;  234.525;    0.000
1027.194; 4438.775;  256.525;    0.000
1027.351; 4446.775;  229.525;    0.000
1027.509; 4161.775;  253.525;    0.000
1027.666; 3862.775;  248.525;    0.000
1027.823; 3986.775;  215.525;    0.000
1027.981; 4207.775;  248.525;    0.000
1028.138; 4487.775;  257.525;    0.000
1028.295; 4101.775;  215.525;    0.000
1028.452; 3885.775;  236.525;    0.000
1028.609; 3935.775;  240.525;    0.000
1028.767; 4290.775;  258.525;    0.000
1028.924; 4530.775;  211.525;    0.000
1029.081; 4443.775;  226.525;    0.000
1029.238; 4323.775;  228.525;    0.000
1029.395; 4102.775;  264.525;    0.000
1029.552; 4333.775;  227.525;    0.000
1029.709; 4279.775;  232.525;    0.000
1029.866; 4520.775;  223.525;    0.000
1030.023; 4460.775;  220.525;    0.000
1030.180; 3997.775;  222.525;    0.000
1030.337; 4119.775;  224.525;    0.000
1030.494; 4204.775;  228.525;    0.000
1030.650; 4452.775;  242.525;    0.000
1030.807; 4558.775;  214.525;    0.000
1030.964; 4245.775;  207.525;    0.000
1031.121; 4316.775;  236.525;    0.000
1031.277; 4200.775;  206.525;    0.000
1031.434; 4446.775;  249.525;    0.000
1031.591; 4589.775;  253.525;    0.000
1031.747; 4683.775;  240.525;    0.000
1031.904; 4554.775;  212.525;    0.000
1032.060; 4460.775;  185.525;    0.000
1032.217; 4395.775;  201.525;    0.000
1032.373; 4863.775;  207.525;    0.000
1032.530; 4816.775;  226.525;    0.000
1032.686; 5393.775;  226.525;    0.000
1032.843; 5248.775;  203.525;    0.000
1032.999; 4902.775;  233.525;    0.000
1033.155; 5008.775;  232.525;    0.000
1033.312; 5190.775;  239.525;    0.000
1033.468; 5945.775;  207.525;    0.000
1033.624; 6334.775;  238.525;    0.000
1033.780; 6615.775;  255.525;    0.000
1033.937; 6484.775;  188.525;    0.000
1034.093; 5797.775;  244.525;    0.000
1034.249; 5997.775;  182.525;    0.000
1034.405; 6133.775;  251.525;    0.000
1034.561; 6448.775;  250.525;    0.000
1034.717; 6898.775;  208.525;    0.000
1034.873; 6559.775;  210.525;    0.000
1035.029; 6861.775;  245.525;    0.000
1035.185; 6327.775;  230.525;    0.000
1035.341; 6076.775;  209.525;    0.000
1035.497; 6725.775;  244.525;    0.000
1035.653; 6848.775;  229.525;    0.000
1035.809; 7645.775;  275.525;    0.000
1035.964; 8048.775;  203.525;    0.000
1036.120; 7558.775;  215.525;    0.000
1036.276; 7399.775;  228.525;    0.000
1036.432; 7210.775;  183.525;    0.000
1036.587; 6857.775;  214.525;    0.000
1036.743; 7282.775;  240.525;    0.000
1036.899; 7903.775;  202.525;    0.000
1037.054; 8078.775;  182.525;    0.000
1037.210; 8993.775;  228.525;    0.000
1037.365; 9429.775;  239.525;    0.000
1037.521; 8479.775;  230.525;    0.000
1037.676; 8350.775;  217.525;    0.000
1037.832; 7825.775;  235.525;    0.000
1037.987; 7729.775;  210.525;    0.000
1038.143; 8191.775;  206.525;    0.000
1038.298; 9206.775;  177.525;    0.000
1038.453; 9249.775;  215.525;    0.000
1038.609;10025.775;  210.525;    0.000
1038.764;10347.775;  227.525;    0.000
1038.919; 8984.775;  197.525;    0.000
1039.074; 9267.775;  183.525;    0.000
1039.229; 8285.775;  218.525;    0.000
1039.385; 8193.775;  251.525;    0.000
1039.540; 8462.775;  222.525;    0.000
1039.695; 9354.775;  215.525;    0.000
1039.850;10798.775;  204.525;    0.000
1040.005;10923.775;  241.525;    0.000
1040.160;11849.775;  180.525;    0.000
1040.315;11469.775;  197.525;    0.000
1040.470;10419.775;  180.525;    0.000
1040.625;10143.775;  196.525;    0.000
1040.780; 9626.775;  245.525;    0.000
1040.935; 9469.775;  204.525;    0.000
1041.089;10007.775;  213.525;    0.000
1041.244;11384.775;  200.525;    0.000
1041.399;12374.775;  212.525;    0.000
1041.554;13445.775;  239.525;    0.000
1041.708;14483.775;  238.525;    0.000
1041.863;14352.775;  213.525;    0.000
1042.018;13510.775;  236.525;    0.000
1042.172;13277.775;  238.525;    0.000
1042.327;12541.775;  254.525;    0.000
1042.481;12510.775;  197.525;    0.000
1042.636;12778.775;  205.525;    0.000
1042.791;12857.775;  218.525;    0.000
1042.945;15341.775;  261.525;    0.000
1043.099;16507.775;  201.525;    0.000
1043.254;16211.775;  191.525;    0.000
1043.408;16869.775;  279.525;    0.000
1043.563;17859.775;  203.525;    0.000
1043.717;16795.775;  229.525;    0.000
1043.871;15176.775;  213.525;    0.000
1044.025;15326.775;  240.525;    0.000
1044.180;14787.775;  220.525;    0.000
1044.334;14514.775;  268.525;    0.000
1044.488;15032.775;  261.525;    0.000
1044.642;16598.775;  205.525;    0.000
1044.796;18099.775;  240.525;    0.000
1044.950;21142.775;  258.525;    0.000
1045.104;22423.775;  218.525;    0.000
1045.258;21678.775;  213.525;    0.000
1045.412;22527.775;  223.525;    0.000
1045.566;21038.775;  240.525;    0.000
1045.720;20573.775;  235.525;    0.000
1045.874;18628.775;  221.525;    0.000
1046.028;18027.775;  247.525;    0.000
1046.182;17276.775;  200.525;    0.000
1046.336;18191.775;  220.525;    0.000
1046.489;19437.775;  228.525;    0.000
1046.643;19754.775;  249.525;    0.000
1046.797;21796.775;  230.525;    0.000
1046.951;21868.775;  234.525;    0.000
1047.104;23608.775;  262.525;    0.000
1047.258;24145.775;  210.525;    0.000
1047.411;25381.775;  235.525;    0.000
1047.565;24504.775;  237.525;    0.000
1047.719;24126.775;  237.525;    0.000
1047.872;23254.775;  225.525;    0.000
1048.026;21289.775;  237.525;    0.000
1048.179;21525.775;  220.525;    0.000
1048.332;21914.775;  219.525;    0.000
1048.486;20941.775;  195.525;    0.000
1048.639;21633.775;  213.525;    0.000
1048.792;21913.775;  245.525;    0.000
1048.946;24265.775;  234.525;    0.000
1049.099;26535.775;  226.525;    0.000
1049.252;26695.775;  282.525;    0.000
1049.406;24929.775;  255.525;    0.000
1049.559;26181.775;  223.525;    0.000
1049.712;29255.775;  253.525;    0.000
1049.865;31834.775;  271.525;    0.000
1050.018;30982.775;  241.525;    0.000
1050.171;26427.775;  202.525;    0.000
1050.324;25293.775;  250.525;    0.000
1050.477;27490.775;  251.525;    0.000
1050.630;30265.775;  216.525;    0.000
1050.783;30021.775;  205.525;    0.000
1050.936;27464.775;  219.525;    0.000
1051.089;26163.775;  247.525;    0.000
1051.242;27707.775;  238.525;    0.000
1051.394;30533.775;  252.525;    0.000
1051.547;32683.775;  245.525;    0.000
1051.700;31532.775;  206.525;    0.000
1051.853;30060.775;  270.525;    0.000
1052.005;31868.775;  245.525;    0.000
1052.158;35091.773;  290.525;    0.000
1052.311;38420.773;  237.525;    0.000
1052.463;37182.773;  271.525;    0.000
1052.616;32478.775;  255.525;    0.000
1052.768;29656.775;  257.525;    0.000
1052.921;28694.775;  289.525;    0.000
1053.073;30516.775;  287.525;    0.000
1053.226;35035.773;  268.525;    0.000
1053.378;40111.773;  294.525;    0.000
1053.531;41840.773;  255.525;    0.000
1053.683;39783.773;  293.525;    0.000
1053.835;33788.773;  274.525;    0.000
1053.988;25926.775;  282.525;    0.000
1054.140; 4724.775;  291.525;    0.000
1054.292; 1158.775;  292.525;    0.000
1054.444;  910.775;  299.525;    0.000
1054.596;  850.775;  319.525;    0.000
1054.749;  769.775;  295.525;    0.000
1054.901;  804.775;  266.525;    0.000
1055.053;  691.775;  300.525;    0.000
1055.205;  681.775;  290.525;    0.000
1055.357;  659.775;  304.525;    0.000
1055.509;  623.775;  292.525;    0.000
1055.661;  628.775;  339.525;    0.000
1055.813;  558.775;  306.525;    0.000
1055.965;  573.775;  293.525;    0.000
1056.116;  568.775;  300.525;    0.000
1056.268;  556.775;  306.525;    0.000
1056.420;  602.775;  288.525;    0.000

