M14_test_200us_n5
Integration time [ms]:   0.500
Averaging Nr. [scans]: 1
Smoothing Nr. [pixels]: 0
Data measured with spectrometer [name]: UV2
Wave   ;Sample   ;Dark     ;Reference
[nm]   ;[counts] ;[counts] ;[counts] 

353.533;  239.800;    0.000;    0.000
353.597;  228.800;    0.000;    0.000
353.660;  221.800;    0.000;    0.000
353.723;  178.800;    0.000;    0.000
353.786;  205.800;    0.000;    0.000
353.850;  257.800;    0.000;    0.000
353.913;  192.800;    0.000;    0.000
353.976;  190.800;    0.000;    0.000
354.039;  199.800;    0.000;    0.000
354.102;  228.800;    0.000;    0.000
354.166;  228.800;    0.000;    0.000
354.229;  210.800;    0.000;    0.000
354.292;  187.800;    0.000;    0.000
354.355;  211.800;    0.000;    0.000
354.418;  220.800;    0.000;    0.000
354.481;  204.800;    0.000;    0.000
354.545;  569.800;    0.000;    0.000
354.608;  581.800;    0.000;    0.000
354.671;  535.800;    0.000;    0.000
354.734;  592.800;    0.000;    0.000
354.797;  608.800;    0.000;    0.000
354.860;  576.800;    0.000;    0.000
354.923;  586.800;    0.000;    0.000
354.986;  555.800;    0.000;    0.000
355.050;  604.800;    0.000;    0.000
355.113;  626.800;    0.000;    0.000
355.176;  630.800;    0.000;    0.000
355.239;  627.800;    0.000;    0.000
355.302;  649.800;    0.000;    0.000
355.365;  668.800;    0.000;    0.000
355.428;  653.800;    0.000;    0.000
355.491;  679.800;    0.000;    0.000
355.554;  641.800;    0.000;    0.000
355.617;  726.800;    0.000;    0.000
355.680;  672.800;    0.000;    0.000
355.743;  688.800;    0.000;    0.000
355.806;  677.800;    0.000;    0.000
355.869;  788.800;    0.000;    0.000
355.932;  673.800;    0.000;    0.000
355.995;  742.800;    0.000;    0.000
356.058;  720.800;    0.000;    0.000
356.121;  762.800;    0.000;    0.000
356.184;  766.800;    0.000;    0.000
356.247;  744.800;    0.000;    0.000
356.310;  701.800;    0.000;    0.000
356.373;  720.800;    0.000;    0.000
356.436;  771.800;    0.000;    0.000
356.498;  735.800;    0.000;    0.000
356.561;  734.800;    0.000;    0.000
356.624;  760.800;    0.000;    0.000
356.687;  764.800;    0.000;    0.000
356.750;  749.800;    0.000;    0.000
356.813;  721.800;    0.000;    0.000
356.876;  745.800;    0.000;    0.000
356.939;  770.800;    0.000;    0.000
357.001;  796.800;    0.000;    0.000
357.064;  764.800;    0.000;    0.000
357.127;  770.800;    0.000;    0.000
357.190;  724.800;    0.000;    0.000
357.253;  823.800;    0.000;    0.000
357.316;  778.800;    0.000;    0.000
357.378;  796.800;    0.000;    0.000
357.441;  779.800;    0.000;    0.000
357.504;  792.800;    0.000;    0.000
357.567;  759.800;    0.000;    0.000
357.629;  787.800;    0.000;    0.000
357.692;  744.800;    0.000;    0.000
357.755;  761.800;    0.000;    0.000
357.818;  736.800;    0.000;    0.000
357.880;  765.800;    0.000;    0.000
357.943;  789.800;    0.000;    0.000
358.006;  768.800;    0.000;    0.000
358.069;  812.800;    0.000;    0.000
358.131;  800.800;    0.000;    0.000
358.194;  690.800;    0.000;    0.000
358.257;  758.800;    0.000;    0.000
358.319;  792.800;    0.000;    0.000
358.382;  806.800;    0.000;    0.000
358.445;  746.800;    0.000;    0.000
358.507;  767.800;    0.000;    0.000
358.570;  779.800;    0.000;    0.000
358.633;  780.800;    0.000;    0.000
358.695;  775.800;    0.000;    0.000
358.758;  779.800;    0.000;    0.000
358.821;  815.800;    0.000;    0.000
358.883;  809.800;    0.000;    0.000
358.946;  852.800;    0.000;    0.000
359.008;  859.800;    0.000;    0.000
359.071;  767.800;    0.000;    0.000
359.134;  789.800;    0.000;    0.000
359.196;  856.800;    0.000;    0.000
359.259;  810.800;    0.000;    0.000
359.321;  827.800;    0.000;    0.000
359.384;  835.800;    0.000;    0.000
359.446;  826.800;    0.000;    0.000
359.509;  822.800;    0.000;    0.000
359.571;  781.800;    0.000;    0.000
359.634;  837.800;    0.000;    0.000
359.696;  811.800;    0.000;    0.000
359.759;  831.800;    0.000;    0.000
359.821;  831.800;    0.000;    0.000
359.884;  836.800;    0.000;    0.000
359.946;  834.800;    0.000;    0.000
360.009;  817.800;    0.000;    0.000
360.071;  819.800;    0.000;    0.000
360.134;  887.800;    0.000;    0.000
360.196;  860.800;    0.000;    0.000
360.259;  805.800;    0.000;    0.000
360.321;  912.800;    0.000;    0.000
360.384;  883.800;    0.000;    0.000
360.446;  873.800;    0.000;    0.000
360.508;  862.800;    0.000;    0.000
360.571;  916.800;    0.000;    0.000
360.633;  914.800;    0.000;    0.000
360.696;  825.800;    0.000;    0.000
360.758;  868.800;    0.000;    0.000
360.820;  879.800;    0.000;    0.000
360.883;  850.800;    0.000;    0.000
360.945;  905.800;    0.000;    0.000
361.007;  904.800;    0.000;    0.000
361.070;  886.800;    0.000;    0.000
361.132;  853.800;    0.000;    0.000
361.194;  897.800;    0.000;    0.000
361.257;  772.800;    0.000;    0.000
361.319;  890.800;    0.000;    0.000
361.381;  885.800;    0.000;    0.000
361.443;  908.800;    0.000;    0.000
361.506;  906.800;    0.000;    0.000
361.568;  886.800;    0.000;    0.000
361.630;  917.800;    0.000;    0.000
361.693;  840.800;    0.000;    0.000
361.755;  916.800;    0.000;    0.000
361.817;  955.800;    0.000;    0.000
361.879;  869.800;    0.000;    0.000
361.941;  884.800;    0.000;    0.000
362.004;  944.800;    0.000;    0.000
362.066;  896.800;    0.000;    0.000
362.128;  963.800;    0.000;    0.000
362.190;  898.800;    0.000;    0.000
362.252;  876.800;    0.000;    0.000
362.315;  914.800;    0.000;    0.000
362.377;  928.800;    0.000;    0.000
362.439;  911.800;    0.000;    0.000
362.501;  891.800;    0.000;    0.000
362.563;  966.800;    0.000;    0.000
362.625;  929.800;    0.000;    0.000
362.688;  928.800;    0.000;    0.000
362.750;  947.800;    0.000;    0.000
362.812;  927.800;    0.000;    0.000
362.874;  923.800;    0.000;    0.000
362.936;  972.800;    0.000;    0.000
362.998;  938.800;    0.000;    0.000
363.060;  965.800;    0.000;    0.000
363.122;  949.800;    0.000;    0.000
363.184;  961.800;    0.000;    0.000
363.246;  942.800;    0.000;    0.000
363.308;  907.800;    0.000;    0.000
363.370;  968.800;    0.000;    0.000
363.432;  890.800;    0.000;    0.000
363.494;  912.800;    0.000;    0.000
363.556;  905.800;    0.000;    0.000
363.618;  879.800;    0.000;    0.000
363.680;  914.800;    0.000;    0.000
363.742;  961.800;    0.000;    0.000
363.804;  964.800;    0.000;    0.000
363.866;  934.800;    0.000;    0.000
363.928;  941.800;    0.000;    0.000
363.990;  989.800;    0.000;    0.000
364.052;  972.800;    0.000;    0.000
364.114;  926.800;    0.000;    0.000
364.176;  897.800;    0.000;    0.000
364.238;  948.800;    0.000;    0.000
364.300;  980.800;    0.000;    0.000
364.362;  958.800;    0.000;    0.000
364.424;  905.800;    0.000;    0.000
364.486;  966.800;    0.000;    0.000
364.548;  984.800;    0.000;    0.000
364.609; 1032.800;    0.000;    0.000
364.671;  965.800;    0.000;    0.000
364.733;  994.800;    0.000;    0.000
364.795;  967.800;    0.000;    0.000
364.857;  972.800;    0.000;    0.000
364.919;  966.800;    0.000;    0.000
364.981;  954.800;    0.000;    0.000
365.042;  953.800;    0.000;    0.000
365.104;  951.800;    0.000;    0.000
365.166;  908.800;    0.000;    0.000
365.228;  959.800;    0.000;    0.000
365.290;  955.800;    0.000;    0.000
365.351;  978.800;    0.000;    0.000
365.413;  977.800;    0.000;    0.000
365.475;  940.800;    0.000;    0.000
365.537;  987.800;    0.000;    0.000
365.598;  991.800;    0.000;    0.000
365.660;  953.800;    0.000;    0.000
365.722; 1012.800;    0.000;    0.000
365.784;  970.800;    0.000;    0.000
365.845;  917.800;    0.000;    0.000
365.907;  977.800;    0.000;    0.000
365.969;  946.800;    0.000;    0.000
366.030; 1028.800;    0.000;    0.000
366.092;  977.800;    0.000;    0.000
366.154;  996.800;    0.000;    0.000
366.215;  990.800;    0.000;    0.000
366.277; 1051.800;    0.000;    0.000
366.339;  998.800;    0.000;    0.000
366.400; 1010.800;    0.000;    0.000
366.462;  998.800;    0.000;    0.000
366.524;  997.800;    0.000;    0.000
366.585;  993.800;    0.000;    0.000
366.647; 1019.800;    0.000;    0.000
366.708;  925.800;    0.000;    0.000
366.770; 1013.800;    0.000;    0.000
366.832;  996.800;    0.000;    0.000
366.893; 1034.800;    0.000;    0.000
366.955; 1045.800;    0.000;    0.000
367.016; 1006.800;    0.000;    0.000
367.078; 1056.800;    0.000;    0.000
367.139;  994.800;    0.000;    0.000
367.201;  963.800;    0.000;    0.000
367.262; 1010.800;    0.000;    0.000
367.324;  995.800;    0.000;    0.000
367.385;  974.800;    0.000;    0.000
367.447; 1023.800;    0.000;    0.000
367.508; 1013.800;    0.000;    0.000
367.570;  989.800;    0.000;    0.000
367.631; 1005.800;    0.000;    0.000
367.693; 1005.800;    0.000;    0.000
367.754;  995.800;    0.000;    0.000
367.816;  994.800;    0.000;    0.000
367.877; 1036.800;    0.000;    0.000
367.939; 1060.800;    0.000;    0.000
368.000;  978.800;    0.000;    0.000
368.062; 1011.800;    0.000;    0.000
368.123; 1007.800;    0.000;    0.000
368.184; 1020.800;    0.000;    0.000
368.246;  956.800;    0.000;    0.000
368.307; 1043.800;    0.000;    0.000
368.369; 1033.800;    0.000;    0.000
368.430; 1073.800;    0.000;    0.000
368.491; 1044.800;    0.000;    0.000
368.553; 1038.800;    0.000;    0.000
368.614; 1029.800;    0.000;    0.000
368.675; 1006.800;    0.000;    0.000
368.737; 1078.800;    0.000;    0.000
368.798; 1010.800;    0.000;    0.000
368.859;  997.800;    0.000;    0.000
368.921; 1092.800;    0.000;    0.000
368.982; 1045.800;    0.000;    0.000
369.043; 1011.800;    0.000;    0.000
369.104; 1077.800;    0.000;    0.000
369.166; 1012.800;    0.000;    0.000
369.227; 1030.800;    0.000;    0.000
369.288; 1096.800;    0.000;    0.000
369.349;  991.800;    0.000;    0.000
369.411; 1040.800;    0.000;    0.000
369.472; 1016.800;    0.000;    0.000
369.533; 1029.800;    0.000;    0.000
369.594; 1016.800;    0.000;    0.000
369.656; 1123.800;    0.000;    0.000
369.717; 1014.800;    0.000;    0.000
369.778; 1046.800;    0.000;    0.000
369.839; 1056.800;    0.000;    0.000
369.900; 1120.800;    0.000;    0.000
369.961; 1071.800;    0.000;    0.000
370.023; 1049.800;    0.000;    0.000
370.084; 1087.800;    0.000;    0.000
370.145;  996.800;    0.000;    0.000
370.206; 1140.800;    0.000;    0.000
370.267; 1049.800;    0.000;    0.000
370.328; 1028.800;    0.000;    0.000
370.389; 1029.800;    0.000;    0.000
370.451; 1078.800;    0.000;    0.000
370.512; 1030.800;    0.000;    0.000
370.573; 1038.800;    0.000;    0.000
370.634; 1062.800;    0.000;    0.000
370.695; 1072.800;    0.000;    0.000
370.756; 1097.800;    0.000;    0.000
370.817; 1063.800;    0.000;    0.000
370.878; 1089.800;    0.000;    0.000
370.939; 1043.800;    0.000;    0.000
371.000; 1052.800;    0.000;    0.000
371.061; 1072.800;    0.000;    0.000
371.122; 1073.800;    0.000;    0.000
371.183; 1076.800;    0.000;    0.000
371.244; 1089.800;    0.000;    0.000
371.305; 1066.800;    0.000;    0.000
371.366; 1086.800;    0.000;    0.000
371.427; 1024.800;    0.000;    0.000
371.488; 1104.800;    0.000;    0.000
371.549; 1042.800;    0.000;    0.000
371.610; 1125.800;    0.000;    0.000
371.671; 1099.800;    0.000;    0.000
371.732; 1094.800;    0.000;    0.000
371.793; 1088.800;    0.000;    0.000
371.853; 1077.800;    0.000;    0.000
371.914; 1132.800;    0.000;    0.000
371.975; 1003.800;    0.000;    0.000
372.036; 1133.800;    0.000;    0.000
372.097; 1084.800;    0.000;    0.000
372.158; 1070.800;    0.000;    0.000
372.219; 1134.800;    0.000;    0.000
372.280; 1129.800;    0.000;    0.000
372.340; 1128.800;    0.000;    0.000
372.401; 1102.800;    0.000;    0.000
372.462; 1121.800;    0.000;    0.000
372.523; 1091.800;    0.000;    0.000
372.584; 1094.800;    0.000;    0.000
372.645; 1072.800;    0.000;    0.000
372.705; 1093.800;    0.000;    0.000
372.766; 1130.800;    0.000;    0.000
372.827; 1129.800;    0.000;    0.000
372.888; 1119.800;    0.000;    0.000
372.948; 1086.800;    0.000;    0.000
373.009; 1104.800;    0.000;    0.000
373.070; 1075.800;    0.000;    0.000
373.131; 1150.800;    0.000;    0.000
373.191; 1177.800;    0.000;    0.000
373.252; 1077.800;    0.000;    0.000
373.313; 1044.800;    0.000;    0.000
373.373; 1063.800;    0.000;    0.000
373.434; 1203.800;    0.000;    0.000
373.495; 1078.800;    0.000;    0.000
373.555; 1132.800;    0.000;    0.000
373.616; 1142.800;    0.000;    0.000
373.677; 1141.800;    0.000;    0.000
373.737; 1191.800;    0.000;    0.000
373.798; 1139.800;    0.000;    0.000
373.859; 1112.800;    0.000;    0.000
373.919; 1179.800;    0.000;    0.000
373.980; 1162.800;    0.000;    0.000
374.041; 1093.800;    0.000;    0.000
374.101; 1155.800;    0.000;    0.000
374.162; 1174.800;    0.000;    0.000
374.222; 1193.800;    0.000;    0.000
374.283; 1111.800;    0.000;    0.000
374.343; 1242.800;    0.000;    0.000
374.404; 1207.800;    0.000;    0.000
374.465; 1191.800;    0.000;    0.000
374.525; 1086.800;    0.000;    0.000
374.586; 1185.800;    0.000;    0.000
374.646; 1229.800;    0.000;    0.000
374.707; 1201.800;    0.000;    0.000
374.767; 1177.800;    0.000;    0.000
374.828; 1201.800;    0.000;    0.000
374.888; 1180.800;    0.000;    0.000
374.949; 1242.800;    0.000;    0.000
375.009; 1244.800;    0.000;    0.000
375.070; 1248.800;    0.000;    0.000
375.130; 1190.800;    0.000;    0.000
375.190; 1154.800;    0.000;    0.000
375.251; 1215.800;    0.000;    0.000
375.311; 1158.800;    0.000;    0.000
375.372; 1106.800;    0.000;    0.000
375.432; 1199.800;    0.000;    0.000
375.493; 1191.800;    0.000;    0.000
375.553; 1163.800;    0.000;    0.000
375.613; 1215.800;    0.000;    0.000
375.674; 1235.800;    0.000;    0.000
375.734; 1205.800;    0.000;    0.000
375.794; 1203.800;    0.000;    0.000
375.855; 1187.800;    0.000;    0.000
375.915; 1173.800;    0.000;    0.000
375.975; 1193.800;    0.000;    0.000
376.036; 1192.800;    0.000;    0.000
376.096; 1187.800;    0.000;    0.000
376.156; 1171.800;    0.000;    0.000
376.217; 1162.800;    0.000;    0.000
376.277; 1144.800;    0.000;    0.000
376.337; 1222.800;    0.000;    0.000
376.398; 1167.800;    0.000;    0.000
376.458; 1203.800;    0.000;    0.000
376.518; 1161.800;    0.000;    0.000
376.578; 1236.800;    0.000;    0.000
376.639; 1199.800;    0.000;    0.000
376.699; 1235.800;    0.000;    0.000
376.759; 1243.800;    0.000;    0.000
376.819; 1194.800;    0.000;    0.000
376.880; 1230.800;    0.000;    0.000
376.940; 1171.800;    0.000;    0.000
377.000; 1227.800;    0.000;    0.000
377.060; 1241.800;    0.000;    0.000
377.120; 1223.800;    0.000;    0.000
377.180; 1159.800;    0.000;    0.000
377.241; 1287.800;    0.000;    0.000
377.301; 1273.800;    0.000;    0.000
377.361; 1216.800;    0.000;    0.000
377.421; 1217.800;    0.000;    0.000
377.481; 1193.800;    0.000;    0.000
377.541; 1217.800;    0.000;    0.000
377.601; 1308.800;    0.000;    0.000
377.661; 1250.800;    0.000;    0.000
377.722; 1254.800;    0.000;    0.000
377.782; 1336.800;    0.000;    0.000
377.842; 1304.800;    0.000;    0.000
377.902; 1276.800;    0.000;    0.000
377.962; 1271.800;    0.000;    0.000
378.022; 1229.800;    0.000;    0.000
378.082; 1232.800;    0.000;    0.000
378.142; 1274.800;    0.000;    0.000
378.202; 1322.800;    0.000;    0.000
378.262; 1275.800;    0.000;    0.000
378.322; 1338.800;    0.000;    0.000
378.382; 1328.800;    0.000;    0.000
378.442; 1347.800;    0.000;    0.000
378.502; 1247.800;    0.000;    0.000
378.562; 1301.800;    0.000;    0.000
378.622; 1269.800;    0.000;    0.000
378.682; 1300.800;    0.000;    0.000
378.742; 1293.800;    0.000;    0.000
378.802; 1287.800;    0.000;    0.000
378.862; 1342.800;    0.000;    0.000
378.921; 1390.800;    0.000;    0.000
378.981; 1376.800;    0.000;    0.000
379.041; 1356.800;    0.000;    0.000
379.101; 1351.800;    0.000;    0.000
379.161; 1321.800;    0.000;    0.000
379.221; 1365.800;    0.000;    0.000
379.281; 1348.800;    0.000;    0.000
379.341; 1370.800;    0.000;    0.000
379.401; 1363.800;    0.000;    0.000
379.460; 1354.800;    0.000;    0.000
379.520; 1352.800;    0.000;    0.000
379.580; 1396.800;    0.000;    0.000
379.640; 1359.800;    0.000;    0.000
379.700; 1401.800;    0.000;    0.000
379.759; 1415.800;    0.000;    0.000
379.819; 1362.800;    0.000;    0.000
379.879; 1402.800;    0.000;    0.000
379.939; 1365.800;    0.000;    0.000
379.999; 1436.800;    0.000;    0.000
380.058; 1459.800;    0.000;    0.000
380.118; 1489.800;    0.000;    0.000
380.178; 1441.800;    0.000;    0.000
380.237; 1388.800;    0.000;    0.000
380.297; 1372.800;    0.000;    0.000
380.357; 1457.800;    0.000;    0.000
380.417; 1454.800;    0.000;    0.000
380.476; 1450.800;    0.000;    0.000
380.536; 1462.800;    0.000;    0.000
380.596; 1492.800;    0.000;    0.000
380.655; 1480.800;    0.000;    0.000
380.715; 1429.800;    0.000;    0.000
380.775; 1493.800;    0.000;    0.000
380.834; 1545.800;    0.000;    0.000
380.894; 1516.800;    0.000;    0.000
380.954; 1514.800;    0.000;    0.000
381.013; 1498.800;    0.000;    0.000
381.073; 1512.800;    0.000;    0.000
381.132; 1550.800;    0.000;    0.000
381.192; 1536.800;    0.000;    0.000
381.252; 1577.800;    0.000;    0.000
381.311; 1657.800;    0.000;    0.000
381.371; 1554.800;    0.000;    0.000
381.430; 1531.800;    0.000;    0.000
381.490; 1498.800;    0.000;    0.000
381.549; 1616.800;    0.000;    0.000
381.609; 1542.800;    0.000;    0.000
381.668; 1567.800;    0.000;    0.000
381.728; 1621.800;    0.000;    0.000
381.787; 1601.800;    0.000;    0.000
381.847; 1684.800;    0.000;    0.000
381.906; 1637.800;    0.000;    0.000
381.966; 1633.800;    0.000;    0.000
382.025; 1692.800;    0.000;    0.000
382.085; 1670.800;    0.000;    0.000
382.144; 1670.800;    0.000;    0.000
382.204; 1742.800;    0.000;    0.000
382.263; 1736.800;    0.000;    0.000
382.322; 1744.800;    0.000;    0.000
382.382; 1803.800;    0.000;    0.000
382.441; 1795.800;    0.000;    0.000
382.501; 1925.800;    0.000;    0.000
382.560; 1966.800;    0.000;    0.000
382.619; 1952.800;    0.000;    0.000
382.679; 2137.800;    0.000;    0.000
382.738; 2093.800;    0.000;    0.000
382.798; 2208.800;    0.000;    0.000
382.857; 2409.800;    0.000;    0.000
382.916; 2690.800;    0.000;    0.000
382.976; 2694.800;    0.000;    0.000
383.035; 2646.800;    0.000;    0.000
383.094; 2748.800;    0.000;    0.000
383.154; 3004.800;    0.000;    0.000
383.213; 3439.800;    0.000;    0.000
383.272; 3315.800;    0.000;    0.000
383.331; 2743.800;    0.000;    0.000
383.391; 2600.800;    0.000;    0.000
383.450; 2472.800;    0.000;    0.000
383.509; 2489.800;    0.000;    0.000
383.568; 2589.800;    0.000;    0.000
383.628; 2749.800;    0.000;    0.000
383.687; 3018.800;    0.000;    0.000
383.746; 3320.800;    0.000;    0.000
383.805; 3770.800;    0.000;    0.000
383.864; 3694.800;    0.000;    0.000
383.924; 3076.800;    0.000;    0.000
383.983; 2527.800;    0.000;    0.000
384.042; 2332.800;    0.000;    0.000
384.101; 2159.800;    0.000;    0.000
384.160; 2063.800;    0.000;    0.000
384.219; 2008.800;    0.000;    0.000
384.279; 1965.800;    0.000;    0.000
384.338; 1936.800;    0.000;    0.000
384.397; 1769.800;    0.000;    0.000
384.456; 1857.800;    0.000;    0.000
384.515; 1798.800;    0.000;    0.000
384.574; 1876.800;    0.000;    0.000
384.633; 1796.800;    0.000;    0.000
384.692; 1728.800;    0.000;    0.000
384.751; 1692.800;    0.000;    0.000
384.810; 1769.800;    0.000;    0.000
384.869; 1626.800;    0.000;    0.000
384.929; 1742.800;    0.000;    0.000
384.988; 1704.800;    0.000;    0.000
385.047; 1774.800;    0.000;    0.000
385.106; 1688.800;    0.000;    0.000
385.165; 1655.800;    0.000;    0.000
385.224; 1639.800;    0.000;    0.000
385.283; 1638.800;    0.000;    0.000
385.342; 1673.800;    0.000;    0.000
385.401; 1652.800;    0.000;    0.000
385.459; 1679.800;    0.000;    0.000
385.518; 1683.800;    0.000;    0.000
385.577; 1653.800;    0.000;    0.000
385.636; 1652.800;    0.000;    0.000
385.695; 1670.800;    0.000;    0.000
385.754; 1635.800;    0.000;    0.000
385.813; 1701.800;    0.000;    0.000
385.872; 1674.800;    0.000;    0.000
385.931; 1694.800;    0.000;    0.000
385.990; 1657.800;    0.000;    0.000
386.049; 1627.800;    0.000;    0.000
386.107; 1614.800;    0.000;    0.000
386.166; 1693.800;    0.000;    0.000
386.225; 1633.800;    0.000;    0.000
386.284; 1650.800;    0.000;    0.000
386.343; 1699.800;    0.000;    0.000
386.402; 1629.800;    0.000;    0.000
386.460; 1672.800;    0.000;    0.000
386.519; 1610.800;    0.000;    0.000
386.578; 1537.800;    0.000;    0.000
386.637; 1665.800;    0.000;    0.000
386.696; 1732.800;    0.000;    0.000
386.754; 1606.800;    0.000;    0.000
386.813; 1737.800;    0.000;    0.000
386.872; 1650.800;    0.000;    0.000
386.931; 1740.800;    0.000;    0.000
386.989; 1694.800;    0.000;    0.000
387.048; 1641.800;    0.000;    0.000
387.107; 1666.800;    0.000;    0.000
387.165; 1615.800;    0.000;    0.000
387.224; 1618.800;    0.000;    0.000
387.283; 1579.800;    0.000;    0.000
387.342; 1638.800;    0.000;    0.000
387.400; 1615.800;    0.000;    0.000
387.459; 1567.800;    0.000;    0.000
387.517; 1641.800;    0.000;    0.000
387.576; 1595.800;    0.000;    0.000
387.635; 1621.800;    0.000;    0.000
387.693; 1647.800;    0.000;    0.000
387.752; 1549.800;    0.000;    0.000
387.811; 1618.800;    0.000;    0.000
387.869; 1567.800;    0.000;    0.000
387.928; 1606.800;    0.000;    0.000
387.986; 1565.800;    0.000;    0.000
388.045; 1540.800;    0.000;    0.000
388.103; 1611.800;    0.000;    0.000
388.162; 1561.800;    0.000;    0.000
388.221; 1581.800;    0.000;    0.000
388.279; 1552.800;    0.000;    0.000
388.338; 1612.800;    0.000;    0.000
388.396; 1517.800;    0.000;    0.000
388.455; 1526.800;    0.000;    0.000
388.513; 1564.800;    0.000;    0.000
388.572; 1618.800;    0.000;    0.000
388.630; 1574.800;    0.000;    0.000
388.689; 1542.800;    0.000;    0.000
388.747; 1567.800;    0.000;    0.000
388.806; 1532.800;    0.000;    0.000
388.864; 1539.800;    0.000;    0.000
388.922; 1597.800;    0.000;    0.000
388.981; 1601.800;    0.000;    0.000
389.039; 1585.800;    0.000;    0.000
389.098; 1612.800;    0.000;    0.000
389.156; 1527.800;    0.000;    0.000
389.214; 1632.800;    0.000;    0.000
389.273; 1508.800;    0.000;    0.000
389.331; 1584.800;    0.000;    0.000
389.390; 1554.800;    0.000;    0.000
389.448; 1543.800;    0.000;    0.000
389.506; 1562.800;    0.000;    0.000
389.565; 1612.800;    0.000;    0.000
389.623; 1598.800;    0.000;    0.000
389.681; 1559.800;    0.000;    0.000
389.740; 1533.800;    0.000;    0.000
389.798; 1543.800;    0.000;    0.000
389.856; 1664.800;    0.000;    0.000
389.914; 1587.800;    0.000;    0.000
389.973; 1645.800;    0.000;    0.000
390.031; 1534.800;    0.000;    0.000
390.089; 1569.800;    0.000;    0.000
390.147; 1538.800;    0.000;    0.000
390.206; 1505.800;    0.000;    0.000
390.264; 1550.800;    0.000;    0.000
390.322; 1593.800;    0.000;    0.000
390.380; 1458.800;    0.000;    0.000
390.439; 1481.800;    0.000;    0.000
390.497; 1582.800;    0.000;    0.000
390.555; 1539.800;    0.000;    0.000
390.613; 1580.800;    0.000;    0.000
390.671; 1565.800;    0.000;    0.000
390.729; 1540.800;    0.000;    0.000
390.788; 1605.800;    0.000;    0.000
390.846; 1533.800;    0.000;    0.000
390.904; 1582.800;    0.000;    0.000
390.962; 1562.800;    0.000;    0.000
391.020; 1622.800;    0.000;    0.000
391.078; 1582.800;    0.000;    0.000
391.136; 1548.800;    0.000;    0.000
391.194; 1565.800;    0.000;    0.000
391.252; 1569.800;    0.000;    0.000
391.311; 1565.800;    0.000;    0.000
391.369; 1577.800;    0.000;    0.000
391.427; 1648.800;    0.000;    0.000
391.485; 1624.800;    0.000;    0.000
391.543; 1616.800;    0.000;    0.000
391.601; 1588.800;    0.000;    0.000
391.659; 1604.800;    0.000;    0.000
391.717; 1596.800;    0.000;    0.000
391.775; 1624.800;    0.000;    0.000
391.833; 1562.800;    0.000;    0.000
391.891; 1518.800;    0.000;    0.000
391.949; 1596.800;    0.000;    0.000
392.007; 1680.800;    0.000;    0.000
392.065; 1586.800;    0.000;    0.000
392.123; 1595.800;    0.000;    0.000
392.180; 1613.800;    0.000;    0.000
392.238; 1616.800;    0.000;    0.000
392.296; 1576.800;    0.000;    0.000
392.354; 1547.800;    0.000;    0.000
392.412; 1629.800;    0.000;    0.000
392.470; 1644.800;    0.000;    0.000
392.528; 1676.800;    0.000;    0.000
392.586; 1630.800;    0.000;    0.000
392.644; 1623.800;    0.000;    0.000
392.701; 1634.800;    0.000;    0.000
392.759; 1654.800;    0.000;    0.000
392.817; 1650.800;    0.000;    0.000
392.875; 1683.800;    0.000;    0.000
392.933; 1647.800;    0.000;    0.000
392.991; 1667.800;    0.000;    0.000
393.048; 1651.800;    0.000;    0.000
393.106; 1661.800;    0.000;    0.000
393.164; 1569.800;    0.000;    0.000
393.222; 1627.800;    0.000;    0.000
393.279; 1633.800;    0.000;    0.000
393.337; 1611.800;    0.000;    0.000
393.395; 1636.800;    0.000;    0.000
393.453; 1614.800;    0.000;    0.000
393.510; 1661.800;    0.000;    0.000
393.568; 1588.800;    0.000;    0.000
393.626; 1701.800;    0.000;    0.000
393.684; 1650.800;    0.000;    0.000
393.741; 1735.800;    0.000;    0.000
393.799; 1652.800;    0.000;    0.000
393.857; 1632.800;    0.000;    0.000
393.914; 1668.800;    0.000;    0.000
393.972; 1641.800;    0.000;    0.000
394.030; 1647.800;    0.000;    0.000
394.087; 1742.800;    0.000;    0.000
394.145; 1650.800;    0.000;    0.000
394.202; 1638.800;    0.000;    0.000
394.260; 1642.800;    0.000;    0.000
394.318; 1691.800;    0.000;    0.000
394.375; 1557.800;    0.000;    0.000
394.433; 1633.800;    0.000;    0.000
394.490; 1651.800;    0.000;    0.000
394.548; 1667.800;    0.000;    0.000
394.605; 1617.800;    0.000;    0.000
394.663; 1684.800;    0.000;    0.000
394.720; 1668.800;    0.000;    0.000
394.778; 1713.800;    0.000;    0.000
394.836; 1683.800;    0.000;    0.000
394.893; 1636.800;    0.000;    0.000
394.951; 1712.800;    0.000;    0.000
395.008; 1652.800;    0.000;    0.000
395.065; 1702.800;    0.000;    0.000
395.123; 1717.800;    0.000;    0.000
395.180; 1704.800;    0.000;    0.000
395.238; 1710.800;    0.000;    0.000
395.295; 1672.800;    0.000;    0.000
395.353; 1633.800;    0.000;    0.000
395.410; 1752.800;    0.000;    0.000
395.468; 1726.800;    0.000;    0.000
395.525; 1671.800;    0.000;    0.000
395.582; 1678.800;    0.000;    0.000
395.640; 1844.800;    0.000;    0.000
395.697; 1776.800;    0.000;    0.000
395.754; 1655.800;    0.000;    0.000
395.812; 1697.800;    0.000;    0.000
395.869; 1743.800;    0.000;    0.000
395.927; 1716.800;    0.000;    0.000
395.984; 1736.800;    0.000;    0.000
396.041; 1723.800;    0.000;    0.000
396.098; 1696.800;    0.000;    0.000
396.156; 1683.800;    0.000;    0.000
396.213; 1746.800;    0.000;    0.000
396.270; 1768.800;    0.000;    0.000
396.328; 1789.800;    0.000;    0.000
396.385; 1714.800;    0.000;    0.000
396.442; 1667.800;    0.000;    0.000
396.499; 1731.800;    0.000;    0.000
396.557; 1762.800;    0.000;    0.000
396.614; 1726.800;    0.000;    0.000
396.671; 1725.800;    0.000;    0.000
396.728; 1757.800;    0.000;    0.000
396.785; 1825.800;    0.000;    0.000
396.843; 1793.800;    0.000;    0.000
396.900; 1733.800;    0.000;    0.000
396.957; 1796.800;    0.000;    0.000
397.014; 1826.800;    0.000;    0.000
397.071; 1794.800;    0.000;    0.000
397.128; 1780.800;    0.000;    0.000
397.186; 1792.800;    0.000;    0.000
397.243; 1734.800;    0.000;    0.000
397.300; 1755.800;    0.000;    0.000
397.357; 1755.800;    0.000;    0.000
397.414; 1852.800;    0.000;    0.000
397.471; 1790.800;    0.000;    0.000
397.528; 1803.800;    0.000;    0.000
397.585; 1841.800;    0.000;    0.000
397.642; 1771.800;    0.000;    0.000
397.699; 1832.800;    0.000;    0.000
397.756; 1797.800;    0.000;    0.000
397.813; 1831.800;    0.000;    0.000
397.871; 1754.800;    0.000;    0.000
397.928; 1793.800;    0.000;    0.000
397.985; 1868.800;    0.000;    0.000
398.042; 1804.800;    0.000;    0.000
398.099; 1855.800;    0.000;    0.000
398.156; 1911.800;    0.000;    0.000
398.212; 1830.800;    0.000;    0.000
398.269; 1864.800;    0.000;    0.000
398.326; 1800.800;    0.000;    0.000
398.383; 1891.800;    0.000;    0.000
398.440; 1881.800;    0.000;    0.000
398.497; 1839.800;    0.000;    0.000
398.554; 1888.800;    0.000;    0.000
398.611; 1912.800;    0.000;    0.000
398.668; 1757.800;    0.000;    0.000
398.725; 1862.800;    0.000;    0.000
398.782; 1927.800;    0.000;    0.000
398.839; 1874.800;    0.000;    0.000
398.895; 1914.800;    0.000;    0.000
398.952; 1876.800;    0.000;    0.000
399.009; 1927.800;    0.000;    0.000
399.066; 1931.800;    0.000;    0.000
399.123; 1941.800;    0.000;    0.000
399.180; 1895.800;    0.000;    0.000
399.236; 1888.800;    0.000;    0.000
399.293; 1977.800;    0.000;    0.000
399.350; 1973.800;    0.000;    0.000
399.407; 2040.800;    0.000;    0.000
399.463; 2029.800;    0.000;    0.000
399.520; 1980.800;    0.000;    0.000
399.577; 2056.800;    0.000;    0.000
399.634; 1962.800;    0.000;    0.000
399.690; 2042.800;    0.000;    0.000
399.747; 2048.800;    0.000;    0.000
399.804; 2064.800;    0.000;    0.000
399.861; 2070.800;    0.000;    0.000
399.917; 2097.800;    0.000;    0.000
399.974; 2069.800;    0.000;    0.000
400.031; 2052.800;    0.000;    0.000
400.087; 2008.800;    0.000;    0.000
400.144; 2007.800;    0.000;    0.000
400.201; 2036.800;    0.000;    0.000
400.257; 1970.800;    0.000;    0.000
400.314; 1982.800;    0.000;    0.000
400.370; 2058.800;    0.000;    0.000
400.427; 1987.800;    0.000;    0.000
400.484; 1932.800;    0.000;    0.000
400.540; 1995.800;    0.000;    0.000
400.597; 1957.800;    0.000;    0.000
400.653; 1943.800;    0.000;    0.000
400.710; 2039.800;    0.000;    0.000
400.766; 2014.800;    0.000;    0.000
400.823; 2047.800;    0.000;    0.000
400.879; 1920.800;    0.000;    0.000
400.936; 1957.800;    0.000;    0.000
400.993; 2007.800;    0.000;    0.000
401.049; 1913.800;    0.000;    0.000
401.106; 2027.800;    0.000;    0.000
401.162; 2042.800;    0.000;    0.000
401.218; 1910.800;    0.000;    0.000
401.275; 1953.800;    0.000;    0.000
401.331; 1966.800;    0.000;    0.000
401.388; 2037.800;    0.000;    0.000
401.444; 1967.800;    0.000;    0.000
401.501; 2001.800;    0.000;    0.000
401.557; 1914.800;    0.000;    0.000
401.614; 1985.800;    0.000;    0.000
401.670; 1922.800;    0.000;    0.000
401.726; 2009.800;    0.000;    0.000
401.783; 1870.800;    0.000;    0.000
401.839; 1973.800;    0.000;    0.000
401.895; 2024.800;    0.000;    0.000
401.952; 1947.800;    0.000;    0.000
402.008; 1964.800;    0.000;    0.000
402.064; 1927.800;    0.000;    0.000
402.121; 2008.800;    0.000;    0.000
402.177; 1948.800;    0.000;    0.000
402.233; 2015.800;    0.000;    0.000
402.290; 2010.800;    0.000;    0.000
402.346; 1969.800;    0.000;    0.000
402.402; 1994.800;    0.000;    0.000
402.459; 1920.800;    0.000;    0.000
402.515; 1969.800;    0.000;    0.000
402.571; 1991.800;    0.000;    0.000
402.627; 1988.800;    0.000;    0.000
402.683; 1997.800;    0.000;    0.000
402.740; 1984.800;    0.000;    0.000
402.796; 1952.800;    0.000;    0.000
402.852; 1997.800;    0.000;    0.000
402.908; 1992.800;    0.000;    0.000
402.964; 2004.800;    0.000;    0.000
403.021; 2048.800;    0.000;    0.000
403.077; 2052.800;    0.000;    0.000
403.133; 1986.800;    0.000;    0.000
403.189; 2026.800;    0.000;    0.000
403.245; 1946.800;    0.000;    0.000
403.301; 2080.800;    0.000;    0.000
403.357; 2036.800;    0.000;    0.000
403.414; 2067.800;    0.000;    0.000
403.470; 2003.800;    0.000;    0.000
403.526; 2013.800;    0.000;    0.000
403.582; 2018.800;    0.000;    0.000
403.638; 2022.800;    0.000;    0.000
403.694; 2069.800;    0.000;    0.000
403.750; 2091.800;    0.000;    0.000
403.806; 2054.800;    0.000;    0.000
403.862; 2043.800;    0.000;    0.000
403.918; 2075.800;    0.000;    0.000
403.974; 2008.800;    0.000;    0.000
404.030; 2023.800;    0.000;    0.000
404.086; 2007.800;    0.000;    0.000
404.142; 2055.800;    0.000;    0.000
404.198; 2059.800;    0.000;    0.000
404.254; 2110.800;    0.000;    0.000
404.310; 2039.800;    0.000;    0.000
404.366; 2109.800;    0.000;    0.000
404.422; 2013.800;    0.000;    0.000
404.478; 1997.800;    0.000;    0.000
404.534; 2069.800;    0.000;    0.000
404.590; 2049.800;    0.000;    0.000
404.646; 2062.800;    0.000;    0.000
404.701; 2128.800;    0.000;    0.000
404.757; 2102.800;    0.000;    0.000
404.813; 2014.800;    0.000;    0.000
404.869; 2110.800;    0.000;    0.000
404.925; 2127.800;    0.000;    0.000
404.981; 2122.800;    0.000;    0.000
405.037; 2091.800;    0.000;    0.000
405.092; 2129.800;    0.000;    0.000
405.148; 2139.800;    0.000;    0.000
405.204; 2137.800;    0.000;    0.000
405.260; 2127.800;    0.000;    0.000
405.316; 2083.800;    0.000;    0.000
405.371; 2104.800;    0.000;    0.000
405.427; 2075.800;    0.000;    0.000
405.483; 2142.800;    0.000;    0.000
405.539; 2083.800;    0.000;    0.000
405.594; 2109.800;    0.000;    0.000
405.650; 2112.800;    0.000;    0.000
405.706; 2101.800;    0.000;    0.000
405.761; 2151.800;    0.000;    0.000
405.817; 2091.800;    0.000;    0.000
405.873; 2172.800;    0.000;    0.000
405.928; 2134.800;    0.000;    0.000
405.984; 2140.800;    0.000;    0.000
406.040; 2119.800;    0.000;    0.000
406.095; 2081.800;    0.000;    0.000
406.151; 2222.800;    0.000;    0.000
406.207; 2183.800;    0.000;    0.000
406.262; 2142.800;    0.000;    0.000
406.318; 2161.800;    0.000;    0.000
406.374; 2158.800;    0.000;    0.000
406.429; 2105.800;    0.000;    0.000
406.485; 2209.800;    0.000;    0.000
406.540; 2187.800;    0.000;    0.000
406.596; 2226.800;    0.000;    0.000
406.651; 2235.800;    0.000;    0.000
406.707; 2286.800;    0.000;    0.000
406.763; 2288.800;    0.000;    0.000
406.818; 2185.800;    0.000;    0.000
406.874; 2257.800;    0.000;    0.000
406.929; 2233.800;    0.000;    0.000
406.985; 2349.800;    0.000;    0.000
407.040; 2280.800;    0.000;    0.000
407.095; 2242.800;    0.000;    0.000
407.151; 2330.800;    0.000;    0.000
407.206; 2308.800;    0.000;    0.000
407.262; 2428.800;    0.000;    0.000
407.317; 2328.800;    0.000;    0.000
407.373; 2373.800;    0.000;    0.000
407.428; 2491.800;    0.000;    0.000
407.484; 2484.800;    0.000;    0.000
407.539; 2344.800;    0.000;    0.000
407.594; 2494.800;    0.000;    0.000
407.650; 2328.800;    0.000;    0.000
407.705; 2379.800;    0.000;    0.000
407.760; 2414.800;    0.000;    0.000
407.816; 2504.800;    0.000;    0.000
407.871; 2413.800;    0.000;    0.000
407.926; 2370.800;    0.000;    0.000
407.982; 2385.800;    0.000;    0.000
408.037; 2349.800;    0.000;    0.000
408.092; 2332.800;    0.000;    0.000
408.148; 2338.800;    0.000;    0.000
408.203; 2347.800;    0.000;    0.000
408.258; 2310.800;    0.000;    0.000
408.314; 2392.800;    0.000;    0.000
408.369; 2364.800;    0.000;    0.000
408.424; 2335.800;    0.000;    0.000
408.479; 2297.800;    0.000;    0.000
408.534; 2305.800;    0.000;    0.000
408.590; 2310.800;    0.000;    0.000
408.645; 2364.800;    0.000;    0.000
408.700; 2379.800;    0.000;    0.000
408.755; 2406.800;    0.000;    0.000
408.810; 2326.800;    0.000;    0.000
408.866; 2343.800;    0.000;    0.000
408.921; 2324.800;    0.000;    0.000
408.976; 2291.800;    0.000;    0.000
409.031; 2279.800;    0.000;    0.000
409.086; 2389.800;    0.000;    0.000
409.141; 2315.800;    0.000;    0.000
409.196; 2350.800;    0.000;    0.000
409.252; 2287.800;    0.000;    0.000
409.307; 2281.800;    0.000;    0.000
409.362; 2272.800;    0.000;    0.000
409.417; 2269.800;    0.000;    0.000
409.472; 2369.800;    0.000;    0.000
409.527; 2345.800;    0.000;    0.000
409.582; 2260.800;    0.000;    0.000
409.637; 2318.800;    0.000;    0.000
409.692; 2346.800;    0.000;    0.000
409.747; 2374.800;    0.000;    0.000
409.802; 2374.800;    0.000;    0.000
409.857; 2318.800;    0.000;    0.000
409.912; 2269.800;    0.000;    0.000
409.967; 2323.800;    0.000;    0.000
410.022; 2365.800;    0.000;    0.000
410.077; 2291.800;    0.000;    0.000
410.132; 2349.800;    0.000;    0.000
410.187; 2262.800;    0.000;    0.000
410.242; 2299.800;    0.000;    0.000
410.297; 2330.800;    0.000;    0.000
410.351; 2279.800;    0.000;    0.000
410.406; 2294.800;    0.000;    0.000
410.461; 2221.800;    0.000;    0.000
410.516; 2265.800;    0.000;    0.000
410.571; 2345.800;    0.000;    0.000
410.626; 2325.800;    0.000;    0.000
410.681; 2371.800;    0.000;    0.000
410.736; 2298.800;    0.000;    0.000
410.790; 2366.800;    0.000;    0.000
410.845; 2352.800;    0.000;    0.000
410.900; 2364.800;    0.000;    0.000
410.955; 2333.800;    0.000;    0.000
411.010; 2311.800;    0.000;    0.000
411.064; 2375.800;    0.000;    0.000
411.119; 2320.800;    0.000;    0.000
411.174; 2350.800;    0.000;    0.000
411.229; 2356.800;    0.000;    0.000
411.283; 2281.800;    0.000;    0.000
411.338; 2325.800;    0.000;    0.000
411.393; 2324.800;    0.000;    0.000
411.447; 2435.800;    0.000;    0.000
411.502; 2304.800;    0.000;    0.000
411.557; 2358.800;    0.000;    0.000
411.612; 2342.800;    0.000;    0.000
411.666; 2340.800;    0.000;    0.000
411.721; 2289.800;    0.000;    0.000
411.776; 2296.800;    0.000;    0.000
411.830; 2415.800;    0.000;    0.000
411.885; 2337.800;    0.000;    0.000
411.939; 2384.800;    0.000;    0.000
411.994; 2280.800;    0.000;    0.000
412.049; 2392.800;    0.000;    0.000
412.103; 2381.800;    0.000;    0.000
412.158; 2340.800;    0.000;    0.000
412.212; 2328.800;    0.000;    0.000
412.267; 2368.800;    0.000;    0.000
412.322; 2374.800;    0.000;    0.000
412.376; 2354.800;    0.000;    0.000
412.431; 2384.800;    0.000;    0.000
412.485; 2346.800;    0.000;    0.000
412.540; 2368.800;    0.000;    0.000
412.594; 2359.800;    0.000;    0.000
412.649; 2345.800;    0.000;    0.000
412.703; 2318.800;    0.000;    0.000
412.758; 2277.800;    0.000;    0.000
412.812; 2306.800;    0.000;    0.000
412.866; 2271.800;    0.000;    0.000
412.921; 2340.800;    0.000;    0.000
412.975; 2273.800;    0.000;    0.000
413.030; 2344.800;    0.000;    0.000
413.084; 2311.800;    0.000;    0.000
413.139; 2307.800;    0.000;    0.000
413.193; 2284.800;    0.000;    0.000
413.247; 2294.800;    0.000;    0.000
413.302; 2342.800;    0.000;    0.000
413.356; 2311.800;    0.000;    0.000
413.410; 2319.800;    0.000;    0.000
413.465; 2374.800;    0.000;    0.000
413.519; 2297.800;    0.000;    0.000
413.573; 2365.800;    0.000;    0.000
413.628; 2319.800;    0.000;    0.000
413.682; 2179.800;    0.000;    0.000
413.736; 2381.800;    0.000;    0.000
413.791; 2352.800;    0.000;    0.000
413.845; 2344.800;    0.000;    0.000
413.899; 2297.800;    0.000;    0.000
413.953; 2333.800;    0.000;    0.000
414.008; 2284.800;    0.000;    0.000
414.062; 2378.800;    0.000;    0.000
414.116; 2290.800;    0.000;    0.000
414.170; 2308.800;    0.000;    0.000
414.225; 2368.800;    0.000;    0.000
414.279; 2320.800;    0.000;    0.000
414.333; 2397.800;    0.000;    0.000
414.387; 2343.800;    0.000;    0.000
414.441; 2306.800;    0.000;    0.000
414.496; 2346.800;    0.000;    0.000
414.550; 2304.800;    0.000;    0.000
414.604; 2418.800;    0.000;    0.000
414.658; 2315.800;    0.000;    0.000
414.712; 2333.800;    0.000;    0.000
414.766; 2401.800;    0.000;    0.000
414.820; 2330.800;    0.000;    0.000
414.874; 2401.800;    0.000;    0.000
414.928; 2387.800;    0.000;    0.000
414.982; 2340.800;    0.000;    0.000
415.037; 2376.800;    0.000;    0.000
415.091; 2339.800;    0.000;    0.000
415.145; 2318.800;    0.000;    0.000
415.199; 2475.800;    0.000;    0.000
415.253; 2352.800;    0.000;    0.000
415.307; 2328.800;    0.000;    0.000
415.361; 2287.800;    0.000;    0.000
415.415; 2317.800;    0.000;    0.000
415.469; 2317.800;    0.000;    0.000
415.523; 2350.800;    0.000;    0.000
415.577; 2392.800;    0.000;    0.000
415.631; 2357.800;    0.000;    0.000
415.684; 2420.800;    0.000;    0.000
415.738; 2376.800;    0.000;    0.000
415.792; 2331.800;    0.000;    0.000
415.846; 2390.800;    0.000;    0.000
415.900; 2398.800;    0.000;    0.000
415.954; 2372.800;    0.000;    0.000
416.008; 2414.800;    0.000;    0.000
416.062; 2379.800;    0.000;    0.000
416.116; 2329.800;    0.000;    0.000
416.169; 2345.800;    0.000;    0.000
416.223; 2434.800;    0.000;    0.000
416.277; 2307.800;    0.000;    0.000
416.331; 2345.800;    0.000;    0.000
416.385; 2280.800;    0.000;    0.000
416.439; 2360.800;    0.000;    0.000
416.492; 2377.800;    0.000;    0.000
416.546; 2403.800;    0.000;    0.000
416.600; 2366.800;    0.000;    0.000
416.654; 2378.800;    0.000;    0.000
416.707; 2362.800;    0.000;    0.000
416.761; 2310.800;    0.000;    0.000
416.815; 2379.800;    0.000;    0.000
416.869; 2345.800;    0.000;    0.000
416.922; 2347.800;    0.000;    0.000
416.976; 2329.800;    0.000;    0.000
417.030; 2333.800;    0.000;    0.000
417.083; 2301.800;    0.000;    0.000
417.137; 2380.800;    0.000;    0.000
417.191; 2331.800;    0.000;    0.000
417.244; 2314.800;    0.000;    0.000
417.298; 2318.800;    0.000;    0.000
417.352; 2344.800;    0.000;    0.000
417.405; 2398.800;    0.000;    0.000
417.459; 2337.800;    0.000;    0.000
417.512; 2339.800;    0.000;    0.000
417.566; 2349.800;    0.000;    0.000
417.620; 2312.800;    0.000;    0.000
417.673; 2287.800;    0.000;    0.000
417.727; 2384.800;    0.000;    0.000
417.780; 2321.800;    0.000;    0.000
417.834; 2316.800;    0.000;    0.000
417.887; 2302.800;    0.000;    0.000
417.941; 2399.800;    0.000;    0.000
417.994; 2326.800;    0.000;    0.000
418.048; 2304.800;    0.000;    0.000
418.101; 2286.800;    0.000;    0.000
418.155; 2305.800;    0.000;    0.000
418.208; 2343.800;    0.000;    0.000
418.262; 2345.800;    0.000;    0.000
418.315; 2278.800;    0.000;    0.000
418.369; 2417.800;    0.000;    0.000
418.422; 2372.800;    0.000;    0.000
418.476; 2353.800;    0.000;    0.000
418.529; 2400.800;    0.000;    0.000
418.582; 2315.800;    0.000;    0.000
418.636; 2256.800;    0.000;    0.000
418.689; 2372.800;    0.000;    0.000
418.743; 2292.800;    0.000;    0.000
418.796; 2374.800;    0.000;    0.000
418.849; 2283.800;    0.000;    0.000
418.903; 2326.800;    0.000;    0.000
418.956; 2446.800;    0.000;    0.000
419.009; 2364.800;    0.000;    0.000
419.063; 2293.800;    0.000;    0.000
419.116; 2437.800;    0.000;    0.000
419.169; 2309.800;    0.000;    0.000
419.222; 2305.800;    0.000;    0.000
419.276; 2354.800;    0.000;    0.000
419.329; 2352.800;    0.000;    0.000
419.382; 2256.800;    0.000;    0.000
419.435; 2324.800;    0.000;    0.000
419.489; 2288.800;    0.000;    0.000
419.542; 2401.800;    0.000;    0.000
419.595; 2338.800;    0.000;    0.000
419.648; 2324.800;    0.000;    0.000
419.701; 2270.800;    0.000;    0.000
419.755; 2260.800;    0.000;    0.000
419.808; 2338.800;    0.000;    0.000
419.861; 2291.800;    0.000;    0.000
419.914; 2308.800;    0.000;    0.000
419.967; 2305.800;    0.000;    0.000
420.020; 2304.800;    0.000;    0.000
420.073; 2281.800;    0.000;    0.000
420.127; 2275.800;    0.000;    0.000
420.180; 2260.800;    0.000;    0.000
420.233; 2232.800;    0.000;    0.000
420.286; 2196.800;    0.000;    0.000
420.339; 2286.800;    0.000;    0.000
420.392; 2363.800;    0.000;    0.000
420.445; 2228.800;    0.000;    0.000
420.498; 2226.800;    0.000;    0.000
420.551; 2198.800;    0.000;    0.000
420.604; 2253.800;    0.000;    0.000
420.657; 2131.800;    0.000;    0.000
420.710; 2250.800;    0.000;    0.000
420.763; 2193.800;    0.000;    0.000
420.816; 2143.800;    0.000;    0.000
420.869; 2164.800;    0.000;    0.000
420.922; 2249.800;    0.000;    0.000
420.975; 2301.800;    0.000;    0.000
421.028; 2222.800;    0.000;    0.000
421.081; 2203.800;    0.000;    0.000
421.134; 2208.800;    0.000;    0.000
421.187; 2248.800;    0.000;    0.000
421.239; 2258.800;    0.000;    0.000
421.292; 2173.800;    0.000;    0.000
421.345; 2207.800;    0.000;    0.000
421.398; 2170.800;    0.000;    0.000
421.451; 2188.800;    0.000;    0.000
421.504; 2193.800;    0.000;    0.000
421.557; 2120.800;    0.000;    0.000
421.609; 2135.800;    0.000;    0.000
421.662; 2159.800;    0.000;    0.000
421.715; 2218.800;    0.000;    0.000
421.768; 2214.800;    0.000;    0.000
421.821; 2166.800;    0.000;    0.000
421.873; 2199.800;    0.000;    0.000
421.926; 2163.800;    0.000;    0.000
421.979; 2171.800;    0.000;    0.000
422.032; 2209.800;    0.000;    0.000
422.084; 2223.800;    0.000;    0.000
422.137; 2169.800;    0.000;    0.000
422.190; 2137.800;    0.000;    0.000
422.243; 2237.800;    0.000;    0.000
422.295; 2122.800;    0.000;    0.000
422.348; 2193.800;    0.000;    0.000
422.401; 2178.800;    0.000;    0.000
422.453; 2158.800;    0.000;    0.000
422.506; 2128.800;    0.000;    0.000
422.558; 2219.800;    0.000;    0.000
422.611; 2158.800;    0.000;    0.000
422.664; 2157.800;    0.000;    0.000
422.716; 2213.800;    0.000;    0.000
422.769; 2128.800;    0.000;    0.000
422.822; 2241.800;    0.000;    0.000
422.874; 2189.800;    0.000;    0.000
422.927; 2226.800;    0.000;    0.000
422.979; 2142.800;    0.000;    0.000
423.032; 2154.800;    0.000;    0.000
423.084; 2146.800;    0.000;    0.000
423.137; 2154.800;    0.000;    0.000
423.189; 2165.800;    0.000;    0.000
423.242; 2019.800;    0.000;    0.000
423.294; 2105.800;    0.000;    0.000
423.347; 2135.800;    0.000;    0.000
423.399; 2069.800;    0.000;    0.000
423.452; 2188.800;    0.000;    0.000
423.504; 2107.800;    0.000;    0.000
423.557; 2124.800;    0.000;    0.000
423.609; 2151.800;    0.000;    0.000
423.662; 2094.800;    0.000;    0.000
423.714; 2154.800;    0.000;    0.000
423.766; 2139.800;    0.000;    0.000
423.819; 2082.800;    0.000;    0.000
423.871; 2109.800;    0.000;    0.000
423.923; 2133.800;    0.000;    0.000
423.976; 2127.800;    0.000;    0.000
424.028; 2131.800;    0.000;    0.000
424.081; 2109.800;    0.000;    0.000
424.133; 2132.800;    0.000;    0.000
424.185; 2060.800;    0.000;    0.000
424.238; 2135.800;    0.000;    0.000
424.290; 2107.800;    0.000;    0.000
424.342; 2128.800;    0.000;    0.000
424.394; 2086.800;    0.000;    0.000
424.447; 2164.800;    0.000;    0.000
424.499; 2173.800;    0.000;    0.000
424.551; 2141.800;    0.000;    0.000
424.603; 2050.800;    0.000;    0.000
424.656; 2099.800;    0.000;    0.000
424.708; 2066.800;    0.000;    0.000
424.760; 2068.800;    0.000;    0.000
424.812; 2194.800;    0.000;    0.000
424.864; 2089.800;    0.000;    0.000
424.917; 2035.800;    0.000;    0.000
424.969; 2171.800;    0.000;    0.000
425.021; 2100.800;    0.000;    0.000
425.073; 2109.800;    0.000;    0.000
425.125; 2130.800;    0.000;    0.000
425.177; 2033.800;    0.000;    0.000
425.229; 2135.800;    0.000;    0.000
425.282; 2040.800;    0.000;    0.000
425.334; 2080.800;    0.000;    0.000
425.386; 2157.800;    0.000;    0.000
425.438; 2108.800;    0.000;    0.000
425.490; 1979.800;    0.000;    0.000
425.542; 2126.800;    0.000;    0.000
425.594; 2048.800;    0.000;    0.000
425.646; 2054.800;    0.000;    0.000
425.698; 2128.800;    0.000;    0.000
425.750; 2145.800;    0.000;    0.000
425.802; 2033.800;    0.000;    0.000
425.854; 2036.800;    0.000;    0.000
425.906; 2089.800;    0.000;    0.000
425.958; 2078.800;    0.000;    0.000
426.010; 2096.800;    0.000;    0.000
426.062; 2112.800;    0.000;    0.000
426.114; 2098.800;    0.000;    0.000
426.166; 2034.800;    0.000;    0.000
426.218; 2041.800;    0.000;    0.000
426.270; 2062.800;    0.000;    0.000
426.321; 2070.800;    0.000;    0.000
426.373; 2045.800;    0.000;    0.000
426.425; 2093.800;    0.000;    0.000
426.477; 2090.800;    0.000;    0.000
426.529; 2069.800;    0.000;    0.000
426.581; 2127.800;    0.000;    0.000
426.633; 2032.800;    0.000;    0.000
426.684; 2060.800;    0.000;    0.000
426.736; 2027.800;    0.000;    0.000
426.788; 1946.800;    0.000;    0.000
426.840; 2001.800;    0.000;    0.000
426.892; 2034.800;    0.000;    0.000
426.943; 1976.800;    0.000;    0.000
426.995; 1979.800;    0.000;    0.000
427.047; 1995.800;    0.000;    0.000
427.099; 2048.800;    0.000;    0.000
427.150; 2015.800;    0.000;    0.000
427.202; 2014.800;    0.000;    0.000
427.254; 1955.800;    0.000;    0.000
427.306; 1965.800;    0.000;    0.000
427.357; 2026.800;    0.000;    0.000
427.409; 2031.800;    0.000;    0.000
427.461; 1955.800;    0.000;    0.000
427.512; 1995.800;    0.000;    0.000
427.564; 1960.800;    0.000;    0.000
427.616; 1975.800;    0.000;    0.000
427.667; 1943.800;    0.000;    0.000
427.719; 2017.800;    0.000;    0.000
427.770; 1933.800;    0.000;    0.000
427.822; 2042.800;    0.000;    0.000
427.874; 1931.800;    0.000;    0.000
427.925; 2037.800;    0.000;    0.000
427.977; 1958.800;    0.000;    0.000
428.028; 1990.800;    0.000;    0.000
428.080; 1989.800;    0.000;    0.000
428.131; 2009.800;    0.000;    0.000
428.183; 2022.800;    0.000;    0.000
428.234; 1959.800;    0.000;    0.000
428.286; 2043.800;    0.000;    0.000
428.337; 1946.800;    0.000;    0.000
428.389; 1996.800;    0.000;    0.000
428.440; 2005.800;    0.000;    0.000
428.492; 2059.800;    0.000;    0.000
428.543; 1999.800;    0.000;    0.000
428.595; 1885.800;    0.000;    0.000
428.646; 2006.800;    0.000;    0.000
428.697; 1948.800;    0.000;    0.000
428.749; 1959.800;    0.000;    0.000
428.800; 2051.800;    0.000;    0.000
428.852; 1914.800;    0.000;    0.000
428.903; 1957.800;    0.000;    0.000
428.954; 1922.800;    0.000;    0.000
429.006; 1901.800;    0.000;    0.000
429.057; 1983.800;    0.000;    0.000
429.108; 1919.800;    0.000;    0.000
429.160; 1982.800;    0.000;    0.000
429.211; 1931.800;    0.000;    0.000
429.262; 1948.800;    0.000;    0.000
429.314; 1907.800;    0.000;    0.000
429.365; 1929.800;    0.000;    0.000
429.416; 1981.800;    0.000;    0.000
429.467; 1915.800;    0.000;    0.000
429.519; 1900.800;    0.000;    0.000
429.570; 1889.800;    0.000;    0.000
429.621; 1878.800;    0.000;    0.000
429.672; 1884.800;    0.000;    0.000
429.724; 1859.800;    0.000;    0.000
429.775; 1914.800;    0.000;    0.000
429.826; 1960.800;    0.000;    0.000
429.877; 1893.800;    0.000;    0.000
429.928; 1946.800;    0.000;    0.000
429.980; 1985.800;    0.000;    0.000
430.031; 1933.800;    0.000;    0.000
430.082; 1910.800;    0.000;    0.000
430.133; 1928.800;    0.000;    0.000
430.184; 1913.800;    0.000;    0.000
430.235; 1866.800;    0.000;    0.000
430.286; 1864.800;    0.000;    0.000
430.337; 1927.800;    0.000;    0.000
430.388; 1940.800;    0.000;    0.000
430.439; 1914.800;    0.000;    0.000
430.490; 1893.800;    0.000;    0.000
430.542; 1886.800;    0.000;    0.000
430.593; 1863.800;    0.000;    0.000
430.644; 1890.800;    0.000;    0.000
430.695; 1883.800;    0.000;    0.000
430.746; 1846.800;    0.000;    0.000
430.797; 1891.800;    0.000;    0.000
430.848; 1893.800;    0.000;    0.000
430.899; 1939.800;    0.000;    0.000
430.949; 1847.800;    0.000;    0.000
431.000; 1897.800;    0.000;    0.000
431.051; 1879.800;    0.000;    0.000
431.102; 1926.800;    0.000;    0.000
431.153; 1887.800;    0.000;    0.000
431.204; 1927.800;    0.000;    0.000
431.255; 1866.800;    0.000;    0.000
431.306; 1875.800;    0.000;    0.000
431.357; 1879.800;    0.000;    0.000
431.408; 1899.800;    0.000;    0.000
431.458; 1865.800;    0.000;    0.000
431.509; 1853.800;    0.000;    0.000
431.560; 1945.800;    0.000;    0.000
431.611; 1885.800;    0.000;    0.000
431.662; 1865.800;    0.000;    0.000
431.713; 1874.800;    0.000;    0.000
431.763; 1856.800;    0.000;    0.000
431.814; 1962.800;    0.000;    0.000
431.865; 1890.800;    0.000;    0.000
431.916; 1894.800;    0.000;    0.000
431.966; 1841.800;    0.000;    0.000
432.017; 1854.800;    0.000;    0.000
432.068; 2023.800;    0.000;    0.000
432.118; 1911.800;    0.000;    0.000
432.169; 1907.800;    0.000;    0.000
432.220; 1902.800;    0.000;    0.000
432.271; 1825.800;    0.000;    0.000
432.321; 1843.800;    0.000;    0.000
432.372; 2011.800;    0.000;    0.000
432.423; 1847.800;    0.000;    0.000
432.473; 1907.800;    0.000;    0.000
432.524; 1934.800;    0.000;    0.000
432.574; 1905.800;    0.000;    0.000
432.625; 1889.800;    0.000;    0.000
432.676; 1933.800;    0.000;    0.000
432.726; 1851.800;    0.000;    0.000
432.777; 1863.800;    0.000;    0.000
432.827; 1956.800;    0.000;    0.000
432.878; 1842.800;    0.000;    0.000
432.928; 1868.800;    0.000;    0.000
432.979; 1875.800;    0.000;    0.000
433.029; 1813.800;    0.000;    0.000
433.080; 1836.800;    0.000;    0.000
433.130; 1911.800;    0.000;    0.000
433.181; 1926.800;    0.000;    0.000
433.231; 1909.800;    0.000;    0.000
433.282; 1862.800;    0.000;    0.000
433.332; 1866.800;    0.000;    0.000
433.383; 1869.800;    0.000;    0.000
433.433; 1935.800;    0.000;    0.000
433.484; 1902.800;    0.000;    0.000
433.534; 1945.800;    0.000;    0.000
433.585; 1883.800;    0.000;    0.000
433.635; 1906.800;    0.000;    0.000
433.685; 1897.800;    0.000;    0.000
433.736; 1885.800;    0.000;    0.000
433.786; 1952.800;    0.000;    0.000
433.836; 1897.800;    0.000;    0.000
433.887; 1905.800;    0.000;    0.000
433.937; 1882.800;    0.000;    0.000
433.987; 1874.800;    0.000;    0.000
434.038; 1816.800;    0.000;    0.000
434.088; 1912.800;    0.000;    0.000
434.138; 1952.800;    0.000;    0.000
434.188; 1875.800;    0.000;    0.000
434.239; 1911.800;    0.000;    0.000
434.289; 1884.800;    0.000;    0.000
434.339; 1958.800;    0.000;    0.000
434.389; 1930.800;    0.000;    0.000
434.440; 1915.800;    0.000;    0.000
434.490; 1911.800;    0.000;    0.000
434.540; 1890.800;    0.000;    0.000
434.590; 1883.800;    0.000;    0.000
434.640; 1919.800;    0.000;    0.000
434.691; 1927.800;    0.000;    0.000
434.741; 1979.800;    0.000;    0.000
434.791; 1987.800;    0.000;    0.000
434.841; 1969.800;    0.000;    0.000
434.891; 1965.800;    0.000;    0.000
434.941; 2031.800;    0.000;    0.000
434.991; 1907.800;    0.000;    0.000
435.042; 1905.800;    0.000;    0.000
435.092; 1912.800;    0.000;    0.000
435.142; 1898.800;    0.000;    0.000
435.192; 1897.800;    0.000;    0.000
435.242; 1905.800;    0.000;    0.000
435.292; 1924.800;    0.000;    0.000
435.342; 1876.800;    0.000;    0.000
435.392; 1867.800;    0.000;    0.000
435.442; 1878.800;    0.000;    0.000
435.492; 1866.800;    0.000;    0.000
435.542; 1828.800;    0.000;    0.000
435.592; 1846.800;    0.000;    0.000
435.642; 1803.800;    0.000;    0.000
435.692; 1851.800;    0.000;    0.000
435.742; 1859.800;    0.000;    0.000
435.792; 1910.800;    0.000;    0.000
435.842; 1831.800;    0.000;    0.000
435.891; 1799.800;    0.000;    0.000
435.941; 1801.800;    0.000;    0.000
435.991; 1797.800;    0.000;    0.000
436.041; 1803.800;    0.000;    0.000
436.091; 1885.800;    0.000;    0.000
436.141; 1815.800;    0.000;    0.000
436.191; 1756.800;    0.000;    0.000
436.241; 1818.800;    0.000;    0.000
436.290; 1859.800;    0.000;    0.000
436.340; 1830.800;    0.000;    0.000
436.390; 1865.800;    0.000;    0.000
436.440; 1902.800;    0.000;    0.000
436.490; 1769.800;    0.000;    0.000
436.539; 1773.800;    0.000;    0.000
436.589; 1829.800;    0.000;    0.000
436.639; 1796.800;    0.000;    0.000
436.689; 1791.800;    0.000;    0.000
436.738; 1846.800;    0.000;    0.000
436.788; 1840.800;    0.000;    0.000
436.838; 1794.800;    0.000;    0.000
436.887; 1922.800;    0.000;    0.000
436.937; 1823.800;    0.000;    0.000
436.987; 1807.800;    0.000;    0.000
437.036; 1888.800;    0.000;    0.000
437.086; 1829.800;    0.000;    0.000
437.136; 1779.800;    0.000;    0.000
437.185; 1831.800;    0.000;    0.000
437.235; 1837.800;    0.000;    0.000
437.285; 1756.800;    0.000;    0.000
437.334; 1776.800;    0.000;    0.000
437.384; 1823.800;    0.000;    0.000
437.433; 1801.800;    0.000;    0.000
437.483; 1816.800;    0.000;    0.000
437.532; 1846.800;    0.000;    0.000
437.582; 1820.800;    0.000;    0.000
437.631; 1775.800;    0.000;    0.000
437.681; 1860.800;    0.000;    0.000
437.731; 1758.800;    0.000;    0.000
437.780; 1741.800;    0.000;    0.000
437.829; 1804.800;    0.000;    0.000
437.879; 1731.800;    0.000;    0.000
437.928; 1802.800;    0.000;    0.000
437.978; 1811.800;    0.000;    0.000
438.027; 1768.800;    0.000;    0.000
438.077; 1770.800;    0.000;    0.000
438.126; 1725.800;    0.000;    0.000
438.176; 1721.800;    0.000;    0.000
438.225; 1763.800;    0.000;    0.000
438.274; 1744.800;    0.000;    0.000
438.324; 1767.800;    0.000;    0.000
438.373; 1720.800;    0.000;    0.000
438.422; 1712.800;    0.000;    0.000
438.472; 1697.800;    0.000;    0.000
438.521; 1714.800;    0.000;    0.000
438.571; 1707.800;    0.000;    0.000
438.620; 1826.800;    0.000;    0.000
438.669; 1710.800;    0.000;    0.000
438.718; 1736.800;    0.000;    0.000
438.768; 1689.800;    0.000;    0.000
438.817; 1761.800;    0.000;    0.000
438.866; 1721.800;    0.000;    0.000
438.915; 1759.800;    0.000;    0.000
438.965; 1694.800;    0.000;    0.000
439.014; 1724.800;    0.000;    0.000
439.063; 1720.800;    0.000;    0.000
439.112; 1772.800;    0.000;    0.000
439.162; 1827.800;    0.000;    0.000
439.211; 1769.800;    0.000;    0.000
439.260; 1730.800;    0.000;    0.000
439.309; 1778.800;    0.000;    0.000
439.358; 1790.800;    0.000;    0.000
439.407; 1729.800;    0.000;    0.000
439.456; 1720.800;    0.000;    0.000
439.506; 1767.800;    0.000;    0.000
439.555; 1769.800;    0.000;    0.000
439.604; 1741.800;    0.000;    0.000
439.653; 1744.800;    0.000;    0.000
439.702; 1804.800;    0.000;    0.000
439.751; 1731.800;    0.000;    0.000
439.800; 1684.800;    0.000;    0.000
439.849; 1648.800;    0.000;    0.000
439.898; 1736.800;    0.000;    0.000
439.947; 1750.800;    0.000;    0.000
439.996; 1701.800;    0.000;    0.000
440.045; 1820.800;    0.000;    0.000
440.094; 1794.800;    0.000;    0.000
440.143; 1788.800;    0.000;    0.000
440.192; 1797.800;    0.000;    0.000
440.241; 1780.800;    0.000;    0.000
440.290; 1766.800;    0.000;    0.000
440.339; 1685.800;    0.000;    0.000
440.388; 1794.800;    0.000;    0.000
440.437; 1736.800;    0.000;    0.000
440.486; 1752.800;    0.000;    0.000
440.535; 1793.800;    0.000;    0.000
440.583; 1766.800;    0.000;    0.000
440.632; 1747.800;    0.000;    0.000
440.681; 1754.800;    0.000;    0.000
440.730; 1768.800;    0.000;    0.000
440.779; 1690.800;    0.000;    0.000
440.828; 1793.800;    0.000;    0.000
440.876; 1735.800;    0.000;    0.000
440.925; 1735.800;    0.000;    0.000
440.974; 1736.800;    0.000;    0.000
441.023; 1833.800;    0.000;    0.000
441.072; 1814.800;    0.000;    0.000
441.120; 1803.800;    0.000;    0.000
441.169; 1827.800;    0.000;    0.000
441.218; 1782.800;    0.000;    0.000
441.267; 1842.800;    0.000;    0.000
441.315; 1805.800;    0.000;    0.000
441.364; 1865.800;    0.000;    0.000
441.413; 1799.800;    0.000;    0.000
441.461; 1777.800;    0.000;    0.000
441.510; 1777.800;    0.000;    0.000
441.559; 1834.800;    0.000;    0.000
441.607; 1840.800;    0.000;    0.000
441.656; 1793.800;    0.000;    0.000
441.705; 1836.800;    0.000;    0.000
441.753; 1864.800;    0.000;    0.000
441.802; 1849.800;    0.000;    0.000
441.850; 1882.800;    0.000;    0.000
441.899; 1856.800;    0.000;    0.000
441.948; 1844.800;    0.000;    0.000
441.996; 1814.800;    0.000;    0.000
442.045; 1834.800;    0.000;    0.000
442.093; 1865.800;    0.000;    0.000
442.142; 1894.800;    0.000;    0.000
442.190; 1800.800;    0.000;    0.000
442.239; 1837.800;    0.000;    0.000
442.287; 1819.800;    0.000;    0.000
442.336; 1850.800;    0.000;    0.000
442.384; 1765.800;    0.000;    0.000
442.433; 1888.800;    0.000;    0.000
442.481; 1790.800;    0.000;    0.000
442.529; 1735.800;    0.000;    0.000
442.578; 1875.800;    0.000;    0.000
442.626; 1778.800;    0.000;    0.000
442.675; 1782.800;    0.000;    0.000
442.723; 1855.800;    0.000;    0.000
442.771; 1829.800;    0.000;    0.000
442.820; 1907.800;    0.000;    0.000
442.868; 1735.800;    0.000;    0.000
442.917; 1809.800;    0.000;    0.000
442.965; 1859.800;    0.000;    0.000
443.013; 1826.800;    0.000;    0.000
443.062; 1871.800;    0.000;    0.000
443.110; 1729.800;    0.000;    0.000
443.158; 1774.800;    0.000;    0.000
443.206; 1775.800;    0.000;    0.000
443.255; 1813.800;    0.000;    0.000
443.303; 1871.800;    0.000;    0.000
443.351; 1758.800;    0.000;    0.000
443.399; 1849.800;    0.000;    0.000
443.448; 1887.800;    0.000;    0.000
443.496; 1916.800;    0.000;    0.000
443.544; 1823.800;    0.000;    0.000
443.592; 1881.800;    0.000;    0.000
443.640; 1864.800;    0.000;    0.000
443.689; 1847.800;    0.000;    0.000
443.737; 1830.800;    0.000;    0.000
443.785; 1875.800;    0.000;    0.000
443.833; 1884.800;    0.000;    0.000
443.881; 1902.800;    0.000;    0.000
443.929; 1931.800;    0.000;    0.000
443.977; 1851.800;    0.000;    0.000
444.025; 1875.800;    0.000;    0.000
444.074; 1898.800;    0.000;    0.000
444.122; 1881.800;    0.000;    0.000
444.170; 1909.800;    0.000;    0.000
444.218; 1899.800;    0.000;    0.000
444.266; 1915.800;    0.000;    0.000
444.314; 1911.800;    0.000;    0.000
444.362; 1938.800;    0.000;    0.000
444.410; 1898.800;    0.000;    0.000
444.458; 1991.800;    0.000;    0.000
444.506; 1915.800;    0.000;    0.000
444.554; 1957.800;    0.000;    0.000
444.602; 1889.800;    0.000;    0.000
444.650; 1981.800;    0.000;    0.000
444.698; 1915.800;    0.000;    0.000
444.746; 1839.800;    0.000;    0.000
444.793; 1932.800;    0.000;    0.000
444.841; 1980.800;    0.000;    0.000
444.889; 2028.800;    0.000;    0.000
444.937; 1895.800;    0.000;    0.000
444.985; 1931.800;    0.000;    0.000
445.033; 1928.800;    0.000;    0.000
445.081; 1930.800;    0.000;    0.000
445.129; 1910.800;    0.000;    0.000
445.176; 1925.800;    0.000;    0.000
445.224; 1925.800;    0.000;    0.000
445.272; 1886.800;    0.000;    0.000
445.320; 1929.800;    0.000;    0.000
445.368; 1913.800;    0.000;    0.000
445.415; 1958.800;    0.000;    0.000
445.463; 1846.800;    0.000;    0.000
445.511; 1955.800;    0.000;    0.000
445.559; 1970.800;    0.000;    0.000
445.606; 1928.800;    0.000;    0.000
445.654; 1965.800;    0.000;    0.000
445.702; 1961.800;    0.000;    0.000
445.749; 2005.800;    0.000;    0.000
445.797; 1937.800;    0.000;    0.000
445.845; 1886.800;    0.000;    0.000
445.892; 2000.800;    0.000;    0.000
445.940; 1920.800;    0.000;    0.000
445.988; 1904.800;    0.000;    0.000
446.035; 1960.800;    0.000;    0.000
446.083; 1979.800;    0.000;    0.000
446.131; 1894.800;    0.000;    0.000
446.178; 1870.800;    0.000;    0.000
446.226; 1930.800;    0.000;    0.000
446.273; 1980.800;    0.000;    0.000
446.321; 1963.800;    0.000;    0.000
446.368; 2003.800;    0.000;    0.000
446.416; 1923.800;    0.000;    0.000
446.463; 1999.800;    0.000;    0.000
446.511; 2048.800;    0.000;    0.000
446.558; 1865.800;    0.000;    0.000
446.606; 1967.800;    0.000;    0.000
446.653; 2025.800;    0.000;    0.000
446.701; 2081.800;    0.000;    0.000
446.748; 2020.800;    0.000;    0.000
446.796; 2014.800;    0.000;    0.000
446.843; 2091.800;    0.000;    0.000
446.891; 2024.800;    0.000;    0.000
446.938; 2030.800;    0.000;    0.000
446.985; 2042.800;    0.000;    0.000
447.033; 2073.800;    0.000;    0.000
447.080; 2095.800;    0.000;    0.000
447.128; 2088.800;    0.000;    0.000
447.175; 2125.800;    0.000;    0.000
447.222; 2093.800;    0.000;    0.000
447.270; 2130.800;    0.000;    0.000
447.317; 2197.800;    0.000;    0.000
447.364; 2118.800;    0.000;    0.000
447.411; 2218.800;    0.000;    0.000
447.459; 2184.800;    0.000;    0.000
447.506; 2195.800;    0.000;    0.000
447.553; 2176.800;    0.000;    0.000
447.601; 2209.800;    0.000;    0.000
447.648; 2295.800;    0.000;    0.000
447.695; 2218.800;    0.000;    0.000
447.742; 2399.800;    0.000;    0.000
447.789; 2352.800;    0.000;    0.000
447.837; 2364.800;    0.000;    0.000
447.884; 2441.800;    0.000;    0.000
447.931; 2455.800;    0.000;    0.000
447.978; 2447.800;    0.000;    0.000
448.025; 2486.800;    0.000;    0.000
448.072; 2454.800;    0.000;    0.000
448.120; 2482.800;    0.000;    0.000
448.167; 2453.800;    0.000;    0.000
448.214; 2375.800;    0.000;    0.000
448.261; 2289.800;    0.000;    0.000
448.308; 2373.800;    0.000;    0.000
448.355; 2407.800;    0.000;    0.000
448.402; 2440.800;    0.000;    0.000
448.449; 2291.800;    0.000;    0.000
448.496; 2266.800;    0.000;    0.000
448.543; 2326.800;    0.000;    0.000
448.590; 2333.800;    0.000;    0.000
448.637; 2182.800;    0.000;    0.000
448.684; 2155.800;    0.000;    0.000
448.731; 2189.800;    0.000;    0.000
448.778; 2061.800;    0.000;    0.000
448.825; 2132.800;    0.000;    0.000
448.872; 2069.800;    0.000;    0.000
448.919; 2069.800;    0.000;    0.000
448.966; 2092.800;    0.000;    0.000
449.013; 2136.800;    0.000;    0.000
449.060; 2076.800;    0.000;    0.000
449.107; 2030.800;    0.000;    0.000
449.154; 2102.800;    0.000;    0.000
449.200; 2024.800;    0.000;    0.000
449.247; 2014.800;    0.000;    0.000
449.294; 2008.800;    0.000;    0.000
449.341; 2031.800;    0.000;    0.000
449.388; 1935.800;    0.000;    0.000
449.435; 1918.800;    0.000;    0.000
449.481; 2029.800;    0.000;    0.000
449.528; 1990.800;    0.000;    0.000
449.575; 2025.800;    0.000;    0.000
449.622; 1985.800;    0.000;    0.000
449.668; 1871.800;    0.000;    0.000
449.715; 1962.800;    0.000;    0.000
449.762; 1971.800;    0.000;    0.000
449.809; 1932.800;    0.000;    0.000
449.855; 1940.800;    0.000;    0.000
449.902; 1923.800;    0.000;    0.000
449.949; 1863.800;    0.000;    0.000
449.995; 1891.800;    0.000;    0.000
450.042; 1862.800;    0.000;    0.000
450.089; 1958.800;    0.000;    0.000
450.135; 1861.800;    0.000;    0.000
450.182; 1933.800;    0.000;    0.000
450.229; 1851.800;    0.000;    0.000
450.275; 1883.800;    0.000;    0.000
450.322; 1809.800;    0.000;    0.000
450.368; 1808.800;    0.000;    0.000
450.415; 1858.800;    0.000;    0.000
450.462; 1893.800;    0.000;    0.000
450.508; 1837.800;    0.000;    0.000
450.555; 1906.800;    0.000;    0.000
450.601; 1820.800;    0.000;    0.000
450.648; 1807.800;    0.000;    0.000
450.694; 1882.800;    0.000;    0.000
450.741; 1884.800;    0.000;    0.000
450.787; 1817.800;    0.000;    0.000
450.834; 1792.800;    0.000;    0.000
450.880; 1733.800;    0.000;    0.000
450.927; 1863.800;    0.000;    0.000
450.973; 1820.800;    0.000;    0.000
451.019; 1796.800;    0.000;    0.000
451.066; 1802.800;    0.000;    0.000
451.112; 1846.800;    0.000;    0.000
451.159; 1789.800;    0.000;    0.000
451.205; 1780.800;    0.000;    0.000
451.251; 1766.800;    0.000;    0.000
451.298; 1853.800;    0.000;    0.000
451.344; 1795.800;    0.000;    0.000
451.390; 1752.800;    0.000;    0.000
451.437; 1810.800;    0.000;    0.000
451.483; 1791.800;    0.000;    0.000
451.529; 1790.800;    0.000;    0.000
451.576; 1795.800;    0.000;    0.000
451.622; 1758.800;    0.000;    0.000
451.668; 1717.800;    0.000;    0.000
451.714; 1823.800;    0.000;    0.000
451.761; 1703.800;    0.000;    0.000
451.807; 1741.800;    0.000;    0.000
451.853; 1793.800;    0.000;    0.000
451.899; 1794.800;    0.000;    0.000
451.945; 1693.800;    0.000;    0.000
451.992; 1731.800;    0.000;    0.000
452.038; 1678.800;    0.000;    0.000
452.084; 1774.800;    0.000;    0.000
452.130; 1789.800;    0.000;    0.000
452.176; 1742.800;    0.000;    0.000
452.222; 1733.800;    0.000;    0.000
452.268; 1755.800;    0.000;    0.000
452.315; 1795.800;    0.000;    0.000
452.361; 1764.800;    0.000;    0.000
452.407; 1753.800;    0.000;    0.000
452.453; 1676.800;    0.000;    0.000
452.499; 1735.800;    0.000;    0.000
452.545; 1693.800;    0.000;    0.000
452.591; 1718.800;    0.000;    0.000
452.637; 1710.800;    0.000;    0.000
452.683; 1668.800;    0.000;    0.000
452.729; 1715.800;    0.000;    0.000
452.775; 1742.800;    0.000;    0.000
452.821; 1743.800;    0.000;    0.000
452.867; 1741.800;    0.000;    0.000
452.913; 1726.800;    0.000;    0.000
452.959; 1711.800;    0.000;    0.000
453.005; 1765.800;    0.000;    0.000
453.051; 1735.800;    0.000;    0.000
453.097; 1780.800;    0.000;    0.000
453.142; 1705.800;    0.000;    0.000
453.188; 1735.800;    0.000;    0.000
453.234; 1636.800;    0.000;    0.000
453.280; 1629.800;    0.000;    0.000
453.326; 1674.800;    0.000;    0.000
453.372; 1670.800;    0.000;    0.000
453.418; 1701.800;    0.000;    0.000
453.463; 1652.800;    0.000;    0.000
453.509; 1692.800;    0.000;    0.000
453.555; 1739.800;    0.000;    0.000
453.601; 1653.800;    0.000;    0.000
453.647; 1698.800;    0.000;    0.000
453.692; 1678.800;    0.000;    0.000
453.738; 1730.800;    0.000;    0.000
453.784; 1647.800;    0.000;    0.000
453.829; 1672.800;    0.000;    0.000
453.875; 1729.800;    0.000;    0.000
453.921; 1659.800;    0.000;    0.000
453.967; 1639.800;    0.000;    0.000
454.012; 1699.800;    0.000;    0.000
454.058; 1682.800;    0.000;    0.000
454.104; 1660.800;    0.000;    0.000
454.149; 1679.800;    0.000;    0.000
454.195; 1595.800;    0.000;    0.000
454.240; 1675.800;    0.000;    0.000
454.286; 1695.800;    0.000;    0.000
454.332; 1714.800;    0.000;    0.000
454.377; 1637.800;    0.000;    0.000
454.423; 1655.800;    0.000;    0.000
454.468; 1641.800;    0.000;    0.000
454.514; 1661.800;    0.000;    0.000
454.559; 1709.800;    0.000;    0.000
454.605; 1678.800;    0.000;    0.000
454.650; 1617.800;    0.000;    0.000
454.696; 1710.800;    0.000;    0.000
454.741; 1684.800;    0.000;    0.000
454.787; 1630.800;    0.000;    0.000
454.832; 1613.800;    0.000;    0.000
454.878; 1648.800;    0.000;    0.000
454.923; 1691.800;    0.000;    0.000
454.969; 1712.800;    0.000;    0.000
455.014; 1721.800;    0.000;    0.000
455.060; 1694.800;    0.000;    0.000
455.105; 1736.800;    0.000;    0.000
455.150; 1711.800;    0.000;    0.000
455.196; 1698.800;    0.000;    0.000
455.241; 1656.800;    0.000;    0.000
455.286; 1691.800;    0.000;    0.000
455.332; 1670.800;    0.000;    0.000
455.377; 1681.800;    0.000;    0.000
455.422; 1675.800;    0.000;    0.000
455.468; 1684.800;    0.000;    0.000
455.513; 1655.800;    0.000;    0.000
455.558; 1665.800;    0.000;    0.000
455.604; 1748.800;    0.000;    0.000
455.649; 1695.800;    0.000;    0.000
455.694; 1628.800;    0.000;    0.000
455.739; 1749.800;    0.000;    0.000
455.785; 1660.800;    0.000;    0.000
455.830; 1708.800;    0.000;    0.000
455.875; 1679.800;    0.000;    0.000
455.920; 1646.800;    0.000;    0.000
455.965; 1618.800;    0.000;    0.000
456.010; 1626.800;    0.000;    0.000
456.056; 1678.800;    0.000;    0.000
456.101; 1615.800;    0.000;    0.000
456.146; 1649.800;    0.000;    0.000
456.191; 1687.800;    0.000;    0.000
456.236; 1619.800;    0.000;    0.000
456.281; 1587.800;    0.000;    0.000
456.326; 1691.800;    0.000;    0.000
456.371; 1630.800;    0.000;    0.000
456.416; 1635.800;    0.000;    0.000
456.461; 1693.800;    0.000;    0.000
456.506; 1657.800;    0.000;    0.000
456.552; 1713.800;    0.000;    0.000
456.597; 1691.800;    0.000;    0.000
456.642; 1679.800;    0.000;    0.000
456.687; 1694.800;    0.000;    0.000
456.732; 1686.800;    0.000;    0.000
456.776; 1708.800;    0.000;    0.000
456.821; 1711.800;    0.000;    0.000
456.866; 1689.800;    0.000;    0.000
456.911; 1677.800;    0.000;    0.000
456.956; 1649.800;    0.000;    0.000
457.001; 1614.800;    0.000;    0.000
457.046; 1691.800;    0.000;    0.000
457.091; 1658.800;    0.000;    0.000
457.136; 1660.800;    0.000;    0.000
457.181; 1730.800;    0.000;    0.000
457.225; 1747.800;    0.000;    0.000
457.270; 1617.800;    0.000;    0.000
457.315; 1687.800;    0.000;    0.000
457.360; 1622.800;    0.000;    0.000
457.405; 1643.800;    0.000;    0.000
457.450; 1661.800;    0.000;    0.000
457.494; 1772.800;    0.000;    0.000
457.539; 1693.800;    0.000;    0.000
457.584; 1645.800;    0.000;    0.000
457.629; 1665.800;    0.000;    0.000
457.673; 1640.800;    0.000;    0.000
457.718; 1578.800;    0.000;    0.000
457.763; 1676.800;    0.000;    0.000
457.807; 1738.800;    0.000;    0.000
457.852; 1668.800;    0.000;    0.000
457.897; 1674.800;    0.000;    0.000
457.941; 1737.800;    0.000;    0.000
457.986; 1684.800;    0.000;    0.000
458.031; 1725.800;    0.000;    0.000
458.075; 1720.800;    0.000;    0.000
458.120; 1697.800;    0.000;    0.000
458.165; 1682.800;    0.000;    0.000
458.209; 1674.800;    0.000;    0.000
458.254; 1690.800;    0.000;    0.000
458.298; 1778.800;    0.000;    0.000
458.343; 1746.800;    0.000;    0.000
458.387; 1761.800;    0.000;    0.000
458.432; 1805.800;    0.000;    0.000
458.476; 1765.800;    0.000;    0.000
458.521; 1761.800;    0.000;    0.000
458.565; 1751.800;    0.000;    0.000
458.610; 1758.800;    0.000;    0.000
458.654; 1670.800;    0.000;    0.000
458.699; 1756.800;    0.000;    0.000
458.743; 1798.800;    0.000;    0.000
458.788; 1817.800;    0.000;    0.000
458.832; 1829.800;    0.000;    0.000
458.877; 1785.800;    0.000;    0.000
458.921; 1708.800;    0.000;    0.000
458.965; 1771.800;    0.000;    0.000
459.010; 1836.800;    0.000;    0.000
459.054; 1786.800;    0.000;    0.000
459.098; 1834.800;    0.000;    0.000
459.143; 1800.800;    0.000;    0.000
459.187; 1697.800;    0.000;    0.000
459.231; 1720.800;    0.000;    0.000
459.276; 1775.800;    0.000;    0.000
459.320; 1803.800;    0.000;    0.000
459.364; 1868.800;    0.000;    0.000
459.409; 1760.800;    0.000;    0.000
459.453; 1816.800;    0.000;    0.000
459.497; 1831.800;    0.000;    0.000
459.541; 1741.800;    0.000;    0.000
459.586; 1848.800;    0.000;    0.000
459.630; 1828.800;    0.000;    0.000
459.674; 1844.800;    0.000;    0.000
459.718; 1775.800;    0.000;    0.000
459.762; 1800.800;    0.000;    0.000
459.807; 1930.800;    0.000;    0.000
459.851; 1772.800;    0.000;    0.000
459.895; 1786.800;    0.000;    0.000
459.939; 1829.800;    0.000;    0.000
459.983; 1842.800;    0.000;    0.000
460.027; 1873.800;    0.000;    0.000
460.071; 1806.800;    0.000;    0.000
460.115; 1807.800;    0.000;    0.000
460.159; 1864.800;    0.000;    0.000
460.204; 1765.800;    0.000;    0.000
460.248; 1820.800;    0.000;    0.000
460.292; 1841.800;    0.000;    0.000
460.336; 1803.800;    0.000;    0.000
460.380; 1788.800;    0.000;    0.000
460.424; 1828.800;    0.000;    0.000
460.468; 1892.800;    0.000;    0.000
460.512; 1862.800;    0.000;    0.000
460.556; 1855.800;    0.000;    0.000
460.600; 1884.800;    0.000;    0.000
460.643; 1874.800;    0.000;    0.000
460.687; 1792.800;    0.000;    0.000
460.731; 1835.800;    0.000;    0.000
460.775; 1845.800;    0.000;    0.000
460.819; 1820.800;    0.000;    0.000
460.863; 1841.800;    0.000;    0.000
460.907; 1876.800;    0.000;    0.000
460.951; 1809.800;    0.000;    0.000
460.995; 1884.800;    0.000;    0.000
461.038; 1828.800;    0.000;    0.000
461.082; 1946.800;    0.000;    0.000
461.126; 1842.800;    0.000;    0.000
461.170; 1816.800;    0.000;    0.000
461.214; 1816.800;    0.000;    0.000
461.257; 1938.800;    0.000;    0.000
461.301; 1909.800;    0.000;    0.000
461.345; 1835.800;    0.000;    0.000
461.389; 1834.800;    0.000;    0.000
461.432; 1892.800;    0.000;    0.000
461.476; 1817.800;    0.000;    0.000
461.520; 1872.800;    0.000;    0.000
461.563; 1879.800;    0.000;    0.000
461.607; 1863.800;    0.000;    0.000
461.651; 1828.800;    0.000;    0.000
461.694; 1920.800;    0.000;    0.000
461.738; 1880.800;    0.000;    0.000
461.782; 1839.800;    0.000;    0.000
461.825; 1805.800;    0.000;    0.000
461.869; 1918.800;    0.000;    0.000
461.913; 1898.800;    0.000;    0.000
461.956; 1854.800;    0.000;    0.000
462.000; 1919.800;    0.000;    0.000
462.043; 1844.800;    0.000;    0.000
462.087; 1917.800;    0.000;    0.000
462.130; 1967.800;    0.000;    0.000
462.174; 1897.800;    0.000;    0.000
462.217; 1959.800;    0.000;    0.000
462.261; 2006.800;    0.000;    0.000
462.304; 1836.800;    0.000;    0.000
462.348; 1907.800;    0.000;    0.000
462.391; 1942.800;    0.000;    0.000
462.435; 2029.800;    0.000;    0.000
462.478; 1913.800;    0.000;    0.000
462.522; 1956.800;    0.000;    0.000
462.565; 1937.800;    0.000;    0.000
462.608; 1959.800;    0.000;    0.000
462.652; 1944.800;    0.000;    0.000
462.695; 2004.800;    0.000;    0.000
462.739; 1972.800;    0.000;    0.000
462.782; 2066.800;    0.000;    0.000
462.825; 2029.800;    0.000;    0.000
462.869; 1986.800;    0.000;    0.000
462.912; 2008.800;    0.000;    0.000
462.955; 2118.800;    0.000;    0.000
462.998; 1961.800;    0.000;    0.000
463.042; 2036.800;    0.000;    0.000
463.085; 2023.800;    0.000;    0.000
463.128; 2098.800;    0.000;    0.000
463.172; 1949.800;    0.000;    0.000
463.215;  354.800;    0.000;    0.000
463.258;  342.800;    0.000;    0.000
463.301;  307.800;    0.000;    0.000
463.344;  311.800;    0.000;    0.000
463.388;  326.800;    0.000;    0.000
463.431;  293.800;    0.000;    0.000
463.474;  345.800;    0.000;    0.000
463.517;  303.800;    0.000;    0.000
463.560;  301.800;    0.000;    0.000
463.603;  323.800;    0.000;    0.000
463.646;  298.800;    0.000;    0.000
463.690;  292.800;    0.000;    0.000
463.733;  313.800;    0.000;    0.000
463.776;  306.800;    0.000;    0.000
463.819;  349.800;    0.000;    0.000
463.862;  281.800;    0.000;    0.000

