M14_test_35us_n5
Integration time [ms]:   0.500
Averaging Nr. [scans]: 1
Smoothing Nr. [pixels]: 0
Data measured with spectrometer [name]: VIS
Wave   ;Sample   ;Dark     ;Reference
[nm]   ;[counts] ;[counts] ;[counts] 

450.961;  184.200;    0.000;    0.000
451.100;  209.200;    0.000;    0.000
451.239;  222.200;    0.000;    0.000
451.377;  275.200;    0.000;    0.000
451.516;  234.200;    0.000;    0.000
451.655;  215.200;    0.000;    0.000
451.794;  239.200;    0.000;    0.000
451.932;  224.200;    0.000;    0.000
452.071;  216.200;    0.000;    0.000
452.210;  244.200;    0.000;    0.000
452.348;  242.200;    0.000;    0.000
452.487;  242.200;    0.000;    0.000
452.626;  197.200;    0.000;    0.000
452.764;  213.200;    0.000;    0.000
452.903;  251.200;    0.000;    0.000
453.042;  260.200;    0.000;    0.000
453.180; 1770.200;    0.000;    0.000
453.319; 1861.200;    0.000;    0.000
453.458; 1807.200;    0.000;    0.000
453.596; 1726.200;    0.000;    0.000
453.735; 1839.200;    0.000;    0.000
453.873; 1890.200;    0.000;    0.000
454.012; 1851.200;    0.000;    0.000
454.150; 1888.200;    0.000;    0.000
454.289; 1948.200;    0.000;    0.000
454.427; 1914.200;    0.000;    0.000
454.566; 1974.200;    0.000;    0.000
454.705; 1972.200;    0.000;    0.000
454.843; 1925.200;    0.000;    0.000
454.981; 2031.200;    0.000;    0.000
455.120; 1998.200;    0.000;    0.000
455.258; 1962.200;    0.000;    0.000
455.397; 2087.200;    0.000;    0.000
455.535; 1939.200;    0.000;    0.000
455.674; 2056.200;    0.000;    0.000
455.812; 2074.200;    0.000;    0.000
455.950; 2160.200;    0.000;    0.000
456.089; 2008.200;    0.000;    0.000
456.227; 2118.200;    0.000;    0.000
456.366; 2267.200;    0.000;    0.000
456.504; 2190.200;    0.000;    0.000
456.642; 2189.200;    0.000;    0.000
456.781; 2183.200;    0.000;    0.000
456.919; 2252.200;    0.000;    0.000
457.057; 2168.200;    0.000;    0.000
457.196; 2430.200;    0.000;    0.000
457.334; 2407.200;    0.000;    0.000
457.472; 2392.200;    0.000;    0.000
457.610; 2507.200;    0.000;    0.000
457.749; 2497.200;    0.000;    0.000
457.887; 2458.200;    0.000;    0.000
458.025; 2404.200;    0.000;    0.000
458.163; 2483.200;    0.000;    0.000
458.301; 2570.200;    0.000;    0.000
458.440; 2573.200;    0.000;    0.000
458.578; 2404.200;    0.000;    0.000
458.716; 2655.200;    0.000;    0.000
458.854; 2684.200;    0.000;    0.000
458.992; 2534.200;    0.000;    0.000
459.130; 2825.200;    0.000;    0.000
459.269; 2693.200;    0.000;    0.000
459.407; 2782.200;    0.000;    0.000
459.545; 2775.200;    0.000;    0.000
459.683; 2818.200;    0.000;    0.000
459.821; 2813.200;    0.000;    0.000
459.959; 2791.200;    0.000;    0.000
460.097; 2952.200;    0.000;    0.000
460.235; 3008.200;    0.000;    0.000
460.373; 3002.200;    0.000;    0.000
460.511; 2993.200;    0.000;    0.000
460.649; 2880.200;    0.000;    0.000
460.787; 3091.200;    0.000;    0.000
460.925; 2939.200;    0.000;    0.000
461.063; 3130.200;    0.000;    0.000
461.201; 3035.200;    0.000;    0.000
461.339; 3077.200;    0.000;    0.000
461.477; 3008.200;    0.000;    0.000
461.615; 3102.200;    0.000;    0.000
461.753; 3096.200;    0.000;    0.000
461.891; 3116.200;    0.000;    0.000
462.029; 3243.200;    0.000;    0.000
462.166; 3187.200;    0.000;    0.000
462.304; 3296.200;    0.000;    0.000
462.442; 3273.200;    0.000;    0.000
462.580; 3431.200;    0.000;    0.000
462.718; 3298.200;    0.000;    0.000
462.856; 3294.200;    0.000;    0.000
462.993; 3485.200;    0.000;    0.000
463.131; 3415.200;    0.000;    0.000
463.269; 3540.200;    0.000;    0.000
463.407; 3248.200;    0.000;    0.000
463.545; 3260.200;    0.000;    0.000
463.682; 3373.200;    0.000;    0.000
463.820; 3480.200;    0.000;    0.000
463.958; 3511.200;    0.000;    0.000
464.095; 3463.200;    0.000;    0.000
464.233; 3501.200;    0.000;    0.000
464.371; 3703.200;    0.000;    0.000
464.509; 3563.200;    0.000;    0.000
464.646; 3548.200;    0.000;    0.000
464.784; 3476.200;    0.000;    0.000
464.921; 3369.200;    0.000;    0.000
465.059; 3448.200;    0.000;    0.000
465.197; 3458.200;    0.000;    0.000
465.334; 3465.200;    0.000;    0.000
465.472; 3427.200;    0.000;    0.000
465.609; 3253.200;    0.000;    0.000
465.747; 3299.200;    0.000;    0.000
465.885; 3198.200;    0.000;    0.000
466.022; 3163.200;    0.000;    0.000
466.160; 3176.200;    0.000;    0.000
466.297; 3187.200;    0.000;    0.000
466.435; 3140.200;    0.000;    0.000
466.572; 3290.200;    0.000;    0.000
466.710; 3240.200;    0.000;    0.000
466.847; 3133.200;    0.000;    0.000
466.985; 3150.200;    0.000;    0.000
467.122; 3139.200;    0.000;    0.000
467.260; 3168.200;    0.000;    0.000
467.397; 3073.200;    0.000;    0.000
467.534; 3153.200;    0.000;    0.000
467.672; 3080.200;    0.000;    0.000
467.809; 3154.200;    0.000;    0.000
467.947; 3067.200;    0.000;    0.000
468.084; 3045.200;    0.000;    0.000
468.221; 3127.200;    0.000;    0.000
468.359; 3049.200;    0.000;    0.000
468.496; 3134.200;    0.000;    0.000
468.633; 3178.200;    0.000;    0.000
468.771; 3003.200;    0.000;    0.000
468.908; 3196.200;    0.000;    0.000
469.045; 3119.200;    0.000;    0.000
469.183; 3198.200;    0.000;    0.000
469.320; 3260.200;    0.000;    0.000
469.457; 3350.200;    0.000;    0.000
469.594; 3299.200;    0.000;    0.000
469.732; 3270.200;    0.000;    0.000
469.869; 3360.200;    0.000;    0.000
470.006; 3345.200;    0.000;    0.000
470.143; 3318.200;    0.000;    0.000
470.280; 3124.200;    0.000;    0.000
470.417; 3298.200;    0.000;    0.000
470.555; 3435.200;    0.000;    0.000
470.692; 3445.200;    0.000;    0.000
470.829; 3394.200;    0.000;    0.000
470.966; 3451.200;    0.000;    0.000
471.103; 3392.200;    0.000;    0.000
471.240; 3428.200;    0.000;    0.000
471.377; 3363.200;    0.000;    0.000
471.514; 3430.200;    0.000;    0.000
471.651; 3308.200;    0.000;    0.000
471.789; 3343.200;    0.000;    0.000
471.926; 3263.200;    0.000;    0.000
472.063; 3312.200;    0.000;    0.000
472.200; 3268.200;    0.000;    0.000
472.337; 3349.200;    0.000;    0.000
472.474; 3292.200;    0.000;    0.000
472.611; 3288.200;    0.000;    0.000
472.748; 3255.200;    0.000;    0.000
472.884; 3307.200;    0.000;    0.000
473.021; 3227.200;    0.000;    0.000
473.158; 3169.200;    0.000;    0.000
473.295; 3145.200;    0.000;    0.000
473.432; 3158.200;    0.000;    0.000
473.569; 3152.200;    0.000;    0.000
473.706; 3172.200;    0.000;    0.000
473.843; 3237.200;    0.000;    0.000
473.980; 3217.200;    0.000;    0.000
474.117; 3140.200;    0.000;    0.000
474.253; 3259.200;    0.000;    0.000
474.390; 3349.200;    0.000;    0.000
474.527; 3231.200;    0.000;    0.000
474.664; 3301.200;    0.000;    0.000
474.801; 3169.200;    0.000;    0.000
474.937; 3152.200;    0.000;    0.000
475.074; 3181.200;    0.000;    0.000
475.211; 3258.200;    0.000;    0.000
475.348; 3267.200;    0.000;    0.000
475.484; 3321.200;    0.000;    0.000
475.621; 3245.200;    0.000;    0.000
475.758; 3407.200;    0.000;    0.000
475.894; 3346.200;    0.000;    0.000
476.031; 3238.200;    0.000;    0.000
476.168; 3367.200;    0.000;    0.000
476.304; 3295.200;    0.000;    0.000
476.441; 3288.200;    0.000;    0.000
476.578; 3424.200;    0.000;    0.000
476.714; 3200.200;    0.000;    0.000
476.851; 3322.200;    0.000;    0.000
476.987; 3344.200;    0.000;    0.000
477.124; 3473.200;    0.000;    0.000
477.261; 3447.200;    0.000;    0.000
477.397; 3433.200;    0.000;    0.000
477.534; 3438.200;    0.000;    0.000
477.670; 3551.200;    0.000;    0.000
477.807; 3541.200;    0.000;    0.000
477.943; 3222.200;    0.000;    0.000
478.080; 3629.200;    0.000;    0.000
478.216; 3426.200;    0.000;    0.000
478.353; 3546.200;    0.000;    0.000
478.489; 3533.200;    0.000;    0.000
478.626; 3470.200;    0.000;    0.000
478.762; 3493.200;    0.000;    0.000
478.898; 3502.200;    0.000;    0.000
479.035; 3566.200;    0.000;    0.000
479.171; 3693.200;    0.000;    0.000
479.308; 3504.200;    0.000;    0.000
479.444; 3555.200;    0.000;    0.000
479.580; 3726.200;    0.000;    0.000
479.717; 3582.200;    0.000;    0.000
479.853; 3619.200;    0.000;    0.000
479.989; 3537.200;    0.000;    0.000
480.126; 3672.200;    0.000;    0.000
480.262; 3784.200;    0.000;    0.000
480.398; 3688.200;    0.000;    0.000
480.535; 3606.200;    0.000;    0.000
480.671; 3621.200;    0.000;    0.000
480.807; 3597.200;    0.000;    0.000
480.943; 3681.200;    0.000;    0.000
481.080; 3627.200;    0.000;    0.000
481.216; 3702.200;    0.000;    0.000
481.352; 3649.200;    0.000;    0.000
481.488; 3533.200;    0.000;    0.000
481.624; 3457.200;    0.000;    0.000
481.761; 3550.200;    0.000;    0.000
481.897; 3606.200;    0.000;    0.000
482.033; 3497.200;    0.000;    0.000
482.169; 3537.200;    0.000;    0.000
482.305; 3703.200;    0.000;    0.000
482.441; 3480.200;    0.000;    0.000
482.577; 3590.200;    0.000;    0.000
482.713; 3651.200;    0.000;    0.000
482.849; 3581.200;    0.000;    0.000
482.985; 3574.200;    0.000;    0.000
483.121; 3555.200;    0.000;    0.000
483.257; 3602.200;    0.000;    0.000
483.394; 3332.200;    0.000;    0.000
483.530; 3487.200;    0.000;    0.000
483.666; 3536.200;    0.000;    0.000
483.801; 3436.200;    0.000;    0.000
483.937; 3646.200;    0.000;    0.000
484.073; 3667.200;    0.000;    0.000
484.209; 3686.200;    0.000;    0.000
484.345; 3593.200;    0.000;    0.000
484.481; 3555.200;    0.000;    0.000
484.617; 3582.200;    0.000;    0.000
484.753; 3554.200;    0.000;    0.000
484.889; 3662.200;    0.000;    0.000
485.025; 3705.200;    0.000;    0.000
485.161; 3562.200;    0.000;    0.000
485.296; 3752.200;    0.000;    0.000
485.432; 3564.200;    0.000;    0.000
485.568; 3714.200;    0.000;    0.000
485.704; 3529.200;    0.000;    0.000
485.840; 3612.200;    0.000;    0.000
485.975; 3529.200;    0.000;    0.000
486.111; 3693.200;    0.000;    0.000
486.247; 3594.200;    0.000;    0.000
486.383; 3707.200;    0.000;    0.000
486.518; 3665.200;    0.000;    0.000
486.654; 3759.200;    0.000;    0.000
486.790; 3645.200;    0.000;    0.000
486.926; 3492.200;    0.000;    0.000
487.061; 3634.200;    0.000;    0.000
487.197; 3655.200;    0.000;    0.000
487.333; 3670.200;    0.000;    0.000
487.468; 3701.200;    0.000;    0.000
487.604; 3705.200;    0.000;    0.000
487.739; 3646.200;    0.000;    0.000
487.875; 3628.200;    0.000;    0.000
488.011; 3798.200;    0.000;    0.000
488.146; 3713.200;    0.000;    0.000
488.282; 3743.200;    0.000;    0.000
488.417; 3724.200;    0.000;    0.000
488.553; 3661.200;    0.000;    0.000
488.688; 3764.200;    0.000;    0.000
488.824; 3601.200;    0.000;    0.000
488.960; 3702.200;    0.000;    0.000
489.095; 3697.200;    0.000;    0.000
489.230; 3763.200;    0.000;    0.000
489.366; 3783.200;    0.000;    0.000
489.501; 3661.200;    0.000;    0.000
489.637; 3644.200;    0.000;    0.000
489.772; 3719.200;    0.000;    0.000
489.908; 3564.200;    0.000;    0.000
490.043; 3804.200;    0.000;    0.000
490.179; 3763.200;    0.000;    0.000
490.314; 3715.200;    0.000;    0.000
490.449; 3938.200;    0.000;    0.000
490.585; 3799.200;    0.000;    0.000
490.720; 3777.200;    0.000;    0.000
490.855; 3676.200;    0.000;    0.000
490.991; 3582.200;    0.000;    0.000
491.126; 3702.200;    0.000;    0.000
491.261; 3574.200;    0.000;    0.000
491.396; 3567.200;    0.000;    0.000
491.532; 3601.200;    0.000;    0.000
491.667; 3638.200;    0.000;    0.000
491.802; 3792.200;    0.000;    0.000
491.937; 3694.200;    0.000;    0.000
492.073; 3772.200;    0.000;    0.000
492.208; 3823.200;    0.000;    0.000
492.343; 3812.200;    0.000;    0.000
492.478; 3793.200;    0.000;    0.000
492.613; 3814.200;    0.000;    0.000
492.749; 3881.200;    0.000;    0.000
492.884; 3812.200;    0.000;    0.000
493.019; 3933.200;    0.000;    0.000
493.154; 3797.200;    0.000;    0.000
493.289; 3758.200;    0.000;    0.000
493.424; 3631.200;    0.000;    0.000
493.559; 3833.200;    0.000;    0.000
493.694; 3663.200;    0.000;    0.000
493.829; 3759.200;    0.000;    0.000
493.964; 3916.200;    0.000;    0.000
494.099; 3862.200;    0.000;    0.000
494.234; 3671.200;    0.000;    0.000
494.369; 3760.200;    0.000;    0.000
494.504; 3814.200;    0.000;    0.000
494.639; 3833.200;    0.000;    0.000
494.774; 3722.200;    0.000;    0.000
494.909; 3710.200;    0.000;    0.000
495.044; 3695.200;    0.000;    0.000
495.179; 3730.200;    0.000;    0.000
495.314; 3759.200;    0.000;    0.000
495.449; 3856.200;    0.000;    0.000
495.584; 3868.200;    0.000;    0.000
495.719; 3932.200;    0.000;    0.000
495.854; 3844.200;    0.000;    0.000
495.988; 3814.200;    0.000;    0.000
496.123; 3709.200;    0.000;    0.000
496.258; 3875.200;    0.000;    0.000
496.393; 3931.200;    0.000;    0.000
496.528; 3829.200;    0.000;    0.000
496.663; 3984.200;    0.000;    0.000
496.797; 3953.200;    0.000;    0.000
496.932; 3800.200;    0.000;    0.000
497.067; 4056.200;    0.000;    0.000
497.202; 4017.200;    0.000;    0.000
497.336; 4041.200;    0.000;    0.000
497.471; 3989.200;    0.000;    0.000
497.606; 4163.200;    0.000;    0.000
497.740; 4171.200;    0.000;    0.000
497.875; 4233.200;    0.000;    0.000
498.010; 4163.200;    0.000;    0.000
498.144; 4293.200;    0.000;    0.000
498.279; 4108.200;    0.000;    0.000
498.414; 4462.200;    0.000;    0.000
498.548; 4475.200;    0.000;    0.000
498.683; 4442.200;    0.000;    0.000
498.817; 4649.200;    0.000;    0.000
498.952; 4803.200;    0.000;    0.000
499.087; 4904.200;    0.000;    0.000
499.221; 5206.200;    0.000;    0.000
499.356; 5344.200;    0.000;    0.000
499.490; 5253.200;    0.000;    0.000
499.625; 5190.200;    0.000;    0.000
499.759; 5511.200;    0.000;    0.000
499.894; 5484.200;    0.000;    0.000
500.028; 5837.200;    0.000;    0.000
500.162; 6169.200;    0.000;    0.000
500.297; 5968.200;    0.000;    0.000
500.431; 6236.200;    0.000;    0.000
500.566; 5995.200;    0.000;    0.000
500.700; 5971.200;    0.000;    0.000
500.835; 5977.200;    0.000;    0.000
500.969; 5733.200;    0.000;    0.000
501.103; 5667.200;    0.000;    0.000
501.238; 5468.200;    0.000;    0.000
501.372; 5216.200;    0.000;    0.000
501.506; 5319.200;    0.000;    0.000
501.641; 5071.200;    0.000;    0.000
501.775; 4806.200;    0.000;    0.000
501.909; 4661.200;    0.000;    0.000
502.043; 4851.200;    0.000;    0.000
502.178; 4658.200;    0.000;    0.000
502.312; 4554.200;    0.000;    0.000
502.446; 4588.200;    0.000;    0.000
502.580; 4429.200;    0.000;    0.000
502.715; 4214.200;    0.000;    0.000
502.849; 4264.200;    0.000;    0.000
502.983; 4218.200;    0.000;    0.000
503.117; 4267.200;    0.000;    0.000
503.251; 4261.200;    0.000;    0.000
503.385; 4132.200;    0.000;    0.000
503.520; 4031.200;    0.000;    0.000
503.654; 3910.200;    0.000;    0.000
503.788; 3908.200;    0.000;    0.000
503.922; 3839.200;    0.000;    0.000
504.056; 4033.200;    0.000;    0.000
504.190; 4024.200;    0.000;    0.000
504.324; 3880.200;    0.000;    0.000
504.458; 3793.200;    0.000;    0.000
504.592; 3790.200;    0.000;    0.000
504.726; 3679.200;    0.000;    0.000
504.860; 3623.200;    0.000;    0.000
504.994; 3681.200;    0.000;    0.000
505.128; 3557.200;    0.000;    0.000
505.262; 3458.200;    0.000;    0.000
505.396; 3374.200;    0.000;    0.000
505.530; 3526.200;    0.000;    0.000
505.664; 3385.200;    0.000;    0.000
505.798; 3457.200;    0.000;    0.000
505.932; 3326.200;    0.000;    0.000
506.066; 3164.200;    0.000;    0.000
506.199; 3380.200;    0.000;    0.000
506.333; 3319.200;    0.000;    0.000
506.467; 3301.200;    0.000;    0.000
506.601; 2990.200;    0.000;    0.000
506.735; 3193.200;    0.000;    0.000
506.869; 3193.200;    0.000;    0.000
507.002; 3086.200;    0.000;    0.000
507.136; 3233.200;    0.000;    0.000
507.270; 3058.200;    0.000;    0.000
507.404; 3101.200;    0.000;    0.000
507.537; 2983.200;    0.000;    0.000
507.671; 3106.200;    0.000;    0.000
507.805; 3103.200;    0.000;    0.000
507.939; 3038.200;    0.000;    0.000
508.072; 2999.200;    0.000;    0.000
508.206; 2884.200;    0.000;    0.000
508.340; 2966.200;    0.000;    0.000
508.473; 2958.200;    0.000;    0.000
508.607; 2926.200;    0.000;    0.000
508.740; 2946.200;    0.000;    0.000
508.874; 3021.200;    0.000;    0.000
509.008; 3008.200;    0.000;    0.000
509.141; 2712.200;    0.000;    0.000
509.275; 2816.200;    0.000;    0.000
509.408; 2844.200;    0.000;    0.000
509.542; 3019.200;    0.000;    0.000
509.675; 2895.200;    0.000;    0.000
509.809; 2989.200;    0.000;    0.000
509.942; 2849.200;    0.000;    0.000
510.076; 2913.200;    0.000;    0.000
510.209; 2798.200;    0.000;    0.000
510.343; 2962.200;    0.000;    0.000
510.476; 2927.200;    0.000;    0.000
510.610; 2769.200;    0.000;    0.000
510.743; 2759.200;    0.000;    0.000
510.877; 2808.200;    0.000;    0.000
511.010; 2872.200;    0.000;    0.000
511.143; 2974.200;    0.000;    0.000
511.277; 2833.200;    0.000;    0.000
511.410; 2808.200;    0.000;    0.000
511.543; 2807.200;    0.000;    0.000
511.677; 2805.200;    0.000;    0.000
511.810; 2754.200;    0.000;    0.000
511.943; 2739.200;    0.000;    0.000
512.077; 2731.200;    0.000;    0.000
512.210; 2820.200;    0.000;    0.000
512.343; 2769.200;    0.000;    0.000
512.476; 2790.200;    0.000;    0.000
512.610; 2866.200;    0.000;    0.000
512.743; 2832.200;    0.000;    0.000
512.876; 2647.200;    0.000;    0.000
513.009; 2859.200;    0.000;    0.000
513.142; 2758.200;    0.000;    0.000
513.276; 2698.200;    0.000;    0.000
513.409; 2887.200;    0.000;    0.000
513.542; 2894.200;    0.000;    0.000
513.675; 2724.200;    0.000;    0.000
513.808; 2826.200;    0.000;    0.000
513.941; 2672.200;    0.000;    0.000
514.074; 2868.200;    0.000;    0.000
514.207; 2876.200;    0.000;    0.000
514.340; 2765.200;    0.000;    0.000
514.474; 2744.200;    0.000;    0.000
514.607; 2849.200;    0.000;    0.000
514.740; 2687.200;    0.000;    0.000
514.873; 2673.200;    0.000;    0.000
515.006; 2771.200;    0.000;    0.000
515.139; 2759.200;    0.000;    0.000
515.272; 2943.200;    0.000;    0.000
515.404; 2720.200;    0.000;    0.000
515.537; 2815.200;    0.000;    0.000
515.670; 2936.200;    0.000;    0.000
515.803; 2916.200;    0.000;    0.000
515.936; 2980.200;    0.000;    0.000
516.069; 2803.200;    0.000;    0.000
516.202; 3000.200;    0.000;    0.000
516.335; 3073.200;    0.000;    0.000
516.468; 3121.200;    0.000;    0.000
516.600; 3343.200;    0.000;    0.000
516.733; 3808.200;    0.000;    0.000
516.866; 3879.200;    0.000;    0.000
516.999; 3993.200;    0.000;    0.000
517.132; 4035.200;    0.000;    0.000
517.264; 5156.200;    0.000;    0.000
517.397; 5613.200;    0.000;    0.000
517.530; 4896.200;    0.000;    0.000
517.663; 4275.200;    0.000;    0.000
517.795; 4008.200;    0.000;    0.000
517.928; 3927.200;    0.000;    0.000
518.061; 3773.200;    0.000;    0.000
518.193; 4239.200;    0.000;    0.000
518.326; 5538.200;    0.000;    0.000
518.459; 6517.200;    0.000;    0.000
518.591; 5582.200;    0.000;    0.000
518.724; 4785.200;    0.000;    0.000
518.857; 4314.200;    0.000;    0.000
518.989; 3902.200;    0.000;    0.000
519.122; 3661.200;    0.000;    0.000
519.254; 3476.200;    0.000;    0.000
519.387; 3491.200;    0.000;    0.000
519.519; 3194.200;    0.000;    0.000
519.652; 3188.200;    0.000;    0.000
519.784; 3063.200;    0.000;    0.000
519.917; 3135.200;    0.000;    0.000
520.049; 3046.200;    0.000;    0.000
520.182; 2894.200;    0.000;    0.000
520.314; 2981.200;    0.000;    0.000
520.447; 2878.200;    0.000;    0.000
520.579; 2810.200;    0.000;    0.000
520.712; 2928.200;    0.000;    0.000
520.844; 2826.200;    0.000;    0.000
520.976; 2755.200;    0.000;    0.000
521.109; 2666.200;    0.000;    0.000
521.241; 2864.200;    0.000;    0.000
521.373; 2837.200;    0.000;    0.000
521.506; 2700.200;    0.000;    0.000
521.638; 2750.200;    0.000;    0.000
521.770; 2550.200;    0.000;    0.000
521.903; 2589.200;    0.000;    0.000
522.035; 2613.200;    0.000;    0.000
522.167; 2543.200;    0.000;    0.000
522.300; 2480.200;    0.000;    0.000
522.432; 2622.200;    0.000;    0.000
522.564; 2437.200;    0.000;    0.000
522.696; 2665.200;    0.000;    0.000
522.828; 2468.200;    0.000;    0.000
522.961; 2535.200;    0.000;    0.000
523.093; 2440.200;    0.000;    0.000
523.225; 2599.200;    0.000;    0.000
523.357; 2449.200;    0.000;    0.000
523.489; 2621.200;    0.000;    0.000
523.621; 2488.200;    0.000;    0.000
523.753; 2293.200;    0.000;    0.000
523.886; 2420.200;    0.000;    0.000
524.018; 2327.200;    0.000;    0.000
524.150; 2395.200;    0.000;    0.000
524.282; 2491.200;    0.000;    0.000
524.414; 2367.200;    0.000;    0.000
524.546; 2407.200;    0.000;    0.000
524.678; 2366.200;    0.000;    0.000
524.810; 2268.200;    0.000;    0.000
524.942; 2390.200;    0.000;    0.000
525.074; 2316.200;    0.000;    0.000
525.206; 2340.200;    0.000;    0.000
525.338; 2398.200;    0.000;    0.000
525.470; 2375.200;    0.000;    0.000
525.601; 2280.200;    0.000;    0.000
525.733; 2307.200;    0.000;    0.000
525.865; 2271.200;    0.000;    0.000
525.997; 2356.200;    0.000;    0.000
526.129; 2174.200;    0.000;    0.000
526.261; 2231.200;    0.000;    0.000
526.393; 2280.200;    0.000;    0.000
526.524; 2366.200;    0.000;    0.000
526.656; 2097.200;    0.000;    0.000
526.788; 2300.200;    0.000;    0.000
526.920; 2278.200;    0.000;    0.000
527.052; 2235.200;    0.000;    0.000
527.183; 2334.200;    0.000;    0.000
527.315; 2249.200;    0.000;    0.000
527.447; 2381.200;    0.000;    0.000
527.578; 2204.200;    0.000;    0.000
527.710; 2154.200;    0.000;    0.000
527.842; 2208.200;    0.000;    0.000
527.973; 2315.200;    0.000;    0.000
528.105; 2297.200;    0.000;    0.000
528.237; 2185.200;    0.000;    0.000
528.368; 2162.200;    0.000;    0.000
528.500; 2225.200;    0.000;    0.000
528.632; 2208.200;    0.000;    0.000
528.763; 2289.200;    0.000;    0.000
528.895; 2145.200;    0.000;    0.000
529.026; 2140.200;    0.000;    0.000
529.158; 2189.200;    0.000;    0.000
529.289; 2301.200;    0.000;    0.000
529.421; 2257.200;    0.000;    0.000
529.552; 2163.200;    0.000;    0.000
529.684; 2397.200;    0.000;    0.000
529.815; 2277.200;    0.000;    0.000
529.947; 2159.200;    0.000;    0.000
530.078; 2131.200;    0.000;    0.000
530.210; 2170.200;    0.000;    0.000
530.341; 2175.200;    0.000;    0.000
530.472; 2171.200;    0.000;    0.000
530.604; 2262.200;    0.000;    0.000
530.735; 2112.200;    0.000;    0.000
530.867; 2202.200;    0.000;    0.000
530.998; 2218.200;    0.000;    0.000
531.129; 2176.200;    0.000;    0.000
531.261; 2272.200;    0.000;    0.000
531.392; 2269.200;    0.000;    0.000
531.523; 2224.200;    0.000;    0.000
531.654; 2222.200;    0.000;    0.000
531.786; 2285.200;    0.000;    0.000
531.917; 2173.200;    0.000;    0.000
532.048; 2329.200;    0.000;    0.000
532.179; 2301.200;    0.000;    0.000
532.311; 2288.200;    0.000;    0.000
532.442; 2343.200;    0.000;    0.000
532.573; 2217.200;    0.000;    0.000
532.704; 2241.200;    0.000;    0.000
532.835; 2169.200;    0.000;    0.000
532.966; 2163.200;    0.000;    0.000
533.097; 2202.200;    0.000;    0.000
533.229; 2169.200;    0.000;    0.000
533.360; 2289.200;    0.000;    0.000
533.491; 2129.200;    0.000;    0.000
533.622; 2234.200;    0.000;    0.000
533.753; 2292.200;    0.000;    0.000
533.884; 2237.200;    0.000;    0.000
534.015; 2233.200;    0.000;    0.000
534.146; 2199.200;    0.000;    0.000
534.277; 2346.200;    0.000;    0.000
534.408; 2269.200;    0.000;    0.000
534.539; 2307.200;    0.000;    0.000
534.670; 2229.200;    0.000;    0.000
534.801; 2332.200;    0.000;    0.000
534.932; 2070.200;    0.000;    0.000
535.063; 2165.200;    0.000;    0.000
535.194; 2232.200;    0.000;    0.000
535.324; 2143.200;    0.000;    0.000
535.455; 2249.200;    0.000;    0.000
535.586; 2228.200;    0.000;    0.000
535.717; 2179.200;    0.000;    0.000
535.848; 2195.200;    0.000;    0.000
535.979; 2182.200;    0.000;    0.000
536.109; 2189.200;    0.000;    0.000
536.240; 2163.200;    0.000;    0.000
536.371; 2158.200;    0.000;    0.000
536.502; 2110.200;    0.000;    0.000
536.632; 2092.200;    0.000;    0.000
536.763; 2157.200;    0.000;    0.000
536.894; 2114.200;    0.000;    0.000
537.025; 2190.200;    0.000;    0.000
537.155; 2186.200;    0.000;    0.000
537.286; 2205.200;    0.000;    0.000
537.417; 2109.200;    0.000;    0.000
537.547; 2150.200;    0.000;    0.000
537.678; 2068.200;    0.000;    0.000
537.808; 2076.200;    0.000;    0.000
537.939; 2237.200;    0.000;    0.000
538.070; 2145.200;    0.000;    0.000
538.200; 2128.200;    0.000;    0.000
538.331; 2117.200;    0.000;    0.000
538.461; 2057.200;    0.000;    0.000
538.592; 2209.200;    0.000;    0.000
538.722; 2187.200;    0.000;    0.000
538.853; 2211.200;    0.000;    0.000
538.983; 2083.200;    0.000;    0.000
539.114; 2121.200;    0.000;    0.000
539.244; 2129.200;    0.000;    0.000
539.375; 2038.200;    0.000;    0.000
539.505; 2130.200;    0.000;    0.000
539.636; 2062.200;    0.000;    0.000
539.766; 2149.200;    0.000;    0.000
539.896; 2147.200;    0.000;    0.000
540.027; 2082.200;    0.000;    0.000
540.157; 2194.200;    0.000;    0.000
540.287; 2094.200;    0.000;    0.000
540.418; 2157.200;    0.000;    0.000
540.548; 2136.200;    0.000;    0.000
540.678; 2184.200;    0.000;    0.000
540.809; 2106.200;    0.000;    0.000
540.939; 2240.200;    0.000;    0.000
541.069; 2173.200;    0.000;    0.000
541.199; 2133.200;    0.000;    0.000
541.330; 2093.200;    0.000;    0.000
541.460; 2200.200;    0.000;    0.000
541.590; 2195.200;    0.000;    0.000
541.720; 2191.200;    0.000;    0.000
541.851; 2139.200;    0.000;    0.000
541.981; 2087.200;    0.000;    0.000
542.111; 2079.200;    0.000;    0.000
542.241; 2208.200;    0.000;    0.000
542.371; 2150.200;    0.000;    0.000
542.501; 2126.200;    0.000;    0.000
542.631; 2222.200;    0.000;    0.000
542.761; 2136.200;    0.000;    0.000
542.891; 2229.200;    0.000;    0.000
543.021; 2242.200;    0.000;    0.000
543.151; 2260.200;    0.000;    0.000
543.281; 2290.200;    0.000;    0.000
543.411; 2283.200;    0.000;    0.000
543.541; 2227.200;    0.000;    0.000
543.671; 2158.200;    0.000;    0.000
543.801; 2125.200;    0.000;    0.000
543.931; 2184.200;    0.000;    0.000
544.061; 2266.200;    0.000;    0.000
544.191; 2152.200;    0.000;    0.000
544.321; 2236.200;    0.000;    0.000
544.451; 2267.200;    0.000;    0.000
544.581; 2287.200;    0.000;    0.000
544.711; 2314.200;    0.000;    0.000
544.841; 2245.200;    0.000;    0.000
544.970; 2277.200;    0.000;    0.000
545.100; 2418.200;    0.000;    0.000
545.230; 2388.200;    0.000;    0.000
545.360; 2316.200;    0.000;    0.000
545.490; 2275.200;    0.000;    0.000
545.619; 2319.200;    0.000;    0.000
545.749; 2258.200;    0.000;    0.000
545.879; 2197.200;    0.000;    0.000
546.009; 2325.200;    0.000;    0.000
546.138; 2222.200;    0.000;    0.000
546.268; 2244.200;    0.000;    0.000
546.398; 2198.200;    0.000;    0.000
546.527; 2265.200;    0.000;    0.000
546.657; 2143.200;    0.000;    0.000
546.787; 2186.200;    0.000;    0.000
546.916; 2189.200;    0.000;    0.000
547.046; 2256.200;    0.000;    0.000
547.175; 2213.200;    0.000;    0.000
547.305; 2220.200;    0.000;    0.000
547.434; 2150.200;    0.000;    0.000
547.564; 2151.200;    0.000;    0.000
547.694; 2191.200;    0.000;    0.000
547.823; 2211.200;    0.000;    0.000
547.953; 2117.200;    0.000;    0.000
548.082; 2132.200;    0.000;    0.000
548.211; 2128.200;    0.000;    0.000
548.341; 2116.200;    0.000;    0.000
548.470; 2106.200;    0.000;    0.000
548.600; 2199.200;    0.000;    0.000
548.729; 2119.200;    0.000;    0.000
548.859; 2211.200;    0.000;    0.000
548.988; 2289.200;    0.000;    0.000
549.117; 2168.200;    0.000;    0.000
549.247; 2162.200;    0.000;    0.000
549.376; 2094.200;    0.000;    0.000
549.505; 2170.200;    0.000;    0.000
549.635; 2341.200;    0.000;    0.000
549.764; 2197.200;    0.000;    0.000
549.893; 2342.200;    0.000;    0.000
550.023; 2182.200;    0.000;    0.000
550.152; 2204.200;    0.000;    0.000
550.281; 2287.200;    0.000;    0.000
550.410; 2215.200;    0.000;    0.000
550.539; 2298.200;    0.000;    0.000
550.669; 2288.200;    0.000;    0.000
550.798; 2235.200;    0.000;    0.000
550.927; 2306.200;    0.000;    0.000
551.056; 2282.200;    0.000;    0.000
551.185; 2244.200;    0.000;    0.000
551.314; 2259.200;    0.000;    0.000
551.443; 2174.200;    0.000;    0.000
551.573; 2302.200;    0.000;    0.000
551.702; 2232.200;    0.000;    0.000
551.831; 2251.200;    0.000;    0.000
551.960; 2366.200;    0.000;    0.000
552.089; 2296.200;    0.000;    0.000
552.218; 2218.200;    0.000;    0.000
552.347; 2247.200;    0.000;    0.000
552.476; 2274.200;    0.000;    0.000
552.605; 2390.200;    0.000;    0.000
552.734; 2329.200;    0.000;    0.000
552.863; 2338.200;    0.000;    0.000
552.992; 2356.200;    0.000;    0.000
553.121; 2472.200;    0.000;    0.000
553.249; 2312.200;    0.000;    0.000
553.378; 2387.200;    0.000;    0.000
553.507; 2266.200;    0.000;    0.000
553.636; 2409.200;    0.000;    0.000
553.765; 2169.200;    0.000;    0.000
553.894; 2327.200;    0.000;    0.000
554.023; 2282.200;    0.000;    0.000
554.151; 2224.200;    0.000;    0.000
554.280; 2353.200;    0.000;    0.000
554.409; 2371.200;    0.000;    0.000
554.538; 2214.200;    0.000;    0.000
554.666; 2260.200;    0.000;    0.000
554.795; 2297.200;    0.000;    0.000
554.924; 2353.200;    0.000;    0.000
555.053; 2244.200;    0.000;    0.000
555.181; 2208.200;    0.000;    0.000
555.310; 2207.200;    0.000;    0.000
555.439; 2197.200;    0.000;    0.000
555.567; 2127.200;    0.000;    0.000
555.696; 2177.200;    0.000;    0.000
555.824; 2219.200;    0.000;    0.000
555.953; 2304.200;    0.000;    0.000
556.082; 2319.200;    0.000;    0.000
556.210; 2302.200;    0.000;    0.000
556.339; 2151.200;    0.000;    0.000
556.467; 2168.200;    0.000;    0.000
556.596; 2223.200;    0.000;    0.000
556.724; 2208.200;    0.000;    0.000
556.853; 2266.200;    0.000;    0.000
556.981; 2196.200;    0.000;    0.000
557.110; 2267.200;    0.000;    0.000
557.238; 2280.200;    0.000;    0.000
557.367; 2195.200;    0.000;    0.000
557.495; 2216.200;    0.000;    0.000
557.623; 2187.200;    0.000;    0.000
557.752; 2298.200;    0.000;    0.000
557.880; 2225.200;    0.000;    0.000
558.008; 2160.200;    0.000;    0.000
558.137; 2151.200;    0.000;    0.000
558.265; 2068.200;    0.000;    0.000
558.393; 2274.200;    0.000;    0.000
558.522; 2079.200;    0.000;    0.000
558.650; 2239.200;    0.000;    0.000
558.778; 2154.200;    0.000;    0.000
558.907; 2183.200;    0.000;    0.000
559.035; 2284.200;    0.000;    0.000
559.163; 2178.200;    0.000;    0.000
559.291; 2178.200;    0.000;    0.000
559.419; 2100.200;    0.000;    0.000
559.548; 2122.200;    0.000;    0.000
559.676; 2099.200;    0.000;    0.000
559.804; 2170.200;    0.000;    0.000
559.932; 2234.200;    0.000;    0.000
560.060; 2187.200;    0.000;    0.000
560.188; 2154.200;    0.000;    0.000
560.316; 2202.200;    0.000;    0.000
560.444; 2246.200;    0.000;    0.000
560.572; 2252.200;    0.000;    0.000
560.700; 2276.200;    0.000;    0.000
560.828; 2302.200;    0.000;    0.000
560.957; 2280.200;    0.000;    0.000
561.085; 2236.200;    0.000;    0.000
561.212; 2411.200;    0.000;    0.000
561.340; 2429.200;    0.000;    0.000
561.468; 2390.200;    0.000;    0.000
561.596; 2309.200;    0.000;    0.000
561.724; 2249.200;    0.000;    0.000
561.852; 2286.200;    0.000;    0.000
561.980; 2365.200;    0.000;    0.000
562.108; 2212.200;    0.000;    0.000
562.236; 2525.200;    0.000;    0.000
562.364; 2281.200;    0.000;    0.000
562.492; 2448.200;    0.000;    0.000
562.619; 2395.200;    0.000;    0.000
562.747; 2469.200;    0.000;    0.000
562.875; 2493.200;    0.000;    0.000
563.003; 2409.200;    0.000;    0.000
563.130; 2465.200;    0.000;    0.000
563.258; 2400.200;    0.000;    0.000
563.386; 2483.200;    0.000;    0.000
563.514; 2519.200;    0.000;    0.000
563.641; 2525.200;    0.000;    0.000
563.769; 2481.200;    0.000;    0.000
563.897; 2553.200;    0.000;    0.000
564.024; 2476.200;    0.000;    0.000
564.152; 2508.200;    0.000;    0.000
564.280; 2671.200;    0.000;    0.000
564.407; 2563.200;    0.000;    0.000
564.535; 2525.200;    0.000;    0.000
564.662; 2569.200;    0.000;    0.000
564.790; 2769.200;    0.000;    0.000
564.917; 2684.200;    0.000;    0.000
565.045; 2690.200;    0.000;    0.000
565.173; 2653.200;    0.000;    0.000
565.300; 2605.200;    0.000;    0.000
565.428; 2735.200;    0.000;    0.000
565.555; 2701.200;    0.000;    0.000
565.682; 2736.200;    0.000;    0.000
565.810; 2791.200;    0.000;    0.000
565.937; 2845.200;    0.000;    0.000
566.065; 2936.200;    0.000;    0.000
566.192; 2859.200;    0.000;    0.000
566.320; 2975.200;    0.000;    0.000
566.447; 2952.200;    0.000;    0.000
566.574; 2999.200;    0.000;    0.000
566.702; 3123.200;    0.000;    0.000
566.829; 3076.200;    0.000;    0.000
566.956; 3184.200;    0.000;    0.000
567.084; 3183.200;    0.000;    0.000
567.211; 3174.200;    0.000;    0.000
567.338; 3208.200;    0.000;    0.000
567.465; 3291.200;    0.000;    0.000
567.593; 3031.200;    0.000;    0.000
567.720; 3164.200;    0.000;    0.000
567.847; 3254.200;    0.000;    0.000
567.974; 3249.200;    0.000;    0.000
568.101; 3144.200;    0.000;    0.000
568.228; 3064.200;    0.000;    0.000
568.356; 2993.200;    0.000;    0.000
568.483; 2984.200;    0.000;    0.000
568.610; 2985.200;    0.000;    0.000
568.737; 2917.200;    0.000;    0.000
568.864; 2953.200;    0.000;    0.000
568.991; 2909.200;    0.000;    0.000
569.118; 2855.200;    0.000;    0.000
569.245; 2821.200;    0.000;    0.000
569.372; 2837.200;    0.000;    0.000
569.499; 2729.200;    0.000;    0.000
569.626; 2717.200;    0.000;    0.000
569.753; 2790.200;    0.000;    0.000
569.880; 2801.200;    0.000;    0.000
570.007; 2799.200;    0.000;    0.000
570.134; 2629.200;    0.000;    0.000
570.261; 2633.200;    0.000;    0.000
570.388; 2680.200;    0.000;    0.000
570.515; 2537.200;    0.000;    0.000
570.642; 2512.200;    0.000;    0.000
570.768; 2631.200;    0.000;    0.000
570.895; 2649.200;    0.000;    0.000
571.022; 2519.200;    0.000;    0.000
571.149; 2497.200;    0.000;    0.000
571.276; 2665.200;    0.000;    0.000
571.402; 2428.200;    0.000;    0.000
571.529; 2445.200;    0.000;    0.000
571.656; 2512.200;    0.000;    0.000
571.783; 2421.200;    0.000;    0.000
571.909; 2455.200;    0.000;    0.000
572.036; 2317.200;    0.000;    0.000
572.163; 2361.200;    0.000;    0.000
572.289; 2491.200;    0.000;    0.000
572.416; 2469.200;    0.000;    0.000
572.543; 2318.200;    0.000;    0.000
572.669; 2377.200;    0.000;    0.000
572.796; 2303.200;    0.000;    0.000
572.922; 2310.200;    0.000;    0.000
573.049; 2333.200;    0.000;    0.000
573.176; 2306.200;    0.000;    0.000
573.302; 2285.200;    0.000;    0.000
573.429; 2368.200;    0.000;    0.000
573.555; 2278.200;    0.000;    0.000
573.682; 2349.200;    0.000;    0.000
573.808; 2406.200;    0.000;    0.000
573.935; 2347.200;    0.000;    0.000
574.061; 2385.200;    0.000;    0.000
574.188; 2322.200;    0.000;    0.000
574.314; 2257.200;    0.000;    0.000
574.440; 2320.200;    0.000;    0.000
574.567; 2424.200;    0.000;    0.000
574.693; 2375.200;    0.000;    0.000
574.820; 2308.200;    0.000;    0.000
574.946; 2169.200;    0.000;    0.000
575.072; 2265.200;    0.000;    0.000
575.198; 2273.200;    0.000;    0.000
575.325; 2242.200;    0.000;    0.000
575.451; 2463.200;    0.000;    0.000
575.577; 2303.200;    0.000;    0.000
575.704; 2237.200;    0.000;    0.000
575.830; 2233.200;    0.000;    0.000
575.956; 2156.200;    0.000;    0.000
576.082; 2286.200;    0.000;    0.000
576.208; 2216.200;    0.000;    0.000
576.335; 2253.200;    0.000;    0.000
576.461; 2289.200;    0.000;    0.000
576.587; 2343.200;    0.000;    0.000
576.713; 2344.200;    0.000;    0.000
576.839; 2197.200;    0.000;    0.000
576.965; 2269.200;    0.000;    0.000
577.091; 2231.200;    0.000;    0.000
577.217; 2320.200;    0.000;    0.000
577.343; 2295.200;    0.000;    0.000
577.470; 2323.200;    0.000;    0.000
577.596; 2221.200;    0.000;    0.000
577.722; 2256.200;    0.000;    0.000
577.848; 2387.200;    0.000;    0.000
577.973; 2056.200;    0.000;    0.000
578.099; 2302.200;    0.000;    0.000
578.225; 2243.200;    0.000;    0.000
578.351; 2351.200;    0.000;    0.000
578.477; 2294.200;    0.000;    0.000
578.603; 2247.200;    0.000;    0.000
578.729; 2302.200;    0.000;    0.000
578.855; 2170.200;    0.000;    0.000
578.981; 2304.200;    0.000;    0.000
579.107; 2292.200;    0.000;    0.000
579.232; 2234.200;    0.000;    0.000
579.358; 2242.200;    0.000;    0.000
579.484; 2220.200;    0.000;    0.000
579.610; 2245.200;    0.000;    0.000
579.735; 2207.200;    0.000;    0.000
579.861; 2194.200;    0.000;    0.000
579.987; 2180.200;    0.000;    0.000
580.113; 2315.200;    0.000;    0.000
580.238; 2297.200;    0.000;    0.000
580.364; 2320.200;    0.000;    0.000
580.490; 2282.200;    0.000;    0.000
580.615; 2353.200;    0.000;    0.000
580.741; 2332.200;    0.000;    0.000
580.867; 2299.200;    0.000;    0.000
580.992; 2261.200;    0.000;    0.000
581.118; 2278.200;    0.000;    0.000
581.243; 2337.200;    0.000;    0.000
581.369; 2385.200;    0.000;    0.000
581.494; 2452.200;    0.000;    0.000
581.620; 2489.200;    0.000;    0.000
581.745; 2314.200;    0.000;    0.000
581.871; 2263.200;    0.000;    0.000
581.996; 2441.200;    0.000;    0.000
582.122; 2323.200;    0.000;    0.000
582.247; 2401.200;    0.000;    0.000
582.373; 2422.200;    0.000;    0.000
582.498; 2516.200;    0.000;    0.000
582.624; 2435.200;    0.000;    0.000
582.749; 2456.200;    0.000;    0.000
582.874; 2381.200;    0.000;    0.000
583.000; 2470.200;    0.000;    0.000
583.125; 2393.200;    0.000;    0.000
583.250; 2476.200;    0.000;    0.000
583.376; 2517.200;    0.000;    0.000
583.501; 2473.200;    0.000;    0.000
583.626; 2488.200;    0.000;    0.000
583.751; 2605.200;    0.000;    0.000
583.877; 2499.200;    0.000;    0.000
584.002; 2659.200;    0.000;    0.000
584.127; 2473.200;    0.000;    0.000
584.252; 2603.200;    0.000;    0.000
584.377; 2681.200;    0.000;    0.000
584.503; 2514.200;    0.000;    0.000
584.628; 2574.200;    0.000;    0.000
584.753; 2729.200;    0.000;    0.000
584.878; 2676.200;    0.000;    0.000
585.003; 2631.200;    0.000;    0.000
585.128; 2910.200;    0.000;    0.000
585.253; 2986.200;    0.000;    0.000
585.378; 2891.200;    0.000;    0.000
585.503; 2891.200;    0.000;    0.000
585.628; 2860.200;    0.000;    0.000
585.753; 2800.200;    0.000;    0.000
585.878; 2956.200;    0.000;    0.000
586.003; 3136.200;    0.000;    0.000
586.128; 3158.200;    0.000;    0.000
586.253; 3213.200;    0.000;    0.000
586.378; 3337.200;    0.000;    0.000
586.503; 3209.200;    0.000;    0.000
586.628; 3439.200;    0.000;    0.000
586.753; 3462.200;    0.000;    0.000
586.878; 3533.200;    0.000;    0.000
587.003; 3637.200;    0.000;    0.000
587.127; 3591.200;    0.000;    0.000
587.252; 3926.200;    0.000;    0.000
587.377; 4048.200;    0.000;    0.000
587.502; 4117.200;    0.000;    0.000
587.627; 4471.200;    0.000;    0.000
587.751; 4844.200;    0.000;    0.000
587.876; 5110.200;    0.000;    0.000
588.001; 5131.200;    0.000;    0.000
588.125; 5545.200;    0.000;    0.000
588.250; 6192.200;    0.000;    0.000
588.375; 7047.200;    0.000;    0.000
588.499; 8126.200;    0.000;    0.000
588.624; 9306.200;    0.000;    0.000
588.749;11889.200;    0.000;    0.000
588.873;15843.200;    0.000;    0.000
588.998;19836.200;    0.000;    0.000
589.122;21384.200;    0.000;    0.000
589.247;18318.200;    0.000;    0.000
589.372;16219.200;    0.000;    0.000
589.496;16590.200;    0.000;    0.000
589.621;18109.200;    0.000;    0.000
589.745;17875.200;    0.000;    0.000
589.870;14704.200;    0.000;    0.000
589.994;11602.200;    0.000;    0.000
590.118; 9920.200;    0.000;    0.000
590.243; 8555.200;    0.000;    0.000
590.367; 7368.200;    0.000;    0.000
590.492; 6693.200;    0.000;    0.000
590.616; 6350.200;    0.000;    0.000
590.740; 5805.200;    0.000;    0.000
590.865; 5744.200;    0.000;    0.000
590.989; 5215.200;    0.000;    0.000
591.114; 4905.200;    0.000;    0.000
591.238; 4822.200;    0.000;    0.000
591.362; 4531.200;    0.000;    0.000
591.486; 4359.200;    0.000;    0.000
591.611; 4232.200;    0.000;    0.000
591.735; 4091.200;    0.000;    0.000
591.859; 3916.200;    0.000;    0.000
591.983; 3916.200;    0.000;    0.000
592.107; 3650.200;    0.000;    0.000
592.232; 3631.200;    0.000;    0.000
592.356; 3618.200;    0.000;    0.000
592.480; 3613.200;    0.000;    0.000
592.604; 3523.200;    0.000;    0.000
592.728; 3334.200;    0.000;    0.000
592.852; 3346.200;    0.000;    0.000
592.976; 3286.200;    0.000;    0.000
593.100; 3427.200;    0.000;    0.000
593.224; 3308.200;    0.000;    0.000
593.349; 3288.200;    0.000;    0.000
593.473; 3396.200;    0.000;    0.000
593.597; 3024.200;    0.000;    0.000
593.721; 3164.200;    0.000;    0.000
593.844; 3077.200;    0.000;    0.000
593.968; 2963.200;    0.000;    0.000
594.092; 2873.200;    0.000;    0.000
594.216; 3087.200;    0.000;    0.000
594.340; 3019.200;    0.000;    0.000
594.464; 2961.200;    0.000;    0.000
594.588; 2858.200;    0.000;    0.000
594.712; 2845.200;    0.000;    0.000
594.836; 2768.200;    0.000;    0.000
594.959; 2722.200;    0.000;    0.000
595.083; 2783.200;    0.000;    0.000
595.207; 2782.200;    0.000;    0.000
595.331; 2753.200;    0.000;    0.000
595.455; 2673.200;    0.000;    0.000
595.578; 2778.200;    0.000;    0.000
595.702; 2744.200;    0.000;    0.000
595.826; 2696.200;    0.000;    0.000
595.949; 2467.200;    0.000;    0.000
596.073; 2535.200;    0.000;    0.000
596.197; 2638.200;    0.000;    0.000
596.320; 2485.200;    0.000;    0.000
596.444; 2585.200;    0.000;    0.000
596.568; 2448.200;    0.000;    0.000
596.691; 2490.200;    0.000;    0.000
596.815; 2472.200;    0.000;    0.000
596.938; 2423.200;    0.000;    0.000
597.062; 2273.200;    0.000;    0.000
597.186; 2437.200;    0.000;    0.000
597.309; 2348.200;    0.000;    0.000
597.433; 2383.200;    0.000;    0.000
597.556; 2276.200;    0.000;    0.000
597.679; 2397.200;    0.000;    0.000
597.803; 2331.200;    0.000;    0.000
597.926; 2311.200;    0.000;    0.000
598.050; 2290.200;    0.000;    0.000
598.173; 2291.200;    0.000;    0.000
598.297; 2317.200;    0.000;    0.000
598.420; 2324.200;    0.000;    0.000
598.543; 2328.200;    0.000;    0.000
598.667; 2340.200;    0.000;    0.000
598.790; 2310.200;    0.000;    0.000
598.913; 2183.200;    0.000;    0.000
599.037; 2223.200;    0.000;    0.000
599.160; 2091.200;    0.000;    0.000
599.283; 2159.200;    0.000;    0.000
599.406; 2190.200;    0.000;    0.000
599.530; 2188.200;    0.000;    0.000
599.653; 2210.200;    0.000;    0.000
599.776; 2302.200;    0.000;    0.000
599.899; 2104.200;    0.000;    0.000
600.022; 2158.200;    0.000;    0.000
600.145; 2115.200;    0.000;    0.000
600.269; 2204.200;    0.000;    0.000
600.392; 2140.200;    0.000;    0.000
600.515; 2109.200;    0.000;    0.000
600.638; 2190.200;    0.000;    0.000
600.761; 2162.200;    0.000;    0.000
600.884; 2165.200;    0.000;    0.000
601.007; 2143.200;    0.000;    0.000
601.130; 2131.200;    0.000;    0.000
601.253; 2122.200;    0.000;    0.000
601.376; 2100.200;    0.000;    0.000
601.499; 2087.200;    0.000;    0.000
601.622; 2178.200;    0.000;    0.000
601.745; 2042.200;    0.000;    0.000
601.868; 2056.200;    0.000;    0.000
601.991; 2105.200;    0.000;    0.000
602.113; 2044.200;    0.000;    0.000
602.236; 1998.200;    0.000;    0.000
602.359; 2052.200;    0.000;    0.000
602.482; 2093.200;    0.000;    0.000
602.605; 2053.200;    0.000;    0.000
602.728; 2053.200;    0.000;    0.000
602.850; 2100.200;    0.000;    0.000
602.973; 2041.200;    0.000;    0.000
603.096; 2063.200;    0.000;    0.000
603.219; 2047.200;    0.000;    0.000
603.341; 2043.200;    0.000;    0.000
603.464; 2047.200;    0.000;    0.000
603.587; 2149.200;    0.000;    0.000
603.709; 2060.200;    0.000;    0.000
603.832; 2044.200;    0.000;    0.000
603.955; 2006.200;    0.000;    0.000
604.077; 1926.200;    0.000;    0.000
604.200; 1977.200;    0.000;    0.000
604.322; 2033.200;    0.000;    0.000
604.445; 2047.200;    0.000;    0.000
604.568; 1978.200;    0.000;    0.000
604.690; 2042.200;    0.000;    0.000
604.813; 2007.200;    0.000;    0.000
604.935; 1915.200;    0.000;    0.000
605.058; 1940.200;    0.000;    0.000
605.180; 1928.200;    0.000;    0.000
605.303; 2078.200;    0.000;    0.000
605.425; 1992.200;    0.000;    0.000
605.547; 1980.200;    0.000;    0.000
605.670; 1913.200;    0.000;    0.000
605.792; 2071.200;    0.000;    0.000
605.915; 2034.200;    0.000;    0.000
606.037; 2087.200;    0.000;    0.000
606.159; 2017.200;    0.000;    0.000
606.282; 1915.200;    0.000;    0.000
606.404; 1950.200;    0.000;    0.000
606.526; 2046.200;    0.000;    0.000
606.648; 2002.200;    0.000;    0.000
606.771; 1923.200;    0.000;    0.000
606.893; 1932.200;    0.000;    0.000
607.015; 1994.200;    0.000;    0.000
607.137; 1936.200;    0.000;    0.000
607.260; 1990.200;    0.000;    0.000
607.382; 1990.200;    0.000;    0.000
607.504; 1885.200;    0.000;    0.000
607.626; 1940.200;    0.000;    0.000
607.748; 1879.200;    0.000;    0.000
607.870; 1982.200;    0.000;    0.000
607.992; 1884.200;    0.000;    0.000
608.114; 1985.200;    0.000;    0.000
608.236; 1905.200;    0.000;    0.000
608.359; 1842.200;    0.000;    0.000
608.481; 1914.200;    0.000;    0.000
608.603; 1867.200;    0.000;    0.000
608.725; 2019.200;    0.000;    0.000
608.847; 1951.200;    0.000;    0.000
608.968; 1948.200;    0.000;    0.000
609.090; 1816.200;    0.000;    0.000
609.212; 1906.200;    0.000;    0.000
609.334; 1808.200;    0.000;    0.000
609.456; 1964.200;    0.000;    0.000
609.578; 1943.200;    0.000;    0.000
609.700; 1841.200;    0.000;    0.000
609.822; 2002.200;    0.000;    0.000
609.944; 1979.200;    0.000;    0.000
610.065; 1913.200;    0.000;    0.000
610.187; 1868.200;    0.000;    0.000
610.309; 1911.200;    0.000;    0.000
610.431; 1972.200;    0.000;    0.000
610.552; 1882.200;    0.000;    0.000
610.674; 1805.200;    0.000;    0.000
610.796; 2043.200;    0.000;    0.000
610.918; 1818.200;    0.000;    0.000
611.039; 1823.200;    0.000;    0.000
611.161; 1882.200;    0.000;    0.000
611.282; 1951.200;    0.000;    0.000
611.404; 1896.200;    0.000;    0.000
611.526; 1904.200;    0.000;    0.000
611.647; 1898.200;    0.000;    0.000
611.769; 1886.200;    0.000;    0.000
611.890; 1904.200;    0.000;    0.000
612.012; 1957.200;    0.000;    0.000
612.134; 1873.200;    0.000;    0.000
612.255; 1892.200;    0.000;    0.000
612.377; 1920.200;    0.000;    0.000
612.498; 1855.200;    0.000;    0.000
612.619; 1845.200;    0.000;    0.000
612.741; 1813.200;    0.000;    0.000
612.862; 1911.200;    0.000;    0.000
612.984; 1937.200;    0.000;    0.000
613.105; 1840.200;    0.000;    0.000
613.226; 1819.200;    0.000;    0.000
613.348; 1991.200;    0.000;    0.000
613.469; 1918.200;    0.000;    0.000
613.590; 1881.200;    0.000;    0.000
613.712; 1963.200;    0.000;    0.000
613.833; 1968.200;    0.000;    0.000
613.954; 1796.200;    0.000;    0.000
614.076; 1906.200;    0.000;    0.000
614.197; 1835.200;    0.000;    0.000
614.318; 1712.200;    0.000;    0.000
614.439; 1763.200;    0.000;    0.000
614.560; 1913.200;    0.000;    0.000
614.682; 1942.200;    0.000;    0.000
614.803; 1942.200;    0.000;    0.000
614.924; 1813.200;    0.000;    0.000
615.045; 1860.200;    0.000;    0.000
615.166; 1907.200;    0.000;    0.000
615.287; 1888.200;    0.000;    0.000
615.408; 1872.200;    0.000;    0.000
615.529; 1925.200;    0.000;    0.000
615.650; 1917.200;    0.000;    0.000
615.771; 1932.200;    0.000;    0.000
615.892; 1985.200;    0.000;    0.000
616.013; 1963.200;    0.000;    0.000
616.134; 1943.200;    0.000;    0.000
616.255; 2111.200;    0.000;    0.000
616.376; 2013.200;    0.000;    0.000
616.497; 1963.200;    0.000;    0.000
616.618; 1972.200;    0.000;    0.000
616.739; 2000.200;    0.000;    0.000
616.860; 1878.200;    0.000;    0.000
616.981; 1889.200;    0.000;    0.000
617.101; 1932.200;    0.000;    0.000
617.222; 1903.200;    0.000;    0.000
617.343; 1959.200;    0.000;    0.000
617.464; 1904.200;    0.000;    0.000
617.585; 1877.200;    0.000;    0.000
617.705; 1823.200;    0.000;    0.000
617.826; 1808.200;    0.000;    0.000
617.947; 2028.200;    0.000;    0.000
618.068; 1841.200;    0.000;    0.000
618.188; 1895.200;    0.000;    0.000
618.309; 1852.200;    0.000;    0.000
618.430; 1857.200;    0.000;    0.000
618.550; 1929.200;    0.000;    0.000
618.671; 1787.200;    0.000;    0.000
618.791; 1938.200;    0.000;    0.000
618.912; 1895.200;    0.000;    0.000
619.033; 1875.200;    0.000;    0.000
619.153; 1865.200;    0.000;    0.000
619.274; 1926.200;    0.000;    0.000
619.394; 1912.200;    0.000;    0.000
619.515; 1824.200;    0.000;    0.000
619.635; 1832.200;    0.000;    0.000
619.756; 1901.200;    0.000;    0.000
619.876; 1884.200;    0.000;    0.000
619.996; 1839.200;    0.000;    0.000
620.117; 1837.200;    0.000;    0.000
620.237; 1795.200;    0.000;    0.000
620.358; 1853.200;    0.000;    0.000
620.478; 1801.200;    0.000;    0.000
620.598; 1844.200;    0.000;    0.000
620.719; 1827.200;    0.000;    0.000
620.839; 1774.200;    0.000;    0.000
620.959; 1733.200;    0.000;    0.000
621.079; 1757.200;    0.000;    0.000
621.200; 1927.200;    0.000;    0.000
621.320; 1850.200;    0.000;    0.000
621.440; 1814.200;    0.000;    0.000
621.560; 1703.200;    0.000;    0.000
621.681; 1741.200;    0.000;    0.000
621.801; 1778.200;    0.000;    0.000
621.921; 1748.200;    0.000;    0.000
622.041; 1842.200;    0.000;    0.000
622.161; 1820.200;    0.000;    0.000
622.281; 1867.200;    0.000;    0.000
622.401; 1760.200;    0.000;    0.000
622.521; 1789.200;    0.000;    0.000
622.641; 1710.200;    0.000;    0.000
622.761; 1737.200;    0.000;    0.000
622.882; 1806.200;    0.000;    0.000
623.002; 1791.200;    0.000;    0.000
623.121; 1753.200;    0.000;    0.000
623.241; 1698.200;    0.000;    0.000
623.361; 1735.200;    0.000;    0.000
623.481; 1770.200;    0.000;    0.000
623.601; 1756.200;    0.000;    0.000
623.721; 1755.200;    0.000;    0.000
623.841; 1744.200;    0.000;    0.000
623.961; 1774.200;    0.000;    0.000
624.081; 1782.200;    0.000;    0.000
624.201; 1721.200;    0.000;    0.000
624.320; 1702.200;    0.000;    0.000
624.440; 1769.200;    0.000;    0.000
624.560; 1730.200;    0.000;    0.000
624.680; 1678.200;    0.000;    0.000
624.799; 1695.200;    0.000;    0.000
624.919; 1694.200;    0.000;    0.000
625.039; 1715.200;    0.000;    0.000
625.159; 1636.200;    0.000;    0.000
625.278; 1700.200;    0.000;    0.000
625.398; 1584.200;    0.000;    0.000
625.518; 1734.200;    0.000;    0.000
625.637; 1716.200;    0.000;    0.000
625.757; 1705.200;    0.000;    0.000
625.876; 1709.200;    0.000;    0.000
625.996; 1757.200;    0.000;    0.000
626.115; 1690.200;    0.000;    0.000
626.235; 1779.200;    0.000;    0.000
626.355; 1701.200;    0.000;    0.000
626.474; 1699.200;    0.000;    0.000
626.593; 1711.200;    0.000;    0.000
626.713; 1728.200;    0.000;    0.000
626.832; 1708.200;    0.000;    0.000
626.952; 1697.200;    0.000;    0.000
627.071; 1718.200;    0.000;    0.000
627.191; 1618.200;    0.000;    0.000
627.310; 1725.200;    0.000;    0.000
627.429; 1679.200;    0.000;    0.000
627.549; 1761.200;    0.000;    0.000
627.668; 1720.200;    0.000;    0.000
627.787; 1706.200;    0.000;    0.000
627.907; 1723.200;    0.000;    0.000
628.026; 1754.200;    0.000;    0.000
628.145; 1687.200;    0.000;    0.000
628.264; 1701.200;    0.000;    0.000
628.384; 1628.200;    0.000;    0.000
628.503; 1734.200;    0.000;    0.000
628.622; 1744.200;    0.000;    0.000
628.741; 1714.200;    0.000;    0.000
628.860; 1711.200;    0.000;    0.000
628.980; 1701.200;    0.000;    0.000
629.099; 1732.200;    0.000;    0.000
629.218; 1701.200;    0.000;    0.000
629.337; 1664.200;    0.000;    0.000
629.456; 1694.200;    0.000;    0.000
629.575; 1651.200;    0.000;    0.000
629.694; 1651.200;    0.000;    0.000
629.813; 1735.200;    0.000;    0.000
629.932; 1729.200;    0.000;    0.000
630.051; 1772.200;    0.000;    0.000
630.170; 1642.200;    0.000;    0.000
630.289; 1712.200;    0.000;    0.000
630.408; 1684.200;    0.000;    0.000
630.527; 1711.200;    0.000;    0.000
630.646; 1751.200;    0.000;    0.000
630.764; 1620.200;    0.000;    0.000
630.883; 1603.200;    0.000;    0.000
631.002; 1679.200;    0.000;    0.000
631.121; 1652.200;    0.000;    0.000
631.240; 1764.200;    0.000;    0.000
631.359; 1659.200;    0.000;    0.000
631.477; 1652.200;    0.000;    0.000
631.596; 1640.200;    0.000;    0.000
631.715; 1595.200;    0.000;    0.000
631.834; 1623.200;    0.000;    0.000
631.952; 1740.200;    0.000;    0.000
632.071; 1651.200;    0.000;    0.000
632.190; 1711.200;    0.000;    0.000
632.308; 1726.200;    0.000;    0.000
632.427; 1608.200;    0.000;    0.000
632.546; 1599.200;    0.000;    0.000
632.664; 1606.200;    0.000;    0.000
632.783; 1568.200;    0.000;    0.000
632.901; 1636.200;    0.000;    0.000
633.020; 1629.200;    0.000;    0.000
633.138; 1608.200;    0.000;    0.000
633.257; 1618.200;    0.000;    0.000
633.375; 1641.200;    0.000;    0.000
633.494; 1581.200;    0.000;    0.000
633.612; 1645.200;    0.000;    0.000
633.731; 1629.200;    0.000;    0.000
633.849; 1714.200;    0.000;    0.000
633.968; 1693.200;    0.000;    0.000
634.086; 1657.200;    0.000;    0.000
634.204; 1585.200;    0.000;    0.000
634.323; 1625.200;    0.000;    0.000
634.441; 1726.200;    0.000;    0.000
634.559; 1637.200;    0.000;    0.000
634.678; 1569.200;    0.000;    0.000
634.796; 1573.200;    0.000;    0.000
634.914; 1683.200;    0.000;    0.000
635.032; 1742.200;    0.000;    0.000
635.151; 1613.200;    0.000;    0.000
635.269; 1685.200;    0.000;    0.000
635.387; 1597.200;    0.000;    0.000
635.505; 1646.200;    0.000;    0.000
635.623; 1718.200;    0.000;    0.000
635.742; 1597.200;    0.000;    0.000
635.860; 1655.200;    0.000;    0.000
635.978; 1649.200;    0.000;    0.000
636.096; 1512.200;    0.000;    0.000
636.214; 1706.200;    0.000;    0.000
636.332; 1649.200;    0.000;    0.000
636.450; 1650.200;    0.000;    0.000
636.568; 1529.200;    0.000;    0.000
636.686; 1685.200;    0.000;    0.000
636.804; 1610.200;    0.000;    0.000
636.922; 1557.200;    0.000;    0.000
637.040; 1578.200;    0.000;    0.000
637.158; 1585.200;    0.000;    0.000
637.276; 1653.200;    0.000;    0.000
637.394; 1626.200;    0.000;    0.000
637.512; 1571.200;    0.000;    0.000
637.629; 1586.200;    0.000;    0.000
637.747; 1597.200;    0.000;    0.000
637.865; 1707.200;    0.000;    0.000
637.983; 1630.200;    0.000;    0.000
638.101; 1686.200;    0.000;    0.000
638.218; 1638.200;    0.000;    0.000
638.336; 1633.200;    0.000;    0.000
638.454; 1660.200;    0.000;    0.000
638.572; 1522.200;    0.000;    0.000
638.689; 1672.200;    0.000;    0.000
638.807; 1500.200;    0.000;    0.000
638.925; 1605.200;    0.000;    0.000
639.042; 1631.200;    0.000;    0.000
639.160; 1550.200;    0.000;    0.000
639.278; 1609.200;    0.000;    0.000
639.395; 1641.200;    0.000;    0.000
639.513; 1569.200;    0.000;    0.000
639.630; 1554.200;    0.000;    0.000
639.748; 1534.200;    0.000;    0.000
639.865; 1593.200;    0.000;    0.000
639.983; 1625.200;    0.000;    0.000
640.100; 1623.200;    0.000;    0.000
640.218; 1582.200;    0.000;    0.000
640.335; 1566.200;    0.000;    0.000
640.453; 1581.200;    0.000;    0.000
640.570; 1597.200;    0.000;    0.000
640.687; 1558.200;    0.000;    0.000
640.805; 1540.200;    0.000;    0.000
640.922; 1634.200;    0.000;    0.000
641.040; 1571.200;    0.000;    0.000
641.157; 1577.200;    0.000;    0.000
641.274; 1480.200;    0.000;    0.000
641.391; 1733.200;    0.000;    0.000
641.509; 1614.200;    0.000;    0.000
641.626; 1662.200;    0.000;    0.000
641.743; 1491.200;    0.000;    0.000
641.860; 1521.200;    0.000;    0.000
641.978; 1623.200;    0.000;    0.000
642.095; 1582.200;    0.000;    0.000
642.212; 1602.200;    0.000;    0.000
642.329; 1618.200;    0.000;    0.000
642.446; 1481.200;    0.000;    0.000
642.563; 1570.200;    0.000;    0.000
642.681; 1700.200;    0.000;    0.000
642.798; 1606.200;    0.000;    0.000
642.915; 1594.200;    0.000;    0.000
643.032; 1611.200;    0.000;    0.000
643.149; 1606.200;    0.000;    0.000
643.266; 1537.200;    0.000;    0.000
643.383; 1708.200;    0.000;    0.000
643.500; 1554.200;    0.000;    0.000
643.617; 1512.200;    0.000;    0.000
643.734; 1532.200;    0.000;    0.000
643.850; 1487.200;    0.000;    0.000
643.967; 1619.200;    0.000;    0.000
644.084; 1638.200;    0.000;    0.000
644.201; 1611.200;    0.000;    0.000
644.318; 1507.200;    0.000;    0.000
644.435; 1574.200;    0.000;    0.000
644.552; 1660.200;    0.000;    0.000
644.668; 1556.200;    0.000;    0.000
644.785; 1478.200;    0.000;    0.000
644.902; 1460.200;    0.000;    0.000
645.019; 1606.200;    0.000;    0.000
645.135; 1489.200;    0.000;    0.000
645.252; 1587.200;    0.000;    0.000
645.369; 1618.200;    0.000;    0.000
645.485; 1665.200;    0.000;    0.000
645.602; 1578.200;    0.000;    0.000
645.719; 1597.200;    0.000;    0.000
645.835; 1610.200;    0.000;    0.000
645.952; 1566.200;    0.000;    0.000
646.068; 1505.200;    0.000;    0.000
646.185; 1592.200;    0.000;    0.000
646.302; 1657.200;    0.000;    0.000
646.418; 1600.200;    0.000;    0.000
646.535; 1542.200;    0.000;    0.000
646.651; 1647.200;    0.000;    0.000
646.768; 1657.200;    0.000;    0.000
646.884; 1689.200;    0.000;    0.000
647.000; 1681.200;    0.000;    0.000
647.117; 1710.200;    0.000;    0.000
647.233; 1638.200;    0.000;    0.000
647.350; 1665.200;    0.000;    0.000
647.466; 1473.200;    0.000;    0.000
647.582; 1683.200;    0.000;    0.000
647.699; 1654.200;    0.000;    0.000
647.815; 1638.200;    0.000;    0.000
647.931; 1749.200;    0.000;    0.000
648.047; 1737.200;    0.000;    0.000
648.164; 1712.200;    0.000;    0.000
648.280; 1634.200;    0.000;    0.000
648.396; 1742.200;    0.000;    0.000
648.512; 1721.200;    0.000;    0.000
648.629; 1681.200;    0.000;    0.000
648.745; 1707.200;    0.000;    0.000
648.861; 1722.200;    0.000;    0.000
648.977; 1712.200;    0.000;    0.000
649.093; 1671.200;    0.000;    0.000
649.209; 1727.200;    0.000;    0.000
649.325; 1676.200;    0.000;    0.000
649.441; 1670.200;    0.000;    0.000
649.557; 1675.200;    0.000;    0.000
649.673; 1686.200;    0.000;    0.000
649.789; 1670.200;    0.000;    0.000
649.905; 1689.200;    0.000;    0.000
650.021; 1766.200;    0.000;    0.000
650.137; 1724.200;    0.000;    0.000
650.253; 1674.200;    0.000;    0.000
650.369; 1742.200;    0.000;    0.000
650.485; 1659.200;    0.000;    0.000
650.601; 1758.200;    0.000;    0.000
650.717; 1699.200;    0.000;    0.000
650.833; 1690.200;    0.000;    0.000
650.948; 1726.200;    0.000;    0.000
651.064; 1712.200;    0.000;    0.000
651.180; 1706.200;    0.000;    0.000
651.296; 1780.200;    0.000;    0.000
651.411; 1754.200;    0.000;    0.000
651.527; 1772.200;    0.000;    0.000
651.643; 1821.200;    0.000;    0.000
651.759; 1816.200;    0.000;    0.000
651.874; 1777.200;    0.000;    0.000
651.990; 1852.200;    0.000;    0.000
652.105; 1793.200;    0.000;    0.000
652.221; 1851.200;    0.000;    0.000
652.337; 1933.200;    0.000;    0.000
652.452; 1891.200;    0.000;    0.000
652.568; 1885.200;    0.000;    0.000
652.683; 1799.200;    0.000;    0.000
652.799; 1842.200;    0.000;    0.000
652.914; 1977.200;    0.000;    0.000
653.030; 1946.200;    0.000;    0.000
653.145; 1825.200;    0.000;    0.000
653.261; 1912.200;    0.000;    0.000
653.376; 1956.200;    0.000;    0.000
653.492; 2001.200;    0.000;    0.000
653.607; 1958.200;    0.000;    0.000
653.722; 2121.200;    0.000;    0.000
653.838; 2063.200;    0.000;    0.000
653.953; 2103.200;    0.000;    0.000
654.068; 2107.200;    0.000;    0.000
654.184; 1964.200;    0.000;    0.000
654.299; 2151.200;    0.000;    0.000
654.414; 2200.200;    0.000;    0.000
654.530; 2260.200;    0.000;    0.000
654.645; 2168.200;    0.000;    0.000
654.760; 2131.200;    0.000;    0.000
654.875; 2272.200;    0.000;    0.000
654.990; 2215.200;    0.000;    0.000
655.106; 2407.200;    0.000;    0.000
655.221; 2371.200;    0.000;    0.000
655.336; 2324.200;    0.000;    0.000
655.451; 2429.200;    0.000;    0.000
655.566; 2444.200;    0.000;    0.000
655.681; 2578.200;    0.000;    0.000
655.796; 2624.200;    0.000;    0.000
655.911; 2771.200;    0.000;    0.000
656.026; 2901.200;    0.000;    0.000
656.141; 2727.200;    0.000;    0.000
656.256; 2936.200;    0.000;    0.000
656.371; 2967.200;    0.000;    0.000
656.486; 3108.200;    0.000;    0.000
656.601; 2851.200;    0.000;    0.000
656.716; 3094.200;    0.000;    0.000
656.831; 2857.200;    0.000;    0.000
656.946; 2806.200;    0.000;    0.000
657.060; 2905.200;    0.000;    0.000
657.175; 2606.200;    0.000;    0.000
657.290; 2734.200;    0.000;    0.000
657.405; 2725.200;    0.000;    0.000
657.520; 2650.200;    0.000;    0.000
657.634; 2561.200;    0.000;    0.000
657.749; 2530.200;    0.000;    0.000
657.864; 2358.200;    0.000;    0.000
657.979; 2371.200;    0.000;    0.000
658.093; 2462.200;    0.000;    0.000
658.208; 2319.200;    0.000;    0.000
658.323; 2304.200;    0.000;    0.000
658.437; 2210.200;    0.000;    0.000
658.552; 2258.200;    0.000;    0.000
658.666; 2222.200;    0.000;    0.000
658.781; 2178.200;    0.000;    0.000
658.895; 2195.200;    0.000;    0.000
659.010; 2154.200;    0.000;    0.000
659.125; 2022.200;    0.000;    0.000
659.239; 2040.200;    0.000;    0.000
659.353; 2116.200;    0.000;    0.000
659.468; 2124.200;    0.000;    0.000
659.582; 2058.200;    0.000;    0.000
659.697; 2070.200;    0.000;    0.000
659.811; 2057.200;    0.000;    0.000
659.926; 2021.200;    0.000;    0.000
660.040; 1925.200;    0.000;    0.000
660.154; 1894.200;    0.000;    0.000
660.269; 1890.200;    0.000;    0.000
660.383; 1977.200;    0.000;    0.000
660.497; 1999.200;    0.000;    0.000
660.612; 1941.200;    0.000;    0.000
660.726; 1832.200;    0.000;    0.000
660.840; 1882.200;    0.000;    0.000
660.954; 1925.200;    0.000;    0.000
661.068; 1820.200;    0.000;    0.000
661.183; 1863.200;    0.000;    0.000
661.297; 1829.200;    0.000;    0.000
661.411; 1848.200;    0.000;    0.000
661.525; 1821.200;    0.000;    0.000
661.639; 1793.200;    0.000;    0.000
661.753; 1730.200;    0.000;    0.000
661.867; 1843.200;    0.000;    0.000
661.981; 1787.200;    0.000;    0.000
662.095; 1743.200;    0.000;    0.000
662.209; 1619.200;    0.000;    0.000
662.323; 1584.200;    0.000;    0.000
662.437; 1734.200;    0.000;    0.000
662.551; 1762.200;    0.000;    0.000
662.665; 1702.200;    0.000;    0.000
662.779; 1622.200;    0.000;    0.000
662.893; 1653.200;    0.000;    0.000
663.007; 1680.200;    0.000;    0.000
663.121; 1662.200;    0.000;    0.000
663.235; 1620.200;    0.000;    0.000
663.348; 1636.200;    0.000;    0.000
663.462; 1649.200;    0.000;    0.000
663.576; 1621.200;    0.000;    0.000
663.690; 1644.200;    0.000;    0.000
663.804; 1593.200;    0.000;    0.000
663.917; 1589.200;    0.000;    0.000
664.031; 1519.200;    0.000;    0.000
664.145; 1605.200;    0.000;    0.000
664.258; 1563.200;    0.000;    0.000
664.372; 1555.200;    0.000;    0.000
664.486; 1483.200;    0.000;    0.000
664.599; 1532.200;    0.000;    0.000
664.713; 1601.200;    0.000;    0.000
664.827; 1454.200;    0.000;    0.000
664.940; 1556.200;    0.000;    0.000
665.054; 1444.200;    0.000;    0.000
665.167; 1627.200;    0.000;    0.000
665.281; 1473.200;    0.000;    0.000
665.394; 1454.200;    0.000;    0.000
665.508; 1319.200;    0.000;    0.000
665.621; 1421.200;    0.000;    0.000
665.735; 1548.200;    0.000;    0.000
665.848; 1549.200;    0.000;    0.000
665.961; 1402.200;    0.000;    0.000
666.075; 1480.200;    0.000;    0.000
666.188; 1441.200;    0.000;    0.000
666.301; 1405.200;    0.000;    0.000
666.415; 1421.200;    0.000;    0.000
666.528; 1490.200;    0.000;    0.000
666.641; 1493.200;    0.000;    0.000
666.755; 1391.200;    0.000;    0.000
666.868; 1433.200;    0.000;    0.000
666.981; 1467.200;    0.000;    0.000
667.094; 1442.200;    0.000;    0.000
667.207; 1419.200;    0.000;    0.000
667.321; 1416.200;    0.000;    0.000
667.434; 1373.200;    0.000;    0.000
667.547; 1424.200;    0.000;    0.000
667.660; 1416.200;    0.000;    0.000
667.773; 1420.200;    0.000;    0.000
667.886; 1439.200;    0.000;    0.000
667.999; 1429.200;    0.000;    0.000
668.112; 1373.200;    0.000;    0.000
668.225; 1335.200;    0.000;    0.000
668.338; 1391.200;    0.000;    0.000
668.451; 1454.200;    0.000;    0.000
668.564; 1381.200;    0.000;    0.000
668.677; 1437.200;    0.000;    0.000
668.790; 1382.200;    0.000;    0.000
668.903; 1348.200;    0.000;    0.000
669.016; 1298.200;    0.000;    0.000
669.129; 1393.200;    0.000;    0.000
669.242; 1295.200;    0.000;    0.000
669.355; 1350.200;    0.000;    0.000
669.467; 1347.200;    0.000;    0.000
669.580; 1312.200;    0.000;    0.000
669.693; 1275.200;    0.000;    0.000
669.806; 1362.200;    0.000;    0.000
669.918; 1330.200;    0.000;    0.000
670.031; 1398.200;    0.000;    0.000
670.144; 1401.200;    0.000;    0.000
670.256; 1320.200;    0.000;    0.000
670.369; 1338.200;    0.000;    0.000
670.482; 1356.200;    0.000;    0.000
670.594; 1364.200;    0.000;    0.000
670.707; 1317.200;    0.000;    0.000
670.820; 1371.200;    0.000;    0.000
670.932; 1346.200;    0.000;    0.000
671.045; 1363.200;    0.000;    0.000
671.157; 1327.200;    0.000;    0.000
671.270; 1301.200;    0.000;    0.000
671.382; 1392.200;    0.000;    0.000
671.495; 1354.200;    0.000;    0.000
671.607; 1298.200;    0.000;    0.000
671.720; 1262.200;    0.000;    0.000
671.832; 1313.200;    0.000;    0.000
671.944; 1323.200;    0.000;    0.000
672.057; 1366.200;    0.000;    0.000
672.169; 1276.200;    0.000;    0.000
672.282; 1264.200;    0.000;    0.000
672.394; 1287.200;    0.000;    0.000
672.506; 1292.200;    0.000;    0.000
672.618; 1282.200;    0.000;    0.000
672.731; 1327.200;    0.000;    0.000
672.843; 1305.200;    0.000;    0.000
672.955; 1256.200;    0.000;    0.000
673.067; 1341.200;    0.000;    0.000
673.180; 1278.200;    0.000;    0.000
673.292; 1282.200;    0.000;    0.000
673.404; 1303.200;    0.000;    0.000
673.516; 1279.200;    0.000;    0.000
673.628; 1209.200;    0.000;    0.000
673.740; 1294.200;    0.000;    0.000
673.852; 1370.200;    0.000;    0.000
673.964; 1284.200;    0.000;    0.000
674.076; 1254.200;    0.000;    0.000
674.188; 1167.200;    0.000;    0.000
674.300; 1298.200;    0.000;    0.000
674.412; 1300.200;    0.000;    0.000
674.524; 1361.200;    0.000;    0.000
674.636; 1288.200;    0.000;    0.000
674.748; 1290.200;    0.000;    0.000
674.860; 1280.200;    0.000;    0.000
674.972; 1225.200;    0.000;    0.000
675.084; 1287.200;    0.000;    0.000
675.196; 1257.200;    0.000;    0.000
675.307; 1188.200;    0.000;    0.000
675.419; 1231.200;    0.000;    0.000
675.531; 1283.200;    0.000;    0.000
675.643; 1246.200;    0.000;    0.000
675.755; 1295.200;    0.000;    0.000
675.866; 1219.200;    0.000;    0.000
675.978; 1268.200;    0.000;    0.000
676.090; 1234.200;    0.000;    0.000
676.201; 1232.200;    0.000;    0.000
676.313; 1288.200;    0.000;    0.000
676.425; 1272.200;    0.000;    0.000
676.536; 1225.200;    0.000;    0.000
676.648; 1240.200;    0.000;    0.000
676.759; 1251.200;    0.000;    0.000
676.871; 1263.200;    0.000;    0.000
676.983; 1215.200;    0.000;    0.000
677.094; 1295.200;    0.000;    0.000
677.206; 1247.200;    0.000;    0.000
677.317; 1280.200;    0.000;    0.000
677.429; 1160.200;    0.000;    0.000
677.540; 1272.200;    0.000;    0.000
677.651; 1240.200;    0.000;    0.000
677.763; 1124.200;    0.000;    0.000
677.874; 1229.200;    0.000;    0.000
677.986; 1147.200;    0.000;    0.000
678.097; 1235.200;    0.000;    0.000
678.208; 1281.200;    0.000;    0.000
678.320; 1141.200;    0.000;    0.000
678.431; 1179.200;    0.000;    0.000
678.542; 1204.200;    0.000;    0.000
678.653; 1242.200;    0.000;    0.000
678.765; 1165.200;    0.000;    0.000
678.876; 1111.200;    0.000;    0.000
678.987; 1196.200;    0.000;    0.000
679.098; 1157.200;    0.000;    0.000
679.209; 1206.200;    0.000;    0.000
679.320; 1167.200;    0.000;    0.000
679.432; 1222.200;    0.000;    0.000
679.543; 1157.200;    0.000;    0.000
679.654; 1229.200;    0.000;    0.000
679.765; 1118.200;    0.000;    0.000
679.876; 1146.200;    0.000;    0.000
679.987; 1154.200;    0.000;    0.000
680.098; 1237.200;    0.000;    0.000
680.209; 1205.200;    0.000;    0.000
680.320; 1200.200;    0.000;    0.000
680.431; 1198.200;    0.000;    0.000
680.542; 1218.200;    0.000;    0.000
680.653; 1233.200;    0.000;    0.000
680.763; 1231.200;    0.000;    0.000
680.874; 1213.200;    0.000;    0.000
680.985; 1200.200;    0.000;    0.000
681.096; 1182.200;    0.000;    0.000
681.207; 1099.200;    0.000;    0.000
681.318; 1054.200;    0.000;    0.000
681.428; 1087.200;    0.000;    0.000
681.539; 1169.200;    0.000;    0.000
681.650; 1156.200;    0.000;    0.000
681.761; 1138.200;    0.000;    0.000
681.871; 1198.200;    0.000;    0.000
681.982; 1090.200;    0.000;    0.000
682.093; 1119.200;    0.000;    0.000
682.203; 1153.200;    0.000;    0.000
682.314; 1042.200;    0.000;    0.000
682.424; 1162.200;    0.000;    0.000
682.535; 1194.200;    0.000;    0.000
682.645; 1142.200;    0.000;    0.000
682.756; 1147.200;    0.000;    0.000
682.867; 1086.200;    0.000;    0.000
682.977; 1114.200;    0.000;    0.000
683.087; 1160.200;    0.000;    0.000
683.198; 1144.200;    0.000;    0.000
683.308; 1158.200;    0.000;    0.000
683.419; 1164.200;    0.000;    0.000
683.529; 1084.200;    0.000;    0.000
683.640; 1199.200;    0.000;    0.000
683.750; 1223.200;    0.000;    0.000
683.860; 1104.200;    0.000;    0.000
683.971; 1147.200;    0.000;    0.000
684.081; 1079.200;    0.000;    0.000
684.191; 1068.200;    0.000;    0.000
684.301; 1142.200;    0.000;    0.000
684.412; 1163.200;    0.000;    0.000
684.522; 1120.200;    0.000;    0.000
684.632; 1086.200;    0.000;    0.000
684.742; 1157.200;    0.000;    0.000
684.852; 1092.200;    0.000;    0.000
684.963; 1230.200;    0.000;    0.000
685.073; 1165.200;    0.000;    0.000
685.183; 1152.200;    0.000;    0.000
685.293; 1097.200;    0.000;    0.000
685.403; 1117.200;    0.000;    0.000
685.513; 1142.200;    0.000;    0.000
685.623; 1127.200;    0.000;    0.000
685.733; 1221.200;    0.000;    0.000
685.843; 1181.200;    0.000;    0.000
685.953; 1141.200;    0.000;    0.000
686.063; 1108.200;    0.000;    0.000
686.173; 1110.200;    0.000;    0.000
686.283; 1153.200;    0.000;    0.000
686.393; 1193.200;    0.000;    0.000
686.503; 1165.200;    0.000;    0.000
686.612; 1157.200;    0.000;    0.000
686.722; 1164.200;    0.000;    0.000
686.832; 1189.200;    0.000;    0.000
686.942; 1177.200;    0.000;    0.000
687.052; 1113.200;    0.000;    0.000
687.161; 1131.200;    0.000;    0.000
687.271; 1165.200;    0.000;    0.000
687.381; 1133.200;    0.000;    0.000
687.491; 1165.200;    0.000;    0.000
687.600; 1149.200;    0.000;    0.000
687.710; 1086.200;    0.000;    0.000
687.820; 1085.200;    0.000;    0.000
687.929; 1099.200;    0.000;    0.000
688.039; 1119.200;    0.000;    0.000
688.148; 1173.200;    0.000;    0.000
688.258; 1098.200;    0.000;    0.000
688.367; 1119.200;    0.000;    0.000
688.477; 1080.200;    0.000;    0.000
688.586; 1166.200;    0.000;    0.000
688.696; 1145.200;    0.000;    0.000
688.805; 1144.200;    0.000;    0.000
688.915; 1158.200;    0.000;    0.000
689.024; 1113.200;    0.000;    0.000
689.134; 1064.200;    0.000;    0.000
689.243; 1117.200;    0.000;    0.000
689.352; 1141.200;    0.000;    0.000
689.462; 1076.200;    0.000;    0.000
689.571; 1091.200;    0.000;    0.000
689.680; 1165.200;    0.000;    0.000
689.790; 1057.200;    0.000;    0.000
689.899; 1115.200;    0.000;    0.000
690.008; 1149.200;    0.000;    0.000
690.117; 1082.200;    0.000;    0.000
690.227; 1193.200;    0.000;    0.000
690.336; 1023.200;    0.000;    0.000
690.445; 1120.200;    0.000;    0.000
690.554; 1121.200;    0.000;    0.000
690.663; 1116.200;    0.000;    0.000
690.772; 1109.200;    0.000;    0.000
690.881; 1108.200;    0.000;    0.000
690.990; 1157.200;    0.000;    0.000
691.100; 1067.200;    0.000;    0.000
691.209; 1093.200;    0.000;    0.000
691.318; 1101.200;    0.000;    0.000
691.427; 1049.200;    0.000;    0.000
691.535; 1121.200;    0.000;    0.000
691.644; 1126.200;    0.000;    0.000
691.753; 1077.200;    0.000;    0.000
691.862; 1089.200;    0.000;    0.000
691.971; 1103.200;    0.000;    0.000
692.080; 1141.200;    0.000;    0.000
692.189; 1148.200;    0.000;    0.000
692.298; 1049.200;    0.000;    0.000
692.407; 1177.200;    0.000;    0.000
692.515; 1126.200;    0.000;    0.000
692.624; 1055.200;    0.000;    0.000
692.733; 1111.200;    0.000;    0.000
692.842; 1123.200;    0.000;    0.000
692.950; 1117.200;    0.000;    0.000
693.059; 1054.200;    0.000;    0.000
693.168; 1108.200;    0.000;    0.000
693.276; 1168.200;    0.000;    0.000
693.385; 1052.200;    0.000;    0.000
693.494; 1079.200;    0.000;    0.000
693.602; 1084.200;    0.000;    0.000
693.711; 1085.200;    0.000;    0.000
693.819; 1103.200;    0.000;    0.000
693.928; 1065.200;    0.000;    0.000
694.036; 1074.200;    0.000;    0.000
694.145; 1093.200;    0.000;    0.000
694.253; 1097.200;    0.000;    0.000
694.362; 1040.200;    0.000;    0.000
694.470; 1085.200;    0.000;    0.000
694.579; 1084.200;    0.000;    0.000
694.687; 1191.200;    0.000;    0.000
694.795; 1109.200;    0.000;    0.000
694.904; 1091.200;    0.000;    0.000
695.012; 1163.200;    0.000;    0.000
695.120; 1075.200;    0.000;    0.000
695.229; 1144.200;    0.000;    0.000
695.337; 1063.200;    0.000;    0.000
695.445; 1092.200;    0.000;    0.000
695.553; 1090.200;    0.000;    0.000
695.662; 1160.200;    0.000;    0.000
695.770; 1123.200;    0.000;    0.000
695.878; 1126.200;    0.000;    0.000
695.986; 1133.200;    0.000;    0.000
696.094; 1056.200;    0.000;    0.000
696.202; 1077.200;    0.000;    0.000
696.310; 1104.200;    0.000;    0.000
696.419; 1030.200;    0.000;    0.000
696.527; 1111.200;    0.000;    0.000
696.635; 1085.200;    0.000;    0.000
696.743; 1099.200;    0.000;    0.000
696.851; 1113.200;    0.000;    0.000
696.959; 1152.200;    0.000;    0.000
697.067; 1058.200;    0.000;    0.000
697.174; 1149.200;    0.000;    0.000
697.282; 1066.200;    0.000;    0.000
697.390; 1081.200;    0.000;    0.000
697.498; 1083.200;    0.000;    0.000
697.606; 1086.200;    0.000;    0.000
697.714; 1141.200;    0.000;    0.000
697.822; 1046.200;    0.000;    0.000
697.929; 1111.200;    0.000;    0.000
698.037; 1118.200;    0.000;    0.000
698.145; 1102.200;    0.000;    0.000
698.253; 1089.200;    0.000;    0.000
698.360; 1072.200;    0.000;    0.000
698.468; 1118.200;    0.000;    0.000
698.576; 1114.200;    0.000;    0.000
698.683; 1148.200;    0.000;    0.000
698.791; 1147.200;    0.000;    0.000
698.899; 1119.200;    0.000;    0.000
699.006; 1148.200;    0.000;    0.000
699.114; 1056.200;    0.000;    0.000
699.221; 1135.200;    0.000;    0.000
699.329; 1172.200;    0.000;    0.000
699.436; 1116.200;    0.000;    0.000
699.544; 1125.200;    0.000;    0.000
699.651; 1063.200;    0.000;    0.000
699.759; 1090.200;    0.000;    0.000
699.866; 1095.200;    0.000;    0.000
699.974; 1133.200;    0.000;    0.000
700.081; 1105.200;    0.000;    0.000
700.188; 1144.200;    0.000;    0.000
700.296; 1080.200;    0.000;    0.000
700.403; 1050.200;    0.000;    0.000
700.510; 1129.200;    0.000;    0.000
700.618; 1083.200;    0.000;    0.000
700.725; 1087.200;    0.000;    0.000
700.832; 1133.200;    0.000;    0.000
700.940; 1086.200;    0.000;    0.000
701.047; 1057.200;    0.000;    0.000
701.154; 1056.200;    0.000;    0.000
701.261; 1104.200;    0.000;    0.000
701.368; 1097.200;    0.000;    0.000
701.475; 1118.200;    0.000;    0.000
701.582; 1097.200;    0.000;    0.000
701.690; 1113.200;    0.000;    0.000
701.797; 1161.200;    0.000;    0.000
701.904; 1095.200;    0.000;    0.000
702.011; 1186.200;    0.000;    0.000
702.118; 1075.200;    0.000;    0.000
702.225; 1127.200;    0.000;    0.000
702.332; 1171.200;    0.000;    0.000
702.439; 1154.200;    0.000;    0.000
702.546; 1110.200;    0.000;    0.000
702.652; 1136.200;    0.000;    0.000
702.759; 1134.200;    0.000;    0.000
702.866; 1128.200;    0.000;    0.000
702.973; 1178.200;    0.000;    0.000
703.080; 1172.200;    0.000;    0.000
703.187; 1133.200;    0.000;    0.000
703.293; 1164.200;    0.000;    0.000
703.400; 1079.200;    0.000;    0.000
703.507;  440.200;    0.000;    0.000
703.614;  283.200;    0.000;    0.000
703.720;  329.200;    0.000;    0.000
703.827;  307.200;    0.000;    0.000
703.934;  328.200;    0.000;    0.000
704.040;  329.200;    0.000;    0.000
704.147;  330.200;    0.000;    0.000
704.254;  363.200;    0.000;    0.000
704.360;  318.200;    0.000;    0.000
704.467;  339.200;    0.000;    0.000
704.573;  349.200;    0.000;    0.000
704.680;  336.200;    0.000;    0.000
704.786;  320.200;    0.000;    0.000
704.893;  344.200;    0.000;    0.000
704.999;  338.200;    0.000;    0.000
705.106;  333.200;    0.000;    0.000

