M14_test_200us_n5
Integration time [ms]:   0.500
Averaging Nr. [scans]: 1
Smoothing Nr. [pixels]: 0
Data measured with spectrometer [name]: VIS
Wave   ;Sample   ;Dark     ;Reference
[nm]   ;[counts] ;[counts] ;[counts] 

450.961;  221.825;    0.000;    0.000
451.100;  233.825;    0.000;    0.000
451.239;  210.825;    0.000;    0.000
451.377;  244.825;    0.000;    0.000
451.516;  171.825;    0.000;    0.000
451.655;  210.825;    0.000;    0.000
451.794;  218.825;    0.000;    0.000
451.932;  206.825;    0.000;    0.000
452.071;  215.825;    0.000;    0.000
452.210;  207.825;    0.000;    0.000
452.348;  222.825;    0.000;    0.000
452.487;  242.825;    0.000;    0.000
452.626;  192.825;    0.000;    0.000
452.764;  225.825;    0.000;    0.000
452.903;  233.825;    0.000;    0.000
453.042;  226.825;    0.000;    0.000
453.180; 2380.825;    0.000;    0.000
453.319; 2457.825;    0.000;    0.000
453.458; 2472.825;    0.000;    0.000
453.596; 2488.825;    0.000;    0.000
453.735; 2564.825;    0.000;    0.000
453.873; 2545.825;    0.000;    0.000
454.012; 2546.825;    0.000;    0.000
454.150; 2601.825;    0.000;    0.000
454.289; 2619.825;    0.000;    0.000
454.427; 2631.825;    0.000;    0.000
454.566; 2636.825;    0.000;    0.000
454.705; 2694.825;    0.000;    0.000
454.843; 2672.825;    0.000;    0.000
454.981; 2683.825;    0.000;    0.000
455.120; 2635.825;    0.000;    0.000
455.258; 2831.825;    0.000;    0.000
455.397; 2766.825;    0.000;    0.000
455.535; 2787.825;    0.000;    0.000
455.674; 2737.825;    0.000;    0.000
455.812; 2893.825;    0.000;    0.000
455.950; 2797.825;    0.000;    0.000
456.089; 2940.825;    0.000;    0.000
456.227; 2867.825;    0.000;    0.000
456.366; 3006.825;    0.000;    0.000
456.504; 3052.825;    0.000;    0.000
456.642; 3018.825;    0.000;    0.000
456.781; 3083.825;    0.000;    0.000
456.919; 3055.825;    0.000;    0.000
457.057; 3080.825;    0.000;    0.000
457.196; 3183.825;    0.000;    0.000
457.334; 3172.825;    0.000;    0.000
457.472; 3163.825;    0.000;    0.000
457.610; 3307.825;    0.000;    0.000
457.749; 3319.825;    0.000;    0.000
457.887; 3341.825;    0.000;    0.000
458.025; 3401.825;    0.000;    0.000
458.163; 3339.825;    0.000;    0.000
458.301; 3469.825;    0.000;    0.000
458.440; 3475.825;    0.000;    0.000
458.578; 3562.825;    0.000;    0.000
458.716; 3628.825;    0.000;    0.000
458.854; 3641.825;    0.000;    0.000
458.992; 3580.825;    0.000;    0.000
459.130; 3707.825;    0.000;    0.000
459.269; 3672.825;    0.000;    0.000
459.407; 3741.825;    0.000;    0.000
459.545; 3778.825;    0.000;    0.000
459.683; 3811.825;    0.000;    0.000
459.821; 3859.825;    0.000;    0.000
459.959; 3917.825;    0.000;    0.000
460.097; 3908.825;    0.000;    0.000
460.235; 3926.825;    0.000;    0.000
460.373; 4017.825;    0.000;    0.000
460.511; 4005.825;    0.000;    0.000
460.649; 3986.825;    0.000;    0.000
460.787; 4057.825;    0.000;    0.000
460.925; 4072.825;    0.000;    0.000
461.063; 4140.825;    0.000;    0.000
461.201; 4054.825;    0.000;    0.000
461.339; 4162.825;    0.000;    0.000
461.477; 4136.825;    0.000;    0.000
461.615; 4171.825;    0.000;    0.000
461.753; 4135.825;    0.000;    0.000
461.891; 4252.825;    0.000;    0.000
462.029; 4328.825;    0.000;    0.000
462.166; 4269.825;    0.000;    0.000
462.304; 4459.825;    0.000;    0.000
462.442; 4603.825;    0.000;    0.000
462.580; 4579.825;    0.000;    0.000
462.718; 4477.825;    0.000;    0.000
462.856; 4424.825;    0.000;    0.000
462.993; 4413.825;    0.000;    0.000
463.131; 4401.825;    0.000;    0.000
463.269; 4451.825;    0.000;    0.000
463.407; 4386.825;    0.000;    0.000
463.545; 4279.825;    0.000;    0.000
463.682; 4334.825;    0.000;    0.000
463.820; 4610.825;    0.000;    0.000
463.958; 4791.825;    0.000;    0.000
464.095; 4776.825;    0.000;    0.000
464.233; 4889.825;    0.000;    0.000
464.371; 4872.825;    0.000;    0.000
464.509; 4786.825;    0.000;    0.000
464.646; 4811.825;    0.000;    0.000
464.784; 4783.825;    0.000;    0.000
464.921; 4714.825;    0.000;    0.000
465.059; 4605.825;    0.000;    0.000
465.197; 4580.825;    0.000;    0.000
465.334; 4453.825;    0.000;    0.000
465.472; 4613.825;    0.000;    0.000
465.609; 4500.825;    0.000;    0.000
465.747; 4448.825;    0.000;    0.000
465.885; 4381.825;    0.000;    0.000
466.022; 4400.825;    0.000;    0.000
466.160; 4362.825;    0.000;    0.000
466.297; 4377.825;    0.000;    0.000
466.435; 4401.825;    0.000;    0.000
466.572; 4416.825;    0.000;    0.000
466.710; 4283.825;    0.000;    0.000
466.847; 4430.825;    0.000;    0.000
466.985; 4362.825;    0.000;    0.000
467.122; 4308.825;    0.000;    0.000
467.260; 4233.825;    0.000;    0.000
467.397; 4313.825;    0.000;    0.000
467.534; 4284.825;    0.000;    0.000
467.672; 4256.825;    0.000;    0.000
467.809; 4253.825;    0.000;    0.000
467.947; 4330.825;    0.000;    0.000
468.084; 4388.825;    0.000;    0.000
468.221; 4221.825;    0.000;    0.000
468.359; 4269.825;    0.000;    0.000
468.496; 4258.825;    0.000;    0.000
468.633; 4394.825;    0.000;    0.000
468.771; 4387.825;    0.000;    0.000
468.908; 4374.825;    0.000;    0.000
469.045; 4318.825;    0.000;    0.000
469.183; 4436.825;    0.000;    0.000
469.320; 4438.825;    0.000;    0.000
469.457; 4523.825;    0.000;    0.000
469.594; 4444.825;    0.000;    0.000
469.732; 4388.825;    0.000;    0.000
469.869; 4489.825;    0.000;    0.000
470.006; 4556.825;    0.000;    0.000
470.143; 4457.825;    0.000;    0.000
470.280; 4561.825;    0.000;    0.000
470.417; 4617.825;    0.000;    0.000
470.555; 4678.825;    0.000;    0.000
470.692; 4707.825;    0.000;    0.000
470.829; 4666.825;    0.000;    0.000
470.966; 4540.825;    0.000;    0.000
471.103; 4602.825;    0.000;    0.000
471.240; 4614.825;    0.000;    0.000
471.377; 4509.825;    0.000;    0.000
471.514; 4596.825;    0.000;    0.000
471.651; 4505.825;    0.000;    0.000
471.789; 4476.825;    0.000;    0.000
471.926; 4626.825;    0.000;    0.000
472.063; 4546.825;    0.000;    0.000
472.200; 4557.825;    0.000;    0.000
472.337; 4470.825;    0.000;    0.000
472.474; 4335.825;    0.000;    0.000
472.611; 4474.825;    0.000;    0.000
472.748; 4424.825;    0.000;    0.000
472.884; 4436.825;    0.000;    0.000
473.021; 4498.825;    0.000;    0.000
473.158; 4447.825;    0.000;    0.000
473.295; 4438.825;    0.000;    0.000
473.432; 4495.825;    0.000;    0.000
473.569; 4489.825;    0.000;    0.000
473.706; 4472.825;    0.000;    0.000
473.843; 4421.825;    0.000;    0.000
473.980; 4372.825;    0.000;    0.000
474.117; 4535.825;    0.000;    0.000
474.253; 4462.825;    0.000;    0.000
474.390; 4367.825;    0.000;    0.000
474.527; 4384.825;    0.000;    0.000
474.664; 4381.825;    0.000;    0.000
474.801; 4467.825;    0.000;    0.000
474.937; 4336.825;    0.000;    0.000
475.074; 4521.825;    0.000;    0.000
475.211; 4471.825;    0.000;    0.000
475.348; 4394.825;    0.000;    0.000
475.484; 4535.825;    0.000;    0.000
475.621; 4477.825;    0.000;    0.000
475.758; 4464.825;    0.000;    0.000
475.894; 4481.825;    0.000;    0.000
476.031; 4518.825;    0.000;    0.000
476.168; 4453.825;    0.000;    0.000
476.304; 4504.825;    0.000;    0.000
476.441; 4659.825;    0.000;    0.000
476.578; 4424.825;    0.000;    0.000
476.714; 4552.825;    0.000;    0.000
476.851; 4572.825;    0.000;    0.000
476.987; 4547.825;    0.000;    0.000
477.124; 4577.825;    0.000;    0.000
477.261; 4629.825;    0.000;    0.000
477.397; 4561.825;    0.000;    0.000
477.534; 4697.825;    0.000;    0.000
477.670; 4689.825;    0.000;    0.000
477.807; 4722.825;    0.000;    0.000
477.943; 4750.825;    0.000;    0.000
478.080; 4818.825;    0.000;    0.000
478.216; 4846.825;    0.000;    0.000
478.353; 4792.825;    0.000;    0.000
478.489; 4824.825;    0.000;    0.000
478.626; 4900.825;    0.000;    0.000
478.762; 4916.825;    0.000;    0.000
478.898; 4884.825;    0.000;    0.000
479.035; 5009.825;    0.000;    0.000
479.171; 4987.825;    0.000;    0.000
479.308; 4891.825;    0.000;    0.000
479.444; 4895.825;    0.000;    0.000
479.580; 4763.825;    0.000;    0.000
479.717; 4974.825;    0.000;    0.000
479.853; 4929.825;    0.000;    0.000
479.989; 4949.825;    0.000;    0.000
480.126; 4883.825;    0.000;    0.000
480.262; 5011.825;    0.000;    0.000
480.398; 5080.825;    0.000;    0.000
480.535; 4962.825;    0.000;    0.000
480.671; 5066.825;    0.000;    0.000
480.807; 4929.825;    0.000;    0.000
480.943; 4905.825;    0.000;    0.000
481.080; 4917.825;    0.000;    0.000
481.216; 5046.825;    0.000;    0.000
481.352; 4920.825;    0.000;    0.000
481.488; 4948.825;    0.000;    0.000
481.624; 4980.825;    0.000;    0.000
481.761; 4854.825;    0.000;    0.000
481.897; 4834.825;    0.000;    0.000
482.033; 4939.825;    0.000;    0.000
482.169; 4961.825;    0.000;    0.000
482.305; 4969.825;    0.000;    0.000
482.441; 4844.825;    0.000;    0.000
482.577; 4846.825;    0.000;    0.000
482.713; 4875.825;    0.000;    0.000
482.849; 4900.825;    0.000;    0.000
482.985; 4844.825;    0.000;    0.000
483.121; 4915.825;    0.000;    0.000
483.257; 4904.825;    0.000;    0.000
483.394; 4847.825;    0.000;    0.000
483.530; 4823.825;    0.000;    0.000
483.666; 4939.825;    0.000;    0.000
483.801; 4831.825;    0.000;    0.000
483.937; 5001.825;    0.000;    0.000
484.073; 5077.825;    0.000;    0.000
484.209; 4909.825;    0.000;    0.000
484.345; 4999.825;    0.000;    0.000
484.481; 5039.825;    0.000;    0.000
484.617; 4932.825;    0.000;    0.000
484.753; 4976.825;    0.000;    0.000
484.889; 5064.825;    0.000;    0.000
485.025; 5033.825;    0.000;    0.000
485.161; 5081.825;    0.000;    0.000
485.296; 5057.825;    0.000;    0.000
485.432; 4981.825;    0.000;    0.000
485.568; 5089.825;    0.000;    0.000
485.704; 5044.825;    0.000;    0.000
485.840; 5002.825;    0.000;    0.000
485.975; 5052.825;    0.000;    0.000
486.111; 5010.825;    0.000;    0.000
486.247; 5022.825;    0.000;    0.000
486.383; 4997.825;    0.000;    0.000
486.518; 4990.825;    0.000;    0.000
486.654; 5097.825;    0.000;    0.000
486.790; 5070.825;    0.000;    0.000
486.926; 5076.825;    0.000;    0.000
487.061; 4956.825;    0.000;    0.000
487.197; 4968.825;    0.000;    0.000
487.333; 4980.825;    0.000;    0.000
487.468; 4952.825;    0.000;    0.000
487.604; 4959.825;    0.000;    0.000
487.739; 5033.825;    0.000;    0.000
487.875; 5057.825;    0.000;    0.000
488.011; 5043.825;    0.000;    0.000
488.146; 4975.825;    0.000;    0.000
488.282; 5067.825;    0.000;    0.000
488.417; 5102.825;    0.000;    0.000
488.553; 5022.825;    0.000;    0.000
488.688; 5043.825;    0.000;    0.000
488.824; 4937.825;    0.000;    0.000
488.960; 5095.825;    0.000;    0.000
489.095; 5140.825;    0.000;    0.000
489.230; 5202.825;    0.000;    0.000
489.366; 5031.825;    0.000;    0.000
489.501; 5094.825;    0.000;    0.000
489.637; 5125.825;    0.000;    0.000
489.772; 5181.825;    0.000;    0.000
489.908; 5040.825;    0.000;    0.000
490.043; 5155.825;    0.000;    0.000
490.179; 5144.825;    0.000;    0.000
490.314; 5218.825;    0.000;    0.000
490.449; 5086.825;    0.000;    0.000
490.585; 5117.825;    0.000;    0.000
490.720; 5067.825;    0.000;    0.000
490.855; 5143.825;    0.000;    0.000
490.991; 5062.825;    0.000;    0.000
491.126; 5024.825;    0.000;    0.000
491.261; 5112.825;    0.000;    0.000
491.396; 5147.825;    0.000;    0.000
491.532; 4975.825;    0.000;    0.000
491.667; 5122.825;    0.000;    0.000
491.802; 5201.825;    0.000;    0.000
491.937; 5091.825;    0.000;    0.000
492.073; 5157.825;    0.000;    0.000
492.208; 5185.825;    0.000;    0.000
492.343; 5082.825;    0.000;    0.000
492.478; 5264.825;    0.000;    0.000
492.613; 5177.825;    0.000;    0.000
492.749; 5216.825;    0.000;    0.000
492.884; 5252.825;    0.000;    0.000
493.019; 5212.825;    0.000;    0.000
493.154; 5151.825;    0.000;    0.000
493.289; 5076.825;    0.000;    0.000
493.424; 5251.825;    0.000;    0.000
493.559; 5279.825;    0.000;    0.000
493.694; 5131.825;    0.000;    0.000
493.829; 5195.825;    0.000;    0.000
493.964; 5241.825;    0.000;    0.000
494.099; 5157.825;    0.000;    0.000
494.234; 5029.825;    0.000;    0.000
494.369; 5195.825;    0.000;    0.000
494.504; 5137.825;    0.000;    0.000
494.639; 5208.825;    0.000;    0.000
494.774; 5188.825;    0.000;    0.000
494.909; 5202.825;    0.000;    0.000
495.044; 5281.825;    0.000;    0.000
495.179; 5270.825;    0.000;    0.000
495.314; 5167.825;    0.000;    0.000
495.449; 5219.825;    0.000;    0.000
495.584; 5214.825;    0.000;    0.000
495.719; 5212.825;    0.000;    0.000
495.854; 5162.825;    0.000;    0.000
495.988; 5271.825;    0.000;    0.000
496.123; 5181.825;    0.000;    0.000
496.258; 5302.825;    0.000;    0.000
496.393; 5329.825;    0.000;    0.000
496.528; 5322.825;    0.000;    0.000
496.663; 5421.825;    0.000;    0.000
496.797; 5374.825;    0.000;    0.000
496.932; 5512.825;    0.000;    0.000
497.067; 5416.825;    0.000;    0.000
497.202; 5420.825;    0.000;    0.000
497.336; 5596.825;    0.000;    0.000
497.471; 5538.825;    0.000;    0.000
497.606; 5691.825;    0.000;    0.000
497.740; 5929.825;    0.000;    0.000
497.875; 5793.825;    0.000;    0.000
498.010; 5915.825;    0.000;    0.000
498.144; 6036.825;    0.000;    0.000
498.279; 6167.825;    0.000;    0.000
498.414; 6328.825;    0.000;    0.000
498.548; 6230.825;    0.000;    0.000
498.683; 6273.825;    0.000;    0.000
498.817; 6403.825;    0.000;    0.000
498.952; 6347.825;    0.000;    0.000
499.087; 6607.825;    0.000;    0.000
499.221; 6686.825;    0.000;    0.000
499.356; 6872.825;    0.000;    0.000
499.490; 7053.825;    0.000;    0.000
499.625; 7081.825;    0.000;    0.000
499.759; 7241.825;    0.000;    0.000
499.894; 7312.825;    0.000;    0.000
500.028; 7479.825;    0.000;    0.000
500.162; 7700.825;    0.000;    0.000
500.297; 7898.825;    0.000;    0.000
500.431; 7764.825;    0.000;    0.000
500.566; 7933.825;    0.000;    0.000
500.700; 7707.825;    0.000;    0.000
500.835; 7689.825;    0.000;    0.000
500.969; 7478.825;    0.000;    0.000
501.103; 7383.825;    0.000;    0.000
501.238; 7220.825;    0.000;    0.000
501.372; 7113.825;    0.000;    0.000
501.506; 6804.825;    0.000;    0.000
501.641; 6688.825;    0.000;    0.000
501.775; 6597.825;    0.000;    0.000
501.909; 6363.825;    0.000;    0.000
502.043; 6332.825;    0.000;    0.000
502.178; 6255.825;    0.000;    0.000
502.312; 5965.825;    0.000;    0.000
502.446; 5932.825;    0.000;    0.000
502.580; 5825.825;    0.000;    0.000
502.715; 5867.825;    0.000;    0.000
502.849; 5667.825;    0.000;    0.000
502.983; 5640.825;    0.000;    0.000
503.117; 5563.825;    0.000;    0.000
503.251; 5660.825;    0.000;    0.000
503.385; 5509.825;    0.000;    0.000
503.520; 5499.825;    0.000;    0.000
503.654; 5307.825;    0.000;    0.000
503.788; 5467.825;    0.000;    0.000
503.922; 5281.825;    0.000;    0.000
504.056; 5178.825;    0.000;    0.000
504.190; 5095.825;    0.000;    0.000
504.324; 5117.825;    0.000;    0.000
504.458; 5105.825;    0.000;    0.000
504.592; 4954.825;    0.000;    0.000
504.726; 4954.825;    0.000;    0.000
504.860; 4857.825;    0.000;    0.000
504.994; 4726.825;    0.000;    0.000
505.128; 4792.825;    0.000;    0.000
505.262; 4772.825;    0.000;    0.000
505.396; 4698.825;    0.000;    0.000
505.530; 4648.825;    0.000;    0.000
505.664; 4516.825;    0.000;    0.000
505.798; 4697.825;    0.000;    0.000
505.932; 4575.825;    0.000;    0.000
506.066; 4510.825;    0.000;    0.000
506.199; 4485.825;    0.000;    0.000
506.333; 4319.825;    0.000;    0.000
506.467; 4538.825;    0.000;    0.000
506.601; 4421.825;    0.000;    0.000
506.735; 4412.825;    0.000;    0.000
506.869; 4268.825;    0.000;    0.000
507.002; 4303.825;    0.000;    0.000
507.136; 4266.825;    0.000;    0.000
507.270; 4214.825;    0.000;    0.000
507.404; 4185.825;    0.000;    0.000
507.537; 4203.825;    0.000;    0.000
507.671; 4153.825;    0.000;    0.000
507.805; 4102.825;    0.000;    0.000
507.939; 4134.825;    0.000;    0.000
508.072; 4108.825;    0.000;    0.000
508.206; 4095.825;    0.000;    0.000
508.340; 4090.825;    0.000;    0.000
508.473; 4038.825;    0.000;    0.000
508.607; 4082.825;    0.000;    0.000
508.740; 4165.825;    0.000;    0.000
508.874; 4077.825;    0.000;    0.000
509.008; 3956.825;    0.000;    0.000
509.141; 4022.825;    0.000;    0.000
509.275; 3966.825;    0.000;    0.000
509.408; 3962.825;    0.000;    0.000
509.542; 3978.825;    0.000;    0.000
509.675; 4033.825;    0.000;    0.000
509.809; 4012.825;    0.000;    0.000
509.942; 4020.825;    0.000;    0.000
510.076; 3928.825;    0.000;    0.000
510.209; 3976.825;    0.000;    0.000
510.343; 3960.825;    0.000;    0.000
510.476; 3971.825;    0.000;    0.000
510.610; 3865.825;    0.000;    0.000
510.743; 3941.825;    0.000;    0.000
510.877; 3883.825;    0.000;    0.000
511.010; 3843.825;    0.000;    0.000
511.143; 3915.825;    0.000;    0.000
511.277; 3870.825;    0.000;    0.000
511.410; 3820.825;    0.000;    0.000
511.543; 3899.825;    0.000;    0.000
511.677; 3861.825;    0.000;    0.000
511.810; 3841.825;    0.000;    0.000
511.943; 3888.825;    0.000;    0.000
512.077; 3913.825;    0.000;    0.000
512.210; 3869.825;    0.000;    0.000
512.343; 3760.825;    0.000;    0.000
512.476; 3790.825;    0.000;    0.000
512.610; 3821.825;    0.000;    0.000
512.743; 3940.825;    0.000;    0.000
512.876; 3948.825;    0.000;    0.000
513.009; 3831.825;    0.000;    0.000
513.142; 3890.825;    0.000;    0.000
513.276; 3830.825;    0.000;    0.000
513.409; 3753.825;    0.000;    0.000
513.542; 3803.825;    0.000;    0.000
513.675; 3895.825;    0.000;    0.000
513.808; 3758.825;    0.000;    0.000
513.941; 3856.825;    0.000;    0.000
514.074; 3972.825;    0.000;    0.000
514.207; 3855.825;    0.000;    0.000
514.340; 3869.825;    0.000;    0.000
514.474; 3802.825;    0.000;    0.000
514.607; 3857.825;    0.000;    0.000
514.740; 3855.825;    0.000;    0.000
514.873; 3929.825;    0.000;    0.000
515.006; 3934.825;    0.000;    0.000
515.139; 3990.825;    0.000;    0.000
515.272; 3910.825;    0.000;    0.000
515.404; 3973.825;    0.000;    0.000
515.537; 4042.825;    0.000;    0.000
515.670; 4042.825;    0.000;    0.000
515.803; 4080.825;    0.000;    0.000
515.936; 4072.825;    0.000;    0.000
516.069; 4108.825;    0.000;    0.000
516.202; 4092.825;    0.000;    0.000
516.335; 4292.825;    0.000;    0.000
516.468; 4503.825;    0.000;    0.000
516.600; 5235.825;    0.000;    0.000
516.733; 6473.825;    0.000;    0.000
516.866; 6449.825;    0.000;    0.000
516.999; 6061.825;    0.000;    0.000
517.132; 7255.825;    0.000;    0.000
517.264;10147.825;    0.000;    0.000
517.397; 9856.825;    0.000;    0.000
517.530; 7544.825;    0.000;    0.000
517.663; 6200.825;    0.000;    0.000
517.795; 5789.825;    0.000;    0.000
517.928; 5625.825;    0.000;    0.000
518.061; 5583.825;    0.000;    0.000
518.193; 7405.825;    0.000;    0.000
518.326;11625.825;    0.000;    0.000
518.459;12586.825;    0.000;    0.000
518.591; 9378.825;    0.000;    0.000
518.724; 7123.825;    0.000;    0.000
518.857; 5964.825;    0.000;    0.000
518.989; 5652.825;    0.000;    0.000
519.122; 5274.825;    0.000;    0.000
519.254; 5058.825;    0.000;    0.000
519.387; 4773.825;    0.000;    0.000
519.519; 4589.825;    0.000;    0.000
519.652; 4471.825;    0.000;    0.000
519.784; 4408.825;    0.000;    0.000
519.917; 4264.825;    0.000;    0.000
520.049; 4260.825;    0.000;    0.000
520.182; 4076.825;    0.000;    0.000
520.314; 4199.825;    0.000;    0.000
520.447; 4173.825;    0.000;    0.000
520.579; 3933.825;    0.000;    0.000
520.712; 3879.825;    0.000;    0.000
520.844; 3947.825;    0.000;    0.000
520.976; 3869.825;    0.000;    0.000
521.109; 3874.825;    0.000;    0.000
521.241; 3782.825;    0.000;    0.000
521.373; 3687.825;    0.000;    0.000
521.506; 3645.825;    0.000;    0.000
521.638; 3748.825;    0.000;    0.000
521.770; 3736.825;    0.000;    0.000
521.903; 3576.825;    0.000;    0.000
522.035; 3639.825;    0.000;    0.000
522.167; 3464.825;    0.000;    0.000
522.300; 3623.825;    0.000;    0.000
522.432; 3625.825;    0.000;    0.000
522.564; 3567.825;    0.000;    0.000
522.696; 3547.825;    0.000;    0.000
522.828; 3443.825;    0.000;    0.000
522.961; 3397.825;    0.000;    0.000
523.093; 3406.825;    0.000;    0.000
523.225; 3509.825;    0.000;    0.000
523.357; 3399.825;    0.000;    0.000
523.489; 3479.825;    0.000;    0.000
523.621; 3442.825;    0.000;    0.000
523.753; 3440.825;    0.000;    0.000
523.886; 3382.825;    0.000;    0.000
524.018; 3323.825;    0.000;    0.000
524.150; 3383.825;    0.000;    0.000
524.282; 3316.825;    0.000;    0.000
524.414; 3337.825;    0.000;    0.000
524.546; 3376.825;    0.000;    0.000
524.678; 3301.825;    0.000;    0.000
524.810; 3307.825;    0.000;    0.000
524.942; 3237.825;    0.000;    0.000
525.074; 3214.825;    0.000;    0.000
525.206; 3281.825;    0.000;    0.000
525.338; 3244.825;    0.000;    0.000
525.470; 3221.825;    0.000;    0.000
525.601; 3174.825;    0.000;    0.000
525.733; 3096.825;    0.000;    0.000
525.865; 3216.825;    0.000;    0.000
525.997; 3203.825;    0.000;    0.000
526.129; 3244.825;    0.000;    0.000
526.261; 3184.825;    0.000;    0.000
526.393; 3095.825;    0.000;    0.000
526.524; 3121.825;    0.000;    0.000
526.656; 3181.825;    0.000;    0.000
526.788; 3179.825;    0.000;    0.000
526.920; 3135.825;    0.000;    0.000
527.052; 3129.825;    0.000;    0.000
527.183; 3088.825;    0.000;    0.000
527.315; 3196.825;    0.000;    0.000
527.447; 3129.825;    0.000;    0.000
527.578; 3119.825;    0.000;    0.000
527.710; 3140.825;    0.000;    0.000
527.842; 3151.825;    0.000;    0.000
527.973; 3137.825;    0.000;    0.000
528.105; 3080.825;    0.000;    0.000
528.237; 3103.825;    0.000;    0.000
528.368; 3093.825;    0.000;    0.000
528.500; 3117.825;    0.000;    0.000
528.632; 2974.825;    0.000;    0.000
528.763; 3071.825;    0.000;    0.000
528.895; 3071.825;    0.000;    0.000
529.026; 3066.825;    0.000;    0.000
529.158; 3090.825;    0.000;    0.000
529.289; 3014.825;    0.000;    0.000
529.421; 3091.825;    0.000;    0.000
529.552; 3019.825;    0.000;    0.000
529.684; 3026.825;    0.000;    0.000
529.815; 3200.825;    0.000;    0.000
529.947; 3074.825;    0.000;    0.000
530.078; 3149.825;    0.000;    0.000
530.210; 3053.825;    0.000;    0.000
530.341; 3066.825;    0.000;    0.000
530.472; 3069.825;    0.000;    0.000
530.604; 3058.825;    0.000;    0.000
530.735; 3012.825;    0.000;    0.000
530.867; 3124.825;    0.000;    0.000
530.998; 3086.825;    0.000;    0.000
531.129; 3034.825;    0.000;    0.000
531.261; 3070.825;    0.000;    0.000
531.392; 3095.825;    0.000;    0.000
531.523; 3143.825;    0.000;    0.000
531.654; 3172.825;    0.000;    0.000
531.786; 3160.825;    0.000;    0.000
531.917; 3186.825;    0.000;    0.000
532.048; 3059.825;    0.000;    0.000
532.179; 3127.825;    0.000;    0.000
532.311; 3067.825;    0.000;    0.000
532.442; 3143.825;    0.000;    0.000
532.573; 3050.825;    0.000;    0.000
532.704; 3069.825;    0.000;    0.000
532.835; 3099.825;    0.000;    0.000
532.966; 3057.825;    0.000;    0.000
533.097; 3047.825;    0.000;    0.000
533.229; 3070.825;    0.000;    0.000
533.360; 3090.825;    0.000;    0.000
533.491; 2989.825;    0.000;    0.000
533.622; 3064.825;    0.000;    0.000
533.753; 3107.825;    0.000;    0.000
533.884; 3006.825;    0.000;    0.000
534.015; 3184.825;    0.000;    0.000
534.146; 3124.825;    0.000;    0.000
534.277; 3091.825;    0.000;    0.000
534.408; 3047.825;    0.000;    0.000
534.539; 3160.825;    0.000;    0.000
534.670; 3137.825;    0.000;    0.000
534.801; 3071.825;    0.000;    0.000
534.932; 2993.825;    0.000;    0.000
535.063; 2969.825;    0.000;    0.000
535.194; 3095.825;    0.000;    0.000
535.324; 3054.825;    0.000;    0.000
535.455; 2943.825;    0.000;    0.000
535.586; 3064.825;    0.000;    0.000
535.717; 2946.825;    0.000;    0.000
535.848; 3065.825;    0.000;    0.000
535.979; 3064.825;    0.000;    0.000
536.109; 3051.825;    0.000;    0.000
536.240; 2941.825;    0.000;    0.000
536.371; 2944.825;    0.000;    0.000
536.502; 2988.825;    0.000;    0.000
536.632; 2931.825;    0.000;    0.000
536.763; 3005.825;    0.000;    0.000
536.894; 3022.825;    0.000;    0.000
537.025; 2933.825;    0.000;    0.000
537.155; 2983.825;    0.000;    0.000
537.286; 2961.825;    0.000;    0.000
537.417; 3006.825;    0.000;    0.000
537.547; 2956.825;    0.000;    0.000
537.678; 3002.825;    0.000;    0.000
537.808; 2883.825;    0.000;    0.000
537.939; 2934.825;    0.000;    0.000
538.070; 2926.825;    0.000;    0.000
538.200; 2989.825;    0.000;    0.000
538.331; 2940.825;    0.000;    0.000
538.461; 2949.825;    0.000;    0.000
538.592; 3002.825;    0.000;    0.000
538.722; 2956.825;    0.000;    0.000
538.853; 2882.825;    0.000;    0.000
538.983; 2995.825;    0.000;    0.000
539.114; 2870.825;    0.000;    0.000
539.244; 2902.825;    0.000;    0.000
539.375; 2961.825;    0.000;    0.000
539.505; 2844.825;    0.000;    0.000
539.636; 2879.825;    0.000;    0.000
539.766; 2964.825;    0.000;    0.000
539.896; 2852.825;    0.000;    0.000
540.027; 2964.825;    0.000;    0.000
540.157; 2877.825;    0.000;    0.000
540.287; 2933.825;    0.000;    0.000
540.418; 2909.825;    0.000;    0.000
540.548; 2969.825;    0.000;    0.000
540.678; 2919.825;    0.000;    0.000
540.809; 2936.825;    0.000;    0.000
540.939; 2914.825;    0.000;    0.000
541.069; 3004.825;    0.000;    0.000
541.199; 3008.825;    0.000;    0.000
541.330; 3017.825;    0.000;    0.000
541.460; 2949.825;    0.000;    0.000
541.590; 2974.825;    0.000;    0.000
541.720; 2905.825;    0.000;    0.000
541.851; 2975.825;    0.000;    0.000
541.981; 2916.825;    0.000;    0.000
542.111; 3050.825;    0.000;    0.000
542.241; 3052.825;    0.000;    0.000
542.371; 3104.825;    0.000;    0.000
542.501; 3059.825;    0.000;    0.000
542.631; 3091.825;    0.000;    0.000
542.761; 3114.825;    0.000;    0.000
542.891; 3097.825;    0.000;    0.000
543.021; 3087.825;    0.000;    0.000
543.151; 3151.825;    0.000;    0.000
543.281; 3167.825;    0.000;    0.000
543.411; 3074.825;    0.000;    0.000
543.541; 3076.825;    0.000;    0.000
543.671; 3131.825;    0.000;    0.000
543.801; 3041.825;    0.000;    0.000
543.931; 3013.825;    0.000;    0.000
544.061; 2982.825;    0.000;    0.000
544.191; 2981.825;    0.000;    0.000
544.321; 3127.825;    0.000;    0.000
544.451; 3032.825;    0.000;    0.000
544.581; 3006.825;    0.000;    0.000
544.711; 3164.825;    0.000;    0.000
544.841; 3140.825;    0.000;    0.000
544.970; 3217.825;    0.000;    0.000
545.100; 3173.825;    0.000;    0.000
545.230; 3198.825;    0.000;    0.000
545.360; 3243.825;    0.000;    0.000
545.490; 3157.825;    0.000;    0.000
545.619; 3064.825;    0.000;    0.000
545.749; 3100.825;    0.000;    0.000
545.879; 3054.825;    0.000;    0.000
546.009; 3015.825;    0.000;    0.000
546.138; 2960.825;    0.000;    0.000
546.268; 3047.825;    0.000;    0.000
546.398; 3081.825;    0.000;    0.000
546.527; 3054.825;    0.000;    0.000
546.657; 3037.825;    0.000;    0.000
546.787; 3099.825;    0.000;    0.000
546.916; 3023.825;    0.000;    0.000
547.046; 3050.825;    0.000;    0.000
547.175; 2964.825;    0.000;    0.000
547.305; 2972.825;    0.000;    0.000
547.434; 2977.825;    0.000;    0.000
547.564; 2933.825;    0.000;    0.000
547.694; 3098.825;    0.000;    0.000
547.823; 2977.825;    0.000;    0.000
547.953; 3051.825;    0.000;    0.000
548.082; 3048.825;    0.000;    0.000
548.211; 2904.825;    0.000;    0.000
548.341; 3002.825;    0.000;    0.000
548.470; 3000.825;    0.000;    0.000
548.600; 2993.825;    0.000;    0.000
548.729; 2997.825;    0.000;    0.000
548.859; 3013.825;    0.000;    0.000
548.988; 3046.825;    0.000;    0.000
549.117; 2999.825;    0.000;    0.000
549.247; 3012.825;    0.000;    0.000
549.376; 3016.825;    0.000;    0.000
549.505; 3064.825;    0.000;    0.000
549.635; 3008.825;    0.000;    0.000
549.764; 3071.825;    0.000;    0.000
549.893; 3077.825;    0.000;    0.000
550.023; 3013.825;    0.000;    0.000
550.152; 3085.825;    0.000;    0.000
550.281; 3069.825;    0.000;    0.000
550.410; 3095.825;    0.000;    0.000
550.539; 3096.825;    0.000;    0.000
550.669; 3170.825;    0.000;    0.000
550.798; 3140.825;    0.000;    0.000
550.927; 3072.825;    0.000;    0.000
551.056; 3039.825;    0.000;    0.000
551.185; 3047.825;    0.000;    0.000
551.314; 3122.825;    0.000;    0.000
551.443; 3079.825;    0.000;    0.000
551.573; 3077.825;    0.000;    0.000
551.702; 3087.825;    0.000;    0.000
551.831; 3133.825;    0.000;    0.000
551.960; 3156.825;    0.000;    0.000
552.089; 3131.825;    0.000;    0.000
552.218; 3192.825;    0.000;    0.000
552.347; 3165.825;    0.000;    0.000
552.476; 3138.825;    0.000;    0.000
552.605; 3169.825;    0.000;    0.000
552.734; 3299.825;    0.000;    0.000
552.863; 3271.825;    0.000;    0.000
552.992; 3340.825;    0.000;    0.000
553.121; 3438.825;    0.000;    0.000
553.249; 3276.825;    0.000;    0.000
553.378; 3327.825;    0.000;    0.000
553.507; 3189.825;    0.000;    0.000
553.636; 3217.825;    0.000;    0.000
553.765; 3198.825;    0.000;    0.000
553.894; 3135.825;    0.000;    0.000
554.023; 3173.825;    0.000;    0.000
554.151; 3192.825;    0.000;    0.000
554.280; 3198.825;    0.000;    0.000
554.409; 3044.825;    0.000;    0.000
554.538; 3135.825;    0.000;    0.000
554.666; 3132.825;    0.000;    0.000
554.795; 3055.825;    0.000;    0.000
554.924; 3086.825;    0.000;    0.000
555.053; 3175.825;    0.000;    0.000
555.181; 3175.825;    0.000;    0.000
555.310; 3163.825;    0.000;    0.000
555.439; 3115.825;    0.000;    0.000
555.567; 3008.825;    0.000;    0.000
555.696; 3007.825;    0.000;    0.000
555.824; 3023.825;    0.000;    0.000
555.953; 3027.825;    0.000;    0.000
556.082; 3081.825;    0.000;    0.000
556.210; 3073.825;    0.000;    0.000
556.339; 3073.825;    0.000;    0.000
556.467; 2991.825;    0.000;    0.000
556.596; 3003.825;    0.000;    0.000
556.724; 2984.825;    0.000;    0.000
556.853; 3038.825;    0.000;    0.000
556.981; 2956.825;    0.000;    0.000
557.110; 3055.825;    0.000;    0.000
557.238; 2979.825;    0.000;    0.000
557.367; 2937.825;    0.000;    0.000
557.495; 3064.825;    0.000;    0.000
557.623; 2977.825;    0.000;    0.000
557.752; 2955.825;    0.000;    0.000
557.880; 3041.825;    0.000;    0.000
558.008; 3030.825;    0.000;    0.000
558.137; 2983.825;    0.000;    0.000
558.265; 3018.825;    0.000;    0.000
558.393; 3005.825;    0.000;    0.000
558.522; 2930.825;    0.000;    0.000
558.650; 3070.825;    0.000;    0.000
558.778; 2949.825;    0.000;    0.000
558.907; 3016.825;    0.000;    0.000
559.035; 3000.825;    0.000;    0.000
559.163; 3032.825;    0.000;    0.000
559.291; 2932.825;    0.000;    0.000
559.419; 2952.825;    0.000;    0.000
559.548; 2979.825;    0.000;    0.000
559.676; 3083.825;    0.000;    0.000
559.804; 3081.825;    0.000;    0.000
559.932; 2965.825;    0.000;    0.000
560.060; 3079.825;    0.000;    0.000
560.188; 3091.825;    0.000;    0.000
560.316; 3061.825;    0.000;    0.000
560.444; 3052.825;    0.000;    0.000
560.572; 3084.825;    0.000;    0.000
560.700; 3147.825;    0.000;    0.000
560.828; 3193.825;    0.000;    0.000
560.957; 3134.825;    0.000;    0.000
561.085; 3253.825;    0.000;    0.000
561.212; 3161.825;    0.000;    0.000
561.340; 3287.825;    0.000;    0.000
561.468; 3286.825;    0.000;    0.000
561.596; 3170.825;    0.000;    0.000
561.724; 3216.825;    0.000;    0.000
561.852; 3152.825;    0.000;    0.000
561.980; 3171.825;    0.000;    0.000
562.108; 3186.825;    0.000;    0.000
562.236; 3238.825;    0.000;    0.000
562.364; 3273.825;    0.000;    0.000
562.492; 3269.825;    0.000;    0.000
562.619; 3175.825;    0.000;    0.000
562.747; 3192.825;    0.000;    0.000
562.875; 3302.825;    0.000;    0.000
563.003; 3300.825;    0.000;    0.000
563.130; 3270.825;    0.000;    0.000
563.258; 3261.825;    0.000;    0.000
563.386; 3309.825;    0.000;    0.000
563.514; 3372.825;    0.000;    0.000
563.641; 3511.825;    0.000;    0.000
563.769; 3528.825;    0.000;    0.000
563.897; 3476.825;    0.000;    0.000
564.024; 3578.825;    0.000;    0.000
564.152; 3563.825;    0.000;    0.000
564.280; 3533.825;    0.000;    0.000
564.407; 3621.825;    0.000;    0.000
564.535; 3581.825;    0.000;    0.000
564.662; 3632.825;    0.000;    0.000
564.790; 3655.825;    0.000;    0.000
564.917; 3676.825;    0.000;    0.000
565.045; 3600.825;    0.000;    0.000
565.173; 3644.825;    0.000;    0.000
565.300; 3653.825;    0.000;    0.000
565.428; 3703.825;    0.000;    0.000
565.555; 3771.825;    0.000;    0.000
565.682; 3861.825;    0.000;    0.000
565.810; 3757.825;    0.000;    0.000
565.937; 3900.825;    0.000;    0.000
566.065; 3917.825;    0.000;    0.000
566.192; 4071.825;    0.000;    0.000
566.320; 4076.825;    0.000;    0.000
566.447; 4232.825;    0.000;    0.000
566.574; 4171.825;    0.000;    0.000
566.702; 4262.825;    0.000;    0.000
566.829; 4195.825;    0.000;    0.000
566.956; 4313.825;    0.000;    0.000
567.084; 4423.825;    0.000;    0.000
567.211; 4397.825;    0.000;    0.000
567.338; 4504.825;    0.000;    0.000
567.465; 4323.825;    0.000;    0.000
567.593; 4312.825;    0.000;    0.000
567.720; 4347.825;    0.000;    0.000
567.847; 4342.825;    0.000;    0.000
567.974; 4413.825;    0.000;    0.000
568.101; 4539.825;    0.000;    0.000
568.228; 4957.825;    0.000;    0.000
568.356; 5257.825;    0.000;    0.000
568.483; 5050.825;    0.000;    0.000
568.610; 4820.825;    0.000;    0.000
568.737; 5457.825;    0.000;    0.000
568.864; 5922.825;    0.000;    0.000
568.991; 5576.825;    0.000;    0.000
569.118; 5102.825;    0.000;    0.000
569.245; 4707.825;    0.000;    0.000
569.372; 4618.825;    0.000;    0.000
569.499; 4336.825;    0.000;    0.000
569.626; 4181.825;    0.000;    0.000
569.753; 4140.825;    0.000;    0.000
569.880; 4079.825;    0.000;    0.000
570.007; 3928.825;    0.000;    0.000
570.134; 3799.825;    0.000;    0.000
570.261; 3786.825;    0.000;    0.000
570.388; 3687.825;    0.000;    0.000
570.515; 3777.825;    0.000;    0.000
570.642; 3747.825;    0.000;    0.000
570.768; 3615.825;    0.000;    0.000
570.895; 3650.825;    0.000;    0.000
571.022; 3653.825;    0.000;    0.000
571.149; 3710.825;    0.000;    0.000
571.276; 3535.825;    0.000;    0.000
571.402; 3519.825;    0.000;    0.000
571.529; 3514.825;    0.000;    0.000
571.656; 3490.825;    0.000;    0.000
571.783; 3370.825;    0.000;    0.000
571.909; 3485.825;    0.000;    0.000
572.036; 3359.825;    0.000;    0.000
572.163; 3416.825;    0.000;    0.000
572.289; 3348.825;    0.000;    0.000
572.416; 3344.825;    0.000;    0.000
572.543; 3456.825;    0.000;    0.000
572.669; 3329.825;    0.000;    0.000
572.796; 3359.825;    0.000;    0.000
572.922; 3297.825;    0.000;    0.000
573.049; 3235.825;    0.000;    0.000
573.176; 3261.825;    0.000;    0.000
573.302; 3192.825;    0.000;    0.000
573.429; 3271.825;    0.000;    0.000
573.555; 3282.825;    0.000;    0.000
573.682; 3277.825;    0.000;    0.000
573.808; 3236.825;    0.000;    0.000
573.935; 3311.825;    0.000;    0.000
574.061; 3207.825;    0.000;    0.000
574.188; 3212.825;    0.000;    0.000
574.314; 3242.825;    0.000;    0.000
574.440; 3247.825;    0.000;    0.000
574.567; 3243.825;    0.000;    0.000
574.693; 3213.825;    0.000;    0.000
574.820; 3283.825;    0.000;    0.000
574.946; 3136.825;    0.000;    0.000
575.072; 3267.825;    0.000;    0.000
575.198; 3285.825;    0.000;    0.000
575.325; 3226.825;    0.000;    0.000
575.451; 3275.825;    0.000;    0.000
575.577; 3253.825;    0.000;    0.000
575.704; 3211.825;    0.000;    0.000
575.830; 3152.825;    0.000;    0.000
575.956; 3236.825;    0.000;    0.000
576.082; 3091.825;    0.000;    0.000
576.208; 3178.825;    0.000;    0.000
576.335; 3177.825;    0.000;    0.000
576.461; 3211.825;    0.000;    0.000
576.587; 3109.825;    0.000;    0.000
576.713; 3183.825;    0.000;    0.000
576.839; 3272.825;    0.000;    0.000
576.965; 3170.825;    0.000;    0.000
577.091; 3143.825;    0.000;    0.000
577.217; 3166.825;    0.000;    0.000
577.343; 3105.825;    0.000;    0.000
577.470; 3237.825;    0.000;    0.000
577.596; 3146.825;    0.000;    0.000
577.722; 3137.825;    0.000;    0.000
577.848; 3168.825;    0.000;    0.000
577.973; 3156.825;    0.000;    0.000
578.099; 3104.825;    0.000;    0.000
578.225; 3226.825;    0.000;    0.000
578.351; 3234.825;    0.000;    0.000
578.477; 3127.825;    0.000;    0.000
578.603; 3197.825;    0.000;    0.000
578.729; 3203.825;    0.000;    0.000
578.855; 3142.825;    0.000;    0.000
578.981; 3188.825;    0.000;    0.000
579.107; 3267.825;    0.000;    0.000
579.232; 3242.825;    0.000;    0.000
579.358; 3145.825;    0.000;    0.000
579.484; 3216.825;    0.000;    0.000
579.610; 3165.825;    0.000;    0.000
579.735; 3205.825;    0.000;    0.000
579.861; 3302.825;    0.000;    0.000
579.987; 3204.825;    0.000;    0.000
580.113; 3137.825;    0.000;    0.000
580.238; 3168.825;    0.000;    0.000
580.364; 3238.825;    0.000;    0.000
580.490; 3182.825;    0.000;    0.000
580.615; 3295.825;    0.000;    0.000
580.741; 3124.825;    0.000;    0.000
580.867; 3303.825;    0.000;    0.000
580.992; 3312.825;    0.000;    0.000
581.118; 3212.825;    0.000;    0.000
581.243; 3221.825;    0.000;    0.000
581.369; 3305.825;    0.000;    0.000
581.494; 3351.825;    0.000;    0.000
581.620; 3271.825;    0.000;    0.000
581.745; 3303.825;    0.000;    0.000
581.871; 3302.825;    0.000;    0.000
581.996; 3346.825;    0.000;    0.000
582.122; 3379.825;    0.000;    0.000
582.247; 3401.825;    0.000;    0.000
582.373; 3417.825;    0.000;    0.000
582.498; 3526.825;    0.000;    0.000
582.624; 3480.825;    0.000;    0.000
582.749; 3551.825;    0.000;    0.000
582.874; 3482.825;    0.000;    0.000
583.000; 3516.825;    0.000;    0.000
583.125; 3476.825;    0.000;    0.000
583.250; 3553.825;    0.000;    0.000
583.376; 3645.825;    0.000;    0.000
583.501; 3688.825;    0.000;    0.000
583.626; 3539.825;    0.000;    0.000
583.751; 3613.825;    0.000;    0.000
583.877; 3798.825;    0.000;    0.000
584.002; 3804.825;    0.000;    0.000
584.127; 3671.825;    0.000;    0.000
584.252; 3781.825;    0.000;    0.000
584.377; 3904.825;    0.000;    0.000
584.503; 3856.825;    0.000;    0.000
584.628; 3963.825;    0.000;    0.000
584.753; 3943.825;    0.000;    0.000
584.878; 4014.825;    0.000;    0.000
585.003; 4077.825;    0.000;    0.000
585.128; 4189.825;    0.000;    0.000
585.253; 4259.825;    0.000;    0.000
585.378; 4287.825;    0.000;    0.000
585.503; 4336.825;    0.000;    0.000
585.628; 4338.825;    0.000;    0.000
585.753; 4450.825;    0.000;    0.000
585.878; 4513.825;    0.000;    0.000
586.003; 4637.825;    0.000;    0.000
586.128; 4767.825;    0.000;    0.000
586.253; 4902.825;    0.000;    0.000
586.378; 5032.825;    0.000;    0.000
586.503; 5174.825;    0.000;    0.000
586.628; 5336.825;    0.000;    0.000
586.753; 5509.825;    0.000;    0.000
586.878; 5728.825;    0.000;    0.000
587.003; 5885.825;    0.000;    0.000
587.127; 6126.825;    0.000;    0.000
587.252; 6333.825;    0.000;    0.000
587.377; 6780.825;    0.000;    0.000
587.502; 7045.825;    0.000;    0.000
587.627; 7616.825;    0.000;    0.000
587.751; 8140.825;    0.000;    0.000
587.876; 8832.825;    0.000;    0.000
588.001; 9379.825;    0.000;    0.000
588.125;10532.825;    0.000;    0.000
588.250;11755.825;    0.000;    0.000
588.375;13499.825;    0.000;    0.000
588.499;15399.825;    0.000;    0.000
588.624;18611.825;    0.000;    0.000
588.749;22981.825;    0.000;    0.000
588.873;27711.825;    0.000;    0.000
588.998;32017.825;    0.000;    0.000
589.122;33591.825;    0.000;    0.000
589.247;30907.825;    0.000;    0.000
589.372;28348.825;    0.000;    0.000
589.496;29211.825;    0.000;    0.000
589.621;30984.825;    0.000;    0.000
589.745;29351.825;    0.000;    0.000
589.870;24445.825;    0.000;    0.000
589.994;20031.825;    0.000;    0.000
590.118;16535.825;    0.000;    0.000
590.243;14409.825;    0.000;    0.000
590.367;12767.825;    0.000;    0.000
590.492;11354.825;    0.000;    0.000
590.616;10423.825;    0.000;    0.000
590.740; 9729.825;    0.000;    0.000
590.865; 8818.825;    0.000;    0.000
590.989; 8285.825;    0.000;    0.000
591.114; 7782.825;    0.000;    0.000
591.238; 7417.825;    0.000;    0.000
591.362; 7182.825;    0.000;    0.000
591.486; 7004.825;    0.000;    0.000
591.611; 6618.825;    0.000;    0.000
591.735; 6248.825;    0.000;    0.000
591.859; 6064.825;    0.000;    0.000
591.983; 5950.825;    0.000;    0.000
592.107; 5823.825;    0.000;    0.000
592.232; 5578.825;    0.000;    0.000
592.356; 5561.825;    0.000;    0.000
592.480; 5449.825;    0.000;    0.000
592.604; 5312.825;    0.000;    0.000
592.728; 5201.825;    0.000;    0.000
592.852; 5086.825;    0.000;    0.000
592.976; 5014.825;    0.000;    0.000
593.100; 4842.825;    0.000;    0.000
593.224; 4775.825;    0.000;    0.000
593.349; 4776.825;    0.000;    0.000
593.473; 4668.825;    0.000;    0.000
593.597; 4694.825;    0.000;    0.000
593.721; 4592.825;    0.000;    0.000
593.844; 4453.825;    0.000;    0.000
593.968; 4417.825;    0.000;    0.000
594.092; 4321.825;    0.000;    0.000
594.216; 4320.825;    0.000;    0.000
594.340; 4285.825;    0.000;    0.000
594.464; 4236.825;    0.000;    0.000
594.588; 4206.825;    0.000;    0.000
594.712; 4082.825;    0.000;    0.000
594.836; 3957.825;    0.000;    0.000
594.959; 3892.825;    0.000;    0.000
595.083; 3901.825;    0.000;    0.000
595.207; 4000.825;    0.000;    0.000
595.331; 3832.825;    0.000;    0.000
595.455; 3802.825;    0.000;    0.000
595.578; 3813.825;    0.000;    0.000
595.702; 3744.825;    0.000;    0.000
595.826; 3713.825;    0.000;    0.000
595.949; 3643.825;    0.000;    0.000
596.073; 3584.825;    0.000;    0.000
596.197; 3644.825;    0.000;    0.000
596.320; 3651.825;    0.000;    0.000
596.444; 3534.825;    0.000;    0.000
596.568; 3479.825;    0.000;    0.000
596.691; 3461.825;    0.000;    0.000
596.815; 3539.825;    0.000;    0.000
596.938; 3447.825;    0.000;    0.000
597.062; 3486.825;    0.000;    0.000
597.186; 3439.825;    0.000;    0.000
597.309; 3308.825;    0.000;    0.000
597.433; 3353.825;    0.000;    0.000
597.556; 3335.825;    0.000;    0.000
597.679; 3300.825;    0.000;    0.000
597.803; 3261.825;    0.000;    0.000
597.926; 3279.825;    0.000;    0.000
598.050; 3294.825;    0.000;    0.000
598.173; 3229.825;    0.000;    0.000
598.297; 3187.825;    0.000;    0.000
598.420; 3118.825;    0.000;    0.000
598.543; 3129.825;    0.000;    0.000
598.667; 3140.825;    0.000;    0.000
598.790; 3162.825;    0.000;    0.000
598.913; 3139.825;    0.000;    0.000
599.037; 3118.825;    0.000;    0.000
599.160; 3032.825;    0.000;    0.000
599.283; 3149.825;    0.000;    0.000
599.406; 3124.825;    0.000;    0.000
599.530; 3059.825;    0.000;    0.000
599.653; 3034.825;    0.000;    0.000
599.776; 3089.825;    0.000;    0.000
599.899; 3058.825;    0.000;    0.000
600.022; 2993.825;    0.000;    0.000
600.145; 3057.825;    0.000;    0.000
600.269; 3042.825;    0.000;    0.000
600.392; 3030.825;    0.000;    0.000
600.515; 2934.825;    0.000;    0.000
600.638; 2990.825;    0.000;    0.000
600.761; 3004.825;    0.000;    0.000
600.884; 2978.825;    0.000;    0.000
601.007; 3034.825;    0.000;    0.000
601.130; 2974.825;    0.000;    0.000
601.253; 2954.825;    0.000;    0.000
601.376; 2913.825;    0.000;    0.000
601.499; 2978.825;    0.000;    0.000
601.622; 2956.825;    0.000;    0.000
601.745; 2844.825;    0.000;    0.000
601.868; 2976.825;    0.000;    0.000
601.991; 2924.825;    0.000;    0.000
602.113; 2940.825;    0.000;    0.000
602.236; 2953.825;    0.000;    0.000
602.359; 2917.825;    0.000;    0.000
602.482; 2839.825;    0.000;    0.000
602.605; 2983.825;    0.000;    0.000
602.728; 2857.825;    0.000;    0.000
602.850; 2878.825;    0.000;    0.000
602.973; 2894.825;    0.000;    0.000
603.096; 2873.825;    0.000;    0.000
603.219; 2933.825;    0.000;    0.000
603.341; 2914.825;    0.000;    0.000
603.464; 2804.825;    0.000;    0.000
603.587; 2810.825;    0.000;    0.000
603.709; 2806.825;    0.000;    0.000
603.832; 2760.825;    0.000;    0.000
603.955; 2814.825;    0.000;    0.000
604.077; 2813.825;    0.000;    0.000
604.200; 2826.825;    0.000;    0.000
604.322; 2800.825;    0.000;    0.000
604.445; 2867.825;    0.000;    0.000
604.568; 2856.825;    0.000;    0.000
604.690; 2814.825;    0.000;    0.000
604.813; 2818.825;    0.000;    0.000
604.935; 2739.825;    0.000;    0.000
605.058; 2735.825;    0.000;    0.000
605.180; 2773.825;    0.000;    0.000
605.303; 2768.825;    0.000;    0.000
605.425; 2774.825;    0.000;    0.000
605.547; 2827.825;    0.000;    0.000
605.670; 2719.825;    0.000;    0.000
605.792; 2830.825;    0.000;    0.000
605.915; 2729.825;    0.000;    0.000
606.037; 2734.825;    0.000;    0.000
606.159; 2727.825;    0.000;    0.000
606.282; 2741.825;    0.000;    0.000
606.404; 2750.825;    0.000;    0.000
606.526; 2758.825;    0.000;    0.000
606.648; 2754.825;    0.000;    0.000
606.771; 2741.825;    0.000;    0.000
606.893; 2660.825;    0.000;    0.000
607.015; 2724.825;    0.000;    0.000
607.137; 2700.825;    0.000;    0.000
607.260; 2640.825;    0.000;    0.000
607.382; 2672.825;    0.000;    0.000
607.504; 2719.825;    0.000;    0.000
607.626; 2709.825;    0.000;    0.000
607.748; 2771.825;    0.000;    0.000
607.870; 2649.825;    0.000;    0.000
607.992; 2657.825;    0.000;    0.000
608.114; 2707.825;    0.000;    0.000
608.236; 2740.825;    0.000;    0.000
608.359; 2725.825;    0.000;    0.000
608.481; 2594.825;    0.000;    0.000
608.603; 2748.825;    0.000;    0.000
608.725; 2659.825;    0.000;    0.000
608.847; 2623.825;    0.000;    0.000
608.968; 2638.825;    0.000;    0.000
609.090; 2662.825;    0.000;    0.000
609.212; 2555.825;    0.000;    0.000
609.334; 2637.825;    0.000;    0.000
609.456; 2705.825;    0.000;    0.000
609.578; 2648.825;    0.000;    0.000
609.700; 2652.825;    0.000;    0.000
609.822; 2603.825;    0.000;    0.000
609.944; 2714.825;    0.000;    0.000
610.065; 2642.825;    0.000;    0.000
610.187; 2569.825;    0.000;    0.000
610.309; 2655.825;    0.000;    0.000
610.431; 2649.825;    0.000;    0.000
610.552; 2624.825;    0.000;    0.000
610.674; 2594.825;    0.000;    0.000
610.796; 2530.825;    0.000;    0.000
610.918; 2603.825;    0.000;    0.000
611.039; 2598.825;    0.000;    0.000
611.161; 2547.825;    0.000;    0.000
611.282; 2678.825;    0.000;    0.000
611.404; 2616.825;    0.000;    0.000
611.526; 2547.825;    0.000;    0.000
611.647; 2604.825;    0.000;    0.000
611.769; 2571.825;    0.000;    0.000
611.890; 2550.825;    0.000;    0.000
612.012; 2629.825;    0.000;    0.000
612.134; 2629.825;    0.000;    0.000
612.255; 2649.825;    0.000;    0.000
612.377; 2559.825;    0.000;    0.000
612.498; 2624.825;    0.000;    0.000
612.619; 2608.825;    0.000;    0.000
612.741; 2564.825;    0.000;    0.000
612.862; 2612.825;    0.000;    0.000
612.984; 2623.825;    0.000;    0.000
613.105; 2569.825;    0.000;    0.000
613.226; 2519.825;    0.000;    0.000
613.348; 2539.825;    0.000;    0.000
613.469; 2641.825;    0.000;    0.000
613.590; 2553.825;    0.000;    0.000
613.712; 2570.825;    0.000;    0.000
613.833; 2575.825;    0.000;    0.000
613.954; 2583.825;    0.000;    0.000
614.076; 2596.825;    0.000;    0.000
614.197; 2626.825;    0.000;    0.000
614.318; 2508.825;    0.000;    0.000
614.439; 2557.825;    0.000;    0.000
614.560; 2543.825;    0.000;    0.000
614.682; 2539.825;    0.000;    0.000
614.803; 2576.825;    0.000;    0.000
614.924; 2609.825;    0.000;    0.000
615.045; 2568.825;    0.000;    0.000
615.166; 2667.825;    0.000;    0.000
615.287; 2687.825;    0.000;    0.000
615.408; 2897.825;    0.000;    0.000
615.529; 2974.825;    0.000;    0.000
615.650; 2817.825;    0.000;    0.000
615.771; 2715.825;    0.000;    0.000
615.892; 2753.825;    0.000;    0.000
616.013; 3114.825;    0.000;    0.000
616.134; 3282.825;    0.000;    0.000
616.255; 3164.825;    0.000;    0.000
616.376; 2803.825;    0.000;    0.000
616.497; 2728.825;    0.000;    0.000
616.618; 2580.825;    0.000;    0.000
616.739; 2636.825;    0.000;    0.000
616.860; 2683.825;    0.000;    0.000
616.981; 2645.825;    0.000;    0.000
617.101; 2591.825;    0.000;    0.000
617.222; 2571.825;    0.000;    0.000
617.343; 2561.825;    0.000;    0.000
617.464; 2755.825;    0.000;    0.000
617.585; 2536.825;    0.000;    0.000
617.705; 2597.825;    0.000;    0.000
617.826; 2525.825;    0.000;    0.000
617.947; 2540.825;    0.000;    0.000
618.068; 2515.825;    0.000;    0.000
618.188; 2531.825;    0.000;    0.000
618.309; 2628.825;    0.000;    0.000
618.430; 2544.825;    0.000;    0.000
618.550; 2561.825;    0.000;    0.000
618.671; 2449.825;    0.000;    0.000
618.791; 2491.825;    0.000;    0.000
618.912; 2567.825;    0.000;    0.000
619.033; 2499.825;    0.000;    0.000
619.153; 2540.825;    0.000;    0.000
619.274; 2522.825;    0.000;    0.000
619.394; 2529.825;    0.000;    0.000
619.515; 2445.825;    0.000;    0.000
619.635; 2563.825;    0.000;    0.000
619.756; 2501.825;    0.000;    0.000
619.876; 2490.825;    0.000;    0.000
619.996; 2466.825;    0.000;    0.000
620.117; 2490.825;    0.000;    0.000
620.237; 2465.825;    0.000;    0.000
620.358; 2590.825;    0.000;    0.000
620.478; 2460.825;    0.000;    0.000
620.598; 2418.825;    0.000;    0.000
620.719; 2472.825;    0.000;    0.000
620.839; 2460.825;    0.000;    0.000
620.959; 2418.825;    0.000;    0.000
621.079; 2473.825;    0.000;    0.000
621.200; 2460.825;    0.000;    0.000
621.320; 2471.825;    0.000;    0.000
621.440; 2473.825;    0.000;    0.000
621.560; 2440.825;    0.000;    0.000
621.681; 2448.825;    0.000;    0.000
621.801; 2429.825;    0.000;    0.000
621.921; 2471.825;    0.000;    0.000
622.041; 2484.825;    0.000;    0.000
622.161; 2423.825;    0.000;    0.000
622.281; 2491.825;    0.000;    0.000
622.401; 2474.825;    0.000;    0.000
622.521; 2409.825;    0.000;    0.000
622.641; 2415.825;    0.000;    0.000
622.761; 2425.825;    0.000;    0.000
622.882; 2385.825;    0.000;    0.000
623.002; 2342.825;    0.000;    0.000
623.121; 2400.825;    0.000;    0.000
623.241; 2425.825;    0.000;    0.000
623.361; 2388.825;    0.000;    0.000
623.481; 2402.825;    0.000;    0.000
623.601; 2394.825;    0.000;    0.000
623.721; 2435.825;    0.000;    0.000
623.841; 2430.825;    0.000;    0.000
623.961; 2379.825;    0.000;    0.000
624.081; 2362.825;    0.000;    0.000
624.201; 2362.825;    0.000;    0.000
624.320; 2325.825;    0.000;    0.000
624.440; 2402.825;    0.000;    0.000
624.560; 2381.825;    0.000;    0.000
624.680; 2234.825;    0.000;    0.000
624.799; 2364.825;    0.000;    0.000
624.919; 2370.825;    0.000;    0.000
625.039; 2396.825;    0.000;    0.000
625.159; 2408.825;    0.000;    0.000
625.278; 2346.825;    0.000;    0.000
625.398; 2425.825;    0.000;    0.000
625.518; 2314.825;    0.000;    0.000
625.637; 2363.825;    0.000;    0.000
625.757; 2359.825;    0.000;    0.000
625.876; 2322.825;    0.000;    0.000
625.996; 2352.825;    0.000;    0.000
626.115; 2324.825;    0.000;    0.000
626.235; 2301.825;    0.000;    0.000
626.355; 2293.825;    0.000;    0.000
626.474; 2398.825;    0.000;    0.000
626.593; 2383.825;    0.000;    0.000
626.713; 2283.825;    0.000;    0.000
626.832; 2354.825;    0.000;    0.000
626.952; 2356.825;    0.000;    0.000
627.071; 2314.825;    0.000;    0.000
627.191; 2309.825;    0.000;    0.000
627.310; 2349.825;    0.000;    0.000
627.429; 2316.825;    0.000;    0.000
627.549; 2257.825;    0.000;    0.000
627.668; 2320.825;    0.000;    0.000
627.787; 2414.825;    0.000;    0.000
627.907; 2294.825;    0.000;    0.000
628.026; 2295.825;    0.000;    0.000
628.145; 2332.825;    0.000;    0.000
628.264; 2327.825;    0.000;    0.000
628.384; 2376.825;    0.000;    0.000
628.503; 2278.825;    0.000;    0.000
628.622; 2213.825;    0.000;    0.000
628.741; 2297.825;    0.000;    0.000
628.860; 2273.825;    0.000;    0.000
628.980; 2355.825;    0.000;    0.000
629.099; 2256.825;    0.000;    0.000
629.218; 2340.825;    0.000;    0.000
629.337; 2332.825;    0.000;    0.000
629.456; 2338.825;    0.000;    0.000
629.575; 2353.825;    0.000;    0.000
629.694; 2295.825;    0.000;    0.000
629.813; 2313.825;    0.000;    0.000
629.932; 2283.825;    0.000;    0.000
630.051; 2328.825;    0.000;    0.000
630.170; 2278.825;    0.000;    0.000
630.289; 2303.825;    0.000;    0.000
630.408; 2328.825;    0.000;    0.000
630.527; 2313.825;    0.000;    0.000
630.646; 2281.825;    0.000;    0.000
630.764; 2236.825;    0.000;    0.000
630.883; 2263.825;    0.000;    0.000
631.002; 2297.825;    0.000;    0.000
631.121; 2312.825;    0.000;    0.000
631.240; 2288.825;    0.000;    0.000
631.359; 2331.825;    0.000;    0.000
631.477; 2301.825;    0.000;    0.000
631.596; 2272.825;    0.000;    0.000
631.715; 2287.825;    0.000;    0.000
631.834; 2343.825;    0.000;    0.000
631.952; 2305.825;    0.000;    0.000
632.071; 2320.825;    0.000;    0.000
632.190; 2303.825;    0.000;    0.000
632.308; 2317.825;    0.000;    0.000
632.427; 2301.825;    0.000;    0.000
632.546; 2256.825;    0.000;    0.000
632.664; 2209.825;    0.000;    0.000
632.783; 2197.825;    0.000;    0.000
632.901; 2190.825;    0.000;    0.000
633.020; 2194.825;    0.000;    0.000
633.138; 2181.825;    0.000;    0.000
633.257; 2232.825;    0.000;    0.000
633.375; 2162.825;    0.000;    0.000
633.494; 2228.825;    0.000;    0.000
633.612; 2290.825;    0.000;    0.000
633.731; 2174.825;    0.000;    0.000
633.849; 2217.825;    0.000;    0.000
633.968; 2216.825;    0.000;    0.000
634.086; 2175.825;    0.000;    0.000
634.204; 2142.825;    0.000;    0.000
634.323; 2182.825;    0.000;    0.000
634.441; 2224.825;    0.000;    0.000
634.559; 2207.825;    0.000;    0.000
634.678; 2249.825;    0.000;    0.000
634.796; 2214.825;    0.000;    0.000
634.914; 2262.825;    0.000;    0.000
635.032; 2263.825;    0.000;    0.000
635.151; 2205.825;    0.000;    0.000
635.269; 2146.825;    0.000;    0.000
635.387; 2238.825;    0.000;    0.000
635.505; 2252.825;    0.000;    0.000
635.623; 2237.825;    0.000;    0.000
635.742; 2138.825;    0.000;    0.000
635.860; 2244.825;    0.000;    0.000
635.978; 2174.825;    0.000;    0.000
636.096; 2183.825;    0.000;    0.000
636.214; 2172.825;    0.000;    0.000
636.332; 2178.825;    0.000;    0.000
636.450; 2275.825;    0.000;    0.000
636.568; 2216.825;    0.000;    0.000
636.686; 2091.825;    0.000;    0.000
636.804; 2205.825;    0.000;    0.000
636.922; 2140.825;    0.000;    0.000
637.040; 2137.825;    0.000;    0.000
637.158; 2207.825;    0.000;    0.000
637.276; 2233.825;    0.000;    0.000
637.394; 2224.825;    0.000;    0.000
637.512; 2159.825;    0.000;    0.000
637.629; 2264.825;    0.000;    0.000
637.747; 2169.825;    0.000;    0.000
637.865; 2178.825;    0.000;    0.000
637.983; 2191.825;    0.000;    0.000
638.101; 2139.825;    0.000;    0.000
638.218; 2273.825;    0.000;    0.000
638.336; 2206.825;    0.000;    0.000
638.454; 2194.825;    0.000;    0.000
638.572; 2273.825;    0.000;    0.000
638.689; 2167.825;    0.000;    0.000
638.807; 2166.825;    0.000;    0.000
638.925; 2258.825;    0.000;    0.000
639.042; 2142.825;    0.000;    0.000
639.160; 2170.825;    0.000;    0.000
639.278; 2207.825;    0.000;    0.000
639.395; 2204.825;    0.000;    0.000
639.513; 2078.825;    0.000;    0.000
639.630; 2164.825;    0.000;    0.000
639.748; 2100.825;    0.000;    0.000
639.865; 2223.825;    0.000;    0.000
639.983; 2203.825;    0.000;    0.000
640.100; 2206.825;    0.000;    0.000
640.218; 2143.825;    0.000;    0.000
640.335; 2147.825;    0.000;    0.000
640.453; 2207.825;    0.000;    0.000
640.570; 2149.825;    0.000;    0.000
640.687; 2096.825;    0.000;    0.000
640.805; 2189.825;    0.000;    0.000
640.922; 2175.825;    0.000;    0.000
641.040; 2107.825;    0.000;    0.000
641.157; 2150.825;    0.000;    0.000
641.274; 2215.825;    0.000;    0.000
641.391; 2190.825;    0.000;    0.000
641.509; 2173.825;    0.000;    0.000
641.626; 2163.825;    0.000;    0.000
641.743; 2170.825;    0.000;    0.000
641.860; 2191.825;    0.000;    0.000
641.978; 2128.825;    0.000;    0.000
642.095; 2158.825;    0.000;    0.000
642.212; 2137.825;    0.000;    0.000
642.329; 2146.825;    0.000;    0.000
642.446; 2143.825;    0.000;    0.000
642.563; 2141.825;    0.000;    0.000
642.681; 2144.825;    0.000;    0.000
642.798; 2190.825;    0.000;    0.000
642.915; 2086.825;    0.000;    0.000
643.032; 2131.825;    0.000;    0.000
643.149; 2152.825;    0.000;    0.000
643.266; 2141.825;    0.000;    0.000
643.383; 2180.825;    0.000;    0.000
643.500; 2072.825;    0.000;    0.000
643.617; 2125.825;    0.000;    0.000
643.734; 2197.825;    0.000;    0.000
643.850; 2150.825;    0.000;    0.000
643.967; 2107.825;    0.000;    0.000
644.084; 2225.825;    0.000;    0.000
644.201; 2158.825;    0.000;    0.000
644.318; 2202.825;    0.000;    0.000
644.435; 2188.825;    0.000;    0.000
644.552; 2153.825;    0.000;    0.000
644.668; 2070.825;    0.000;    0.000
644.785; 2160.825;    0.000;    0.000
644.902; 2156.825;    0.000;    0.000
645.019; 2191.825;    0.000;    0.000
645.135; 2130.825;    0.000;    0.000
645.252; 2228.825;    0.000;    0.000
645.369; 2135.825;    0.000;    0.000
645.485; 2181.825;    0.000;    0.000
645.602; 2193.825;    0.000;    0.000
645.719; 2176.825;    0.000;    0.000
645.835; 2233.825;    0.000;    0.000
645.952; 2189.825;    0.000;    0.000
646.068; 2210.825;    0.000;    0.000
646.185; 2242.825;    0.000;    0.000
646.302; 2219.825;    0.000;    0.000
646.418; 2248.825;    0.000;    0.000
646.535; 2244.825;    0.000;    0.000
646.651; 2206.825;    0.000;    0.000
646.768; 2242.825;    0.000;    0.000
646.884; 2171.825;    0.000;    0.000
647.000; 2223.825;    0.000;    0.000
647.117; 2169.825;    0.000;    0.000
647.233; 2338.825;    0.000;    0.000
647.350; 2298.825;    0.000;    0.000
647.466; 2343.825;    0.000;    0.000
647.582; 2295.825;    0.000;    0.000
647.699; 2248.825;    0.000;    0.000
647.815; 2302.825;    0.000;    0.000
647.931; 2298.825;    0.000;    0.000
648.047; 2245.825;    0.000;    0.000
648.164; 2343.825;    0.000;    0.000
648.280; 2313.825;    0.000;    0.000
648.396; 2274.825;    0.000;    0.000
648.512; 2262.825;    0.000;    0.000
648.629; 2328.825;    0.000;    0.000
648.745; 2349.825;    0.000;    0.000
648.861; 2320.825;    0.000;    0.000
648.977; 2312.825;    0.000;    0.000
649.093; 2312.825;    0.000;    0.000
649.209; 2379.825;    0.000;    0.000
649.325; 2416.825;    0.000;    0.000
649.441; 2397.825;    0.000;    0.000
649.557; 2295.825;    0.000;    0.000
649.673; 2381.825;    0.000;    0.000
649.789; 2339.825;    0.000;    0.000
649.905; 2387.825;    0.000;    0.000
650.021; 2380.825;    0.000;    0.000
650.137; 2323.825;    0.000;    0.000
650.253; 2376.825;    0.000;    0.000
650.369; 2235.825;    0.000;    0.000
650.485; 2387.825;    0.000;    0.000
650.601; 2467.825;    0.000;    0.000
650.717; 2363.825;    0.000;    0.000
650.833; 2441.825;    0.000;    0.000
650.948; 2409.825;    0.000;    0.000
651.064; 2359.825;    0.000;    0.000
651.180; 2487.825;    0.000;    0.000
651.296; 2433.825;    0.000;    0.000
651.411; 2368.825;    0.000;    0.000
651.527; 2478.825;    0.000;    0.000
651.643; 2475.825;    0.000;    0.000
651.759; 2485.825;    0.000;    0.000
651.874; 2526.825;    0.000;    0.000
651.990; 2535.825;    0.000;    0.000
652.105; 2510.825;    0.000;    0.000
652.221; 2491.825;    0.000;    0.000
652.337; 2496.825;    0.000;    0.000
652.452; 2558.825;    0.000;    0.000
652.568; 2531.825;    0.000;    0.000
652.683; 2606.825;    0.000;    0.000
652.799; 2485.825;    0.000;    0.000
652.914; 2553.825;    0.000;    0.000
653.030; 2598.825;    0.000;    0.000
653.145; 2649.825;    0.000;    0.000
653.261; 2694.825;    0.000;    0.000
653.376; 2672.825;    0.000;    0.000
653.492; 2720.825;    0.000;    0.000
653.607; 2658.825;    0.000;    0.000
653.722; 2796.825;    0.000;    0.000
653.838; 2838.825;    0.000;    0.000
653.953; 2845.825;    0.000;    0.000
654.068; 2927.825;    0.000;    0.000
654.184; 2892.825;    0.000;    0.000
654.299; 2899.825;    0.000;    0.000
654.414; 2926.825;    0.000;    0.000
654.530; 3086.825;    0.000;    0.000
654.645; 3021.825;    0.000;    0.000
654.760; 3159.825;    0.000;    0.000
654.875; 3169.825;    0.000;    0.000
654.990; 3266.825;    0.000;    0.000
655.106; 3374.825;    0.000;    0.000
655.221; 3356.825;    0.000;    0.000
655.336; 3389.825;    0.000;    0.000
655.451; 3604.825;    0.000;    0.000
655.566; 3634.825;    0.000;    0.000
655.681; 3662.825;    0.000;    0.000
655.796; 3905.825;    0.000;    0.000
655.911; 3872.825;    0.000;    0.000
656.026; 4047.825;    0.000;    0.000
656.141; 4154.825;    0.000;    0.000
656.256; 4250.825;    0.000;    0.000
656.371; 4308.825;    0.000;    0.000
656.486; 4429.825;    0.000;    0.000
656.601; 4237.825;    0.000;    0.000
656.716; 4196.825;    0.000;    0.000
656.831; 4200.825;    0.000;    0.000
656.946; 4131.825;    0.000;    0.000
657.060; 4044.825;    0.000;    0.000
657.175; 3844.825;    0.000;    0.000
657.290; 3787.825;    0.000;    0.000
657.405; 3833.825;    0.000;    0.000
657.520; 3693.825;    0.000;    0.000
657.634; 3663.825;    0.000;    0.000
657.749; 3495.825;    0.000;    0.000
657.864; 3425.825;    0.000;    0.000
657.979; 3416.825;    0.000;    0.000
658.093; 3332.825;    0.000;    0.000
658.208; 3201.825;    0.000;    0.000
658.323; 3219.825;    0.000;    0.000
658.437; 3268.825;    0.000;    0.000
658.552; 3135.825;    0.000;    0.000
658.666; 3117.825;    0.000;    0.000
658.781; 3040.825;    0.000;    0.000
658.895; 2965.825;    0.000;    0.000
659.010; 3009.825;    0.000;    0.000
659.125; 2873.825;    0.000;    0.000
659.239; 2918.825;    0.000;    0.000
659.353; 2955.825;    0.000;    0.000
659.468; 2888.825;    0.000;    0.000
659.582; 2850.825;    0.000;    0.000
659.697; 2822.825;    0.000;    0.000
659.811; 2810.825;    0.000;    0.000
659.926; 2755.825;    0.000;    0.000
660.040; 2739.825;    0.000;    0.000
660.154; 2714.825;    0.000;    0.000
660.269; 2672.825;    0.000;    0.000
660.383; 2682.825;    0.000;    0.000
660.497; 2701.825;    0.000;    0.000
660.612; 2601.825;    0.000;    0.000
660.726; 2554.825;    0.000;    0.000
660.840; 2573.825;    0.000;    0.000
660.954; 2570.825;    0.000;    0.000
661.068; 2472.825;    0.000;    0.000
661.183; 2508.825;    0.000;    0.000
661.297; 2526.825;    0.000;    0.000
661.411; 2516.825;    0.000;    0.000
661.525; 2522.825;    0.000;    0.000
661.639; 2399.825;    0.000;    0.000
661.753; 2389.825;    0.000;    0.000
661.867; 2408.825;    0.000;    0.000
661.981; 2367.825;    0.000;    0.000
662.095; 2350.825;    0.000;    0.000
662.209; 2383.825;    0.000;    0.000
662.323; 2384.825;    0.000;    0.000
662.437; 2319.825;    0.000;    0.000
662.551; 2343.825;    0.000;    0.000
662.665; 2338.825;    0.000;    0.000
662.779; 2221.825;    0.000;    0.000
662.893; 2255.825;    0.000;    0.000
663.007; 2257.825;    0.000;    0.000
663.121; 2295.825;    0.000;    0.000
663.235; 2246.825;    0.000;    0.000
663.348; 2198.825;    0.000;    0.000
663.462; 2157.825;    0.000;    0.000
663.576; 2156.825;    0.000;    0.000
663.690; 2183.825;    0.000;    0.000
663.804; 2118.825;    0.000;    0.000
663.917; 2178.825;    0.000;    0.000
664.031; 2152.825;    0.000;    0.000
664.145; 2143.825;    0.000;    0.000
664.258; 2167.825;    0.000;    0.000
664.372; 2072.825;    0.000;    0.000
664.486; 2082.825;    0.000;    0.000
664.599; 2057.825;    0.000;    0.000
664.713; 2101.825;    0.000;    0.000
664.827; 2005.825;    0.000;    0.000
664.940; 2055.825;    0.000;    0.000
665.054; 2010.825;    0.000;    0.000
665.167; 2056.825;    0.000;    0.000
665.281; 2040.825;    0.000;    0.000
665.394; 1990.825;    0.000;    0.000
665.508; 2045.825;    0.000;    0.000
665.621; 2040.825;    0.000;    0.000
665.735; 2079.825;    0.000;    0.000
665.848; 1977.825;    0.000;    0.000
665.961; 1936.825;    0.000;    0.000
666.075; 2108.825;    0.000;    0.000
666.188; 1959.825;    0.000;    0.000
666.301; 2057.825;    0.000;    0.000
666.415; 1948.825;    0.000;    0.000
666.528; 1973.825;    0.000;    0.000
666.641; 1991.825;    0.000;    0.000
666.755; 1935.825;    0.000;    0.000
666.868; 1926.825;    0.000;    0.000
666.981; 1991.825;    0.000;    0.000
667.094; 1948.825;    0.000;    0.000
667.207; 1959.825;    0.000;    0.000
667.321; 1885.825;    0.000;    0.000
667.434; 1936.825;    0.000;    0.000
667.547; 1973.825;    0.000;    0.000
667.660; 1851.825;    0.000;    0.000
667.773; 1953.825;    0.000;    0.000
667.886; 1906.825;    0.000;    0.000
667.999; 1907.825;    0.000;    0.000
668.112; 1882.825;    0.000;    0.000
668.225; 1907.825;    0.000;    0.000
668.338; 1834.825;    0.000;    0.000
668.451; 1886.825;    0.000;    0.000
668.564; 1881.825;    0.000;    0.000
668.677; 1840.825;    0.000;    0.000
668.790; 1823.825;    0.000;    0.000
668.903; 1858.825;    0.000;    0.000
669.016; 1708.825;    0.000;    0.000
669.129; 1828.825;    0.000;    0.000
669.242; 1777.825;    0.000;    0.000
669.355; 1781.825;    0.000;    0.000
669.467; 1810.825;    0.000;    0.000
669.580; 1793.825;    0.000;    0.000
669.693; 1807.825;    0.000;    0.000
669.806; 1816.825;    0.000;    0.000
669.918; 1758.825;    0.000;    0.000
670.031; 1812.825;    0.000;    0.000
670.144; 1792.825;    0.000;    0.000
670.256; 1787.825;    0.000;    0.000
670.369; 1849.825;    0.000;    0.000
670.482; 1870.825;    0.000;    0.000
670.594; 1805.825;    0.000;    0.000
670.707; 1807.825;    0.000;    0.000
670.820; 1847.825;    0.000;    0.000
670.932; 1802.825;    0.000;    0.000
671.045; 1836.825;    0.000;    0.000
671.157; 1780.825;    0.000;    0.000
671.270; 1803.825;    0.000;    0.000
671.382; 1781.825;    0.000;    0.000
671.495; 1774.825;    0.000;    0.000
671.607; 1741.825;    0.000;    0.000
671.720; 1717.825;    0.000;    0.000
671.832; 1775.825;    0.000;    0.000
671.944; 1780.825;    0.000;    0.000
672.057; 1726.825;    0.000;    0.000
672.169; 1736.825;    0.000;    0.000
672.282; 1704.825;    0.000;    0.000
672.394; 1793.825;    0.000;    0.000
672.506; 1725.825;    0.000;    0.000
672.618; 1734.825;    0.000;    0.000
672.731; 1707.825;    0.000;    0.000
672.843; 1751.825;    0.000;    0.000
672.955; 1728.825;    0.000;    0.000
673.067; 1812.825;    0.000;    0.000
673.180; 1796.825;    0.000;    0.000
673.292; 1743.825;    0.000;    0.000
673.404; 1705.825;    0.000;    0.000
673.516; 1681.825;    0.000;    0.000
673.628; 1725.825;    0.000;    0.000
673.740; 1683.825;    0.000;    0.000
673.852; 1703.825;    0.000;    0.000
673.964; 1792.825;    0.000;    0.000
674.076; 1664.825;    0.000;    0.000
674.188; 1662.825;    0.000;    0.000
674.300; 1707.825;    0.000;    0.000
674.412; 1707.825;    0.000;    0.000
674.524; 1713.825;    0.000;    0.000
674.636; 1717.825;    0.000;    0.000
674.748; 1686.825;    0.000;    0.000
674.860; 1685.825;    0.000;    0.000
674.972; 1739.825;    0.000;    0.000
675.084; 1648.825;    0.000;    0.000
675.196; 1664.825;    0.000;    0.000
675.307; 1700.825;    0.000;    0.000
675.419; 1644.825;    0.000;    0.000
675.531; 1793.825;    0.000;    0.000
675.643; 1661.825;    0.000;    0.000
675.755; 1689.825;    0.000;    0.000
675.866; 1647.825;    0.000;    0.000
675.978; 1691.825;    0.000;    0.000
676.090; 1604.825;    0.000;    0.000
676.201; 1608.825;    0.000;    0.000
676.313; 1612.825;    0.000;    0.000
676.425; 1707.825;    0.000;    0.000
676.536; 1701.825;    0.000;    0.000
676.648; 1671.825;    0.000;    0.000
676.759; 1593.825;    0.000;    0.000
676.871; 1629.825;    0.000;    0.000
676.983; 1673.825;    0.000;    0.000
677.094; 1592.825;    0.000;    0.000
677.206; 1687.825;    0.000;    0.000
677.317; 1590.825;    0.000;    0.000
677.429; 1564.825;    0.000;    0.000
677.540; 1592.825;    0.000;    0.000
677.651; 1611.825;    0.000;    0.000
677.763; 1585.825;    0.000;    0.000
677.874; 1562.825;    0.000;    0.000
677.986; 1551.825;    0.000;    0.000
678.097; 1631.825;    0.000;    0.000
678.208; 1599.825;    0.000;    0.000
678.320; 1652.825;    0.000;    0.000
678.431; 1572.825;    0.000;    0.000
678.542; 1519.825;    0.000;    0.000
678.653; 1545.825;    0.000;    0.000
678.765; 1613.825;    0.000;    0.000
678.876; 1533.825;    0.000;    0.000
678.987; 1587.825;    0.000;    0.000
679.098; 1525.825;    0.000;    0.000
679.209; 1608.825;    0.000;    0.000
679.320; 1530.825;    0.000;    0.000
679.432; 1524.825;    0.000;    0.000
679.543; 1531.825;    0.000;    0.000
679.654; 1512.825;    0.000;    0.000
679.765; 1541.825;    0.000;    0.000
679.876; 1610.825;    0.000;    0.000
679.987; 1521.825;    0.000;    0.000
680.098; 1619.825;    0.000;    0.000
680.209; 1543.825;    0.000;    0.000
680.320; 1524.825;    0.000;    0.000
680.431; 1526.825;    0.000;    0.000
680.542; 1496.825;    0.000;    0.000
680.653; 1655.825;    0.000;    0.000
680.763; 1457.825;    0.000;    0.000
680.874; 1557.825;    0.000;    0.000
680.985; 1506.825;    0.000;    0.000
681.096; 1567.825;    0.000;    0.000
681.207; 1467.825;    0.000;    0.000
681.318; 1528.825;    0.000;    0.000
681.428; 1516.825;    0.000;    0.000
681.539; 1530.825;    0.000;    0.000
681.650; 1595.825;    0.000;    0.000
681.761; 1523.825;    0.000;    0.000
681.871; 1487.825;    0.000;    0.000
681.982; 1481.825;    0.000;    0.000
682.093; 1540.825;    0.000;    0.000
682.203; 1479.825;    0.000;    0.000
682.314; 1575.825;    0.000;    0.000
682.424; 1499.825;    0.000;    0.000
682.535; 1468.825;    0.000;    0.000
682.645; 1539.825;    0.000;    0.000
682.756; 1559.825;    0.000;    0.000
682.867; 1531.825;    0.000;    0.000
682.977; 1549.825;    0.000;    0.000
683.087; 1585.825;    0.000;    0.000
683.198; 1509.825;    0.000;    0.000
683.308; 1515.825;    0.000;    0.000
683.419; 1523.825;    0.000;    0.000
683.529; 1500.825;    0.000;    0.000
683.640; 1544.825;    0.000;    0.000
683.750; 1456.825;    0.000;    0.000
683.860; 1557.825;    0.000;    0.000
683.971; 1535.825;    0.000;    0.000
684.081; 1577.825;    0.000;    0.000
684.191; 1517.825;    0.000;    0.000
684.301; 1491.825;    0.000;    0.000
684.412; 1512.825;    0.000;    0.000
684.522; 1473.825;    0.000;    0.000
684.632; 1462.825;    0.000;    0.000
684.742; 1520.825;    0.000;    0.000
684.852; 1517.825;    0.000;    0.000
684.963; 1517.825;    0.000;    0.000
685.073; 1522.825;    0.000;    0.000
685.183; 1526.825;    0.000;    0.000
685.293; 1473.825;    0.000;    0.000
685.403; 1516.825;    0.000;    0.000
685.513; 1512.825;    0.000;    0.000
685.623; 1540.825;    0.000;    0.000
685.733; 1524.825;    0.000;    0.000
685.843; 1504.825;    0.000;    0.000
685.953; 1547.825;    0.000;    0.000
686.063; 1465.825;    0.000;    0.000
686.173; 1465.825;    0.000;    0.000
686.283; 1547.825;    0.000;    0.000
686.393; 1521.825;    0.000;    0.000
686.503; 1511.825;    0.000;    0.000
686.612; 1486.825;    0.000;    0.000
686.722; 1534.825;    0.000;    0.000
686.832; 1479.825;    0.000;    0.000
686.942; 1542.825;    0.000;    0.000
687.052; 1479.825;    0.000;    0.000
687.161; 1534.825;    0.000;    0.000
687.271; 1502.825;    0.000;    0.000
687.381; 1489.825;    0.000;    0.000
687.491; 1480.825;    0.000;    0.000
687.600; 1513.825;    0.000;    0.000
687.710; 1486.825;    0.000;    0.000
687.820; 1500.825;    0.000;    0.000
687.929; 1504.825;    0.000;    0.000
688.039; 1519.825;    0.000;    0.000
688.148; 1474.825;    0.000;    0.000
688.258; 1438.825;    0.000;    0.000
688.367; 1501.825;    0.000;    0.000
688.477; 1471.825;    0.000;    0.000
688.586; 1507.825;    0.000;    0.000
688.696; 1526.825;    0.000;    0.000
688.805; 1482.825;    0.000;    0.000
688.915; 1480.825;    0.000;    0.000
689.024; 1503.825;    0.000;    0.000
689.134; 1469.825;    0.000;    0.000
689.243; 1458.825;    0.000;    0.000
689.352; 1458.825;    0.000;    0.000
689.462; 1407.825;    0.000;    0.000
689.571; 1471.825;    0.000;    0.000
689.680; 1486.825;    0.000;    0.000
689.790; 1408.825;    0.000;    0.000
689.899; 1488.825;    0.000;    0.000
690.008; 1453.825;    0.000;    0.000
690.117; 1445.825;    0.000;    0.000
690.227; 1534.825;    0.000;    0.000
690.336; 1427.825;    0.000;    0.000
690.445; 1439.825;    0.000;    0.000
690.554; 1416.825;    0.000;    0.000
690.663; 1476.825;    0.000;    0.000
690.772; 1464.825;    0.000;    0.000
690.881; 1479.825;    0.000;    0.000
690.990; 1491.825;    0.000;    0.000
691.100; 1481.825;    0.000;    0.000
691.209; 1435.825;    0.000;    0.000
691.318; 1437.825;    0.000;    0.000
691.427; 1455.825;    0.000;    0.000
691.535; 1461.825;    0.000;    0.000
691.644; 1492.825;    0.000;    0.000
691.753; 1439.825;    0.000;    0.000
691.862; 1460.825;    0.000;    0.000
691.971; 1435.825;    0.000;    0.000
692.080; 1438.825;    0.000;    0.000
692.189; 1421.825;    0.000;    0.000
692.298; 1441.825;    0.000;    0.000
692.407; 1473.825;    0.000;    0.000
692.515; 1471.825;    0.000;    0.000
692.624; 1444.825;    0.000;    0.000
692.733; 1400.825;    0.000;    0.000
692.842; 1424.825;    0.000;    0.000
692.950; 1476.825;    0.000;    0.000
693.059; 1401.825;    0.000;    0.000
693.168; 1425.825;    0.000;    0.000
693.276; 1409.825;    0.000;    0.000
693.385; 1397.825;    0.000;    0.000
693.494; 1503.825;    0.000;    0.000
693.602; 1474.825;    0.000;    0.000
693.711; 1436.825;    0.000;    0.000
693.819; 1416.825;    0.000;    0.000
693.928; 1472.825;    0.000;    0.000
694.036; 1451.825;    0.000;    0.000
694.145; 1442.825;    0.000;    0.000
694.253; 1443.825;    0.000;    0.000
694.362; 1437.825;    0.000;    0.000
694.470; 1487.825;    0.000;    0.000
694.579; 1411.825;    0.000;    0.000
694.687; 1456.825;    0.000;    0.000
694.795; 1453.825;    0.000;    0.000
694.904; 1424.825;    0.000;    0.000
695.012; 1463.825;    0.000;    0.000
695.120; 1387.825;    0.000;    0.000
695.229; 1445.825;    0.000;    0.000
695.337; 1426.825;    0.000;    0.000
695.445; 1491.825;    0.000;    0.000
695.553; 1455.825;    0.000;    0.000
695.662; 1447.825;    0.000;    0.000
695.770; 1438.825;    0.000;    0.000
695.878; 1500.825;    0.000;    0.000
695.986; 1457.825;    0.000;    0.000
696.094; 1463.825;    0.000;    0.000
696.202; 1465.825;    0.000;    0.000
696.310; 1412.825;    0.000;    0.000
696.419; 1409.825;    0.000;    0.000
696.527; 1504.825;    0.000;    0.000
696.635; 1397.825;    0.000;    0.000
696.743; 1368.825;    0.000;    0.000
696.851; 1507.825;    0.000;    0.000
696.959; 1430.825;    0.000;    0.000
697.067; 1471.825;    0.000;    0.000
697.174; 1468.825;    0.000;    0.000
697.282; 1389.825;    0.000;    0.000
697.390; 1481.825;    0.000;    0.000
697.498; 1380.825;    0.000;    0.000
697.606; 1387.825;    0.000;    0.000
697.714; 1435.825;    0.000;    0.000
697.822; 1382.825;    0.000;    0.000
697.929; 1400.825;    0.000;    0.000
698.037; 1427.825;    0.000;    0.000
698.145; 1399.825;    0.000;    0.000
698.253; 1449.825;    0.000;    0.000
698.360; 1408.825;    0.000;    0.000
698.468; 1443.825;    0.000;    0.000
698.576; 1443.825;    0.000;    0.000
698.683; 1411.825;    0.000;    0.000
698.791; 1408.825;    0.000;    0.000
698.899; 1343.825;    0.000;    0.000
699.006; 1391.825;    0.000;    0.000
699.114; 1399.825;    0.000;    0.000
699.221; 1437.825;    0.000;    0.000
699.329; 1441.825;    0.000;    0.000
699.436; 1413.825;    0.000;    0.000
699.544; 1401.825;    0.000;    0.000
699.651; 1441.825;    0.000;    0.000
699.759; 1436.825;    0.000;    0.000
699.866; 1378.825;    0.000;    0.000
699.974; 1380.825;    0.000;    0.000
700.081; 1464.825;    0.000;    0.000
700.188; 1460.825;    0.000;    0.000
700.296; 1437.825;    0.000;    0.000
700.403; 1442.825;    0.000;    0.000
700.510; 1395.825;    0.000;    0.000
700.618; 1423.825;    0.000;    0.000
700.725; 1373.825;    0.000;    0.000
700.832; 1394.825;    0.000;    0.000
700.940; 1448.825;    0.000;    0.000
701.047; 1401.825;    0.000;    0.000
701.154; 1385.825;    0.000;    0.000
701.261; 1358.825;    0.000;    0.000
701.368; 1442.825;    0.000;    0.000
701.475; 1397.825;    0.000;    0.000
701.582; 1380.825;    0.000;    0.000
701.690; 1444.825;    0.000;    0.000
701.797; 1412.825;    0.000;    0.000
701.904; 1510.825;    0.000;    0.000
702.011; 1446.825;    0.000;    0.000
702.118; 1451.825;    0.000;    0.000
702.225; 1481.825;    0.000;    0.000
702.332; 1523.825;    0.000;    0.000
702.439; 1422.825;    0.000;    0.000
702.546; 1472.825;    0.000;    0.000
702.652; 1463.825;    0.000;    0.000
702.759; 1496.825;    0.000;    0.000
702.866; 1473.825;    0.000;    0.000
702.973; 1468.825;    0.000;    0.000
703.080; 1505.825;    0.000;    0.000
703.187; 1467.825;    0.000;    0.000
703.293; 1537.825;    0.000;    0.000
703.400; 1350.825;    0.000;    0.000
703.507;  449.825;    0.000;    0.000
703.614;  340.825;    0.000;    0.000
703.720;  305.825;    0.000;    0.000
703.827;  338.825;    0.000;    0.000
703.934;  340.825;    0.000;    0.000
704.040;  280.825;    0.000;    0.000
704.147;  295.825;    0.000;    0.000
704.254;  356.825;    0.000;    0.000
704.360;  328.825;    0.000;    0.000
704.467;  341.825;    0.000;    0.000
704.573;  345.825;    0.000;    0.000
704.680;  335.825;    0.000;    0.000
704.786;  295.825;    0.000;    0.000
704.893;  319.825;    0.000;    0.000
704.999;  322.825;    0.000;    0.000
705.106;  356.825;    0.000;    0.000

