M14_test_100us_n5
Integration time [ms]:   0.500
Averaging Nr. [scans]: 1
Smoothing Nr. [pixels]: 0
Data measured with spectrometer [name]: NIR
Wave   ;Sample   ;Dark     ;Reference
[nm]   ;[counts] ;[counts] ;[counts] 

691.496;  -59.250;    0.000;    0.000
691.696;  -57.250;    0.000;    0.000
691.896; -100.250;    0.000;    0.000
692.096;  -65.250;    0.000;    0.000
692.296; -125.250;    0.000;    0.000
692.496;  -22.250;    0.000;    0.000
692.695;  -77.250;    0.000;    0.000
692.895;  -51.250;    0.000;    0.000
693.095;  -71.250;    0.000;    0.000
693.295;  -43.250;    0.000;    0.000
693.495;  -60.250;    0.000;    0.000
693.695;  -75.250;    0.000;    0.000
693.894;  -56.250;    0.000;    0.000
694.094;  -66.250;    0.000;    0.000
694.294;  -86.250;    0.000;    0.000
694.494;   94.750;    0.000;    0.000
694.693; 1733.750;    0.000;    0.000
694.893; 1838.750;    0.000;    0.000
695.093; 1825.750;    0.000;    0.000
695.293; 1861.750;    0.000;    0.000
695.492; 1868.750;    0.000;    0.000
695.692; 1845.750;    0.000;    0.000
695.891; 1948.750;    0.000;    0.000
696.091; 1985.750;    0.000;    0.000
696.291; 2073.750;    0.000;    0.000
696.490; 1927.750;    0.000;    0.000
696.690; 1901.750;    0.000;    0.000
696.889; 1971.750;    0.000;    0.000
697.089; 1929.750;    0.000;    0.000
697.288; 2027.750;    0.000;    0.000
697.488; 1984.750;    0.000;    0.000
697.687; 1923.750;    0.000;    0.000
697.887; 1942.750;    0.000;    0.000
698.086; 1941.750;    0.000;    0.000
698.286; 1910.750;    0.000;    0.000
698.485; 1999.750;    0.000;    0.000
698.684; 1984.750;    0.000;    0.000
698.884; 1924.750;    0.000;    0.000
699.083; 1949.750;    0.000;    0.000
699.282; 1986.750;    0.000;    0.000
699.482; 1930.750;    0.000;    0.000
699.681; 1997.750;    0.000;    0.000
699.880; 2023.750;    0.000;    0.000
700.080; 2037.750;    0.000;    0.000
700.279; 1972.750;    0.000;    0.000
700.478; 2040.750;    0.000;    0.000
700.677; 1977.750;    0.000;    0.000
700.877; 2038.750;    0.000;    0.000
701.076; 2049.750;    0.000;    0.000
701.275; 2015.750;    0.000;    0.000
701.474; 2063.750;    0.000;    0.000
701.673; 2007.750;    0.000;    0.000
701.872; 2122.750;    0.000;    0.000
702.071; 1995.750;    0.000;    0.000
702.271; 1976.750;    0.000;    0.000
702.470; 2056.750;    0.000;    0.000
702.669; 2000.750;    0.000;    0.000
702.868; 1992.750;    0.000;    0.000
703.067; 2040.750;    0.000;    0.000
703.266; 2087.750;    0.000;    0.000
703.465; 2091.750;    0.000;    0.000
703.664; 2039.750;    0.000;    0.000
703.863; 2067.750;    0.000;    0.000
704.062; 1929.750;    0.000;    0.000
704.260; 2044.750;    0.000;    0.000
704.459; 2082.750;    0.000;    0.000
704.658; 2036.750;    0.000;    0.000
704.857; 2114.750;    0.000;    0.000
705.056; 2061.750;    0.000;    0.000
705.255; 2011.750;    0.000;    0.000
705.454; 2020.750;    0.000;    0.000
705.652; 2103.750;    0.000;    0.000
705.851; 2044.750;    0.000;    0.000
706.050; 2071.750;    0.000;    0.000
706.249; 2100.750;    0.000;    0.000
706.447; 2145.750;    0.000;    0.000
706.646; 2106.750;    0.000;    0.000
706.845; 2111.750;    0.000;    0.000
707.043; 2150.750;    0.000;    0.000
707.242; 2145.750;    0.000;    0.000
707.441; 2157.750;    0.000;    0.000
707.639; 2150.750;    0.000;    0.000
707.838; 2134.750;    0.000;    0.000
708.037; 2206.750;    0.000;    0.000
708.235; 2153.750;    0.000;    0.000
708.434; 2127.750;    0.000;    0.000
708.632; 2086.750;    0.000;    0.000
708.831; 2164.750;    0.000;    0.000
709.029; 2080.750;    0.000;    0.000
709.228; 2171.750;    0.000;    0.000
709.426; 2182.750;    0.000;    0.000
709.625; 2150.750;    0.000;    0.000
709.823; 2155.750;    0.000;    0.000
710.022; 2215.750;    0.000;    0.000
710.220; 2186.750;    0.000;    0.000
710.418; 2226.750;    0.000;    0.000
710.617; 2174.750;    0.000;    0.000
710.815; 2188.750;    0.000;    0.000
711.013; 2184.750;    0.000;    0.000
711.212; 2122.750;    0.000;    0.000
711.410; 2150.750;    0.000;    0.000
711.608; 2258.750;    0.000;    0.000
711.807; 2211.750;    0.000;    0.000
712.005; 2153.750;    0.000;    0.000
712.203; 2234.750;    0.000;    0.000
712.401; 2206.750;    0.000;    0.000
712.599; 2222.750;    0.000;    0.000
712.798; 2296.750;    0.000;    0.000
712.996; 2289.750;    0.000;    0.000
713.194; 2316.750;    0.000;    0.000
713.392; 2242.750;    0.000;    0.000
713.590; 2292.750;    0.000;    0.000
713.788; 2259.750;    0.000;    0.000
713.986; 2379.750;    0.000;    0.000
714.184; 2313.750;    0.000;    0.000
714.382; 2328.750;    0.000;    0.000
714.580; 2293.750;    0.000;    0.000
714.778; 2400.750;    0.000;    0.000
714.976; 2348.750;    0.000;    0.000
715.174; 2359.750;    0.000;    0.000
715.372; 2463.750;    0.000;    0.000
715.570; 2605.750;    0.000;    0.000
715.768; 2751.750;    0.000;    0.000
715.966; 2639.750;    0.000;    0.000
716.164; 2680.750;    0.000;    0.000
716.362; 2694.750;    0.000;    0.000
716.560; 2597.750;    0.000;    0.000
716.758; 2588.750;    0.000;    0.000
716.955; 2498.750;    0.000;    0.000
717.153; 2471.750;    0.000;    0.000
717.351; 2514.750;    0.000;    0.000
717.549; 2515.750;    0.000;    0.000
717.746; 2607.750;    0.000;    0.000
717.944; 2580.750;    0.000;    0.000
718.142; 2546.750;    0.000;    0.000
718.340; 2452.750;    0.000;    0.000
718.537; 2428.750;    0.000;    0.000
718.735; 2574.750;    0.000;    0.000
718.933; 2487.750;    0.000;    0.000
719.130; 2536.750;    0.000;    0.000
719.328; 2521.750;    0.000;    0.000
719.525; 2431.750;    0.000;    0.000
719.723; 2506.750;    0.000;    0.000
719.920; 2504.750;    0.000;    0.000
720.118; 2569.750;    0.000;    0.000
720.316; 2529.750;    0.000;    0.000
720.513; 2484.750;    0.000;    0.000
720.711; 2468.750;    0.000;    0.000
720.908; 2435.750;    0.000;    0.000
721.105; 2521.750;    0.000;    0.000
721.303; 2525.750;    0.000;    0.000
721.500; 2499.750;    0.000;    0.000
721.698; 2515.750;    0.000;    0.000
721.895; 2508.750;    0.000;    0.000
722.092; 2429.750;    0.000;    0.000
722.290; 2515.750;    0.000;    0.000
722.487; 2508.750;    0.000;    0.000
722.684; 2542.750;    0.000;    0.000
722.882; 2437.750;    0.000;    0.000
723.079; 2573.750;    0.000;    0.000
723.276; 2478.750;    0.000;    0.000
723.473; 2505.750;    0.000;    0.000
723.671; 2486.750;    0.000;    0.000
723.868; 2585.750;    0.000;    0.000
724.065; 2471.750;    0.000;    0.000
724.262; 2608.750;    0.000;    0.000
724.459; 2507.750;    0.000;    0.000
724.656; 2462.750;    0.000;    0.000
724.854; 2605.750;    0.000;    0.000
725.051; 2560.750;    0.000;    0.000
725.248; 2491.750;    0.000;    0.000
725.445; 2556.750;    0.000;    0.000
725.642; 2552.750;    0.000;    0.000
725.839; 2593.750;    0.000;    0.000
726.036; 2591.750;    0.000;    0.000
726.233; 2532.750;    0.000;    0.000
726.430; 2599.750;    0.000;    0.000
726.627; 2645.750;    0.000;    0.000
726.824; 2593.750;    0.000;    0.000
727.021; 2574.750;    0.000;    0.000
727.218; 2611.750;    0.000;    0.000
727.414; 2652.750;    0.000;    0.000
727.611; 2649.750;    0.000;    0.000
727.808; 2545.750;    0.000;    0.000
728.005; 2570.750;    0.000;    0.000
728.202; 2554.750;    0.000;    0.000
728.399; 2559.750;    0.000;    0.000
728.595; 2523.750;    0.000;    0.000
728.792; 2579.750;    0.000;    0.000
728.989; 2600.750;    0.000;    0.000
729.186; 2612.750;    0.000;    0.000
729.382; 2554.750;    0.000;    0.000
729.579; 2572.750;    0.000;    0.000
729.776; 2652.750;    0.000;    0.000
729.972; 2545.750;    0.000;    0.000
730.169; 2575.750;    0.000;    0.000
730.366; 2590.750;    0.000;    0.000
730.562; 2713.750;    0.000;    0.000
730.759; 2647.750;    0.000;    0.000
730.955; 2611.750;    0.000;    0.000
731.152; 2680.750;    0.000;    0.000
731.348; 2644.750;    0.000;    0.000
731.545; 2647.750;    0.000;    0.000
731.741; 2660.750;    0.000;    0.000
731.938; 2726.750;    0.000;    0.000
732.134; 2643.750;    0.000;    0.000
732.331; 2651.750;    0.000;    0.000
732.527; 2682.750;    0.000;    0.000
732.724; 2511.750;    0.000;    0.000
732.920; 2744.750;    0.000;    0.000
733.116; 2584.750;    0.000;    0.000
733.313; 2670.750;    0.000;    0.000
733.509; 2718.750;    0.000;    0.000
733.705; 2736.750;    0.000;    0.000
733.902; 2633.750;    0.000;    0.000
734.098; 2693.750;    0.000;    0.000
734.294; 2734.750;    0.000;    0.000
734.490; 2722.750;    0.000;    0.000
734.687; 2707.750;    0.000;    0.000
734.883; 2713.750;    0.000;    0.000
735.079; 2713.750;    0.000;    0.000
735.275; 2748.750;    0.000;    0.000
735.471; 2648.750;    0.000;    0.000
735.667; 2762.750;    0.000;    0.000
735.863; 2741.750;    0.000;    0.000
736.060; 2789.750;    0.000;    0.000
736.256; 2763.750;    0.000;    0.000
736.452; 2729.750;    0.000;    0.000
736.648; 2734.750;    0.000;    0.000
736.844; 2769.750;    0.000;    0.000
737.040; 2837.750;    0.000;    0.000
737.236; 2802.750;    0.000;    0.000
737.432; 2847.750;    0.000;    0.000
737.628; 2796.750;    0.000;    0.000
737.824; 2815.750;    0.000;    0.000
738.019; 2745.750;    0.000;    0.000
738.215; 2818.750;    0.000;    0.000
738.411; 2870.750;    0.000;    0.000
738.607; 2771.750;    0.000;    0.000
738.803; 2830.750;    0.000;    0.000
738.999; 2855.750;    0.000;    0.000
739.195; 2774.750;    0.000;    0.000
739.390; 2890.750;    0.000;    0.000
739.586; 2882.750;    0.000;    0.000
739.782; 2868.750;    0.000;    0.000
739.978; 2850.750;    0.000;    0.000
740.173; 2844.750;    0.000;    0.000
740.369; 2864.750;    0.000;    0.000
740.565; 3020.750;    0.000;    0.000
740.760; 3005.750;    0.000;    0.000
740.956; 2910.750;    0.000;    0.000
741.152; 2923.750;    0.000;    0.000
741.347; 2865.750;    0.000;    0.000
741.543; 3057.750;    0.000;    0.000
741.738; 3059.750;    0.000;    0.000
741.934; 3164.750;    0.000;    0.000
742.129; 3252.750;    0.000;    0.000
742.325; 3591.750;    0.000;    0.000
742.520; 3735.750;    0.000;    0.000
742.716; 3676.750;    0.000;    0.000
742.911; 3459.750;    0.000;    0.000
743.107; 3545.750;    0.000;    0.000
743.302; 3408.750;    0.000;    0.000
743.498; 3468.750;    0.000;    0.000
743.693; 3557.750;    0.000;    0.000
743.888; 3580.750;    0.000;    0.000
744.084; 3971.750;    0.000;    0.000
744.279; 4557.750;    0.000;    0.000
744.474; 4715.750;    0.000;    0.000
744.670; 4281.750;    0.000;    0.000
744.865; 4011.750;    0.000;    0.000
745.060; 3840.750;    0.000;    0.000
745.255; 3863.750;    0.000;    0.000
745.451; 3714.750;    0.000;    0.000
745.646; 3757.750;    0.000;    0.000
745.841; 3626.750;    0.000;    0.000
746.036; 3677.750;    0.000;    0.000
746.231; 3816.750;    0.000;    0.000
746.426; 3816.750;    0.000;    0.000
746.622; 4253.750;    0.000;    0.000
746.817; 5338.750;    0.000;    0.000
747.012; 5949.750;    0.000;    0.000
747.207; 5377.750;    0.000;    0.000
747.402; 4871.750;    0.000;    0.000
747.597; 4545.750;    0.000;    0.000
747.792; 4586.750;    0.000;    0.000
747.987; 4265.750;    0.000;    0.000
748.182; 4093.750;    0.000;    0.000
748.377; 3926.750;    0.000;    0.000
748.572; 3973.750;    0.000;    0.000
748.767; 3834.750;    0.000;    0.000
748.961; 3795.750;    0.000;    0.000
749.156; 3731.750;    0.000;    0.000
749.351; 3582.750;    0.000;    0.000
749.546; 3655.750;    0.000;    0.000
749.741; 3468.750;    0.000;    0.000
749.936; 3484.750;    0.000;    0.000
750.130; 3480.750;    0.000;    0.000
750.325; 3426.750;    0.000;    0.000
750.520; 3444.750;    0.000;    0.000
750.715; 3447.750;    0.000;    0.000
750.909; 3461.750;    0.000;    0.000
751.104; 3379.750;    0.000;    0.000
751.299; 3376.750;    0.000;    0.000
751.493; 3321.750;    0.000;    0.000
751.688; 3292.750;    0.000;    0.000
751.882; 3237.750;    0.000;    0.000
752.077; 3258.750;    0.000;    0.000
752.272; 3215.750;    0.000;    0.000
752.466; 3241.750;    0.000;    0.000
752.661; 3265.750;    0.000;    0.000
752.855; 3213.750;    0.000;    0.000
753.050; 3282.750;    0.000;    0.000
753.244; 3268.750;    0.000;    0.000
753.439; 3179.750;    0.000;    0.000
753.633; 3253.750;    0.000;    0.000
753.827; 3085.750;    0.000;    0.000
754.022; 3082.750;    0.000;    0.000
754.216; 3151.750;    0.000;    0.000
754.411; 3234.750;    0.000;    0.000
754.605; 3091.750;    0.000;    0.000
754.799; 3117.750;    0.000;    0.000
754.994; 3122.750;    0.000;    0.000
755.188; 3182.750;    0.000;    0.000
755.382; 3038.750;    0.000;    0.000
755.576; 3046.750;    0.000;    0.000
755.771; 3073.750;    0.000;    0.000
755.965; 3130.750;    0.000;    0.000
756.159; 3052.750;    0.000;    0.000
756.353; 2994.750;    0.000;    0.000
756.547; 3022.750;    0.000;    0.000
756.742; 3049.750;    0.000;    0.000
756.936; 2926.750;    0.000;    0.000
757.130; 3083.750;    0.000;    0.000
757.324; 3050.750;    0.000;    0.000
757.518; 2996.750;    0.000;    0.000
757.712; 3031.750;    0.000;    0.000
757.906; 3082.750;    0.000;    0.000
758.100; 3144.750;    0.000;    0.000
758.294; 3124.750;    0.000;    0.000
758.488; 3191.750;    0.000;    0.000
758.682; 3038.750;    0.000;    0.000
758.876; 3108.750;    0.000;    0.000
759.070; 3103.750;    0.000;    0.000
759.264; 3049.750;    0.000;    0.000
759.457; 3060.750;    0.000;    0.000
759.651; 3074.750;    0.000;    0.000
759.845; 3121.750;    0.000;    0.000
760.039; 3094.750;    0.000;    0.000
760.233; 3185.750;    0.000;    0.000
760.427; 3091.750;    0.000;    0.000
760.620; 3062.750;    0.000;    0.000
760.814; 3057.750;    0.000;    0.000
761.008; 3028.750;    0.000;    0.000
761.202; 3025.750;    0.000;    0.000
761.395; 3128.750;    0.000;    0.000
761.589; 3018.750;    0.000;    0.000
761.783; 3075.750;    0.000;    0.000
761.976; 3153.750;    0.000;    0.000
762.170; 3069.750;    0.000;    0.000
762.363; 3073.750;    0.000;    0.000
762.557; 3090.750;    0.000;    0.000
762.750; 3160.750;    0.000;    0.000
762.944; 3139.750;    0.000;    0.000
763.138; 3057.750;    0.000;    0.000
763.331; 3093.750;    0.000;    0.000
763.524; 3074.750;    0.000;    0.000
763.718; 3089.750;    0.000;    0.000
763.911; 3140.750;    0.000;    0.000
764.105; 3089.750;    0.000;    0.000
764.298; 3115.750;    0.000;    0.000
764.492; 3118.750;    0.000;    0.000
764.685; 3075.750;    0.000;    0.000
764.878; 3169.750;    0.000;    0.000
765.072; 3173.750;    0.000;    0.000
765.265; 3258.750;    0.000;    0.000
765.458; 3050.750;    0.000;    0.000
765.651; 3192.750;    0.000;    0.000
765.845; 3027.750;    0.000;    0.000
766.038; 3151.750;    0.000;    0.000
766.231; 3380.750;    0.000;    0.000
766.424; 4502.750;    0.000;    0.000
766.618; 4595.750;    0.000;    0.000
766.811; 3326.750;    0.000;    0.000
767.004; 3168.750;    0.000;    0.000
767.197; 3203.750;    0.000;    0.000
767.390; 3126.750;    0.000;    0.000
767.583; 3216.750;    0.000;    0.000
767.776; 3136.750;    0.000;    0.000
767.969; 3253.750;    0.000;    0.000
768.162; 3168.750;    0.000;    0.000
768.355; 3270.750;    0.000;    0.000
768.548; 3143.750;    0.000;    0.000
768.741; 3203.750;    0.000;    0.000
768.934; 3235.750;    0.000;    0.000
769.127; 3323.750;    0.000;    0.000
769.320; 3274.750;    0.000;    0.000
769.513; 3364.750;    0.000;    0.000
769.706; 3546.750;    0.000;    0.000
769.898; 4420.750;    0.000;    0.000
770.091; 3856.750;    0.000;    0.000
770.284; 3316.750;    0.000;    0.000
770.477; 3461.750;    0.000;    0.000
770.670; 3492.750;    0.000;    0.000
770.862; 3433.750;    0.000;    0.000
771.055; 3419.750;    0.000;    0.000
771.248; 3419.750;    0.000;    0.000
771.441; 3473.750;    0.000;    0.000
771.633; 3405.750;    0.000;    0.000
771.826; 3513.750;    0.000;    0.000
772.018; 3510.750;    0.000;    0.000
772.211; 3646.750;    0.000;    0.000
772.404; 3553.750;    0.000;    0.000
772.596; 3519.750;    0.000;    0.000
772.789; 3663.750;    0.000;    0.000
772.981; 3722.750;    0.000;    0.000
773.174; 3720.750;    0.000;    0.000
773.366; 3721.750;    0.000;    0.000
773.559; 3776.750;    0.000;    0.000
773.751; 3830.750;    0.000;    0.000
773.944; 3956.750;    0.000;    0.000
774.136; 3943.750;    0.000;    0.000
774.329; 3973.750;    0.000;    0.000
774.521; 4067.750;    0.000;    0.000
774.713; 4288.750;    0.000;    0.000
774.906; 4361.750;    0.000;    0.000
775.098; 4600.750;    0.000;    0.000
775.290; 4663.750;    0.000;    0.000
775.483; 5022.750;    0.000;    0.000
775.675; 5137.750;    0.000;    0.000
775.867; 5483.750;    0.000;    0.000
776.059; 5911.750;    0.000;    0.000
776.251; 6322.750;    0.000;    0.000
776.444; 7026.750;    0.000;    0.000
776.636; 8057.750;    0.000;    0.000
776.828; 9992.750;    0.000;    0.000
777.020;13416.750;    0.000;    0.000
777.212;19386.750;    0.000;    0.000
777.404;21658.750;    0.000;    0.000
777.596;20131.750;    0.000;    0.000
777.788;15435.750;    0.000;    0.000
777.980;12163.750;    0.000;    0.000
778.172; 9948.750;    0.000;    0.000
778.364; 8678.750;    0.000;    0.000
778.556; 7726.750;    0.000;    0.000
778.748; 7006.750;    0.000;    0.000
778.940; 6418.750;    0.000;    0.000
779.132; 5941.750;    0.000;    0.000
779.324; 5674.750;    0.000;    0.000
779.516; 5478.750;    0.000;    0.000
779.708; 5162.750;    0.000;    0.000
779.900; 4796.750;    0.000;    0.000
780.091; 4745.750;    0.000;    0.000
780.283; 4560.750;    0.000;    0.000
780.475; 4458.750;    0.000;    0.000
780.667; 4404.750;    0.000;    0.000
780.859; 4111.750;    0.000;    0.000
781.050; 4003.750;    0.000;    0.000
781.242; 3999.750;    0.000;    0.000
781.434; 3922.750;    0.000;    0.000
781.625; 3899.750;    0.000;    0.000
781.817; 3810.750;    0.000;    0.000
782.009; 3664.750;    0.000;    0.000
782.200; 3656.750;    0.000;    0.000
782.392; 3558.750;    0.000;    0.000
782.583; 3644.750;    0.000;    0.000
782.775; 3636.750;    0.000;    0.000
782.966; 3575.750;    0.000;    0.000
783.158; 3561.750;    0.000;    0.000
783.349; 3462.750;    0.000;    0.000
783.541; 3525.750;    0.000;    0.000
783.732; 3425.750;    0.000;    0.000
783.924; 3386.750;    0.000;    0.000
784.115; 3371.750;    0.000;    0.000
784.306; 3290.750;    0.000;    0.000
784.498; 3271.750;    0.000;    0.000
784.689; 3275.750;    0.000;    0.000
784.880; 3312.750;    0.000;    0.000
785.072; 3342.750;    0.000;    0.000
785.263; 3300.750;    0.000;    0.000
785.454; 3154.750;    0.000;    0.000
785.645; 3176.750;    0.000;    0.000
785.837; 3185.750;    0.000;    0.000
786.028; 3276.750;    0.000;    0.000
786.219; 3255.750;    0.000;    0.000
786.410; 3166.750;    0.000;    0.000
786.601; 3129.750;    0.000;    0.000
786.793; 3105.750;    0.000;    0.000
786.984; 3173.750;    0.000;    0.000
787.175; 3100.750;    0.000;    0.000
787.366; 3168.750;    0.000;    0.000
787.557; 3195.750;    0.000;    0.000
787.748; 3055.750;    0.000;    0.000
787.939; 3233.750;    0.000;    0.000
788.130; 3121.750;    0.000;    0.000
788.321; 3215.750;    0.000;    0.000
788.512; 3218.750;    0.000;    0.000
788.703; 3052.750;    0.000;    0.000
788.894; 3205.750;    0.000;    0.000
789.084; 3139.750;    0.000;    0.000
789.275; 3192.750;    0.000;    0.000
789.466; 3254.750;    0.000;    0.000
789.657; 3071.750;    0.000;    0.000
789.848; 3143.750;    0.000;    0.000
790.039; 3136.750;    0.000;    0.000
790.229; 3215.750;    0.000;    0.000
790.420; 3122.750;    0.000;    0.000
790.611; 3290.750;    0.000;    0.000
790.801; 3208.750;    0.000;    0.000
790.992; 3227.750;    0.000;    0.000
791.183; 3134.750;    0.000;    0.000
791.373; 3212.750;    0.000;    0.000
791.564; 3068.750;    0.000;    0.000
791.755; 3199.750;    0.000;    0.000
791.945; 3154.750;    0.000;    0.000
792.136; 3152.750;    0.000;    0.000
792.326; 3211.750;    0.000;    0.000
792.517; 3149.750;    0.000;    0.000
792.707; 3194.750;    0.000;    0.000
792.898; 3156.750;    0.000;    0.000
793.088; 3231.750;    0.000;    0.000
793.279; 3128.750;    0.000;    0.000
793.469; 3217.750;    0.000;    0.000
793.660; 3310.750;    0.000;    0.000
793.850; 3441.750;    0.000;    0.000
794.040; 3546.750;    0.000;    0.000
794.231; 3679.750;    0.000;    0.000
794.421; 3733.750;    0.000;    0.000
794.611; 4052.750;    0.000;    0.000
794.802; 4703.750;    0.000;    0.000
794.992; 4874.750;    0.000;    0.000
795.182; 4832.750;    0.000;    0.000
795.372; 4617.750;    0.000;    0.000
795.563; 4429.750;    0.000;    0.000
795.753; 4150.750;    0.000;    0.000
795.943; 3836.750;    0.000;    0.000
796.133; 3591.750;    0.000;    0.000
796.323; 3701.750;    0.000;    0.000
796.513; 3497.750;    0.000;    0.000
796.703; 3354.750;    0.000;    0.000
796.893; 3503.750;    0.000;    0.000
797.083; 3470.750;    0.000;    0.000
797.273; 3399.750;    0.000;    0.000
797.463; 3431.750;    0.000;    0.000
797.653; 3364.750;    0.000;    0.000
797.843; 3316.750;    0.000;    0.000
798.033; 3248.750;    0.000;    0.000
798.223; 3278.750;    0.000;    0.000
798.413; 3064.750;    0.000;    0.000
798.603; 3005.750;    0.000;    0.000
798.793; 3071.750;    0.000;    0.000
798.983; 2941.750;    0.000;    0.000
799.172; 2906.750;    0.000;    0.000
799.362; 2961.750;    0.000;    0.000
799.552; 3051.750;    0.000;    0.000
799.742; 2870.750;    0.000;    0.000
799.932; 2955.750;    0.000;    0.000
800.121; 2908.750;    0.000;    0.000
800.311; 2923.750;    0.000;    0.000
800.501; 2922.750;    0.000;    0.000
800.690; 2960.750;    0.000;    0.000
800.880; 2968.750;    0.000;    0.000
801.070; 2891.750;    0.000;    0.000
801.259; 2802.750;    0.000;    0.000
801.449; 2816.750;    0.000;    0.000
801.638; 2833.750;    0.000;    0.000
801.828; 2831.750;    0.000;    0.000
802.017; 2870.750;    0.000;    0.000
802.207; 2874.750;    0.000;    0.000
802.396; 2839.750;    0.000;    0.000
802.586; 2781.750;    0.000;    0.000
802.775; 2820.750;    0.000;    0.000
802.965; 2836.750;    0.000;    0.000
803.154; 2836.750;    0.000;    0.000
803.343; 2718.750;    0.000;    0.000
803.533; 2807.750;    0.000;    0.000
803.722; 2699.750;    0.000;    0.000
803.911; 2889.750;    0.000;    0.000
804.101; 2787.750;    0.000;    0.000
804.290; 2694.750;    0.000;    0.000
804.479; 2708.750;    0.000;    0.000
804.668; 2732.750;    0.000;    0.000
804.857; 2769.750;    0.000;    0.000
805.047; 2658.750;    0.000;    0.000
805.236; 2772.750;    0.000;    0.000
805.425; 2819.750;    0.000;    0.000
805.614; 2685.750;    0.000;    0.000
805.803; 2751.750;    0.000;    0.000
805.992; 2836.750;    0.000;    0.000
806.181; 2819.750;    0.000;    0.000
806.370; 2810.750;    0.000;    0.000
806.559; 2793.750;    0.000;    0.000
806.748; 2834.750;    0.000;    0.000
806.937; 2771.750;    0.000;    0.000
807.126; 2746.750;    0.000;    0.000
807.315; 2784.750;    0.000;    0.000
807.504; 2631.750;    0.000;    0.000
807.693; 2806.750;    0.000;    0.000
807.882; 2826.750;    0.000;    0.000
808.071; 2834.750;    0.000;    0.000
808.260; 2777.750;    0.000;    0.000
808.448; 2852.750;    0.000;    0.000
808.637; 2800.750;    0.000;    0.000
808.826; 2854.750;    0.000;    0.000
809.015; 2790.750;    0.000;    0.000
809.203; 2871.750;    0.000;    0.000
809.392; 2909.750;    0.000;    0.000
809.581; 2935.750;    0.000;    0.000
809.770; 2750.750;    0.000;    0.000
809.958; 2866.750;    0.000;    0.000
810.147; 2882.750;    0.000;    0.000
810.335; 2923.750;    0.000;    0.000
810.524; 2968.750;    0.000;    0.000
810.713; 2944.750;    0.000;    0.000
810.901; 3004.750;    0.000;    0.000
811.090; 3080.750;    0.000;    0.000
811.278; 2998.750;    0.000;    0.000
811.467; 3171.750;    0.000;    0.000
811.655; 3133.750;    0.000;    0.000
811.844; 3105.750;    0.000;    0.000
812.032; 3135.750;    0.000;    0.000
812.220; 3120.750;    0.000;    0.000
812.409; 3054.750;    0.000;    0.000
812.597; 3083.750;    0.000;    0.000
812.785; 3231.750;    0.000;    0.000
812.974; 3162.750;    0.000;    0.000
813.162; 3199.750;    0.000;    0.000
813.350; 3294.750;    0.000;    0.000
813.539; 3206.750;    0.000;    0.000
813.727; 3212.750;    0.000;    0.000
813.915; 3268.750;    0.000;    0.000
814.103; 3290.750;    0.000;    0.000
814.291; 3356.750;    0.000;    0.000
814.480; 3356.750;    0.000;    0.000
814.668; 3455.750;    0.000;    0.000
814.856; 3411.750;    0.000;    0.000
815.044; 3550.750;    0.000;    0.000
815.232; 3665.750;    0.000;    0.000
815.420; 3755.750;    0.000;    0.000
815.608; 3646.750;    0.000;    0.000
815.796; 3736.750;    0.000;    0.000
815.984; 3862.750;    0.000;    0.000
816.172; 3933.750;    0.000;    0.000
816.360; 4072.750;    0.000;    0.000
816.548; 4234.750;    0.000;    0.000
816.736; 4345.750;    0.000;    0.000
816.924; 4562.750;    0.000;    0.000
817.111; 4789.750;    0.000;    0.000
817.299; 5129.750;    0.000;    0.000
817.487; 5600.750;    0.000;    0.000
817.675; 6093.750;    0.000;    0.000
817.863; 6994.750;    0.000;    0.000
818.050; 9115.750;    0.000;    0.000
818.238;16085.750;    0.000;    0.000
818.426;22489.750;    0.000;    0.000
818.613;15945.750;    0.000;    0.000
818.801;13228.750;    0.000;    0.000
818.989;12582.750;    0.000;    0.000
819.176;13487.750;    0.000;    0.000
819.364;19767.750;    0.000;    0.000
819.552;28457.750;    0.000;    0.000
819.739;20609.750;    0.000;    0.000
819.927;14928.750;    0.000;    0.000
820.114;12372.750;    0.000;    0.000
820.302;10970.750;    0.000;    0.000
820.489; 9885.750;    0.000;    0.000
820.677; 9289.750;    0.000;    0.000
820.864; 8649.750;    0.000;    0.000
821.051; 8555.750;    0.000;    0.000
821.239; 8482.750;    0.000;    0.000
821.426; 8753.750;    0.000;    0.000
821.614; 9699.750;    0.000;    0.000
821.801; 9873.750;    0.000;    0.000
821.988; 8946.750;    0.000;    0.000
822.176; 8610.750;    0.000;    0.000
822.363; 8629.750;    0.000;    0.000
822.550; 7934.750;    0.000;    0.000
822.737; 7267.750;    0.000;    0.000
822.924; 6824.750;    0.000;    0.000
823.112; 6574.750;    0.000;    0.000
823.299; 6307.750;    0.000;    0.000
823.486; 5974.750;    0.000;    0.000
823.673; 5750.750;    0.000;    0.000
823.860; 5527.750;    0.000;    0.000
824.047; 5522.750;    0.000;    0.000
824.234; 5880.750;    0.000;    0.000
824.421; 5902.750;    0.000;    0.000
824.608; 5440.750;    0.000;    0.000
824.795; 5076.750;    0.000;    0.000
824.982; 4886.750;    0.000;    0.000
825.169; 4659.750;    0.000;    0.000
825.356; 4418.750;    0.000;    0.000
825.543; 4217.750;    0.000;    0.000
825.730; 4185.750;    0.000;    0.000
825.917; 4054.750;    0.000;    0.000
826.104; 3922.750;    0.000;    0.000
826.290; 3788.750;    0.000;    0.000
826.477; 3749.750;    0.000;    0.000
826.664; 3589.750;    0.000;    0.000
826.851; 3576.750;    0.000;    0.000
827.038; 3528.750;    0.000;    0.000
827.224; 3501.750;    0.000;    0.000
827.411; 3433.750;    0.000;    0.000
827.598; 3383.750;    0.000;    0.000
827.784; 3401.750;    0.000;    0.000
827.971; 3257.750;    0.000;    0.000
828.157; 3225.750;    0.000;    0.000
828.344; 3135.750;    0.000;    0.000
828.531; 3112.750;    0.000;    0.000
828.717; 2987.750;    0.000;    0.000
828.904; 3001.750;    0.000;    0.000
829.090; 3049.750;    0.000;    0.000
829.277; 3026.750;    0.000;    0.000
829.463; 2939.750;    0.000;    0.000
829.650; 2898.750;    0.000;    0.000
829.836; 2835.750;    0.000;    0.000
830.022; 2897.750;    0.000;    0.000
830.209; 2862.750;    0.000;    0.000
830.395; 2804.750;    0.000;    0.000
830.581; 2722.750;    0.000;    0.000
830.768; 2730.750;    0.000;    0.000
830.954; 2613.750;    0.000;    0.000
831.140; 2716.750;    0.000;    0.000
831.327; 2661.750;    0.000;    0.000
831.513; 2636.750;    0.000;    0.000
831.699; 2726.750;    0.000;    0.000
831.885; 2553.750;    0.000;    0.000
832.071; 2525.750;    0.000;    0.000
832.257; 2483.750;    0.000;    0.000
832.444; 2659.750;    0.000;    0.000
832.630; 2552.750;    0.000;    0.000
832.816; 2623.750;    0.000;    0.000
833.002; 2455.750;    0.000;    0.000
833.188; 2472.750;    0.000;    0.000
833.374; 2492.750;    0.000;    0.000
833.560; 2479.750;    0.000;    0.000
833.746; 2410.750;    0.000;    0.000
833.932; 2496.750;    0.000;    0.000
834.118; 2283.750;    0.000;    0.000
834.303; 2441.750;    0.000;    0.000
834.489; 2434.750;    0.000;    0.000
834.675; 2482.750;    0.000;    0.000
834.861; 2457.750;    0.000;    0.000
835.047; 2416.750;    0.000;    0.000
835.233; 2275.750;    0.000;    0.000
835.418; 2310.750;    0.000;    0.000
835.604; 2256.750;    0.000;    0.000
835.790; 2387.750;    0.000;    0.000
835.976; 2293.750;    0.000;    0.000
836.161; 2308.750;    0.000;    0.000
836.347; 2272.750;    0.000;    0.000
836.533; 2267.750;    0.000;    0.000
836.718; 2296.750;    0.000;    0.000
836.904; 2269.750;    0.000;    0.000
837.089; 2273.750;    0.000;    0.000
837.275; 2233.750;    0.000;    0.000
837.460; 2266.750;    0.000;    0.000
837.646; 2233.750;    0.000;    0.000
837.831; 2227.750;    0.000;    0.000
838.017; 2249.750;    0.000;    0.000
838.202; 2249.750;    0.000;    0.000
838.388; 2254.750;    0.000;    0.000
838.573; 2255.750;    0.000;    0.000
838.759; 2288.750;    0.000;    0.000
838.944; 2205.750;    0.000;    0.000
839.129; 2203.750;    0.000;    0.000
839.315; 2176.750;    0.000;    0.000
839.500; 2274.750;    0.000;    0.000
839.685; 2265.750;    0.000;    0.000
839.870; 2253.750;    0.000;    0.000
840.056; 2178.750;    0.000;    0.000
840.241; 2341.750;    0.000;    0.000
840.426; 2262.750;    0.000;    0.000
840.611; 2279.750;    0.000;    0.000
840.796; 2249.750;    0.000;    0.000
840.981; 2240.750;    0.000;    0.000
841.166; 2267.750;    0.000;    0.000
841.352; 2232.750;    0.000;    0.000
841.537; 2202.750;    0.000;    0.000
841.722; 2285.750;    0.000;    0.000
841.907; 2351.750;    0.000;    0.000
842.092; 2346.750;    0.000;    0.000
842.277; 2365.750;    0.000;    0.000
842.462; 2432.750;    0.000;    0.000
842.646; 2423.750;    0.000;    0.000
842.831; 2536.750;    0.000;    0.000
843.016; 2606.750;    0.000;    0.000
843.201; 2553.750;    0.000;    0.000
843.386; 2653.750;    0.000;    0.000
843.571; 2710.750;    0.000;    0.000
843.755; 2951.750;    0.000;    0.000
843.940; 3008.750;    0.000;    0.000
844.125; 3309.750;    0.000;    0.000
844.310; 3813.750;    0.000;    0.000
844.494; 4706.750;    0.000;    0.000
844.679; 6168.750;    0.000;    0.000
844.864; 6089.750;    0.000;    0.000
845.048; 5055.750;    0.000;    0.000
845.233; 4397.750;    0.000;    0.000
845.418; 3992.750;    0.000;    0.000
845.602; 3583.750;    0.000;    0.000
845.787; 3319.750;    0.000;    0.000
845.971; 3214.750;    0.000;    0.000
846.156; 2949.750;    0.000;    0.000
846.340; 2889.750;    0.000;    0.000
846.525; 2822.750;    0.000;    0.000
846.709; 2644.750;    0.000;    0.000
846.894; 2628.750;    0.000;    0.000
847.078; 2491.750;    0.000;    0.000
847.262; 2543.750;    0.000;    0.000
847.447; 2396.750;    0.000;    0.000
847.631; 2357.750;    0.000;    0.000
847.815; 2211.750;    0.000;    0.000
848.000; 2316.750;    0.000;    0.000
848.184; 2266.750;    0.000;    0.000
848.368; 2211.750;    0.000;    0.000
848.552; 2283.750;    0.000;    0.000
848.736; 2136.750;    0.000;    0.000
848.921; 2213.750;    0.000;    0.000
849.105; 2052.750;    0.000;    0.000
849.289; 2124.750;    0.000;    0.000
849.473; 2160.750;    0.000;    0.000
849.657; 2057.750;    0.000;    0.000
849.841; 1999.750;    0.000;    0.000
850.025; 2095.750;    0.000;    0.000
850.209; 1963.750;    0.000;    0.000
850.393; 1951.750;    0.000;    0.000
850.577; 2017.750;    0.000;    0.000
850.761; 2020.750;    0.000;    0.000
850.945; 2004.750;    0.000;    0.000
851.129; 2012.750;    0.000;    0.000
851.313; 1950.750;    0.000;    0.000
851.497; 2005.750;    0.000;    0.000
851.680; 1935.750;    0.000;    0.000
851.864; 2045.750;    0.000;    0.000
852.048; 1957.750;    0.000;    0.000
852.232; 1898.750;    0.000;    0.000
852.416; 2017.750;    0.000;    0.000
852.599; 1970.750;    0.000;    0.000
852.783; 1883.750;    0.000;    0.000
852.967; 1991.750;    0.000;    0.000
853.150; 1866.750;    0.000;    0.000
853.334; 1957.750;    0.000;    0.000
853.518; 1912.750;    0.000;    0.000
853.701; 1924.750;    0.000;    0.000
853.885; 1902.750;    0.000;    0.000
854.068; 1834.750;    0.000;    0.000
854.252; 1947.750;    0.000;    0.000
854.435; 1961.750;    0.000;    0.000
854.619; 1863.750;    0.000;    0.000
854.802; 1906.750;    0.000;    0.000
854.986; 1786.750;    0.000;    0.000
855.169; 1816.750;    0.000;    0.000
855.353; 1979.750;    0.000;    0.000
855.536; 1824.750;    0.000;    0.000
855.719; 1926.750;    0.000;    0.000
855.903; 1914.750;    0.000;    0.000
856.086; 1921.750;    0.000;    0.000
856.269; 1900.750;    0.000;    0.000
856.452; 1973.750;    0.000;    0.000
856.636; 2026.750;    0.000;    0.000
856.819; 2044.750;    0.000;    0.000
857.002; 2103.750;    0.000;    0.000
857.185; 2029.750;    0.000;    0.000
857.368; 2063.750;    0.000;    0.000
857.552; 2114.750;    0.000;    0.000
857.735; 2003.750;    0.000;    0.000
857.918; 2014.750;    0.000;    0.000
858.101; 1903.750;    0.000;    0.000
858.284; 2038.750;    0.000;    0.000
858.467; 2026.750;    0.000;    0.000
858.650; 2088.750;    0.000;    0.000
858.833; 2068.750;    0.000;    0.000
859.016; 2074.750;    0.000;    0.000
859.199; 2106.750;    0.000;    0.000
859.382; 2332.750;    0.000;    0.000
859.564; 2459.750;    0.000;    0.000
859.747; 2347.750;    0.000;    0.000
859.930; 2284.750;    0.000;    0.000
860.113; 2224.750;    0.000;    0.000
860.296; 2227.750;    0.000;    0.000
860.478; 2146.750;    0.000;    0.000
860.661; 2194.750;    0.000;    0.000
860.844; 2157.750;    0.000;    0.000
861.027; 2119.750;    0.000;    0.000
861.209; 2126.750;    0.000;    0.000
861.392; 2138.750;    0.000;    0.000
861.575; 2140.750;    0.000;    0.000
861.757; 2083.750;    0.000;    0.000
861.940; 2120.750;    0.000;    0.000
862.122; 2100.750;    0.000;    0.000
862.305; 2124.750;    0.000;    0.000
862.487; 2269.750;    0.000;    0.000
862.670; 2486.750;    0.000;    0.000
862.852; 2675.750;    0.000;    0.000
863.035; 3201.750;    0.000;    0.000
863.217; 2971.750;    0.000;    0.000
863.400; 2929.750;    0.000;    0.000
863.582; 2692.750;    0.000;    0.000
863.764; 2644.750;    0.000;    0.000
863.947; 2621.750;    0.000;    0.000
864.129; 2398.750;    0.000;    0.000
864.311; 2461.750;    0.000;    0.000
864.493; 2383.750;    0.000;    0.000
864.676; 2391.750;    0.000;    0.000
864.858; 2327.750;    0.000;    0.000
865.040; 2396.750;    0.000;    0.000
865.222; 2285.750;    0.000;    0.000
865.404; 2354.750;    0.000;    0.000
865.587; 2530.750;    0.000;    0.000
865.769; 2588.750;    0.000;    0.000
865.951; 2587.750;    0.000;    0.000
866.133; 2505.750;    0.000;    0.000
866.315; 2482.750;    0.000;    0.000
866.497; 2504.750;    0.000;    0.000
866.679; 2607.750;    0.000;    0.000
866.861; 2650.750;    0.000;    0.000
867.043; 2921.750;    0.000;    0.000
867.225; 2960.750;    0.000;    0.000
867.407; 3139.750;    0.000;    0.000
867.589; 3540.750;    0.000;    0.000
867.770; 4062.750;    0.000;    0.000
867.952; 5309.750;    0.000;    0.000
868.134; 6799.750;    0.000;    0.000
868.316; 6580.750;    0.000;    0.000
868.498; 6507.750;    0.000;    0.000
868.679; 5828.750;    0.000;    0.000
868.861; 5087.750;    0.000;    0.000
869.043; 4366.750;    0.000;    0.000
869.224; 3843.750;    0.000;    0.000
869.406; 3588.750;    0.000;    0.000
869.588; 3391.750;    0.000;    0.000
869.769; 3168.750;    0.000;    0.000
869.951; 3084.750;    0.000;    0.000
870.132; 3146.750;    0.000;    0.000
870.314; 3411.750;    0.000;    0.000
870.495; 3466.750;    0.000;    0.000
870.677; 3259.750;    0.000;    0.000
870.858; 3173.750;    0.000;    0.000
871.040; 3240.750;    0.000;    0.000
871.221; 3502.750;    0.000;    0.000
871.403; 3436.750;    0.000;    0.000
871.584; 3232.750;    0.000;    0.000
871.765; 3455.750;    0.000;    0.000
871.947; 3691.750;    0.000;    0.000
872.128; 3134.750;    0.000;    0.000
872.309; 2899.750;    0.000;    0.000
872.491; 2639.750;    0.000;    0.000
872.672; 2610.750;    0.000;    0.000
872.853; 2526.750;    0.000;    0.000
873.034; 2492.750;    0.000;    0.000
873.215; 2390.750;    0.000;    0.000
873.396; 2270.750;    0.000;    0.000
873.578; 2260.750;    0.000;    0.000
873.759; 2170.750;    0.000;    0.000
873.940; 2101.750;    0.000;    0.000
874.121; 2088.750;    0.000;    0.000
874.302; 1998.750;    0.000;    0.000
874.483; 1971.750;    0.000;    0.000
874.664; 2048.750;    0.000;    0.000
874.845; 2087.750;    0.000;    0.000
875.026; 2055.750;    0.000;    0.000
875.207; 1960.750;    0.000;    0.000
875.388; 1876.750;    0.000;    0.000
875.568; 1949.750;    0.000;    0.000
875.749; 1936.750;    0.000;    0.000
875.930; 1886.750;    0.000;    0.000
876.111; 1803.750;    0.000;    0.000
876.292; 1929.750;    0.000;    0.000
876.472; 1785.750;    0.000;    0.000
876.653; 1865.750;    0.000;    0.000
876.834; 1856.750;    0.000;    0.000
877.015; 1862.750;    0.000;    0.000
877.195; 1869.750;    0.000;    0.000
877.376; 1765.750;    0.000;    0.000
877.556; 1733.750;    0.000;    0.000
877.737; 1817.750;    0.000;    0.000
877.918; 1750.750;    0.000;    0.000
878.098; 1713.750;    0.000;    0.000
878.279; 1749.750;    0.000;    0.000
878.459; 1739.750;    0.000;    0.000
878.640; 1777.750;    0.000;    0.000
878.820; 1760.750;    0.000;    0.000
879.000; 1721.750;    0.000;    0.000
879.181; 1765.750;    0.000;    0.000
879.361; 1750.750;    0.000;    0.000
879.542; 1711.750;    0.000;    0.000
879.722; 1749.750;    0.000;    0.000
879.902; 1699.750;    0.000;    0.000
880.083; 1711.750;    0.000;    0.000
880.263; 1752.750;    0.000;    0.000
880.443; 1830.750;    0.000;    0.000
880.623; 1931.750;    0.000;    0.000
880.803; 2120.750;    0.000;    0.000
880.984; 2010.750;    0.000;    0.000
881.164; 1837.750;    0.000;    0.000
881.344; 1860.750;    0.000;    0.000
881.524; 1862.750;    0.000;    0.000
881.704; 1873.750;    0.000;    0.000
881.884; 1794.750;    0.000;    0.000
882.064; 1937.750;    0.000;    0.000
882.244; 1997.750;    0.000;    0.000
882.424; 1928.750;    0.000;    0.000
882.604; 1837.750;    0.000;    0.000
882.784; 1844.750;    0.000;    0.000
882.964; 1783.750;    0.000;    0.000
883.144; 1801.750;    0.000;    0.000
883.324; 1827.750;    0.000;    0.000
883.504; 1795.750;    0.000;    0.000
883.683; 1729.750;    0.000;    0.000
883.863; 1724.750;    0.000;    0.000
884.043; 1729.750;    0.000;    0.000
884.223; 1752.750;    0.000;    0.000
884.402; 1760.750;    0.000;    0.000
884.582; 1697.750;    0.000;    0.000
884.762; 1689.750;    0.000;    0.000
884.941; 1709.750;    0.000;    0.000
885.121; 1707.750;    0.000;    0.000
885.301; 1701.750;    0.000;    0.000
885.480; 1713.750;    0.000;    0.000
885.660; 1649.750;    0.000;    0.000
885.839; 1719.750;    0.000;    0.000
886.019; 1650.750;    0.000;    0.000
886.198; 1629.750;    0.000;    0.000
886.378; 1667.750;    0.000;    0.000
886.557; 1645.750;    0.000;    0.000
886.737; 1644.750;    0.000;    0.000
886.916; 1666.750;    0.000;    0.000
887.095; 1697.750;    0.000;    0.000
887.275; 1598.750;    0.000;    0.000
887.454; 1677.750;    0.000;    0.000
887.633; 1617.750;    0.000;    0.000
887.813; 1590.750;    0.000;    0.000
887.992; 1655.750;    0.000;    0.000
888.171; 1640.750;    0.000;    0.000
888.350; 1589.750;    0.000;    0.000
888.530; 1649.750;    0.000;    0.000
888.709; 1604.750;    0.000;    0.000
888.888; 1648.750;    0.000;    0.000
889.067; 1631.750;    0.000;    0.000
889.246; 1729.750;    0.000;    0.000
889.425; 1625.750;    0.000;    0.000
889.604; 1611.750;    0.000;    0.000
889.783; 1651.750;    0.000;    0.000
889.962; 1630.750;    0.000;    0.000
890.141; 1665.750;    0.000;    0.000
890.320; 1593.750;    0.000;    0.000
890.499; 1634.750;    0.000;    0.000
890.678; 1532.750;    0.000;    0.000
890.857; 1544.750;    0.000;    0.000
891.036; 1617.750;    0.000;    0.000
891.214; 1639.750;    0.000;    0.000
891.393; 1630.750;    0.000;    0.000
891.572; 1613.750;    0.000;    0.000
891.751; 1665.750;    0.000;    0.000
891.930; 1631.750;    0.000;    0.000
892.108; 1592.750;    0.000;    0.000
892.287; 1590.750;    0.000;    0.000
892.466; 1599.750;    0.000;    0.000
892.644; 1625.750;    0.000;    0.000
892.823; 1572.750;    0.000;    0.000
893.001; 1599.750;    0.000;    0.000
893.180; 1552.750;    0.000;    0.000
893.359; 1636.750;    0.000;    0.000
893.537; 1649.750;    0.000;    0.000
893.716; 1687.750;    0.000;    0.000
893.894; 1662.750;    0.000;    0.000
894.073; 1623.750;    0.000;    0.000
894.251; 1631.750;    0.000;    0.000
894.429; 1573.750;    0.000;    0.000
894.608; 1596.750;    0.000;    0.000
894.786; 1608.750;    0.000;    0.000
894.964; 1598.750;    0.000;    0.000
895.143; 1594.750;    0.000;    0.000
895.321; 1639.750;    0.000;    0.000
895.499; 1669.750;    0.000;    0.000
895.677; 1563.750;    0.000;    0.000
895.856; 1644.750;    0.000;    0.000
896.034; 1572.750;    0.000;    0.000
896.212; 1686.750;    0.000;    0.000
896.390; 1653.750;    0.000;    0.000
896.568; 1604.750;    0.000;    0.000
896.746; 1595.750;    0.000;    0.000
896.924; 1617.750;    0.000;    0.000
897.102; 1648.750;    0.000;    0.000
897.280; 1633.750;    0.000;    0.000
897.458; 1615.750;    0.000;    0.000
897.636; 1606.750;    0.000;    0.000
897.814; 1635.750;    0.000;    0.000
897.992; 1651.750;    0.000;    0.000
898.170; 1629.750;    0.000;    0.000
898.348; 1718.750;    0.000;    0.000
898.526; 1642.750;    0.000;    0.000
898.704; 1654.750;    0.000;    0.000
898.882; 1670.750;    0.000;    0.000
899.059; 1671.750;    0.000;    0.000
899.237; 1658.750;    0.000;    0.000
899.415; 1662.750;    0.000;    0.000
899.593; 1640.750;    0.000;    0.000
899.770; 1558.750;    0.000;    0.000
899.948; 1652.750;    0.000;    0.000
900.125; 1652.750;    0.000;    0.000
900.303; 1720.750;    0.000;    0.000
900.481; 1621.750;    0.000;    0.000
900.658; 1716.750;    0.000;    0.000
900.836; 1669.750;    0.000;    0.000
901.013; 1733.750;    0.000;    0.000
901.191; 1743.750;    0.000;    0.000
901.368; 1751.750;    0.000;    0.000
901.546; 1715.750;    0.000;    0.000
901.723; 1811.750;    0.000;    0.000
901.901; 1785.750;    0.000;    0.000
902.078; 1806.750;    0.000;    0.000
902.255; 1828.750;    0.000;    0.000
902.433; 1820.750;    0.000;    0.000
902.610; 1834.750;    0.000;    0.000
902.787; 1821.750;    0.000;    0.000
902.964; 1916.750;    0.000;    0.000
903.142; 1865.750;    0.000;    0.000
903.319; 1881.750;    0.000;    0.000
903.496; 1874.750;    0.000;    0.000
903.673; 1945.750;    0.000;    0.000
903.850; 1947.750;    0.000;    0.000
904.027; 2029.750;    0.000;    0.000
904.204; 2019.750;    0.000;    0.000
904.381; 2160.750;    0.000;    0.000
904.558; 2285.750;    0.000;    0.000
904.735; 2580.750;    0.000;    0.000
904.912; 2553.750;    0.000;    0.000
905.089; 2598.750;    0.000;    0.000
905.266; 2351.750;    0.000;    0.000
905.443; 2415.750;    0.000;    0.000
905.620; 2209.750;    0.000;    0.000
905.797; 2099.750;    0.000;    0.000
905.974; 2100.750;    0.000;    0.000
906.151; 2106.750;    0.000;    0.000
906.327; 2092.750;    0.000;    0.000
906.504; 2085.750;    0.000;    0.000
906.681; 2112.750;    0.000;    0.000
906.858; 2001.750;    0.000;    0.000
907.034; 2002.750;    0.000;    0.000
907.211; 1961.750;    0.000;    0.000
907.388; 1987.750;    0.000;    0.000
907.564; 1921.750;    0.000;    0.000
907.741; 1883.750;    0.000;    0.000
907.917; 1846.750;    0.000;    0.000
908.094; 1803.750;    0.000;    0.000
908.270; 1854.750;    0.000;    0.000
908.447; 1845.750;    0.000;    0.000
908.623; 1850.750;    0.000;    0.000
908.800; 1812.750;    0.000;    0.000
908.976; 1734.750;    0.000;    0.000
909.153; 1822.750;    0.000;    0.000
909.329; 1779.750;    0.000;    0.000
909.505; 1774.750;    0.000;    0.000
909.682; 1745.750;    0.000;    0.000
909.858; 1714.750;    0.000;    0.000
910.034; 1794.750;    0.000;    0.000
910.211; 1766.750;    0.000;    0.000
910.387; 1764.750;    0.000;    0.000
910.563; 1843.750;    0.000;    0.000
910.739; 1864.750;    0.000;    0.000
910.915; 1738.750;    0.000;    0.000
911.091; 1768.750;    0.000;    0.000
911.268; 1779.750;    0.000;    0.000
911.444; 1722.750;    0.000;    0.000
911.620; 1819.750;    0.000;    0.000
911.796; 1752.750;    0.000;    0.000
911.972; 1763.750;    0.000;    0.000
912.148; 1812.750;    0.000;    0.000
912.324; 1630.750;    0.000;    0.000
912.500; 1652.750;    0.000;    0.000
912.676; 1691.750;    0.000;    0.000
912.851; 1646.750;    0.000;    0.000
913.027; 1777.750;    0.000;    0.000
913.203; 1738.750;    0.000;    0.000
913.379; 1705.750;    0.000;    0.000
913.555; 1694.750;    0.000;    0.000
913.730; 1612.750;    0.000;    0.000
913.906; 1685.750;    0.000;    0.000
914.082; 1782.750;    0.000;    0.000
914.258; 1719.750;    0.000;    0.000
914.433; 1748.750;    0.000;    0.000
914.609; 1703.750;    0.000;    0.000
914.785; 1687.750;    0.000;    0.000
914.960; 1654.750;    0.000;    0.000
915.136; 1654.750;    0.000;    0.000
915.311; 1749.750;    0.000;    0.000
915.487; 1650.750;    0.000;    0.000
915.662; 1718.750;    0.000;    0.000
915.838; 1704.750;    0.000;    0.000
916.013; 1750.750;    0.000;    0.000
916.189; 1739.750;    0.000;    0.000
916.364; 1718.750;    0.000;    0.000
916.539; 1714.750;    0.000;    0.000
916.715; 1713.750;    0.000;    0.000
916.890; 1772.750;    0.000;    0.000
917.065; 1744.750;    0.000;    0.000
917.240; 1690.750;    0.000;    0.000
917.416; 1798.750;    0.000;    0.000
917.591; 1799.750;    0.000;    0.000
917.766; 1777.750;    0.000;    0.000
917.941; 1729.750;    0.000;    0.000
918.116; 1750.750;    0.000;    0.000
918.292; 1740.750;    0.000;    0.000
918.467; 1764.750;    0.000;    0.000
918.642; 1705.750;    0.000;    0.000
918.817; 1739.750;    0.000;    0.000
918.992; 1820.750;    0.000;    0.000
919.167; 1795.750;    0.000;    0.000
919.342; 1749.750;    0.000;    0.000
919.517; 1829.750;    0.000;    0.000
919.692; 1768.750;    0.000;    0.000
919.867; 1825.750;    0.000;    0.000
920.041; 1772.750;    0.000;    0.000
920.216; 1787.750;    0.000;    0.000
920.391; 1901.750;    0.000;    0.000
920.566; 1855.750;    0.000;    0.000
920.741; 1863.750;    0.000;    0.000
920.915; 1947.750;    0.000;    0.000
921.090; 2042.750;    0.000;    0.000
921.265; 2315.750;    0.000;    0.000
921.439; 2506.750;    0.000;    0.000
921.614; 2334.750;    0.000;    0.000
921.789; 2110.750;    0.000;    0.000
921.963; 2216.750;    0.000;    0.000
922.138; 2072.750;    0.000;    0.000
922.312; 2044.750;    0.000;    0.000
922.487; 1986.750;    0.000;    0.000
922.661; 2110.750;    0.000;    0.000
922.836; 2205.750;    0.000;    0.000
923.010; 2263.750;    0.000;    0.000
923.185; 2147.750;    0.000;    0.000
923.359; 2084.750;    0.000;    0.000
923.534; 2046.750;    0.000;    0.000
923.708; 2081.750;    0.000;    0.000
923.882; 2204.750;    0.000;    0.000
924.057; 2170.750;    0.000;    0.000
924.231; 2085.750;    0.000;    0.000
924.405; 2010.750;    0.000;    0.000
924.579; 1953.750;    0.000;    0.000
924.753; 1995.750;    0.000;    0.000
924.928; 1952.750;    0.000;    0.000
925.102; 1969.750;    0.000;    0.000
925.276; 2040.750;    0.000;    0.000
925.450; 1985.750;    0.000;    0.000
925.624; 1936.750;    0.000;    0.000
925.798; 2051.750;    0.000;    0.000
925.972; 2055.750;    0.000;    0.000
926.146; 2171.750;    0.000;    0.000
926.320; 2275.750;    0.000;    0.000
926.494; 2351.750;    0.000;    0.000
926.668; 2468.750;    0.000;    0.000
926.842; 2512.750;    0.000;    0.000
927.016; 2508.750;    0.000;    0.000
927.190; 2476.750;    0.000;    0.000
927.363; 2368.750;    0.000;    0.000
927.537; 2371.750;    0.000;    0.000
927.711; 2241.750;    0.000;    0.000
927.885; 2261.750;    0.000;    0.000
928.058; 2209.750;    0.000;    0.000
928.232; 2295.750;    0.000;    0.000
928.406; 2154.750;    0.000;    0.000
928.579; 2135.750;    0.000;    0.000
928.753; 2159.750;    0.000;    0.000
928.927; 2137.750;    0.000;    0.000
929.100; 2106.750;    0.000;    0.000
929.274; 2084.750;    0.000;    0.000
929.447; 2048.750;    0.000;    0.000
929.621; 2078.750;    0.000;    0.000
929.794; 2107.750;    0.000;    0.000
929.968; 2022.750;    0.000;    0.000
930.141; 1949.750;    0.000;    0.000
930.315; 1961.750;    0.000;    0.000
930.488; 2002.750;    0.000;    0.000
930.661; 1906.750;    0.000;    0.000
930.835; 2006.750;    0.000;    0.000
931.008; 1873.750;    0.000;    0.000
931.181; 1941.750;    0.000;    0.000
931.354; 1950.750;    0.000;    0.000
931.528; 1908.750;    0.000;    0.000
931.701; 1892.750;    0.000;    0.000
931.874; 1783.750;    0.000;    0.000
932.047; 1871.750;    0.000;    0.000
932.220; 1838.750;    0.000;    0.000
932.393; 1795.750;    0.000;    0.000
932.566; 1801.750;    0.000;    0.000
932.739; 1790.750;    0.000;    0.000
932.912; 1888.750;    0.000;    0.000
933.085; 1878.750;    0.000;    0.000
933.258; 1828.750;    0.000;    0.000
933.431; 1805.750;    0.000;    0.000
933.604; 1762.750;    0.000;    0.000
933.777; 1795.750;    0.000;    0.000
933.950; 1826.750;    0.000;    0.000
934.123; 1799.750;    0.000;    0.000
934.296; 1793.750;    0.000;    0.000
934.468; 1818.750;    0.000;    0.000
934.641; 1758.750;    0.000;    0.000
934.814; 1794.750;    0.000;    0.000
934.987; 1730.750;    0.000;    0.000
935.159; 1705.750;    0.000;    0.000
935.332; 1772.750;    0.000;    0.000
935.505; 1740.750;    0.000;    0.000
935.677; 1772.750;    0.000;    0.000
935.850; 1766.750;    0.000;    0.000
936.022; 1831.750;    0.000;    0.000
936.195; 1789.750;    0.000;    0.000
936.367; 1823.750;    0.000;    0.000
936.540; 1877.750;    0.000;    0.000
936.712; 1846.750;    0.000;    0.000
936.885; 1866.750;    0.000;    0.000
937.057; 1819.750;    0.000;    0.000
937.229; 1828.750;    0.000;    0.000
937.402; 1797.750;    0.000;    0.000
937.574; 1838.750;    0.000;    0.000
937.746; 1946.750;    0.000;    0.000
937.919; 1960.750;    0.000;    0.000
938.091; 1979.750;    0.000;    0.000
938.263; 2077.750;    0.000;    0.000
938.435; 2096.750;    0.000;    0.000
938.608; 2302.750;    0.000;    0.000
938.780; 2545.750;    0.000;    0.000
938.952; 2582.750;    0.000;    0.000
939.124; 2615.750;    0.000;    0.000
939.296; 2863.750;    0.000;    0.000
939.468; 2972.750;    0.000;    0.000
939.640; 2783.750;    0.000;    0.000
939.812; 2554.750;    0.000;    0.000
939.984; 2252.750;    0.000;    0.000
940.156; 2400.750;    0.000;    0.000
940.328; 2243.750;    0.000;    0.000
940.500; 2158.750;    0.000;    0.000
940.672; 2168.750;    0.000;    0.000
940.843; 2111.750;    0.000;    0.000
941.015; 2031.750;    0.000;    0.000
941.187; 1918.750;    0.000;    0.000
941.359; 1980.750;    0.000;    0.000
941.531; 1939.750;    0.000;    0.000
941.702; 1984.750;    0.000;    0.000
941.874; 1820.750;    0.000;    0.000
942.046; 1918.750;    0.000;    0.000
942.217; 1865.750;    0.000;    0.000
942.389; 1928.750;    0.000;    0.000
942.560; 1821.750;    0.000;    0.000
942.732; 1787.750;    0.000;    0.000
942.904; 1764.750;    0.000;    0.000
943.075; 1727.750;    0.000;    0.000
943.247; 1767.750;    0.000;    0.000
943.418; 1705.750;    0.000;    0.000
943.589; 1764.750;    0.000;    0.000
943.761; 1793.750;    0.000;    0.000
943.932; 1810.750;    0.000;    0.000
944.104; 1836.750;    0.000;    0.000
944.275; 1747.750;    0.000;    0.000
944.446; 1713.750;    0.000;    0.000
944.617; 1889.750;    0.000;    0.000
944.789; 1812.750;    0.000;    0.000
944.960; 1655.750;    0.000;    0.000
945.131; 1666.750;    0.000;    0.000
945.302; 1713.750;    0.000;    0.000
945.473; 1639.750;    0.000;    0.000
945.645; 1745.750;    0.000;    0.000
945.816; 1712.750;    0.000;    0.000
945.987; 1784.750;    0.000;    0.000
946.158; 1785.750;    0.000;    0.000
946.329; 1846.750;    0.000;    0.000
946.500; 1783.750;    0.000;    0.000
946.671; 1725.750;    0.000;    0.000
946.842; 1755.750;    0.000;    0.000
947.013; 1745.750;    0.000;    0.000
947.183; 1748.750;    0.000;    0.000
947.354; 1774.750;    0.000;    0.000
947.525; 1715.750;    0.000;    0.000
947.696; 1742.750;    0.000;    0.000
947.867; 1689.750;    0.000;    0.000
948.037; 1639.750;    0.000;    0.000
948.208; 1658.750;    0.000;    0.000
948.379; 1656.750;    0.000;    0.000
948.550; 1654.750;    0.000;    0.000
948.720; 1695.750;    0.000;    0.000
948.891; 1682.750;    0.000;    0.000
949.061; 1736.750;    0.000;    0.000
949.232; 1553.750;    0.000;    0.000
949.403; 1658.750;    0.000;    0.000
949.573; 1656.750;    0.000;    0.000
949.744; 1710.750;    0.000;    0.000
949.914; 1617.750;    0.000;    0.000
950.085; 1719.750;    0.000;    0.000
950.255; 1702.750;    0.000;    0.000
950.425; 1597.750;    0.000;    0.000
950.596; 1632.750;    0.000;    0.000
950.766; 1671.750;    0.000;    0.000
950.936; 1640.750;    0.000;    0.000
951.107; 1624.750;    0.000;    0.000
951.277; 1695.750;    0.000;    0.000
951.447; 1691.750;    0.000;    0.000
951.617; 1706.750;    0.000;    0.000
951.788; 1609.750;    0.000;    0.000
951.958; 1689.750;    0.000;    0.000
952.128; 1632.750;    0.000;    0.000
952.298; 1632.750;    0.000;    0.000
952.468; 1672.750;    0.000;    0.000
952.638; 1687.750;    0.000;    0.000
952.808; 1683.750;    0.000;    0.000
952.978; 1659.750;    0.000;    0.000
953.148; 1661.750;    0.000;    0.000
953.318; 1565.750;    0.000;    0.000
953.488; 1662.750;    0.000;    0.000
953.658; 1674.750;    0.000;    0.000
953.828; 1678.750;    0.000;    0.000
953.998; 1605.750;    0.000;    0.000
954.167; 1617.750;    0.000;    0.000
954.337; 1574.750;    0.000;    0.000
954.507; 1640.750;    0.000;    0.000
954.677; 1680.750;    0.000;    0.000
954.846; 1657.750;    0.000;    0.000
955.016; 1673.750;    0.000;    0.000
955.186; 1582.750;    0.000;    0.000
955.355; 1667.750;    0.000;    0.000
955.525; 1559.750;    0.000;    0.000
955.695; 1603.750;    0.000;    0.000
955.864; 1619.750;    0.000;    0.000
956.034; 1644.750;    0.000;    0.000
956.203; 1632.750;    0.000;    0.000
956.373; 1574.750;    0.000;    0.000
956.542; 1654.750;    0.000;    0.000
956.712; 1578.750;    0.000;    0.000
956.881; 1619.750;    0.000;    0.000
957.050; 1639.750;    0.000;    0.000
957.220; 1624.750;    0.000;    0.000
957.389; 1626.750;    0.000;    0.000
957.558; 1566.750;    0.000;    0.000
957.727; 1542.750;    0.000;    0.000
957.897; 1610.750;    0.000;    0.000
958.066; 1545.750;    0.000;    0.000
958.235; 1516.750;    0.000;    0.000
958.404; 1548.750;    0.000;    0.000
958.573; 1558.750;    0.000;    0.000
958.743; 1472.750;    0.000;    0.000
958.912; 1571.750;    0.000;    0.000
959.081; 1607.750;    0.000;    0.000
959.250; 1551.750;    0.000;    0.000
959.419; 1576.750;    0.000;    0.000
959.588; 1597.750;    0.000;    0.000
959.757; 1514.750;    0.000;    0.000
959.926; 1586.750;    0.000;    0.000
960.094; 1552.750;    0.000;    0.000
960.263; 1563.750;    0.000;    0.000
960.432; 1547.750;    0.000;    0.000
960.601; 1508.750;    0.000;    0.000
960.770; 1500.750;    0.000;    0.000
960.939; 1515.750;    0.000;    0.000
961.107; 1548.750;    0.000;    0.000
961.276; 1584.750;    0.000;    0.000
961.445; 1483.750;    0.000;    0.000
961.613; 1501.750;    0.000;    0.000
961.782; 1534.750;    0.000;    0.000
961.951; 1603.750;    0.000;    0.000
962.119; 1579.750;    0.000;    0.000
962.288; 1514.750;    0.000;    0.000
962.456; 1529.750;    0.000;    0.000
962.625; 1518.750;    0.000;    0.000
962.793; 1596.750;    0.000;    0.000
962.962; 1446.750;    0.000;    0.000
963.130; 1478.750;    0.000;    0.000
963.298; 1551.750;    0.000;    0.000
963.467; 1476.750;    0.000;    0.000
963.635; 1551.750;    0.000;    0.000
963.803; 1528.750;    0.000;    0.000
963.972; 1532.750;    0.000;    0.000
964.140; 1532.750;    0.000;    0.000
964.308; 1549.750;    0.000;    0.000
964.476; 1542.750;    0.000;    0.000
964.645; 1565.750;    0.000;    0.000
964.813; 1569.750;    0.000;    0.000
964.981; 1529.750;    0.000;    0.000
965.149; 1601.750;    0.000;    0.000
965.317; 1548.750;    0.000;    0.000
965.485; 1487.750;    0.000;    0.000
965.653; 1601.750;    0.000;    0.000
965.821; 1519.750;    0.000;    0.000
965.989; 1581.750;    0.000;    0.000
966.157; 1515.750;    0.000;    0.000
966.325; 1564.750;    0.000;    0.000
966.493; 1523.750;    0.000;    0.000
966.661; 1470.750;    0.000;    0.000
966.829; 1493.750;    0.000;    0.000
966.996; 1554.750;    0.000;    0.000
967.164; 1567.750;    0.000;    0.000
967.332; 1664.750;    0.000;    0.000
967.500; 1570.750;    0.000;    0.000
967.667; 1533.750;    0.000;    0.000
967.835; 1530.750;    0.000;    0.000
968.003; 1584.750;    0.000;    0.000
968.170; 1571.750;    0.000;    0.000
968.338; 1544.750;    0.000;    0.000
968.505; 1565.750;    0.000;    0.000
968.673; 1586.750;    0.000;    0.000
968.841; 1493.750;    0.000;    0.000
969.008; 1604.750;    0.000;    0.000
969.175; 1547.750;    0.000;    0.000
969.343; 1549.750;    0.000;    0.000
969.510; 1542.750;    0.000;    0.000
969.678; 1591.750;    0.000;    0.000
969.845; 1591.750;    0.000;    0.000
970.012; 1662.750;    0.000;    0.000
970.180; 1603.750;    0.000;    0.000
970.347; 1664.750;    0.000;    0.000
970.514; 1628.750;    0.000;    0.000
970.681; 1612.750;    0.000;    0.000
970.849; 1492.750;    0.000;    0.000
971.016; 1624.750;    0.000;    0.000
971.183; 1661.750;    0.000;    0.000
971.350; 1631.750;    0.000;    0.000
971.517; 1599.750;    0.000;    0.000
971.684; 1655.750;    0.000;    0.000
971.851; 1563.750;    0.000;    0.000
972.018; 1567.750;    0.000;    0.000
972.185; 1632.750;    0.000;    0.000
972.352; 1548.750;    0.000;    0.000
972.519; 1576.750;    0.000;    0.000
972.686; 1680.750;    0.000;    0.000
972.853; 1572.750;    0.000;    0.000
973.020; 1645.750;    0.000;    0.000
973.186; 1535.750;    0.000;    0.000
973.353; 1549.750;    0.000;    0.000
973.520; 1575.750;    0.000;    0.000
973.687; 1621.750;    0.000;    0.000
973.853; 1601.750;    0.000;    0.000
974.020; 1578.750;    0.000;    0.000
974.187; 1519.750;    0.000;    0.000
974.353; 1646.750;    0.000;    0.000
974.520; 1581.750;    0.000;    0.000
974.687; 1593.750;    0.000;    0.000
974.853; 1640.750;    0.000;    0.000
975.020; 1546.750;    0.000;    0.000
975.186; 1602.750;    0.000;    0.000
975.353; 1603.750;    0.000;    0.000
975.519; 1573.750;    0.000;    0.000
975.685; 1553.750;    0.000;    0.000
975.852; 1550.750;    0.000;    0.000
976.018; 1622.750;    0.000;    0.000
976.184; 1602.750;    0.000;    0.000
976.351; 1637.750;    0.000;    0.000
976.517; 1657.750;    0.000;    0.000
976.683; 1600.750;    0.000;    0.000
976.849; 1630.750;    0.000;    0.000
977.016; 1552.750;    0.000;    0.000
977.182; 1523.750;    0.000;    0.000
977.348; 1531.750;    0.000;    0.000
977.514; 1573.750;    0.000;    0.000
977.680; 1580.750;    0.000;    0.000
977.846; 1531.750;    0.000;    0.000
978.012; 1598.750;    0.000;    0.000
978.178; 1590.750;    0.000;    0.000
978.344; 1583.750;    0.000;    0.000
978.510; 1575.750;    0.000;    0.000
978.676; 1518.750;    0.000;    0.000
978.842; 1546.750;    0.000;    0.000
979.008; 1530.750;    0.000;    0.000
979.174; 1578.750;    0.000;    0.000
979.340; 1546.750;    0.000;    0.000
979.505; 1540.750;    0.000;    0.000
979.671; 1570.750;    0.000;    0.000
979.837; 1574.750;    0.000;    0.000
980.003; 1558.750;    0.000;    0.000
980.168; 1574.750;    0.000;    0.000
980.334; 1535.750;    0.000;    0.000
980.499; 1586.750;    0.000;    0.000
980.665; 1700.750;    0.000;    0.000
980.831; 1566.750;    0.000;    0.000
980.996; 1524.750;    0.000;    0.000
981.162; 1584.750;    0.000;    0.000
981.327; 1634.750;    0.000;    0.000
981.493; 1593.750;    0.000;    0.000
981.658; 1546.750;    0.000;    0.000
981.823; 1591.750;    0.000;    0.000
981.989; 1593.750;    0.000;    0.000
982.154; 1560.750;    0.000;    0.000
982.319; 1633.750;    0.000;    0.000
982.485; 1684.750;    0.000;    0.000
982.650; 1624.750;    0.000;    0.000
982.815; 1597.750;    0.000;    0.000
982.980; 1657.750;    0.000;    0.000
983.146; 1591.750;    0.000;    0.000
983.311; 1533.750;    0.000;    0.000
983.476; 1613.750;    0.000;    0.000
983.641; 1591.750;    0.000;    0.000
983.806; 1545.750;    0.000;    0.000
983.971; 1592.750;    0.000;    0.000
984.136; 1605.750;    0.000;    0.000
984.301; 1547.750;    0.000;    0.000
984.466; 1560.750;    0.000;    0.000
984.631; 1555.750;    0.000;    0.000
984.796; 1625.750;    0.000;    0.000
984.961; 1641.750;    0.000;    0.000
985.126; 1576.750;    0.000;    0.000
985.291; 1591.750;    0.000;    0.000
985.455; 1540.750;    0.000;    0.000
985.620; 1509.750;    0.000;    0.000
985.785; 1507.750;    0.000;    0.000
985.950; 1527.750;    0.000;    0.000
986.114; 1568.750;    0.000;    0.000
986.279; 1545.750;    0.000;    0.000
986.444; 1637.750;    0.000;    0.000
986.608; 1660.750;    0.000;    0.000
986.773; 1646.750;    0.000;    0.000
986.937; 1705.750;    0.000;    0.000
987.102; 1689.750;    0.000;    0.000
987.266; 1617.750;    0.000;    0.000
987.431; 1617.750;    0.000;    0.000
987.595; 1592.750;    0.000;    0.000
987.760; 1711.750;    0.000;    0.000
987.924; 1619.750;    0.000;    0.000
988.088; 1645.750;    0.000;    0.000
988.253; 1647.750;    0.000;    0.000
988.417; 1619.750;    0.000;    0.000
988.581; 1616.750;    0.000;    0.000
988.746; 1642.750;    0.000;    0.000
988.910; 1619.750;    0.000;    0.000
989.074; 1652.750;    0.000;    0.000
989.238; 1600.750;    0.000;    0.000
989.402; 1633.750;    0.000;    0.000
989.566; 1558.750;    0.000;    0.000
989.731; 1592.750;    0.000;    0.000
989.895; 1575.750;    0.000;    0.000
990.059; 1503.750;    0.000;    0.000
990.223; 1517.750;    0.000;    0.000
990.387; 1658.750;    0.000;    0.000
990.551; 1617.750;    0.000;    0.000
990.714; 1600.750;    0.000;    0.000
990.878; 1566.750;    0.000;    0.000
991.042; 1581.750;    0.000;    0.000
991.206; 1636.750;    0.000;    0.000
991.370; 1595.750;    0.000;    0.000
991.534; 1535.750;    0.000;    0.000
991.697; 1724.750;    0.000;    0.000
991.861; 1581.750;    0.000;    0.000
992.025; 1601.750;    0.000;    0.000
992.188; 1604.750;    0.000;    0.000
992.352; 1616.750;    0.000;    0.000
992.516; 1585.750;    0.000;    0.000
992.679; 1557.750;    0.000;    0.000
992.843; 1559.750;    0.000;    0.000
993.006; 1539.750;    0.000;    0.000
993.170; 1615.750;    0.000;    0.000
993.333; 1529.750;    0.000;    0.000
993.497; 1587.750;    0.000;    0.000
993.660; 1616.750;    0.000;    0.000
993.824; 1632.750;    0.000;    0.000
993.987; 1580.750;    0.000;    0.000
994.150; 1559.750;    0.000;    0.000
994.314; 1652.750;    0.000;    0.000
994.477; 1653.750;    0.000;    0.000
994.640; 1625.750;    0.000;    0.000
994.803; 1589.750;    0.000;    0.000
994.967; 1632.750;    0.000;    0.000
995.130; 1679.750;    0.000;    0.000
995.293; 1625.750;    0.000;    0.000
995.456; 1583.750;    0.000;    0.000
995.619; 1679.750;    0.000;    0.000
995.782; 1569.750;    0.000;    0.000
995.945; 1656.750;    0.000;    0.000
996.108; 1621.750;    0.000;    0.000
996.271; 1628.750;    0.000;    0.000
996.434; 1566.750;    0.000;    0.000
996.597; 1571.750;    0.000;    0.000
996.760; 1591.750;    0.000;    0.000
996.923; 1643.750;    0.000;    0.000
997.086; 1693.750;    0.000;    0.000
997.248; 1662.750;    0.000;    0.000
997.411; 1620.750;    0.000;    0.000
997.574; 1614.750;    0.000;    0.000
997.737; 1634.750;    0.000;    0.000
997.899; 1605.750;    0.000;    0.000
998.062; 1632.750;    0.000;    0.000
998.225; 1611.750;    0.000;    0.000
998.387; 1628.750;    0.000;    0.000
998.550; 1536.750;    0.000;    0.000
998.712; 1547.750;    0.000;    0.000
998.875; 1661.750;    0.000;    0.000
999.037; 1522.750;    0.000;    0.000
999.200; 1649.750;    0.000;    0.000
999.362; 1657.750;    0.000;    0.000
999.525; 1602.750;    0.000;    0.000
999.687; 1559.750;    0.000;    0.000
999.849; 1600.750;    0.000;    0.000
1000.012; 1615.750;    0.000;    0.000
1000.174; 1619.750;    0.000;    0.000
1000.336; 1698.750;    0.000;    0.000
1000.499; 1680.750;    0.000;    0.000
1000.661; 1675.750;    0.000;    0.000
1000.823; 1572.750;    0.000;    0.000
1000.985; 1682.750;    0.000;    0.000
1001.147; 1710.750;    0.000;    0.000
1001.309; 1697.750;    0.000;    0.000
1001.471; 1832.750;    0.000;    0.000
1001.633; 1743.750;    0.000;    0.000
1001.796; 1716.750;    0.000;    0.000
1001.957; 1804.750;    0.000;    0.000
1002.119; 1809.750;    0.000;    0.000
1002.281; 1833.750;    0.000;    0.000
1002.443; 1932.750;    0.000;    0.000
1002.605; 1935.750;    0.000;    0.000
1002.767; 2099.750;    0.000;    0.000
1002.929; 2177.750;    0.000;    0.000
1003.091; 2289.750;    0.000;    0.000
1003.252; 2363.750;    0.000;    0.000
1003.414; 2464.750;    0.000;    0.000
1003.576; 2604.750;    0.000;    0.000
1003.738; 2689.750;    0.000;    0.000
1003.899; 2827.750;    0.000;    0.000
1004.061; 2990.750;    0.000;    0.000
1004.222; 3101.750;    0.000;    0.000
1004.384; 3315.750;    0.000;    0.000
1004.546; 3287.750;    0.000;    0.000
1004.707; 3380.750;    0.000;    0.000
1004.869; 3444.750;    0.000;    0.000
1005.030; 3319.750;    0.000;    0.000
1005.191; 3392.750;    0.000;    0.000
1005.353; 3176.750;    0.000;    0.000
1005.514; 3085.750;    0.000;    0.000
1005.675; 2927.750;    0.000;    0.000
1005.837; 2780.750;    0.000;    0.000
1005.998; 2685.750;    0.000;    0.000
1006.159; 2707.750;    0.000;    0.000
1006.321; 2715.750;    0.000;    0.000
1006.482; 2808.750;    0.000;    0.000
1006.643; 2895.750;    0.000;    0.000
1006.804; 3017.750;    0.000;    0.000
1006.965; 3248.750;    0.000;    0.000
1007.126; 3212.750;    0.000;    0.000
1007.287; 3151.750;    0.000;    0.000
1007.448; 3222.750;    0.000;    0.000
1007.609; 3135.750;    0.000;    0.000
1007.770; 3001.750;    0.000;    0.000
1007.931; 2977.750;    0.000;    0.000
1008.092; 3004.750;    0.000;    0.000
1008.253; 3080.750;    0.000;    0.000
1008.414; 3142.750;    0.000;    0.000
1008.575; 3277.750;    0.000;    0.000
1008.736; 3245.750;    0.000;    0.000
1008.896; 3329.750;    0.000;    0.000
1009.057; 3091.750;    0.000;    0.000
1009.218; 3166.750;    0.000;    0.000
1009.379; 3145.750;    0.000;    0.000
1009.539; 3261.750;    0.000;    0.000
1009.700; 3389.750;    0.000;    0.000
1009.860; 3270.750;    0.000;    0.000
1010.021; 3300.750;    0.000;    0.000
1010.182; 3181.750;    0.000;    0.000
1010.342; 3307.750;    0.000;    0.000
1010.503; 3273.750;    0.000;    0.000
1010.663; 3462.750;    0.000;    0.000
1010.823; 3411.750;    0.000;    0.000
1010.984; 3435.750;    0.000;    0.000
1011.144; 3414.750;    0.000;    0.000
1011.305; 3507.750;    0.000;    0.000
1011.465; 3558.750;    0.000;    0.000
1011.625; 3626.750;    0.000;    0.000
1011.785; 3692.750;    0.000;    0.000
1011.946; 3706.750;    0.000;    0.000
1012.106; 3640.750;    0.000;    0.000
1012.266; 3536.750;    0.000;    0.000
1012.426; 3626.750;    0.000;    0.000
1012.586; 3671.750;    0.000;    0.000
1012.746; 3674.750;    0.000;    0.000
1012.906; 3673.750;    0.000;    0.000
1013.066; 3747.750;    0.000;    0.000
1013.226; 3702.750;    0.000;    0.000
1013.386; 3806.750;    0.000;    0.000
1013.546; 3764.750;    0.000;    0.000
1013.706; 3593.750;    0.000;    0.000
1013.866; 3708.750;    0.000;    0.000
1014.026; 3804.750;    0.000;    0.000
1014.186; 3702.750;    0.000;    0.000
1014.346; 3705.750;    0.000;    0.000
1014.505; 3795.750;    0.000;    0.000
1014.665; 3869.750;    0.000;    0.000
1014.825; 3929.750;    0.000;    0.000
1014.985; 3848.750;    0.000;    0.000
1015.144; 4017.750;    0.000;    0.000
1015.304; 4314.750;    0.000;    0.000
1015.463; 4157.750;    0.000;    0.000
1015.623; 4175.750;    0.000;    0.000
1015.783; 4297.750;    0.000;    0.000
1015.942; 4825.750;    0.000;    0.000
1016.102; 4950.750;    0.000;    0.000
1016.261; 4739.750;    0.000;    0.000
1016.420; 4958.750;    0.000;    0.000
1016.580; 5753.750;    0.000;    0.000
1016.739; 5653.750;    0.000;    0.000
1016.899; 5822.750;    0.000;    0.000
1017.058; 5654.750;    0.000;    0.000
1017.217; 6146.750;    0.000;    0.000
1017.376; 5763.750;    0.000;    0.000
1017.536; 5397.750;    0.000;    0.000
1017.695; 5374.750;    0.000;    0.000
1017.854; 5200.750;    0.000;    0.000
1018.013; 5298.750;    0.000;    0.000
1018.172; 5066.750;    0.000;    0.000
1018.331; 5037.750;    0.000;    0.000
1018.490; 5222.750;    0.000;    0.000
1018.649; 5557.750;    0.000;    0.000
1018.808; 5770.750;    0.000;    0.000
1018.967; 5700.750;    0.000;    0.000
1019.126; 5679.750;    0.000;    0.000
1019.285; 5966.750;    0.000;    0.000
1019.444; 5873.750;    0.000;    0.000
1019.603; 5848.750;    0.000;    0.000
1019.762; 5319.750;    0.000;    0.000
1019.921; 5530.750;    0.000;    0.000
1020.079; 5730.750;    0.000;    0.000
1020.238; 6219.750;    0.000;    0.000
1020.397; 6049.750;    0.000;    0.000
1020.556; 5534.750;    0.000;    0.000
1020.714; 5774.750;    0.000;    0.000
1020.873; 6116.750;    0.000;    0.000
1021.031; 6362.750;    0.000;    0.000
1021.190; 6013.750;    0.000;    0.000
1021.348; 5682.750;    0.000;    0.000
1021.507; 6090.750;    0.000;    0.000
1021.665; 6629.750;    0.000;    0.000
1021.824; 6300.750;    0.000;    0.000
1021.982; 5897.750;    0.000;    0.000
1022.141; 5710.750;    0.000;    0.000
1022.299; 6450.750;    0.000;    0.000
1022.457; 6939.750;    0.000;    0.000
1022.616; 6339.750;    0.000;    0.000
1022.774; 5753.750;    0.000;    0.000
1022.932; 5880.750;    0.000;    0.000
1023.090; 6870.750;    0.000;    0.000
1023.249; 7088.750;    0.000;    0.000
1023.407; 6414.750;    0.000;    0.000
1023.565; 5723.750;    0.000;    0.000
1023.723; 6177.750;    0.000;    0.000
1023.881; 7074.750;    0.000;    0.000
1024.039; 7205.750;    0.000;    0.000
1024.197; 6416.750;    0.000;    0.000
1024.355; 5996.750;    0.000;    0.000
1024.513; 6189.750;    0.000;    0.000
1024.671; 7190.750;    0.000;    0.000
1024.829; 7371.750;    0.000;    0.000
1024.987; 6761.750;    0.000;    0.000
1025.145; 6097.750;    0.000;    0.000
1025.302; 6399.750;    0.000;    0.000
1025.460; 7150.750;    0.000;    0.000
1025.618; 7570.750;    0.000;    0.000
1025.776; 6819.750;    0.000;    0.000
1025.933; 6135.750;    0.000;    0.000
1026.091; 6396.750;    0.000;    0.000
1026.249; 7178.750;    0.000;    0.000
1026.406; 7898.750;    0.000;    0.000
1026.564; 7400.750;    0.000;    0.000
1026.721; 6528.750;    0.000;    0.000
1026.879; 6375.750;    0.000;    0.000
1027.036; 7124.750;    0.000;    0.000
1027.194; 7720.750;    0.000;    0.000
1027.351; 7857.750;    0.000;    0.000
1027.509; 7163.750;    0.000;    0.000
1027.666; 6444.750;    0.000;    0.000
1027.823; 6971.750;    0.000;    0.000
1027.981; 7525.750;    0.000;    0.000
1028.138; 8095.750;    0.000;    0.000
1028.295; 7694.750;    0.000;    0.000
1028.452; 7005.750;    0.000;    0.000
1028.610; 6470.750;    0.000;    0.000
1028.767; 7353.750;    0.000;    0.000
1028.924; 7734.750;    0.000;    0.000
1029.081; 7850.750;    0.000;    0.000
1029.238; 7465.750;    0.000;    0.000
1029.395; 7044.750;    0.000;    0.000
1029.552; 7155.750;    0.000;    0.000
1029.709; 7716.750;    0.000;    0.000
1029.866; 8144.750;    0.000;    0.000
1030.023; 7909.750;    0.000;    0.000
1030.180; 7243.750;    0.000;    0.000
1030.337; 7288.750;    0.000;    0.000
1030.494; 7509.750;    0.000;    0.000
1030.650; 8017.750;    0.000;    0.000
1030.807; 8647.750;    0.000;    0.000
1030.964; 7878.750;    0.000;    0.000
1031.121; 7717.750;    0.000;    0.000
1031.277; 7331.750;    0.000;    0.000
1031.434; 7839.750;    0.000;    0.000
1031.591; 8086.750;    0.000;    0.000
1031.747; 8604.750;    0.000;    0.000
1031.904; 8497.750;    0.000;    0.000
1032.060; 8188.750;    0.000;    0.000
1032.217; 7858.750;    0.000;    0.000
1032.373; 8526.750;    0.000;    0.000
1032.530; 8661.750;    0.000;    0.000
1032.686; 9317.750;    0.000;    0.000
1032.843; 9523.750;    0.000;    0.000
1032.999; 9120.750;    0.000;    0.000
1033.155; 9328.750;    0.000;    0.000
1033.312; 9361.750;    0.000;    0.000
1033.468;10803.750;    0.000;    0.000
1033.624;11194.750;    0.000;    0.000
1033.780;11865.750;    0.000;    0.000
1033.937;11933.750;    0.000;    0.000
1034.093;10891.750;    0.000;    0.000
1034.249;11662.750;    0.000;    0.000
1034.405;11586.750;    0.000;    0.000
1034.561;12485.750;    0.000;    0.000
1034.717;12937.750;    0.000;    0.000
1034.873;12800.750;    0.000;    0.000
1035.029;12758.750;    0.000;    0.000
1035.185;12598.750;    0.000;    0.000
1035.341;11995.750;    0.000;    0.000
1035.497;13467.750;    0.000;    0.000
1035.653;13271.750;    0.000;    0.000
1035.809;14682.750;    0.000;    0.000
1035.964;15272.750;    0.000;    0.000
1036.120;14326.750;    0.000;    0.000
1036.276;14580.750;    0.000;    0.000
1036.432;14280.750;    0.000;    0.000
1036.587;13860.750;    0.000;    0.000
1036.743;15131.750;    0.000;    0.000
1036.899;16006.750;    0.000;    0.000
1037.054;16011.750;    0.000;    0.000
1037.210;17473.750;    0.000;    0.000
1037.365;17499.750;    0.000;    0.000
1037.521;16260.750;    0.000;    0.000
1037.676;16170.750;    0.000;    0.000
1037.832;15274.750;    0.000;    0.000
1037.987;15843.750;    0.000;    0.000
1038.143;16606.750;    0.000;    0.000
1038.298;18387.750;    0.000;    0.000
1038.453;17606.750;    0.000;    0.000
1038.609;18146.750;    0.000;    0.000
1038.764;19718.750;    0.000;    0.000
1038.919;17708.750;    0.000;    0.000
1039.074;18304.750;    0.000;    0.000
1039.229;17248.750;    0.000;    0.000
1039.385;16866.750;    0.000;    0.000
1039.540;17808.750;    0.000;    0.000
1039.695;18663.750;    0.000;    0.000
1039.850;20549.750;    0.000;    0.000
1040.005;21471.750;    0.000;    0.000
1040.160;22542.750;    0.000;    0.000
1040.315;22455.750;    0.000;    0.000
1040.470;21446.750;    0.000;    0.000
1040.625;20855.750;    0.000;    0.000
1040.780;20052.750;    0.000;    0.000
1040.935;19798.750;    0.000;    0.000
1041.089;20850.750;    0.000;    0.000
1041.244;23728.750;    0.000;    0.000
1041.399;24498.750;    0.000;    0.000
1041.554;25765.750;    0.000;    0.000
1041.708;27736.750;    0.000;    0.000
1041.863;28468.750;    0.000;    0.000
1042.018;26769.750;    0.000;    0.000
1042.172;25880.750;    0.000;    0.000
1042.327;24695.750;    0.000;    0.000
1042.481;24695.750;    0.000;    0.000
1042.636;26147.750;    0.000;    0.000
1042.790;25655.750;    0.000;    0.000
1042.945;28745.750;    0.000;    0.000
1043.099;32990.750;    0.000;    0.000
1043.254;30858.750;    0.000;    0.000
1043.408;32798.750;    0.000;    0.000
1043.563;35812.750;    0.000;    0.000
1043.717;35295.750;    0.000;    0.000
1043.871;32828.750;    0.000;    0.000
1044.025;31656.750;    0.000;    0.000
1044.180;31350.750;    0.000;    0.000
1044.334;32861.750;    0.000;    0.000
1044.488;33988.750;    0.000;    0.000
1044.642;34633.750;    0.000;    0.000
1044.796;37793.750;    0.000;    0.000
1044.950;42118.750;    0.000;    0.000
1045.104;46529.750;    0.000;    0.000
1045.258;45283.750;    0.000;    0.000
1045.412;43577.750;    0.000;    0.000
1045.566;44341.750;    0.000;    0.000
1045.720;42710.750;    0.000;    0.000
1045.874;38071.750;    0.000;    0.000
1046.028;35798.750;    0.000;    0.000
1046.182;35073.750;    0.000;    0.000
1046.336;38127.750;    0.000;    0.000
1046.489;40020.750;    0.000;    0.000
1046.643;41408.750;    0.000;    0.000
1046.797;43446.750;    0.000;    0.000
1046.951;46199.750;    0.000;    0.000
1047.104;46984.750;    0.000;    0.000
1047.258;48435.750;    0.000;    0.000
1047.411;51285.750;    0.000;    0.000
1047.565;49596.750;    0.000;    0.000
1047.719;46456.750;    0.000;    0.000
1047.872;45233.750;    0.000;    0.000
1048.026;43058.750;    0.000;    0.000
1048.179;43069.750;    0.000;    0.000
1048.332;43615.750;    0.000;    0.000
1048.486;43341.750;    0.000;    0.000
1048.639;44471.750;    0.000;    0.000
1048.792;43734.750;    0.000;    0.000
1048.946;47381.750;    0.000;    0.000
1049.099;52116.750;    0.000;    0.000
1049.252;55387.750;    0.000;    0.000
1049.405;51466.750;    0.000;    0.000
1049.559;52658.750;    0.000;    0.000
1049.712;58981.750;    0.000;    0.000
1049.865;63835.750;    0.000;    0.000
1050.018;60660.750;    0.000;    0.000
1050.171;53796.750;    0.000;    0.000
1050.324;51798.750;    0.000;    0.000
1050.477;53133.750;    0.000;    0.000
1050.630;56796.750;    0.000;    0.000
1050.783;57315.750;    0.000;    0.000
1050.936;55317.750;    0.000;    0.000
1051.089;55434.750;    0.000;    0.000
1051.242;56253.750;    0.000;    0.000
1051.394;60775.750;    0.000;    0.000
1051.547;63120.750;    0.000;    0.000
1051.700;58847.750;    0.000;    0.000
1051.853;57298.750;    0.000;    0.000
1052.005;61443.750;    0.000;    0.000
1052.158;65073.750;    0.000;    0.000
1052.311;65073.750;    0.000;    0.000
1052.463;65073.750;    0.000;    0.000
1052.616;64224.750;    0.000;    0.000
1052.768;57454.750;    0.000;    0.000
1052.921;56355.750;    0.000;    0.000
1053.073;60639.750;    0.000;    0.000
1053.226;65073.750;    0.000;    0.000
1053.378;65073.750;    0.000;    0.000
1053.531;65073.750;    0.000;    0.000
1053.683;65073.750;    0.000;    0.000
1053.835;65073.750;    0.000;    0.000
1053.988;50729.750;    0.000;    0.000
1054.140; 9104.750;    0.000;    0.000
1054.292; 2101.750;    0.000;    0.000
1054.444; 1691.750;    0.000;    0.000
1054.596; 1571.750;    0.000;    0.000
1054.749; 1339.750;    0.000;    0.000
1054.901; 1239.750;    0.000;    0.000
1055.053; 1187.750;    0.000;    0.000
1055.205; 1060.750;    0.000;    0.000
1055.357; 1078.750;    0.000;    0.000
1055.509; 1022.750;    0.000;    0.000
1055.661; 1078.750;    0.000;    0.000
1055.813;  920.750;    0.000;    0.000
1055.965;  897.750;    0.000;    0.000
1056.116;  890.750;    0.000;    0.000
1056.268;  852.750;    0.000;    0.000
1056.420;  906.750;    0.000;    0.000

