
Integration time [ms]:   0.300
Averaging Nr. [scans]: 1
Smoothing Nr. [pixels]: 0
Data measured with spectrometer [name]: VIS
Wave   ;Sample   ;Dark     ;Reference
[nm]   ;[counts] ;[counts] ;[counts] 

450.961;  189.850;  204.125;    0.000
451.100;  231.850;  219.125;    0.000
451.239;  192.850;  196.125;    0.000
451.377;  204.850;  252.125;    0.000
451.516;  193.850;  215.125;    0.000
451.655;  222.850;  214.125;    0.000
451.794;  241.850;  241.125;    0.000
451.932;  247.850;  242.125;    0.000
452.071;  219.850;  204.125;    0.000
452.210;  210.850;  243.125;    0.000
452.348;  232.850;  241.125;    0.000
452.487;  240.850;  246.125;    0.000
452.626;  225.850;  235.125;    0.000
452.764;  229.850;  230.125;    0.000
452.903;  228.850;  199.125;    0.000
453.042;  249.850;  178.125;    0.000
453.180; 1619.850;  291.125;    0.000
453.319; 1680.850;  335.125;    0.000
453.458; 1596.850;  245.125;    0.000
453.596; 1635.850;  325.125;    0.000
453.735; 1752.850;  291.125;    0.000
453.873; 1709.850;  295.125;    0.000
454.012; 1725.850;  291.125;    0.000
454.150; 1699.850;  292.125;    0.000
454.289; 1745.850;  328.125;    0.000
454.427; 1695.850;  295.125;    0.000
454.566; 1744.850;  295.125;    0.000
454.704; 1780.850;  301.125;    0.000
454.843; 1783.850;  278.125;    0.000
454.981; 1824.850;  306.125;    0.000
455.120; 1755.850;  237.125;    0.000
455.258; 1885.850;  325.125;    0.000
455.397; 1845.850;  276.125;    0.000
455.535; 1877.850;  269.125;    0.000
455.674; 1881.850;  259.125;    0.000
455.812; 1931.850;  264.125;    0.000
455.951; 1898.850;  286.125;    0.000
456.089; 1994.850;  302.125;    0.000
456.227; 1972.850;  230.125;    0.000
456.366; 1950.850;  303.125;    0.000
456.504; 1987.850;  316.125;    0.000
456.642; 2082.850;  309.125;    0.000
456.781; 1906.850;  299.125;    0.000
456.919; 1939.850;  281.125;    0.000
457.057; 2104.850;  253.125;    0.000
457.196; 2025.850;  268.125;    0.000
457.334; 2070.850;  292.125;    0.000
457.472; 2012.850;  287.125;    0.000
457.610; 2125.850;  300.125;    0.000
457.749; 2223.850;  342.125;    0.000
457.887; 2114.850;  310.125;    0.000
458.025; 2214.850;  310.125;    0.000
458.163; 2233.850;  323.125;    0.000
458.301; 2336.850;  336.125;    0.000
458.440; 2275.850;  297.125;    0.000
458.578; 2368.850;  295.125;    0.000
458.716; 2346.850;  309.125;    0.000
458.854; 2368.850;  335.125;    0.000
458.992; 2421.850;  244.125;    0.000
459.130; 2377.850;  370.125;    0.000
459.269; 2461.850;  313.125;    0.000
459.407; 2450.850;  370.125;    0.000
459.545; 2507.850;  341.125;    0.000
459.683; 2460.850;  336.125;    0.000
459.821; 2522.850;  311.125;    0.000
459.959; 2618.850;  330.125;    0.000
460.097; 2544.850;  355.125;    0.000
460.235; 2509.850;  348.125;    0.000
460.373; 2523.850;  338.125;    0.000
460.511; 2574.850;  361.125;    0.000
460.649; 2582.850;  295.125;    0.000
460.787; 2603.850;  325.125;    0.000
460.925; 2640.850;  266.125;    0.000
461.063; 2681.850;  365.125;    0.000
461.201; 2612.850;  334.125;    0.000
461.339; 2744.850;  341.125;    0.000
461.477; 2683.850;  304.125;    0.000
461.615; 2711.850;  311.125;    0.000
461.753; 2704.850;  342.125;    0.000
461.891; 2817.850;  333.125;    0.000
462.029; 2811.850;  336.125;    0.000
462.166; 2809.850;  272.125;    0.000
462.304; 2819.850;  313.125;    0.000
462.442; 2957.850;  313.125;    0.000
462.580; 2756.850;  328.125;    0.000
462.718; 2819.850;  358.125;    0.000
462.856; 2770.850;  302.125;    0.000
462.993; 2823.850;  360.125;    0.000
463.131; 2766.850;  280.125;    0.000
463.269; 2757.850;  312.125;    0.000
463.407; 2687.850;  263.125;    0.000
463.545; 2708.850;  253.125;    0.000
463.682; 2761.850;  296.125;    0.000
463.820; 2946.850;  308.125;    0.000
463.958; 3028.850;  300.125;    0.000
464.095; 3065.850;  289.125;    0.000
464.233; 3085.850;  340.125;    0.000
464.371; 3098.850;  300.125;    0.000
464.509; 3120.850;  266.125;    0.000
464.646; 3133.850;  294.125;    0.000
464.784; 3058.850;  284.125;    0.000
464.921; 3048.850;  350.125;    0.000
465.059; 2822.850;  256.125;    0.000
465.197; 2863.850;  289.125;    0.000
465.334; 2880.850;  287.125;    0.000
465.472; 2936.850;  322.125;    0.000
465.609; 2979.850;  311.125;    0.000
465.747; 2826.850;  336.125;    0.000
465.885; 2805.850;  308.125;    0.000
466.022; 2741.850;  299.125;    0.000
466.160; 2927.850;  293.125;    0.000
466.297; 2873.850;  317.125;    0.000
466.435; 2814.850;  336.125;    0.000
466.572; 2840.850;  282.125;    0.000
466.710; 2850.850;  299.125;    0.000
466.847; 2803.850;  288.125;    0.000
466.985; 2822.850;  274.125;    0.000
467.122; 2798.850;  302.125;    0.000
467.260; 2749.850;  271.125;    0.000
467.397; 2736.850;  263.125;    0.000
467.534; 2803.850;  320.125;    0.000
467.672; 2790.850;  309.125;    0.000
467.809; 2710.850;  275.125;    0.000
467.947; 2842.850;  319.125;    0.000
468.084; 2809.850;  309.125;    0.000
468.221; 2879.850;  302.125;    0.000
468.359; 2858.850;  286.125;    0.000
468.496; 2724.850;  293.125;    0.000
468.633; 2814.850;  273.125;    0.000
468.771; 2812.850;  296.125;    0.000
468.908; 2787.850;  277.125;    0.000
469.045; 2864.850;  303.125;    0.000
469.183; 2867.850;  314.125;    0.000
469.320; 2858.850;  278.125;    0.000
469.457; 2813.850;  308.125;    0.000
469.594; 2849.850;  272.125;    0.000
469.732; 2861.850;  321.125;    0.000
469.869; 2903.850;  299.125;    0.000
470.006; 2940.850;  267.125;    0.000
470.143; 2930.850;  298.125;    0.000
470.280; 3096.850;  272.125;    0.000
470.417; 2972.850;  314.125;    0.000
470.555; 2895.850;  305.125;    0.000
470.692; 2957.850;  309.125;    0.000
470.829; 2944.850;  311.125;    0.000
470.966; 3027.850;  260.125;    0.000
471.103; 2985.850;  267.125;    0.000
471.240; 2995.850;  290.125;    0.000
471.377; 2986.850;  290.125;    0.000
471.514; 2999.850;  295.125;    0.000
471.651; 3095.850;  300.125;    0.000
471.789; 2940.850;  281.125;    0.000
471.926; 3005.850;  291.125;    0.000
472.063; 2824.850;  305.125;    0.000
472.200; 3025.850;  285.125;    0.000
472.337; 2915.850;  288.125;    0.000
472.474; 2935.850;  276.125;    0.000
472.611; 2868.850;  309.125;    0.000
472.748; 2917.850;  280.125;    0.000
472.884; 2908.850;  300.125;    0.000
473.021; 2867.850;  280.125;    0.000
473.158; 2933.850;  304.125;    0.000
473.295; 2973.850;  308.125;    0.000
473.432; 2806.850;  294.125;    0.000
473.569; 2895.850;  288.125;    0.000
473.706; 2859.850;  254.125;    0.000
473.843; 2842.850;  282.125;    0.000
473.980; 2926.850;  286.125;    0.000
474.117; 2846.850;  257.125;    0.000
474.253; 2965.850;  298.125;    0.000
474.390; 2815.850;  253.125;    0.000
474.527; 2860.850;  271.125;    0.000
474.664; 2922.850;  257.125;    0.000
474.801; 2968.850;  296.125;    0.000
474.937; 2952.850;  263.125;    0.000
475.074; 2989.850;  262.125;    0.000
475.211; 2875.850;  299.125;    0.000
475.348; 3020.850;  308.125;    0.000
475.484; 3065.850;  278.125;    0.000
475.621; 2919.850;  287.125;    0.000
475.758; 2936.850;  231.125;    0.000
475.894; 2977.850;  295.125;    0.000
476.031; 2941.850;  290.125;    0.000
476.168; 2962.850;  287.125;    0.000
476.304; 2923.850;  331.125;    0.000
476.441; 2983.850;  301.125;    0.000
476.578; 2960.850;  263.125;    0.000
476.714; 3052.850;  261.125;    0.000
476.851; 2974.850;  247.125;    0.000
476.987; 3047.850;  297.125;    0.000
477.124; 2967.850;  296.125;    0.000
477.261; 3105.850;  299.125;    0.000
477.397; 2919.850;  292.125;    0.000
477.534; 3028.850;  289.125;    0.000
477.670; 3005.850;  268.125;    0.000
477.807; 2953.850;  234.125;    0.000
477.943; 3054.850;  279.125;    0.000
478.080; 3133.850;  276.125;    0.000
478.216; 3145.850;  248.125;    0.000
478.353; 3182.850;  296.125;    0.000
478.489; 3178.850;  267.125;    0.000
478.626; 3090.850;  243.125;    0.000
478.762; 3186.850;  252.125;    0.000
478.898; 3238.850;  266.125;    0.000
479.035; 3324.850;  290.125;    0.000
479.171; 3248.850;  247.125;    0.000
479.308; 3224.850;  283.125;    0.000
479.444; 3224.850;  244.125;    0.000
479.580; 3252.850;  259.125;    0.000
479.717; 3177.850;  301.125;    0.000
479.853; 3235.850;  257.125;    0.000
479.989; 3209.850;  249.125;    0.000
480.126; 3373.850;  218.125;    0.000
480.262; 3325.850;  275.125;    0.000
480.398; 3366.850;  246.125;    0.000
480.535; 3241.850;  246.125;    0.000
480.671; 3238.850;  272.125;    0.000
480.807; 3332.850;  281.125;    0.000
480.943; 3224.850;  233.125;    0.000
481.080; 3234.850;  303.125;    0.000
481.216; 3206.850;  229.125;    0.000
481.352; 3238.850;  240.125;    0.000
481.488; 3293.850;  284.125;    0.000
481.624; 3325.850;  236.125;    0.000
481.760; 3434.850;  255.125;    0.000
481.897; 3250.850;  206.125;    0.000
482.033; 3244.850;  254.125;    0.000
482.169; 3228.850;  268.125;    0.000
482.305; 3188.850;  214.125;    0.000
482.441; 3210.850;  225.125;    0.000
482.577; 3282.850;  251.125;    0.000
482.713; 3271.850;  221.125;    0.000
482.849; 3225.850;  218.125;    0.000
482.985; 3223.850;  245.125;    0.000
483.121; 3234.850;  224.125;    0.000
483.258; 3300.850;  249.125;    0.000
483.394; 3301.850;  224.125;    0.000
483.530; 3414.850;  247.125;    0.000
483.665; 3341.850;  256.125;    0.000
483.801; 3260.850;  220.125;    0.000
483.937; 3379.850;  200.125;    0.000
484.073; 3250.850;  272.125;    0.000
484.209; 3240.850;  243.125;    0.000
484.345; 3360.850;  274.125;    0.000
484.481; 3365.850;  264.125;    0.000
484.617; 3349.850;  270.125;    0.000
484.753; 3522.850;  244.125;    0.000
484.889; 3361.850;  293.125;    0.000
485.025; 3419.850;  257.125;    0.000
485.161; 3420.850;  264.125;    0.000
485.296; 3408.850;  247.125;    0.000
485.432; 3312.850;  240.125;    0.000
485.568; 3236.850;  240.125;    0.000
485.704; 3393.850;  232.125;    0.000
485.840; 3361.850;  280.125;    0.000
485.975; 3359.850;  253.125;    0.000
486.111; 3287.850;  250.125;    0.000
486.247; 3515.850;  272.125;    0.000
486.383; 3344.850;  258.125;    0.000
486.518; 3406.850;  256.125;    0.000
486.654; 3507.850;  250.125;    0.000
486.790; 3399.850;  259.125;    0.000
486.926; 3331.850;  256.125;    0.000
487.061; 3505.850;  267.125;    0.000
487.197; 3398.850;  224.125;    0.000
487.333; 3337.850;  265.125;    0.000
487.468; 3377.850;  223.125;    0.000
487.604; 3243.850;  298.125;    0.000
487.740; 3320.850;  261.125;    0.000
487.875; 3386.850;  278.125;    0.000
488.011; 3332.850;  292.125;    0.000
488.146; 3332.850;  239.125;    0.000
488.282; 3391.850;  265.125;    0.000
488.417; 3413.850;  286.125;    0.000
488.553; 3362.850;  271.125;    0.000
488.688; 3383.850;  252.125;    0.000
488.824; 3367.850;  239.125;    0.000
488.960; 3377.850;  266.125;    0.000
489.095; 3320.850;  229.125;    0.000
489.230; 3336.850;  247.125;    0.000
489.366; 3325.850;  260.125;    0.000
489.501; 3371.850;  257.125;    0.000
489.637; 3398.850;  233.125;    0.000
489.772; 3381.850;  254.125;    0.000
489.908; 3451.850;  235.125;    0.000
490.043; 3344.850;  266.125;    0.000
490.178; 3423.850;  228.125;    0.000
490.314; 3472.850;  310.125;    0.000
490.449; 3370.850;  251.125;    0.000
490.585; 3359.850;  221.125;    0.000
490.720; 3283.850;  203.125;    0.000
490.855; 3413.850;  266.125;    0.000
490.991; 3389.850;  249.125;    0.000
491.126; 3462.850;  313.125;    0.000
491.261; 3443.850;  284.125;    0.000
491.396; 3455.850;  225.125;    0.000
491.532; 3448.850;  227.125;    0.000
491.667; 3426.850;  210.125;    0.000
491.802; 3604.850;  214.125;    0.000
491.937; 3469.850;  246.125;    0.000
492.073; 3473.850;  250.125;    0.000
492.208; 3497.850;  267.125;    0.000
492.343; 3430.850;  245.125;    0.000
492.478; 3405.850;  271.125;    0.000
492.613; 3524.850;  253.125;    0.000
492.749; 3414.850;  249.125;    0.000
492.884; 3382.850;  217.125;    0.000
493.019; 3380.850;  244.125;    0.000
493.154; 3420.850;  265.125;    0.000
493.289; 3473.850;  266.125;    0.000
493.424; 3408.850;  226.125;    0.000
493.559; 3390.850;  222.125;    0.000
493.694; 3429.850;  218.125;    0.000
493.829; 3381.850;  246.125;    0.000
493.964; 3452.850;  243.125;    0.000
494.099; 3435.850;  269.125;    0.000
494.234; 3368.850;  249.125;    0.000
494.369; 3524.850;  279.125;    0.000
494.504; 3416.850;  261.125;    0.000
494.639; 3467.850;  289.125;    0.000
494.774; 3409.850;  252.125;    0.000
494.909; 3407.850;  250.125;    0.000
495.044; 3533.850;  207.125;    0.000
495.179; 3351.850;  266.125;    0.000
495.314; 3465.850;  228.125;    0.000
495.449; 3350.850;  262.125;    0.000
495.584; 3407.850;  281.125;    0.000
495.719; 3470.850;  251.125;    0.000
495.854; 3497.850;  237.125;    0.000
495.988; 3514.850;  238.125;    0.000
496.123; 3552.850;  255.125;    0.000
496.258; 3545.850;  264.125;    0.000
496.393; 3490.850;  253.125;    0.000
496.528; 3488.850;  244.125;    0.000
496.663; 3482.850;  267.125;    0.000
496.797; 3535.850;  271.125;    0.000
496.932; 3656.850;  262.125;    0.000
497.067; 3720.850;  260.125;    0.000
497.202; 3691.850;  264.125;    0.000
497.336; 3674.850;  243.125;    0.000
497.471; 3773.850;  251.125;    0.000
497.606; 3709.850;  219.125;    0.000
497.740; 3811.850;  264.125;    0.000
497.875; 3713.850;  252.125;    0.000
498.010; 3916.850;  241.125;    0.000
498.144; 3932.850;  261.125;    0.000
498.279; 4180.850;  221.125;    0.000
498.414; 4185.850;  246.125;    0.000
498.548; 4178.850;  212.125;    0.000
498.683; 4229.850;  260.125;    0.000
498.817; 4149.850;  244.125;    0.000
498.952; 4171.850;  252.125;    0.000
499.087; 4252.850;  251.125;    0.000
499.221; 4322.850;  282.125;    0.000
499.356; 4474.850;  264.125;    0.000
499.490; 4554.850;  280.125;    0.000
499.625; 4561.850;  256.125;    0.000
499.759; 4555.850;  253.125;    0.000
499.894; 4790.850;  261.125;    0.000
500.028; 4760.850;  304.125;    0.000
500.162; 4926.850;  272.125;    0.000
500.297; 4988.850;  274.125;    0.000
500.431; 4995.850;  320.125;    0.000
500.566; 5032.850;  268.125;    0.000
500.700; 5031.850;  280.125;    0.000
500.835; 4794.850;  288.125;    0.000
500.969; 4879.850;  253.125;    0.000
501.103; 4733.850;  234.125;    0.000
501.238; 4623.850;  302.125;    0.000
501.372; 4595.850;  292.125;    0.000
501.506; 4468.850;  222.125;    0.000
501.641; 4387.850;  274.125;    0.000
501.775; 4242.850;  245.125;    0.000
501.909; 4139.850;  283.125;    0.000
502.043; 3947.850;  252.125;    0.000
502.178; 4113.850;  293.125;    0.000
502.312; 3951.850;  223.125;    0.000
502.446; 3804.850;  292.125;    0.000
502.580; 3797.850;  253.125;    0.000
502.715; 3935.850;  282.125;    0.000
502.849; 3738.850;  258.125;    0.000
502.983; 3759.850;  267.125;    0.000
503.117; 3751.850;  226.125;    0.000
503.251; 3612.850;  260.125;    0.000
503.385; 3609.850;  291.125;    0.000
503.520; 3516.850;  279.125;    0.000
503.654; 3441.850;  229.125;    0.000
503.788; 3603.850;  259.125;    0.000
503.922; 3509.850;  246.125;    0.000
504.056; 3456.850;  269.125;    0.000
504.190; 3347.850;  265.125;    0.000
504.324; 3502.850;  298.125;    0.000
504.458; 3407.850;  235.125;    0.000
504.592; 3354.850;  275.125;    0.000
504.726; 3371.850;  226.125;    0.000
504.860; 3309.850;  298.125;    0.000
504.994; 3274.850;  253.125;    0.000
505.128; 3253.850;  283.125;    0.000
505.262; 3242.850;  255.125;    0.000
505.396; 3097.850;  219.125;    0.000
505.530; 3026.850;  279.125;    0.000
505.664; 3110.850;  306.125;    0.000
505.798; 3016.850;  297.125;    0.000
505.932; 2992.850;  273.125;    0.000
506.066; 3042.850;  271.125;    0.000
506.199; 2944.850;  273.125;    0.000
506.333; 2952.850;  227.125;    0.000
506.467; 3021.850;  302.125;    0.000
506.601; 2923.850;  254.125;    0.000
506.735; 2960.850;  299.125;    0.000
506.869; 2851.850;  278.125;    0.000
507.002; 2907.850;  259.125;    0.000
507.136; 2918.850;  285.125;    0.000
507.270; 2861.850;  255.125;    0.000
507.404; 2717.850;  273.125;    0.000
507.537; 2791.850;  245.125;    0.000
507.671; 2823.850;  251.125;    0.000
507.805; 2860.850;  286.125;    0.000
507.939; 2786.850;  261.125;    0.000
508.072; 2752.850;  298.125;    0.000
508.206; 2713.850;  238.125;    0.000
508.340; 2813.850;  289.125;    0.000
508.473; 2777.850;  255.125;    0.000
508.607; 2858.850;  266.125;    0.000
508.740; 2787.850;  253.125;    0.000
508.874; 2680.850;  233.125;    0.000
509.008; 2742.850;  274.125;    0.000
509.141; 2754.850;  235.125;    0.000
509.275; 2770.850;  225.125;    0.000
509.408; 2777.850;  254.125;    0.000
509.542; 2625.850;  244.125;    0.000
509.675; 2702.850;  263.125;    0.000
509.809; 2700.850;  271.125;    0.000
509.942; 2710.850;  246.125;    0.000
510.076; 2576.850;  221.125;    0.000
510.209; 2728.850;  270.125;    0.000
510.343; 2656.850;  265.125;    0.000
510.476; 2619.850;  291.125;    0.000
510.610; 2680.850;  251.125;    0.000
510.743; 2679.850;  304.125;    0.000
510.877; 2631.850;  259.125;    0.000
511.010; 2541.850;  274.125;    0.000
511.143; 2575.850;  255.125;    0.000
511.277; 2585.850;  267.125;    0.000
511.410; 2623.850;  270.125;    0.000
511.543; 2649.850;  231.125;    0.000
511.677; 2588.850;  275.125;    0.000
511.810; 2631.850;  265.125;    0.000
511.943; 2706.850;  231.125;    0.000
512.077; 2635.850;  225.125;    0.000
512.210; 2540.850;  235.125;    0.000
512.343; 2565.850;  251.125;    0.000
512.476; 2629.850;  260.125;    0.000
512.610; 2554.850;  289.125;    0.000
512.743; 2587.850;  270.125;    0.000
512.876; 2645.850;  289.125;    0.000
513.009; 2680.850;  293.125;    0.000
513.142; 2562.850;  282.125;    0.000
513.276; 2540.850;  244.125;    0.000
513.409; 2581.850;  277.125;    0.000
513.542; 2586.850;  254.125;    0.000
513.675; 2577.850;  258.125;    0.000
513.808; 2550.850;  243.125;    0.000
513.941; 2679.850;  274.125;    0.000
514.074; 2530.850;  296.125;    0.000
514.207; 2596.850;  267.125;    0.000
514.340; 2524.850;  283.125;    0.000
514.474; 2632.850;  255.125;    0.000
514.607; 2595.850;  291.125;    0.000
514.740; 2646.850;  296.125;    0.000
514.873; 2665.850;  275.125;    0.000
515.006; 2737.850;  313.125;    0.000
515.139; 2681.850;  253.125;    0.000
515.272; 2681.850;  263.125;    0.000
515.404; 2740.850;  258.125;    0.000
515.537; 2784.850;  285.125;    0.000
515.670; 2676.850;  286.125;    0.000
515.803; 2682.850;  266.125;    0.000
515.936; 2728.850;  251.125;    0.000
516.069; 2735.850;  231.125;    0.000
516.202; 2803.850;  278.125;    0.000
516.335; 2827.850;  295.125;    0.000
516.468; 2942.850;  239.125;    0.000
516.600; 3531.850;  229.125;    0.000
516.733; 4465.850;  301.125;    0.000
516.866; 4539.850;  287.125;    0.000
516.999; 4153.850;  265.125;    0.000
517.132; 5044.850;  291.125;    0.000
517.264; 7125.850;  262.125;    0.000
517.397; 7152.850;  292.125;    0.000
517.530; 5413.850;  299.125;    0.000
517.663; 4396.850;  268.125;    0.000
517.795; 3991.850;  323.125;    0.000
517.928; 3840.850;  281.125;    0.000
518.061; 3933.850;  242.125;    0.000
518.193; 5242.850;  279.125;    0.000
518.326; 8379.850;  288.125;    0.000
518.459; 9071.850;  251.125;    0.000
518.591; 7055.850;  314.125;    0.000
518.724; 5064.850;  279.125;    0.000
518.857; 4314.850;  245.125;    0.000
518.989; 3945.850;  290.125;    0.000
519.122; 3651.850;  319.125;    0.000
519.254; 3381.850;  295.125;    0.000
519.387; 3247.850;  271.125;    0.000
519.519; 3146.850;  312.125;    0.000
519.652; 3024.850;  289.125;    0.000
519.784; 3055.850;  311.125;    0.000
519.917; 2844.850;  283.125;    0.000
520.049; 2879.850;  281.125;    0.000
520.182; 2848.850;  242.125;    0.000
520.314; 2651.850;  310.125;    0.000
520.447; 2779.850;  215.125;    0.000
520.579; 2683.850;  277.125;    0.000
520.712; 2565.850;  224.125;    0.000
520.844; 2723.850;  293.125;    0.000
520.976; 2583.850;  281.125;    0.000
521.109; 2527.850;  279.125;    0.000
521.241; 2521.850;  318.125;    0.000
521.373; 2396.850;  242.125;    0.000
521.506; 2519.850;  246.125;    0.000
521.638; 2461.850;  312.125;    0.000
521.770; 2559.850;  257.125;    0.000
521.903; 2468.850;  295.125;    0.000
522.035; 2337.850;  283.125;    0.000
522.167; 2457.850;  281.125;    0.000
522.300; 2480.850;  262.125;    0.000
522.432; 2399.850;  272.125;    0.000
522.564; 2323.850;  277.125;    0.000
522.696; 2338.850;  295.125;    0.000
522.828; 2420.850;  284.125;    0.000
522.961; 2341.850;  295.125;    0.000
523.093; 2421.850;  282.125;    0.000
523.225; 2385.850;  270.125;    0.000
523.357; 2354.850;  285.125;    0.000
523.489; 2257.850;  292.125;    0.000
523.621; 2284.850;  285.125;    0.000
523.753; 2250.850;  273.125;    0.000
523.885; 2206.850;  271.125;    0.000
524.018; 2272.850;  276.125;    0.000
524.150; 2344.850;  320.125;    0.000
524.282; 2261.850;  304.125;    0.000
524.414; 2310.850;  302.125;    0.000
524.546; 2266.850;  305.125;    0.000
524.678; 2201.850;  264.125;    0.000
524.810; 2313.850;  258.125;    0.000
524.942; 2314.850;  252.125;    0.000
525.074; 2180.850;  275.125;    0.000
525.206; 2118.850;  286.125;    0.000
525.338; 2192.850;  280.125;    0.000
525.469; 2160.850;  267.125;    0.000
525.601; 2156.850;  266.125;    0.000
525.733; 2153.850;  283.125;    0.000
525.865; 2200.850;  273.125;    0.000
525.997; 2245.850;  286.125;    0.000
526.129; 2183.850;  249.125;    0.000
526.261; 2225.850;  233.125;    0.000
526.393; 2222.850;  257.125;    0.000
526.524; 2095.850;  184.125;    0.000
526.656; 2174.850;  259.125;    0.000
526.788; 2129.850;  268.125;    0.000
526.920; 2074.850;  262.125;    0.000
527.052; 2152.850;  250.125;    0.000
527.183; 2097.850;  264.125;    0.000
527.315; 2124.850;  301.125;    0.000
527.447; 2148.850;  262.125;    0.000
527.578; 2142.850;  267.125;    0.000
527.710; 2201.850;  299.125;    0.000
527.842; 2154.850;  266.125;    0.000
527.973; 2159.850;  240.125;    0.000
528.105; 2113.850;  275.125;    0.000
528.237; 2124.850;  239.125;    0.000
528.368; 1986.850;  275.125;    0.000
528.500; 2100.850;  271.125;    0.000
528.632; 2099.850;  252.125;    0.000
528.763; 2018.850;  253.125;    0.000
528.895; 2059.850;  259.125;    0.000
529.026; 1984.850;  209.125;    0.000
529.158; 2123.850;  291.125;    0.000
529.289; 2077.850;  280.125;    0.000
529.421; 2130.850;  274.125;    0.000
529.552; 2109.850;  253.125;    0.000
529.684; 2069.850;  310.125;    0.000
529.815; 2139.850;  305.125;    0.000
529.947; 2148.850;  234.125;    0.000
530.078; 2066.850;  259.125;    0.000
530.210; 2008.850;  264.125;    0.000
530.341; 2054.850;  267.125;    0.000
530.472; 2085.850;  232.125;    0.000
530.604; 2051.850;  293.125;    0.000
530.735; 2060.850;  275.125;    0.000
530.867; 2067.850;  280.125;    0.000
530.998; 2146.850;  295.125;    0.000
531.129; 2096.850;  274.125;    0.000
531.260; 2055.850;  272.125;    0.000
531.392; 2151.850;  275.125;    0.000
531.523; 2137.850;  244.125;    0.000
531.654; 2162.850;  289.125;    0.000
531.786; 2081.850;  259.125;    0.000
531.917; 2113.850;  286.125;    0.000
532.048; 2087.850;  293.125;    0.000
532.179; 2036.850;  288.125;    0.000
532.311; 2072.850;  296.125;    0.000
532.442; 2092.850;  277.125;    0.000
532.573; 2118.850;  273.125;    0.000
532.704; 2135.850;  308.125;    0.000
532.835; 2135.850;  308.125;    0.000
532.966; 2033.850;  274.125;    0.000
533.097; 2145.850;  310.125;    0.000
533.229; 2044.850;  294.125;    0.000
533.360; 2069.850;  324.125;    0.000
533.491; 2065.850;  278.125;    0.000
533.622; 2040.850;  319.125;    0.000
533.753; 2112.850;  303.125;    0.000
533.884; 2059.850;  269.125;    0.000
534.015; 2014.850;  266.125;    0.000
534.146; 2054.850;  283.125;    0.000
534.277; 2143.850;  299.125;    0.000
534.408; 2103.850;  265.125;    0.000
534.539; 2179.850;  310.125;    0.000
534.670; 2112.850;  319.125;    0.000
534.801; 2042.850;  281.125;    0.000
534.932; 2059.850;  239.125;    0.000
535.063; 2059.850;  276.125;    0.000
535.194; 2031.850;  361.125;    0.000
535.324; 2001.850;  283.125;    0.000
535.455; 2032.850;  282.125;    0.000
535.586; 2021.850;  331.125;    0.000
535.717; 2073.850;  262.125;    0.000
535.848; 2089.850;  308.125;    0.000
535.979; 2112.850;  273.125;    0.000
536.109; 2109.850;  277.125;    0.000
536.240; 2006.850;  293.125;    0.000
536.371; 2082.850;  295.125;    0.000
536.502; 2082.850;  330.125;    0.000
536.632; 1991.850;  280.125;    0.000
536.763; 1964.850;  332.125;    0.000
536.894; 2036.850;  334.125;    0.000
537.025; 2056.850;  295.125;    0.000
537.155; 2058.850;  321.125;    0.000
537.286; 2067.850;  292.125;    0.000
537.417; 2063.850;  314.125;    0.000
537.547; 2013.850;  287.125;    0.000
537.678; 1979.850;  287.125;    0.000
537.808; 2026.850;  278.125;    0.000
537.939; 1993.850;  304.125;    0.000
538.070; 1983.850;  303.125;    0.000
538.200; 2052.850;  279.125;    0.000
538.331; 1989.850;  321.125;    0.000
538.461; 2032.850;  313.125;    0.000
538.592; 1942.850;  290.125;    0.000
538.722; 1923.850;  285.125;    0.000
538.853; 1951.850;  261.125;    0.000
538.983; 1966.850;  280.125;    0.000
539.114; 1929.850;  310.125;    0.000
539.244; 1972.850;  281.125;    0.000
539.375; 1981.850;  292.125;    0.000
539.505; 1983.850;  286.125;    0.000
539.636; 1924.850;  276.125;    0.000
539.766; 2044.850;  287.125;    0.000
539.896; 2017.850;  292.125;    0.000
540.027; 1992.850;  262.125;    0.000
540.157; 2041.850;  269.125;    0.000
540.287; 1901.850;  282.125;    0.000
540.418; 2001.850;  269.125;    0.000
540.548; 2006.850;  328.125;    0.000
540.678; 1995.850;  271.125;    0.000
540.809; 1998.850;  272.125;    0.000
540.939; 2046.850;  299.125;    0.000
541.069; 2048.850;  266.125;    0.000
541.200; 1986.850;  242.125;    0.000
541.330; 1993.850;  257.125;    0.000
541.460; 2020.850;  270.125;    0.000
541.590; 2040.850;  287.125;    0.000
541.720; 1933.850;  255.125;    0.000
541.851; 1950.850;  273.125;    0.000
541.981; 2020.850;  244.125;    0.000
542.111; 2129.850;  263.125;    0.000
542.241; 2029.850;  271.125;    0.000
542.371; 2028.850;  263.125;    0.000
542.501; 2102.850;  274.125;    0.000
542.631; 2127.850;  288.125;    0.000
542.761; 2164.850;  261.125;    0.000
542.891; 2046.850;  253.125;    0.000
543.021; 2123.850;  249.125;    0.000
543.151; 2110.850;  261.125;    0.000
543.281; 2003.850;  256.125;    0.000
543.411; 2077.850;  290.125;    0.000
543.542; 1972.850;  278.125;    0.000
543.671; 2129.850;  238.125;    0.000
543.801; 2022.850;  256.125;    0.000
543.931; 2105.850;  254.125;    0.000
544.061; 2078.850;  237.125;    0.000
544.191; 2093.850;  245.125;    0.000
544.321; 1990.850;  267.125;    0.000
544.451; 2008.850;  262.125;    0.000
544.581; 2114.850;  221.125;    0.000
544.711; 2128.850;  252.125;    0.000
544.841; 2050.850;  264.125;    0.000
544.970; 2126.850;  315.125;    0.000
545.100; 2073.850;  245.125;    0.000
545.230; 2138.850;  276.125;    0.000
545.360; 2125.850;  278.125;    0.000
545.490; 2028.850;  268.125;    0.000
545.619; 2074.850;  237.125;    0.000
545.749; 2026.850;  228.125;    0.000
545.879; 2010.850;  234.125;    0.000
546.009; 2024.850;  287.125;    0.000
546.138; 1983.850;  222.125;    0.000
546.268; 2004.850;  228.125;    0.000
546.398; 2104.850;  244.125;    0.000
546.527; 2012.850;  233.125;    0.000
546.657; 1981.850;  189.125;    0.000
546.786; 2091.850;  247.125;    0.000
546.916; 2097.850;  244.125;    0.000
547.046; 2037.850;  214.125;    0.000
547.175; 2013.850;  242.125;    0.000
547.305; 2044.850;  252.125;    0.000
547.434; 2049.850;  191.125;    0.000
547.564; 2028.850;  208.125;    0.000
547.693; 2052.850;  213.125;    0.000
547.823; 1930.850;  209.125;    0.000
547.953; 2015.850;  250.125;    0.000
548.082; 2146.850;  231.125;    0.000
548.211; 2025.850;  226.125;    0.000
548.341; 2147.850;  254.125;    0.000
548.470; 2098.850;  266.125;    0.000
548.600; 2129.850;  229.125;    0.000
548.729; 2028.850;  225.125;    0.000
548.859; 2000.850;  185.125;    0.000
548.988; 2015.850;  225.125;    0.000
549.117; 2032.850;  241.125;    0.000
549.247; 2022.850;  236.125;    0.000
549.376; 2041.850;  220.125;    0.000
549.505; 2087.850;  254.125;    0.000
549.635; 1985.850;  268.125;    0.000
549.764; 2083.850;  194.125;    0.000
549.893; 2018.850;  232.125;    0.000
550.023; 2068.850;  222.125;    0.000
550.152; 2119.850;  223.125;    0.000
550.281; 2034.850;  210.125;    0.000
550.410; 2023.850;  197.125;    0.000
550.539; 2158.850;  222.125;    0.000
550.669; 2109.850;  245.125;    0.000
550.798; 2073.850;  265.125;    0.000
550.927; 2104.850;  249.125;    0.000
551.056; 2009.850;  184.125;    0.000
551.185; 2034.850;  247.125;    0.000
551.314; 1998.850;  258.125;    0.000
551.443; 2082.850;  224.125;    0.000
551.573; 2025.850;  204.125;    0.000
551.702; 2120.850;  220.125;    0.000
551.831; 2112.850;  287.125;    0.000
551.960; 2030.850;  259.125;    0.000
552.089; 2040.850;  222.125;    0.000
552.218; 2052.850;  254.125;    0.000
552.347; 2165.850;  260.125;    0.000
552.476; 2117.850;  251.125;    0.000
552.605; 2096.850;  229.125;    0.000
552.734; 2247.850;  261.125;    0.000
552.863; 2195.850;  225.125;    0.000
552.992; 2290.850;  202.125;    0.000
553.121; 2242.850;  193.125;    0.000
553.249; 2261.850;  224.125;    0.000
553.378; 2223.850;  274.125;    0.000
553.507; 2237.850;  248.125;    0.000
553.636; 2116.850;  203.125;    0.000
553.765; 2152.850;  224.125;    0.000
553.894; 2106.850;  246.125;    0.000
554.023; 2237.850;  229.125;    0.000
554.151; 2164.850;  216.125;    0.000
554.280; 2061.850;  223.125;    0.000
554.409; 2085.850;  240.125;    0.000
554.538; 2148.850;  277.125;    0.000
554.666; 2096.850;  244.125;    0.000
554.795; 2049.850;  240.125;    0.000
554.924; 2050.850;  257.125;    0.000
555.052; 2090.850;  266.125;    0.000
555.181; 2077.850;  244.125;    0.000
555.310; 2139.850;  262.125;    0.000
555.439; 2138.850;  260.125;    0.000
555.567; 2020.850;  234.125;    0.000
555.696; 2044.850;  237.125;    0.000
555.824; 2048.850;  232.125;    0.000
555.953; 2087.850;  279.125;    0.000
556.082; 1956.850;  234.125;    0.000
556.210; 2111.850;  235.125;    0.000
556.339; 2129.850;  198.125;    0.000
556.467; 2047.850;  216.125;    0.000
556.596; 2013.850;  273.125;    0.000
556.724; 2037.850;  245.125;    0.000
556.853; 2039.850;  241.125;    0.000
556.981; 2054.850;  219.125;    0.000
557.110; 2009.850;  242.125;    0.000
557.238; 2138.850;  202.125;    0.000
557.367; 1954.850;  254.125;    0.000
557.495; 2047.850;  260.125;    0.000
557.623; 1998.850;  207.125;    0.000
557.752; 2020.850;  219.125;    0.000
557.880; 2004.850;  209.125;    0.000
558.008; 2066.850;  243.125;    0.000
558.137; 2059.850;  244.125;    0.000
558.265; 2086.850;  221.125;    0.000
558.393; 2003.850;  297.125;    0.000
558.522; 2057.850;  232.125;    0.000
558.650; 2068.850;  299.125;    0.000
558.778; 2033.850;  210.125;    0.000
558.906; 2042.850;  240.125;    0.000
559.035; 2053.850;  252.125;    0.000
559.163; 2092.850;  246.125;    0.000
559.291; 2065.850;  213.125;    0.000
559.419; 2100.850;  221.125;    0.000
559.548; 2002.850;  208.125;    0.000
559.676; 2122.850;  254.125;    0.000
559.804; 2085.850;  213.125;    0.000
559.932; 2138.850;  208.125;    0.000
560.060; 2099.850;  276.125;    0.000
560.188; 2102.850;  278.125;    0.000
560.316; 1988.850;  217.125;    0.000
560.444; 2154.850;  254.125;    0.000
560.572; 2088.850;  226.125;    0.000
560.700; 2145.850;  282.125;    0.000
560.828; 2190.850;  211.125;    0.000
560.956; 2161.850;  264.125;    0.000
561.085; 2148.850;  295.125;    0.000
561.212; 2135.850;  229.125;    0.000
561.340; 2064.850;  259.125;    0.000
561.468; 2124.850;  253.125;    0.000
561.596; 2096.850;  240.125;    0.000
561.724; 2089.850;  259.125;    0.000
561.852; 2067.850;  224.125;    0.000
561.980; 2207.850;  251.125;    0.000
562.108; 2189.850;  214.125;    0.000
562.236; 2111.850;  258.125;    0.000
562.364; 2204.850;  237.125;    0.000
562.492; 2165.850;  228.125;    0.000
562.619; 2203.850;  223.125;    0.000
562.747; 2142.850;  263.125;    0.000
562.875; 2179.850;  257.125;    0.000
563.003; 2181.850;  216.125;    0.000
563.130; 2132.850;  190.125;    0.000
563.258; 2175.850;  225.125;    0.000
563.386; 2216.850;  259.125;    0.000
563.514; 2199.850;  264.125;    0.000
563.641; 2178.850;  230.125;    0.000
563.769; 2231.850;  257.125;    0.000
563.897; 2331.850;  210.125;    0.000
564.024; 2375.850;  221.125;    0.000
564.152; 2423.850;  256.125;    0.000
564.280; 2346.850;  225.125;    0.000
564.407; 2401.850;  262.125;    0.000
564.535; 2435.850;  235.125;    0.000
564.662; 2433.850;  238.125;    0.000
564.790; 2417.850;  248.125;    0.000
564.917; 2414.850;  214.125;    0.000
565.045; 2398.850;  253.125;    0.000
565.173; 2389.850;  225.125;    0.000
565.300; 2474.850;  261.125;    0.000
565.428; 2438.850;  218.125;    0.000
565.555; 2416.850;  245.125;    0.000
565.682; 2468.850;  242.125;    0.000
565.810; 2548.850;  228.125;    0.000
565.937; 2672.850;  230.125;    0.000
566.065; 2670.850;  251.125;    0.000
566.192; 2631.850;  196.125;    0.000
566.320; 2557.850;  217.125;    0.000
566.447; 2735.850;  224.125;    0.000
566.574; 2741.850;  221.125;    0.000
566.702; 2810.850;  221.125;    0.000
566.829; 2779.850;  252.125;    0.000
566.956; 2798.850;  214.125;    0.000
567.083; 2811.850;  204.125;    0.000
567.211; 2784.850;  216.125;    0.000
567.338; 2930.850;  228.125;    0.000
567.465; 2765.850;  208.125;    0.000
567.593; 2910.850;  205.125;    0.000
567.720; 2855.850;  194.125;    0.000
567.847; 2841.850;  268.125;    0.000
567.974; 2842.850;  198.125;    0.000
568.101; 3026.850;  224.125;    0.000
568.228; 3250.850;  236.125;    0.000
568.356; 3371.850;  207.125;    0.000
568.483; 3236.850;  220.125;    0.000
568.610; 3160.850;  181.125;    0.000
568.737; 3474.850;  216.125;    0.000
568.864; 3864.850;  258.125;    0.000
568.991; 3569.850;  203.125;    0.000
569.118; 3355.850;  232.125;    0.000
569.245; 3095.850;  192.125;    0.000
569.372; 2952.850;  226.125;    0.000
569.499; 2841.850;  211.125;    0.000
569.626; 2810.850;  247.125;    0.000
569.753; 2725.850;  248.125;    0.000
569.880; 2639.850;  226.125;    0.000
570.007; 2565.850;  215.125;    0.000
570.134; 2606.850;  205.125;    0.000
570.261; 2544.850;  187.125;    0.000
570.388; 2424.850;  258.125;    0.000
570.515; 2435.850;  241.125;    0.000
570.642; 2466.850;  211.125;    0.000
570.768; 2482.850;  228.125;    0.000
570.895; 2455.850;  229.125;    0.000
571.022; 2453.850;  203.125;    0.000
571.149; 2447.850;  206.125;    0.000
571.276; 2356.850;  191.125;    0.000
571.402; 2372.850;  218.125;    0.000
571.529; 2339.850;  192.125;    0.000
571.656; 2346.850;  209.125;    0.000
571.783; 2327.850;  181.125;    0.000
571.909; 2347.850;  251.125;    0.000
572.036; 2305.850;  225.125;    0.000
572.163; 2307.850;  214.125;    0.000
572.289; 2304.850;  252.125;    0.000
572.416; 2267.850;  220.125;    0.000
572.543; 2303.850;  225.125;    0.000
572.669; 2256.850;  226.125;    0.000
572.796; 2357.850;  231.125;    0.000
572.922; 2273.850;  258.125;    0.000
573.049; 2289.850;  202.125;    0.000
573.176; 2203.850;  254.125;    0.000
573.302; 2263.850;  215.125;    0.000
573.429; 2208.850;  251.125;    0.000
573.555; 2180.850;  221.125;    0.000
573.682; 2082.850;  227.125;    0.000
573.808; 2153.850;  259.125;    0.000
573.935; 2143.850;  233.125;    0.000
574.061; 2133.850;  241.125;    0.000
574.188; 2159.850;  238.125;    0.000
574.314; 2206.850;  221.125;    0.000
574.440; 2144.850;  221.125;    0.000
574.567; 2117.850;  216.125;    0.000
574.693; 2078.850;  224.125;    0.000
574.820; 2149.850;  199.125;    0.000
574.946; 2138.850;  248.125;    0.000
575.072; 2149.850;  220.125;    0.000
575.198; 2208.850;  262.125;    0.000
575.325; 2194.850;  232.125;    0.000
575.451; 2118.850;  225.125;    0.000
575.577; 2220.850;  216.125;    0.000
575.704; 2092.850;  248.125;    0.000
575.830; 2175.850;  227.125;    0.000
575.956; 2108.850;  206.125;    0.000
576.082; 2112.850;  222.125;    0.000
576.208; 2143.850;  206.125;    0.000
576.335; 2077.850;  256.125;    0.000
576.461; 2191.850;  247.125;    0.000
576.587; 2111.850;  219.125;    0.000
576.713; 2165.850;  215.125;    0.000
576.839; 2161.850;  225.125;    0.000
576.965; 2152.850;  230.125;    0.000
577.091; 2055.850;  235.125;    0.000
577.217; 2195.850;  235.125;    0.000
577.343; 2068.850;  233.125;    0.000
577.469; 2242.850;  242.125;    0.000
577.596; 2055.850;  241.125;    0.000
577.722; 2125.850;  255.125;    0.000
577.848; 2073.850;  235.125;    0.000
577.974; 2143.850;  210.125;    0.000
578.099; 2122.850;  239.125;    0.000
578.225; 2065.850;  258.125;    0.000
578.351; 2078.850;  209.125;    0.000
578.477; 2208.850;  255.125;    0.000
578.603; 2235.850;  213.125;    0.000
578.729; 2234.850;  221.125;    0.000
578.855; 2118.850;  209.125;    0.000
578.981; 2154.850;  206.125;    0.000
579.107; 2119.850;  221.125;    0.000
579.232; 2217.850;  206.125;    0.000
579.358; 2118.850;  226.125;    0.000
579.484; 2066.850;  244.125;    0.000
579.610; 2124.850;  261.125;    0.000
579.735; 2145.850;  270.125;    0.000
579.861; 2228.850;  255.125;    0.000
579.987; 2228.850;  249.125;    0.000
580.113; 2234.850;  260.125;    0.000
580.238; 2131.850;  206.125;    0.000
580.364; 2190.850;  249.125;    0.000
580.490; 2291.850;  225.125;    0.000
580.615; 2225.850;  266.125;    0.000
580.741; 2114.850;  224.125;    0.000
580.867; 2153.850;  251.125;    0.000
580.992; 2118.850;  270.125;    0.000
581.118; 2183.850;  248.125;    0.000
581.243; 2276.850;  251.125;    0.000
581.369; 2264.850;  192.125;    0.000
581.494; 2238.850;  259.125;    0.000
581.620; 2284.850;  245.125;    0.000
581.745; 2267.850;  232.125;    0.000
581.871; 2315.850;  243.125;    0.000
581.996; 2233.850;  216.125;    0.000
582.122; 2322.850;  263.125;    0.000
582.247; 2215.850;  254.125;    0.000
582.373; 2247.850;  232.125;    0.000
582.498; 2321.850;  275.125;    0.000
582.624; 2344.850;  260.125;    0.000
582.749; 2402.850;  251.125;    0.000
582.874; 2329.850;  245.125;    0.000
583.000; 2465.850;  278.125;    0.000
583.125; 2392.850;  211.125;    0.000
583.250; 2419.850;  246.125;    0.000
583.376; 2412.850;  259.125;    0.000
583.501; 2514.850;  254.125;    0.000
583.626; 2408.850;  209.125;    0.000
583.751; 2465.850;  239.125;    0.000
583.877; 2559.850;  255.125;    0.000
584.002; 2507.850;  263.125;    0.000
584.127; 2516.850;  205.125;    0.000
584.252; 2507.850;  196.125;    0.000
584.377; 2634.850;  249.125;    0.000
584.503; 2669.850;  219.125;    0.000
584.628; 2651.850;  243.125;    0.000
584.753; 2671.850;  250.125;    0.000
584.878; 2631.850;  208.125;    0.000
585.003; 2798.850;  234.125;    0.000
585.128; 2772.850;  207.125;    0.000
585.253; 2921.850;  219.125;    0.000
585.378; 2885.850;  205.125;    0.000
585.503; 2987.850;  256.125;    0.000
585.628; 2890.850;  217.125;    0.000
585.753; 3007.850;  213.125;    0.000
585.878; 3008.850;  147.125;    0.000
586.003; 3140.850;  256.125;    0.000
586.128; 3127.850;  214.125;    0.000
586.253; 3256.850;  254.125;    0.000
586.378; 3253.850;  252.125;    0.000
586.503; 3451.850;  219.125;    0.000
586.628; 3507.850;  226.125;    0.000
586.753; 3681.850;  237.125;    0.000
586.878; 3747.850;  185.125;    0.000
587.003; 3890.850;  248.125;    0.000
587.127; 4139.850;  237.125;    0.000
587.252; 4163.850;  221.125;    0.000
587.377; 4518.850;  244.125;    0.000
587.502; 4743.850;  260.125;    0.000
587.627; 4940.850;  232.125;    0.000
587.751; 5183.850;  250.125;    0.000
587.876; 5733.850;  234.125;    0.000
588.001; 6120.850;  248.125;    0.000
588.125; 6673.850;  236.125;    0.000
588.250; 7449.850;  192.125;    0.000
588.375; 8469.850;  265.125;    0.000
588.499; 9484.850;  235.125;    0.000
588.624;11693.850;  212.125;    0.000
588.749;14716.850;  214.125;    0.000
588.873;18810.850;  236.125;    0.000
588.998;22734.850;  230.125;    0.000
589.122;23235.850;  231.125;    0.000
589.247;20638.850;  250.125;    0.000
589.372;18113.850;  247.125;    0.000
589.496;19266.850;  230.125;    0.000
589.621;21298.850;  237.125;    0.000
589.745;19983.850;  277.125;    0.000
589.870;15808.850;  283.125;    0.000
589.994;12550.850;  263.125;    0.000
590.118;10634.850;  239.125;    0.000
590.243; 9242.850;  218.125;    0.000
590.367; 8285.850;  226.125;    0.000
590.492; 7431.850;  269.125;    0.000
590.616; 6748.850;  205.125;    0.000
590.740; 6142.850;  243.125;    0.000
590.865; 5668.850;  281.125;    0.000
590.989; 5566.850;  233.125;    0.000
591.114; 5107.850;  222.125;    0.000
591.238; 4767.850;  204.125;    0.000
591.362; 4610.850;  283.125;    0.000
591.486; 4579.850;  236.125;    0.000
591.611; 4176.850;  228.125;    0.000
591.735; 4233.850;  249.125;    0.000
591.859; 3913.850;  202.125;    0.000
591.983; 4054.850;  257.125;    0.000
592.107; 3805.850;  230.125;    0.000
592.232; 3715.850;  266.125;    0.000
592.356; 3678.850;  232.125;    0.000
592.480; 3520.850;  245.125;    0.000
592.604; 3492.850;  254.125;    0.000
592.728; 3482.850;  233.125;    0.000
592.852; 3355.850;  213.125;    0.000
592.976; 3272.850;  234.125;    0.000
593.100; 3249.850;  246.125;    0.000
593.224; 3211.850;  305.125;    0.000
593.349; 3168.850;  240.125;    0.000
593.473; 3037.850;  206.125;    0.000
593.597; 3101.850;  243.125;    0.000
593.721; 3028.850;  247.125;    0.000
593.844; 2879.850;  230.125;    0.000
593.968; 3045.850;  226.125;    0.000
594.092; 2890.850;  193.125;    0.000
594.216; 2866.850;  237.125;    0.000
594.340; 2777.850;  235.125;    0.000
594.464; 2837.850;  225.125;    0.000
594.588; 2840.850;  269.125;    0.000
594.712; 2716.850;  242.125;    0.000
594.836; 2658.850;  240.125;    0.000
594.959; 2812.850;  255.125;    0.000
595.083; 2642.850;  258.125;    0.000
595.207; 2579.850;  264.125;    0.000
595.331; 2557.850;  215.125;    0.000
595.455; 2518.850;  234.125;    0.000
595.578; 2541.850;  215.125;    0.000
595.702; 2502.850;  259.125;    0.000
595.826; 2417.850;  232.125;    0.000
595.949; 2494.850;  251.125;    0.000
596.073; 2414.850;  197.125;    0.000
596.197; 2354.850;  239.125;    0.000
596.320; 2488.850;  229.125;    0.000
596.444; 2402.850;  264.125;    0.000
596.568; 2344.850;  207.125;    0.000
596.691; 2350.850;  234.125;    0.000
596.815; 2396.850;  241.125;    0.000
596.938; 2387.850;  244.125;    0.000
597.062; 2306.850;  210.125;    0.000
597.186; 2285.850;  247.125;    0.000
597.309; 2276.850;  215.125;    0.000
597.433; 2315.850;  266.125;    0.000
597.556; 2257.850;  234.125;    0.000
597.680; 2170.850;  261.125;    0.000
597.803; 2248.850;  239.125;    0.000
597.926; 2215.850;  251.125;    0.000
598.050; 2203.850;  227.125;    0.000
598.173; 2182.850;  247.125;    0.000
598.297; 2252.850;  244.125;    0.000
598.420; 2153.850;  243.125;    0.000
598.543; 2125.850;  237.125;    0.000
598.667; 2181.850;  239.125;    0.000
598.790; 2138.850;  217.125;    0.000
598.913; 2153.850;  244.125;    0.000
599.037; 2220.850;  249.125;    0.000
599.160; 2106.850;  222.125;    0.000
599.283; 2264.850;  235.125;    0.000
599.406; 2040.850;  228.125;    0.000
599.530; 2136.850;  234.125;    0.000
599.653; 2105.850;  228.125;    0.000
599.776; 2058.850;  263.125;    0.000
599.899; 2079.850;  197.125;    0.000
600.022; 2049.850;  224.125;    0.000
600.145; 2151.850;  211.125;    0.000
600.269; 2094.850;  246.125;    0.000
600.392; 2112.850;  233.125;    0.000
600.515; 2053.850;  266.125;    0.000
600.638; 2076.850;  246.125;    0.000
600.761; 2127.850;  213.125;    0.000
600.884; 2040.850;  279.125;    0.000
601.007; 2061.850;  268.125;    0.000
601.130; 1980.850;  203.125;    0.000
601.253; 1981.850;  241.125;    0.000
601.376; 1999.850;  248.125;    0.000
601.499; 1989.850;  241.125;    0.000
601.622; 1974.850;  266.125;    0.000
601.745; 1987.850;  237.125;    0.000
601.868; 2006.850;  256.125;    0.000
601.991; 1971.850;  260.125;    0.000
602.113; 1994.850;  246.125;    0.000
602.236; 1984.850;  243.125;    0.000
602.359; 1979.850;  220.125;    0.000
602.482; 2036.850;  236.125;    0.000
602.605; 1957.850;  216.125;    0.000
602.728; 2022.850;  247.125;    0.000
602.850; 2023.850;  255.125;    0.000
602.973; 1943.850;  224.125;    0.000
603.096; 1935.850;  258.125;    0.000
603.219; 1932.850;  222.125;    0.000
603.341; 2032.850;  235.125;    0.000
603.464; 1953.850;  223.125;    0.000
603.587; 1999.850;  250.125;    0.000
603.709; 1947.850;  229.125;    0.000
603.832; 1953.850;  285.125;    0.000
603.955; 1943.850;  225.125;    0.000
604.077; 1908.850;  235.125;    0.000
604.200; 1903.850;  209.125;    0.000
604.323; 1957.850;  240.125;    0.000
604.445; 1894.850;  198.125;    0.000
604.568; 1861.850;  230.125;    0.000
604.690; 1875.850;  225.125;    0.000
604.813; 1939.850;  248.125;    0.000
604.935; 1972.850;  204.125;    0.000
605.058; 1862.850;  191.125;    0.000
605.180; 1940.850;  237.125;    0.000
605.303; 1943.850;  224.125;    0.000
605.425; 1963.850;  244.125;    0.000
605.547; 1933.850;  268.125;    0.000
605.670; 1904.850;  211.125;    0.000
605.792; 1871.850;  266.125;    0.000
605.915; 1909.850;  202.125;    0.000
606.037; 1877.850;  236.125;    0.000
606.159; 1936.850;  234.125;    0.000
606.282; 1885.850;  223.125;    0.000
606.404; 1897.850;  217.125;    0.000
606.526; 1882.850;  221.125;    0.000
606.648; 1798.850;  204.125;    0.000
606.771; 1817.850;  265.125;    0.000
606.893; 1848.850;  211.125;    0.000
607.015; 1896.850;  206.125;    0.000
607.137; 1836.850;  222.125;    0.000
607.260; 1900.850;  228.125;    0.000
607.382; 1892.850;  202.125;    0.000
607.504; 1875.850;  257.125;    0.000
607.626; 1915.850;  249.125;    0.000
607.748; 1931.850;  233.125;    0.000
607.870; 1809.850;  222.125;    0.000
607.992; 1797.850;  227.125;    0.000
608.114; 1843.850;  228.125;    0.000
608.237; 1911.850;  254.125;    0.000
608.359; 1865.850;  216.125;    0.000
608.481; 1834.850;  197.125;    0.000
608.603; 1930.850;  209.125;    0.000
608.725; 1807.850;  220.125;    0.000
608.847; 1905.850;  259.125;    0.000
608.969; 1878.850;  242.125;    0.000
609.090; 1874.850;  218.125;    0.000
609.212; 1788.850;  200.125;    0.000
609.334; 1849.850;  212.125;    0.000
609.456; 1882.850;  231.125;    0.000
609.578; 1880.850;  249.125;    0.000
609.700; 1788.850;  185.125;    0.000
609.822; 1751.850;  200.125;    0.000
609.944; 1786.850;  236.125;    0.000
610.065; 1762.850;  255.125;    0.000
610.187; 1829.850;  208.125;    0.000
610.309; 1809.850;  202.125;    0.000
610.431; 1797.850;  232.125;    0.000
610.552; 1888.850;  232.125;    0.000
610.674; 1880.850;  217.125;    0.000
610.796; 1778.850;  186.125;    0.000
610.918; 1772.850;  211.125;    0.000
611.039; 1770.850;  244.125;    0.000
611.161; 1891.850;  202.125;    0.000
611.282; 1859.850;  212.125;    0.000
611.404; 1912.850;  235.125;    0.000
611.526; 1829.850;  213.125;    0.000
611.647; 1850.850;  248.125;    0.000
611.769; 1771.850;  205.125;    0.000
611.890; 1807.850;  224.125;    0.000
612.012; 1833.850;  189.125;    0.000
612.133; 1802.850;  186.125;    0.000
612.255; 1818.850;  246.125;    0.000
612.377; 1895.850;  230.125;    0.000
612.498; 1839.850;  196.125;    0.000
612.619; 1872.850;  234.125;    0.000
612.741; 1828.850;  221.125;    0.000
612.862; 1852.850;  227.125;    0.000
612.984; 1777.850;  189.125;    0.000
613.105; 1801.850;  232.125;    0.000
613.226; 1795.850;  199.125;    0.000
613.348; 1831.850;  260.125;    0.000
613.469; 1817.850;  217.125;    0.000
613.590; 1798.850;  236.125;    0.000
613.712; 1796.850;  226.125;    0.000
613.833; 1799.850;  231.125;    0.000
613.954; 1805.850;  236.125;    0.000
614.076; 1764.850;  236.125;    0.000
614.197; 1732.850;  228.125;    0.000
614.318; 1843.850;  207.125;    0.000
614.439; 1817.850;  237.125;    0.000
614.560; 1836.850;  202.125;    0.000
614.682; 1765.850;  230.125;    0.000
614.803; 1823.850;  236.125;    0.000
614.924; 1827.850;  257.125;    0.000
615.045; 1792.850;  228.125;    0.000
615.166; 1795.850;  221.125;    0.000
615.287; 1832.850;  199.125;    0.000
615.408; 2037.850;  228.125;    0.000
615.529; 2041.850;  200.125;    0.000
615.650; 1947.850;  224.125;    0.000
615.771; 1839.850;  202.125;    0.000
615.892; 1893.850;  215.125;    0.000
616.013; 2100.850;  246.125;    0.000
616.134; 2278.850;  210.125;    0.000
616.255; 2259.850;  232.125;    0.000
616.376; 1957.850;  241.125;    0.000
616.497; 1908.850;  213.125;    0.000
616.618; 1869.850;  171.125;    0.000
616.739; 1902.850;  221.125;    0.000
616.860; 1953.850;  244.125;    0.000
616.981; 1884.850;  240.125;    0.000
617.102; 1883.850;  234.125;    0.000
617.222; 1898.850;  265.125;    0.000
617.343; 1772.850;  206.125;    0.000
617.464; 1856.850;  246.125;    0.000
617.585; 1793.850;  256.125;    0.000
617.705; 1911.850;  249.125;    0.000
617.826; 1790.850;  218.125;    0.000
617.947; 1777.850;  225.125;    0.000
618.068; 1791.850;  199.125;    0.000
618.188; 1780.850;  202.125;    0.000
618.309; 1785.850;  220.125;    0.000
618.430; 1836.850;  229.125;    0.000
618.550; 1746.850;  252.125;    0.000
618.671; 1733.850;  233.125;    0.000
618.791; 1831.850;  227.125;    0.000
618.912; 1804.850;  236.125;    0.000
619.033; 1731.850;  220.125;    0.000
619.153; 1876.850;  228.125;    0.000
619.274; 1732.850;  208.125;    0.000
619.394; 1765.850;  255.125;    0.000
619.515; 1707.850;  206.125;    0.000
619.635; 1823.850;  204.125;    0.000
619.756; 1715.850;  252.125;    0.000
619.876; 1669.850;  238.125;    0.000
619.996; 1754.850;  249.125;    0.000
620.117; 1769.850;  223.125;    0.000
620.237; 1729.850;  210.125;    0.000
620.358; 1741.850;  264.125;    0.000
620.478; 1752.850;  263.125;    0.000
620.598; 1742.850;  238.125;    0.000
620.719; 1738.850;  225.125;    0.000
620.839; 1668.850;  259.125;    0.000
620.959; 1762.850;  218.125;    0.000
621.079; 1737.850;  253.125;    0.000
621.200; 1732.850;  245.125;    0.000
621.320; 1742.850;  254.125;    0.000
621.440; 1745.850;  233.125;    0.000
621.560; 1760.850;  235.125;    0.000
621.681; 1672.850;  234.125;    0.000
621.801; 1725.850;  240.125;    0.000
621.921; 1714.850;  239.125;    0.000
622.041; 1792.850;  288.125;    0.000
622.161; 1717.850;  229.125;    0.000
622.281; 1713.850;  223.125;    0.000
622.401; 1688.850;  240.125;    0.000
622.521; 1804.850;  267.125;    0.000
622.641; 1723.850;  226.125;    0.000
622.761; 1832.850;  252.125;    0.000
622.882; 1726.850;  207.125;    0.000
623.002; 1717.850;  226.125;    0.000
623.121; 1699.850;  207.125;    0.000
623.241; 1805.850;  215.125;    0.000
623.361; 1589.850;  222.125;    0.000
623.481; 1606.850;  187.125;    0.000
623.601; 1710.850;  283.125;    0.000
623.721; 1733.850;  283.125;    0.000
623.841; 1690.850;  233.125;    0.000
623.961; 1730.850;  215.125;    0.000
624.081; 1610.850;  219.125;    0.000
624.201; 1674.850;  221.125;    0.000
624.320; 1696.850;  215.125;    0.000
624.440; 1678.850;  222.125;    0.000
624.560; 1728.850;  231.125;    0.000
624.680; 1674.850;  225.125;    0.000
624.799; 1662.850;  230.125;    0.000
624.919; 1697.850;  243.125;    0.000
625.039; 1666.850;  203.125;    0.000
625.159; 1703.850;  257.125;    0.000
625.278; 1592.850;  230.125;    0.000
625.398; 1662.850;  195.125;    0.000
625.518; 1648.850;  211.125;    0.000
625.637; 1752.850;  267.125;    0.000
625.757; 1609.850;  228.125;    0.000
625.876; 1633.850;  231.125;    0.000
625.996; 1722.850;  219.125;    0.000
626.115; 1675.850;  235.125;    0.000
626.235; 1673.850;  199.125;    0.000
626.354; 1594.850;  226.125;    0.000
626.474; 1622.850;  225.125;    0.000
626.594; 1634.850;  223.125;    0.000
626.713; 1613.850;  231.125;    0.000
626.832; 1670.850;  287.125;    0.000
626.952; 1648.850;  251.125;    0.000
627.071; 1626.850;  254.125;    0.000
627.191; 1568.850;  193.125;    0.000
627.310; 1656.850;  213.125;    0.000
627.429; 1666.850;  259.125;    0.000
627.549; 1563.850;  243.125;    0.000
627.668; 1630.850;  181.125;    0.000
627.787; 1639.850;  232.125;    0.000
627.907; 1611.850;  222.125;    0.000
628.026; 1734.850;  219.125;    0.000
628.145; 1617.850;  201.125;    0.000
628.264; 1618.850;  198.125;    0.000
628.384; 1665.850;  208.125;    0.000
628.503; 1575.850;  251.125;    0.000
628.622; 1640.850;  195.125;    0.000
628.741; 1592.850;  180.125;    0.000
628.860; 1662.850;  235.125;    0.000
628.980; 1638.850;  222.125;    0.000
629.099; 1607.850;  237.125;    0.000
629.218; 1637.850;  175.125;    0.000
629.337; 1669.850;  194.125;    0.000
629.456; 1598.850;  225.125;    0.000
629.575; 1700.850;  239.125;    0.000
629.694; 1609.850;  230.125;    0.000
629.813; 1592.850;  197.125;    0.000
629.932; 1598.850;  225.125;    0.000
630.051; 1670.850;  238.125;    0.000
630.170; 1645.850;  233.125;    0.000
630.289; 1620.850;  231.125;    0.000
630.408; 1575.850;  204.125;    0.000
630.527; 1670.850;  262.125;    0.000
630.646; 1558.850;  181.125;    0.000
630.764; 1576.850;  218.125;    0.000
630.883; 1635.850;  215.125;    0.000
631.002; 1581.850;  224.125;    0.000
631.121; 1644.850;  209.125;    0.000
631.240; 1644.850;  230.125;    0.000
631.359; 1687.850;  235.125;    0.000
631.477; 1603.850;  223.125;    0.000
631.596; 1724.850;  218.125;    0.000
631.715; 1685.850;  234.125;    0.000
631.834; 1541.850;  215.125;    0.000
631.952; 1569.850;  243.125;    0.000
632.071; 1599.850;  219.125;    0.000
632.190; 1599.850;  235.125;    0.000
632.308; 1634.850;  239.125;    0.000
632.427; 1596.850;  211.125;    0.000
632.546; 1664.850;  233.125;    0.000
632.664; 1601.850;  219.125;    0.000
632.783; 1675.850;  203.125;    0.000
632.901; 1636.850;  221.125;    0.000
633.020; 1623.850;  197.125;    0.000
633.138; 1625.850;  244.125;    0.000
633.257; 1700.850;  205.125;    0.000
633.375; 1689.850;  245.125;    0.000
633.494; 1591.850;  218.125;    0.000
633.612; 1625.850;  222.125;    0.000
633.731; 1610.850;  212.125;    0.000
633.849; 1589.850;  218.125;    0.000
633.968; 1592.850;  236.125;    0.000
634.086; 1621.850;  233.125;    0.000
634.204; 1682.850;  215.125;    0.000
634.323; 1616.850;  230.125;    0.000
634.441; 1612.850;  235.125;    0.000
634.559; 1623.850;  202.125;    0.000
634.678; 1568.850;  218.125;    0.000
634.796; 1604.850;  203.125;    0.000
634.914; 1565.850;  227.125;    0.000
635.032; 1581.850;  279.125;    0.000
635.151; 1597.850;  221.125;    0.000
635.269; 1641.850;  207.125;    0.000
635.387; 1549.850;  195.125;    0.000
635.505; 1538.850;  243.125;    0.000
635.623; 1660.850;  269.125;    0.000
635.742; 1556.850;  232.125;    0.000
635.860; 1522.850;  243.125;    0.000
635.978; 1584.850;  215.125;    0.000
636.096; 1580.850;  225.125;    0.000
636.214; 1615.850;  244.125;    0.000
636.332; 1553.850;  226.125;    0.000
636.450; 1608.850;  227.125;    0.000
636.568; 1567.850;  225.125;    0.000
636.686; 1529.850;  194.125;    0.000
636.804; 1533.850;  234.125;    0.000
636.922; 1546.850;  177.125;    0.000
637.040; 1575.850;  225.125;    0.000
637.158; 1555.850;  194.125;    0.000
637.276; 1618.850;  219.125;    0.000
637.394; 1606.850;  219.125;    0.000
637.512; 1524.850;  210.125;    0.000
637.629; 1615.850;  242.125;    0.000
637.747; 1567.850;  193.125;    0.000
637.865; 1554.850;  219.125;    0.000
637.983; 1542.850;  251.125;    0.000
638.101; 1533.850;  221.125;    0.000
638.218; 1563.850;  193.125;    0.000
638.336; 1543.850;  224.125;    0.000
638.454; 1546.850;  227.125;    0.000
638.572; 1622.850;  245.125;    0.000
638.689; 1558.850;  222.125;    0.000
638.807; 1547.850;  244.125;    0.000
638.925; 1627.850;  238.125;    0.000
639.042; 1522.850;  213.125;    0.000
639.160; 1590.850;  186.125;    0.000
639.278; 1574.850;  203.125;    0.000
639.395; 1607.850;  270.125;    0.000
639.513; 1519.850;  227.125;    0.000
639.630; 1576.850;  200.125;    0.000
639.748; 1560.850;  199.125;    0.000
639.865; 1614.850;  233.125;    0.000
639.983; 1555.850;  181.125;    0.000
640.100; 1537.850;  219.125;    0.000
640.218; 1559.850;  234.125;    0.000
640.335; 1543.850;  233.125;    0.000
640.453; 1568.850;  202.125;    0.000
640.570; 1531.850;  214.125;    0.000
640.688; 1568.850;  215.125;    0.000
640.805; 1567.850;  229.125;    0.000
640.922; 1647.850;  244.125;    0.000
641.040; 1565.850;  233.125;    0.000
641.157; 1511.850;  199.125;    0.000
641.274; 1559.850;  205.125;    0.000
641.391; 1575.850;  244.125;    0.000
641.509; 1579.850;  184.125;    0.000
641.626; 1574.850;  244.125;    0.000
641.743; 1567.850;  221.125;    0.000
641.860; 1623.850;  206.125;    0.000
641.978; 1543.850;  272.125;    0.000
642.095; 1563.850;  218.125;    0.000
642.212; 1572.850;  208.125;    0.000
642.329; 1581.850;  218.125;    0.000
642.446; 1523.850;  197.125;    0.000
642.563; 1589.850;  214.125;    0.000
642.681; 1491.850;  203.125;    0.000
642.798; 1539.850;  236.125;    0.000
642.915; 1542.850;  191.125;    0.000
643.032; 1603.850;  226.125;    0.000
643.149; 1546.850;  231.125;    0.000
643.266; 1565.850;  213.125;    0.000
643.383; 1561.850;  240.125;    0.000
643.500; 1582.850;  185.125;    0.000
643.617; 1567.850;  229.125;    0.000
643.734; 1506.850;  205.125;    0.000
643.850; 1642.850;  222.125;    0.000
643.967; 1640.850;  202.125;    0.000
644.084; 1598.850;  264.125;    0.000
644.201; 1583.850;  214.125;    0.000
644.318; 1574.850;  206.125;    0.000
644.435; 1598.850;  225.125;    0.000
644.552; 1515.850;  203.125;    0.000
644.668; 1582.850;  252.125;    0.000
644.785; 1681.850;  213.125;    0.000
644.902; 1620.850;  233.125;    0.000
645.019; 1594.850;  220.125;    0.000
645.135; 1643.850;  225.125;    0.000
645.252; 1508.850;  218.125;    0.000
645.369; 1530.850;  214.125;    0.000
645.485; 1553.850;  210.125;    0.000
645.602; 1582.850;  198.125;    0.000
645.719; 1651.850;  228.125;    0.000
645.835; 1705.850;  209.125;    0.000
645.952; 1644.850;  213.125;    0.000
646.068; 1658.850;  241.125;    0.000
646.185; 1576.850;  219.125;    0.000
646.302; 1673.850;  246.125;    0.000
646.418; 1682.850;  228.125;    0.000
646.535; 1653.850;  256.125;    0.000
646.651; 1598.850;  222.125;    0.000
646.768; 1627.850;  203.125;    0.000
646.884; 1664.850;  199.125;    0.000
647.000; 1678.850;  194.125;    0.000
647.117; 1658.850;  214.125;    0.000
647.233; 1706.850;  209.125;    0.000
647.350; 1653.850;  235.125;    0.000
647.466; 1789.850;  237.125;    0.000
647.582; 1670.850;  231.125;    0.000
647.699; 1776.850;  219.125;    0.000
647.815; 1754.850;  200.125;    0.000
647.931; 1702.850;  173.125;    0.000
648.047; 1620.850;  184.125;    0.000
648.164; 1672.850;  199.125;    0.000
648.280; 1747.850;  209.125;    0.000
648.396; 1706.850;  220.125;    0.000
648.512; 1800.850;  212.125;    0.000
648.629; 1623.850;  214.125;    0.000
648.745; 1667.850;  197.125;    0.000
648.861; 1763.850;  228.125;    0.000
648.977; 1718.850;  238.125;    0.000
649.093; 1679.850;  208.125;    0.000
649.209; 1769.850;  179.125;    0.000
649.325; 1855.850;  256.125;    0.000
649.441; 1727.850;  224.125;    0.000
649.557; 1798.850;  247.125;    0.000
649.673; 1799.850;  214.125;    0.000
649.789; 1784.850;  213.125;    0.000
649.905; 1733.850;  170.125;    0.000
650.021; 1805.850;  236.125;    0.000
650.137; 1758.850;  229.125;    0.000
650.253; 1823.850;  207.125;    0.000
650.369; 1745.850;  198.125;    0.000
650.485; 1786.850;  225.125;    0.000
650.601; 1890.850;  260.125;    0.000
650.717; 1800.850;  196.125;    0.000
650.833; 1863.850;  219.125;    0.000
650.948; 1844.850;  203.125;    0.000
651.064; 1878.850;  232.125;    0.000
651.180; 1874.850;  252.125;    0.000
651.296; 1859.850;  190.125;    0.000
651.411; 1893.850;  235.125;    0.000
651.527; 1943.850;  227.125;    0.000
651.643; 1934.850;  238.125;    0.000
651.759; 1968.850;  260.125;    0.000
651.874; 1943.850;  217.125;    0.000
651.990; 1946.850;  239.125;    0.000
652.105; 1917.850;  215.125;    0.000
652.221; 1938.850;  237.125;    0.000
652.337; 1997.850;  238.125;    0.000
652.452; 1957.850;  230.125;    0.000
652.568; 2020.850;  201.125;    0.000
652.683; 2012.850;  243.125;    0.000
652.799; 2016.850;  218.125;    0.000
652.914; 1938.850;  189.125;    0.000
653.030; 2082.850;  191.125;    0.000
653.145; 2083.850;  240.125;    0.000
653.261; 2059.850;  225.125;    0.000
653.376; 2035.850;  241.125;    0.000
653.492; 2140.850;  188.125;    0.000
653.607; 2124.850;  219.125;    0.000
653.722; 2223.850;  268.125;    0.000
653.838; 2289.850;  262.125;    0.000
653.953; 2205.850;  188.125;    0.000
654.068; 2307.850;  244.125;    0.000
654.184; 2291.850;  247.125;    0.000
654.299; 2475.850;  228.125;    0.000
654.414; 2414.850;  181.125;    0.000
654.530; 2370.850;  210.125;    0.000
654.645; 2459.850;  240.125;    0.000
654.760; 2531.850;  219.125;    0.000
654.875; 2497.850;  178.125;    0.000
654.990; 2682.850;  222.125;    0.000
655.106; 2656.850;  227.125;    0.000
655.221; 2803.850;  270.125;    0.000
655.336; 2803.850;  199.125;    0.000
655.451; 2932.850;  235.125;    0.000
655.566; 2920.850;  251.125;    0.000
655.681; 3117.850;  253.125;    0.000
655.796; 3119.850;  207.125;    0.000
655.911; 3183.850;  213.125;    0.000
656.026; 3309.850;  247.125;    0.000
656.141; 3481.850;  209.125;    0.000
656.256; 3618.850;  226.125;    0.000
656.371; 3575.850;  201.125;    0.000
656.486; 3691.850;  196.125;    0.000
656.601; 3606.850;  239.125;    0.000
656.716; 3476.850;  234.125;    0.000
656.831; 3496.850;  223.125;    0.000
656.946; 3399.850;  246.125;    0.000
657.060; 3307.850;  230.125;    0.000
657.175; 3186.850;  207.125;    0.000
657.290; 3103.850;  213.125;    0.000
657.405; 3197.850;  319.125;    0.000
657.520; 2963.850;  241.125;    0.000
657.634; 3005.850;  235.125;    0.000
657.749; 2820.850;  275.125;    0.000
657.864; 2799.850;  210.125;    0.000
657.979; 2714.850;  227.125;    0.000
658.093; 2765.850;  206.125;    0.000
658.208; 2652.850;  217.125;    0.000
658.323; 2685.850;  227.125;    0.000
658.437; 2625.850;  217.125;    0.000
658.552; 2602.850;  237.125;    0.000
658.666; 2504.850;  233.125;    0.000
658.781; 2559.850;  248.125;    0.000
658.895; 2444.850;  233.125;    0.000
659.010; 2352.850;  238.125;    0.000
659.125; 2410.850;  206.125;    0.000
659.239; 2345.850;  220.125;    0.000
659.353; 2313.850;  236.125;    0.000
659.468; 2235.850;  238.125;    0.000
659.582; 2269.850;  275.125;    0.000
659.697; 2220.850;  239.125;    0.000
659.811; 2182.850;  232.125;    0.000
659.926; 2196.850;  230.125;    0.000
660.040; 2195.850;  257.125;    0.000
660.154; 2120.850;  221.125;    0.000
660.269; 2067.850;  219.125;    0.000
660.383; 2126.850;  228.125;    0.000
660.497; 2053.850;  243.125;    0.000
660.612; 2119.850;  238.125;    0.000
660.726; 2157.850;  260.125;    0.000
660.840; 2025.850;  239.125;    0.000
660.954; 2034.850;  236.125;    0.000
661.068; 1968.850;  239.125;    0.000
661.183; 1943.850;  245.125;    0.000
661.297; 1916.850;  198.125;    0.000
661.411; 1852.850;  203.125;    0.000
661.525; 1946.850;  244.125;    0.000
661.639; 1923.850;  229.125;    0.000
661.753; 1859.850;  238.125;    0.000
661.867; 1871.850;  237.125;    0.000
661.981; 1807.850;  219.125;    0.000
662.095; 1854.850;  232.125;    0.000
662.209; 1755.850;  236.125;    0.000
662.323; 1851.850;  209.125;    0.000
662.437; 1819.850;  206.125;    0.000
662.551; 1781.850;  217.125;    0.000
662.665; 1752.850;  262.125;    0.000
662.779; 1813.850;  234.125;    0.000
662.893; 1763.850;  222.125;    0.000
663.007; 1743.850;  189.125;    0.000
663.121; 1758.850;  258.125;    0.000
663.235; 1713.850;  191.125;    0.000
663.349; 1706.850;  259.125;    0.000
663.462; 1687.850;  209.125;    0.000
663.576; 1679.850;  244.125;    0.000
663.690; 1672.850;  237.125;    0.000
663.804; 1584.850;  205.125;    0.000
663.917; 1634.850;  207.125;    0.000
664.031; 1691.850;  234.125;    0.000
664.145; 1689.850;  216.125;    0.000
664.258; 1629.850;  202.125;    0.000
664.372; 1635.850;  198.125;    0.000
664.486; 1586.850;  181.125;    0.000
664.599; 1691.850;  229.125;    0.000
664.713; 1574.850;  266.125;    0.000
664.827; 1574.850;  185.125;    0.000
664.940; 1571.850;  225.125;    0.000
665.054; 1520.850;  198.125;    0.000
665.167; 1525.850;  208.125;    0.000
665.281; 1552.850;  231.125;    0.000
665.394; 1568.850;  228.125;    0.000
665.508; 1605.850;  204.125;    0.000
665.621; 1505.850;  263.125;    0.000
665.735; 1560.850;  222.125;    0.000
665.848; 1591.850;  237.125;    0.000
665.961; 1523.850;  180.125;    0.000
666.075; 1556.850;  212.125;    0.000
666.188; 1536.850;  229.125;    0.000
666.301; 1541.850;  247.125;    0.000
666.415; 1535.850;  212.125;    0.000
666.528; 1497.850;  268.125;    0.000
666.641; 1491.850;  210.125;    0.000
666.755; 1521.850;  178.125;    0.000
666.868; 1442.850;  227.125;    0.000
666.981; 1473.850;  250.125;    0.000
667.094; 1360.850;  228.125;    0.000
667.207; 1547.850;  235.125;    0.000
667.321; 1410.850;  171.125;    0.000
667.434; 1494.850;  191.125;    0.000
667.547; 1480.850;  279.125;    0.000
667.660; 1405.850;  210.125;    0.000
667.773; 1401.850;  217.125;    0.000
667.886; 1458.850;  209.125;    0.000
667.999; 1462.850;  239.125;    0.000
668.112; 1407.850;  227.125;    0.000
668.225; 1454.850;  185.125;    0.000
668.338; 1400.850;  222.125;    0.000
668.451; 1332.850;  200.125;    0.000
668.564; 1406.850;  237.125;    0.000
668.677; 1457.850;  207.125;    0.000
668.790; 1392.850;  208.125;    0.000
668.903; 1421.850;  243.125;    0.000
669.016; 1363.850;  190.125;    0.000
669.129; 1420.850;  234.125;    0.000
669.242; 1348.850;  185.125;    0.000
669.354; 1357.850;  224.125;    0.000
669.467; 1308.850;  219.125;    0.000
669.580; 1303.850;  249.125;    0.000
669.693; 1387.850;  187.125;    0.000
669.806; 1333.850;  206.125;    0.000
669.918; 1352.850;  192.125;    0.000
670.031; 1377.850;  235.125;    0.000
670.144; 1361.850;  238.125;    0.000
670.256; 1309.850;  237.125;    0.000
670.369; 1320.850;  237.125;    0.000
670.482; 1357.850;  250.125;    0.000
670.594; 1332.850;  273.125;    0.000
670.707; 1290.850;  223.125;    0.000
670.820; 1332.850;  238.125;    0.000
670.932; 1277.850;  224.125;    0.000
671.045; 1350.850;  219.125;    0.000
671.157; 1347.850;  242.125;    0.000
671.270; 1370.850;  235.125;    0.000
671.382; 1265.850;  213.125;    0.000
671.495; 1356.850;  254.125;    0.000
671.607; 1302.850;  253.125;    0.000
671.720; 1319.850;  169.125;    0.000
671.832; 1276.850;  201.125;    0.000
671.944; 1250.850;  250.125;    0.000
672.057; 1241.850;  187.125;    0.000
672.169; 1332.850;  224.125;    0.000
672.281; 1275.850;  238.125;    0.000
672.394; 1333.850;  250.125;    0.000
672.506; 1280.850;  227.125;    0.000
672.618; 1342.850;  223.125;    0.000
672.731; 1307.850;  210.125;    0.000
672.843; 1283.850;  245.125;    0.000
672.955; 1350.850;  263.125;    0.000
673.067; 1335.850;  239.125;    0.000
673.180; 1284.850;  253.125;    0.000
673.292; 1275.850;  243.125;    0.000
673.404; 1235.850;  226.125;    0.000
673.516; 1254.850;  223.125;    0.000
673.628; 1237.850;  223.125;    0.000
673.740; 1265.850;  216.125;    0.000
673.852; 1261.850;  277.125;    0.000
673.964; 1305.850;  211.125;    0.000
674.076; 1274.850;  241.125;    0.000
674.188; 1224.850;  251.125;    0.000
674.300; 1270.850;  268.125;    0.000
674.412; 1238.850;  260.125;    0.000
674.524; 1268.850;  257.125;    0.000
674.636; 1290.850;  222.125;    0.000
674.748; 1215.850;  227.125;    0.000
674.860; 1282.850;  250.125;    0.000
674.972; 1266.850;  240.125;    0.000
675.084; 1251.850;  262.125;    0.000
675.196; 1276.850;  287.125;    0.000
675.307; 1229.850;  257.125;    0.000
675.419; 1250.850;  231.125;    0.000
675.531; 1262.850;  274.125;    0.000
675.643; 1197.850;  235.125;    0.000
675.755; 1259.850;  275.125;    0.000
675.866; 1202.850;  238.125;    0.000
675.978; 1244.850;  209.125;    0.000
676.090; 1232.850;  239.125;    0.000
676.201; 1184.850;  249.125;    0.000
676.313; 1257.850;  237.125;    0.000
676.425; 1214.850;  263.125;    0.000
676.536; 1205.850;  178.125;    0.000
676.648; 1203.850;  245.125;    0.000
676.759; 1269.850;  244.125;    0.000
676.871; 1214.850;  242.125;    0.000
676.983; 1234.850;  245.125;    0.000
677.094; 1222.850;  209.125;    0.000
677.206; 1231.850;  248.125;    0.000
677.317; 1168.850;  260.125;    0.000
677.429; 1162.850;  237.125;    0.000
677.540; 1178.850;  226.125;    0.000
677.651; 1128.850;  226.125;    0.000
677.763; 1205.850;  194.125;    0.000
677.874; 1159.850;  230.125;    0.000
677.986; 1172.850;  202.125;    0.000
678.097; 1106.850;  229.125;    0.000
678.208; 1187.850;  263.125;    0.000
678.320; 1134.850;  243.125;    0.000
678.431; 1163.850;  229.125;    0.000
678.542; 1185.850;  231.125;    0.000
678.653; 1120.850;  224.125;    0.000
678.765; 1175.850;  255.125;    0.000
678.876; 1176.850;  175.125;    0.000
678.987; 1131.850;  204.125;    0.000
679.098; 1092.850;  227.125;    0.000
679.209; 1153.850;  228.125;    0.000
679.320; 1073.850;  223.125;    0.000
679.432; 1131.850;  219.125;    0.000
679.543; 1097.850;  210.125;    0.000
679.654; 1071.850;  249.125;    0.000
679.765; 1188.850;  222.125;    0.000
679.876; 1110.850;  219.125;    0.000
679.987; 1107.850;  213.125;    0.000
680.098; 1114.850;  237.125;    0.000
680.209; 1121.850;  188.125;    0.000
680.320; 1103.850;  243.125;    0.000
680.431; 1130.850;  227.125;    0.000
680.542; 1109.850;  212.125;    0.000
680.653; 1158.850;  266.125;    0.000
680.763; 1100.850;  198.125;    0.000
680.874; 1115.850;  211.125;    0.000
680.985; 1076.850;  207.125;    0.000
681.096; 1124.850;  244.125;    0.000
681.207; 1122.850;  209.125;    0.000
681.318; 1107.850;  215.125;    0.000
681.428; 1129.850;  199.125;    0.000
681.539; 1101.850;  175.125;    0.000
681.650; 1035.850;  224.125;    0.000
681.760; 1080.850;  216.125;    0.000
681.871; 1057.850;  187.125;    0.000
681.982; 1182.850;  237.125;    0.000
682.093; 1148.850;  213.125;    0.000
682.203; 1101.850;  190.125;    0.000
682.314; 1177.850;  230.125;    0.000
682.424; 1122.850;  223.125;    0.000
682.535; 1116.850;  172.125;    0.000
682.646; 1169.850;  268.125;    0.000
682.756; 1154.850;  249.125;    0.000
682.867; 1158.850;  225.125;    0.000
682.977; 1062.850;  211.125;    0.000
683.088; 1091.850;  238.125;    0.000
683.198; 1096.850;  202.125;    0.000
683.308; 1088.850;  196.125;    0.000
683.419; 1068.850;  230.125;    0.000
683.529; 1146.850;  213.125;    0.000
683.640; 1091.850;  225.125;    0.000
683.750; 1085.850;  203.125;    0.000
683.860; 1127.850;  200.125;    0.000
683.971; 1133.850;  269.125;    0.000
684.081; 1154.850;  204.125;    0.000
684.191; 1227.850;  228.125;    0.000
684.301; 1006.850;  219.125;    0.000
684.412; 1131.850;  222.125;    0.000
684.522; 1078.850;  242.125;    0.000
684.632; 1118.850;  234.125;    0.000
684.742; 1149.850;  240.125;    0.000
684.852; 1072.850;  229.125;    0.000
684.963; 1083.850;  237.125;    0.000
685.073; 1066.850;  205.125;    0.000
685.183; 1106.850;  241.125;    0.000
685.293; 1032.850;  202.125;    0.000
685.403; 1129.850;  232.125;    0.000
685.513; 1107.850;  244.125;    0.000
685.623; 1148.850;  224.125;    0.000
685.733; 1056.850;  236.125;    0.000
685.843; 1097.850;  235.125;    0.000
685.953; 1128.850;  216.125;    0.000
686.063; 1065.850;  214.125;    0.000
686.173; 1079.850;  198.125;    0.000
686.283; 1123.850;  250.125;    0.000
686.393; 1052.850;  227.125;    0.000
686.503; 1117.850;  244.125;    0.000
686.612; 1174.850;  247.125;    0.000
686.722; 1117.850;  265.125;    0.000
686.832; 1123.850;  213.125;    0.000
686.942; 1151.850;  241.125;    0.000
687.052; 1074.850;  238.125;    0.000
687.161; 1072.850;  233.125;    0.000
687.271; 1056.850;  232.125;    0.000
687.381; 1075.850;  220.125;    0.000
687.491; 1033.850;  206.125;    0.000
687.600; 1108.850;  283.125;    0.000
687.710; 1165.850;  212.125;    0.000
687.820; 1141.850;  226.125;    0.000
687.929; 1123.850;  202.125;    0.000
688.039; 1102.850;  225.125;    0.000
688.148; 1091.850;  235.125;    0.000
688.258; 1084.850;  224.125;    0.000
688.367; 1090.850;  239.125;    0.000
688.477; 1067.850;  193.125;    0.000
688.586; 1040.850;  226.125;    0.000
688.696; 1101.850;  185.125;    0.000
688.805; 1051.850;  190.125;    0.000
688.915; 1040.850;  209.125;    0.000
689.024; 1023.850;  214.125;    0.000
689.134; 1127.850;  205.125;    0.000
689.243; 1000.850;  190.125;    0.000
689.352; 1119.850;  233.125;    0.000
689.462; 1029.850;  196.125;    0.000
689.571; 1033.850;  227.125;    0.000
689.680; 1041.850;  206.125;    0.000
689.790; 1071.850;  193.125;    0.000
689.899; 1047.850;  204.125;    0.000
690.008; 1106.850;  228.125;    0.000
690.117; 1004.850;  207.125;    0.000
690.227; 1014.850;  231.125;    0.000
690.336; 1041.850;  222.125;    0.000
690.445; 1037.850;  198.125;    0.000
690.554; 1040.850;  202.125;    0.000
690.663; 1105.850;  217.125;    0.000
690.772; 1054.850;  213.125;    0.000
690.881; 1094.850;  225.125;    0.000
690.990; 1078.850;  217.125;    0.000
691.099; 1097.850;  205.125;    0.000
691.209; 1014.850;  220.125;    0.000
691.318; 1086.850;  216.125;    0.000
691.427; 1088.850;  188.125;    0.000
691.536; 1078.850;  224.125;    0.000
691.644; 1050.850;  212.125;    0.000
691.753;  982.850;  216.125;    0.000
691.862; 1092.850;  250.125;    0.000
691.971; 1071.850;  210.125;    0.000
692.080; 1064.850;  232.125;    0.000
692.189; 1092.850;  218.125;    0.000
692.298; 1020.850;  220.125;    0.000
692.406; 1045.850;  261.125;    0.000
692.515; 1069.850;  253.125;    0.000
692.624; 1031.850;  224.125;    0.000
692.733;  961.850;  209.125;    0.000
692.842; 1051.850;  214.125;    0.000
692.950; 1068.850;  206.125;    0.000
693.059; 1010.850;  180.125;    0.000
693.168; 1093.850;  220.125;    0.000
693.276; 1056.850;  196.125;    0.000
693.385; 1009.850;  203.125;    0.000
693.494; 1041.850;  263.125;    0.000
693.602; 1022.850;  222.125;    0.000
693.711; 1018.850;  178.125;    0.000
693.819; 1083.850;  230.125;    0.000
693.928; 1046.850;  187.125;    0.000
694.036; 1070.850;  219.125;    0.000
694.145; 1004.850;  223.125;    0.000
694.253;  996.850;  241.125;    0.000
694.362; 1127.850;  229.125;    0.000
694.470; 1016.850;  223.125;    0.000
694.579; 1042.850;  195.125;    0.000
694.687; 1041.850;  257.125;    0.000
694.795; 1019.850;  230.125;    0.000
694.904;  991.850;  196.125;    0.000
695.012; 1093.850;  247.125;    0.000
695.120; 1062.850;  215.125;    0.000
695.229; 1056.850;  244.125;    0.000
695.337; 1001.850;  197.125;    0.000
695.445; 1057.850;  270.125;    0.000
695.553; 1028.850;  241.125;    0.000
695.662; 1046.850;  249.125;    0.000
695.770; 1013.850;  244.125;    0.000
695.878; 1062.850;  236.125;    0.000
695.986; 1024.850;  253.125;    0.000
696.094; 1029.850;  242.125;    0.000
696.202; 1012.850;  174.125;    0.000
696.310; 1062.850;  230.125;    0.000
696.419; 1062.850;  218.125;    0.000
696.527;  993.850;  226.125;    0.000
696.635; 1072.850;  217.125;    0.000
696.743; 1063.850;  221.125;    0.000
696.851; 1058.850;  259.125;    0.000
696.959; 1012.850;  245.125;    0.000
697.067;  980.850;  235.125;    0.000
697.174; 1053.850;  238.125;    0.000
697.282; 1039.850;  208.125;    0.000
697.390; 1054.850;  265.125;    0.000
697.498; 1071.850;  202.125;    0.000
697.606; 1001.850;  219.125;    0.000
697.714; 1022.850;  245.125;    0.000
697.822; 1029.850;  222.125;    0.000
697.929;  994.850;  194.125;    0.000
698.037; 1033.850;  223.125;    0.000
698.145;  994.850;  213.125;    0.000
698.253; 1068.850;  234.125;    0.000
698.360; 1052.850;  211.125;    0.000
698.468; 1022.850;  241.125;    0.000
698.576; 1088.850;  249.125;    0.000
698.683; 1100.850;  268.125;    0.000
698.791; 1077.850;  223.125;    0.000
698.899; 1003.850;  251.125;    0.000
699.006; 1056.850;  216.125;    0.000
699.114; 1051.850;  256.125;    0.000
699.221; 1045.850;  226.125;    0.000
699.329; 1018.850;  255.125;    0.000
699.436; 1073.850;  213.125;    0.000
699.544; 1021.850;  258.125;    0.000
699.651; 1005.850;  214.125;    0.000
699.759; 1020.850;  229.125;    0.000
699.866; 1004.850;  239.125;    0.000
699.974; 1012.850;  224.125;    0.000
700.081;  974.850;  227.125;    0.000
700.188; 1024.850;  267.125;    0.000
700.296; 1085.850;  222.125;    0.000
700.403; 1009.850;  225.125;    0.000
700.510; 1037.850;  248.125;    0.000
700.618; 1060.850;  223.125;    0.000
700.725; 1003.850;  243.125;    0.000
700.832; 1002.850;  239.125;    0.000
700.940; 1030.850;  284.125;    0.000
701.047; 1022.850;  216.125;    0.000
701.154;  985.850;  249.125;    0.000
701.261; 1033.850;  229.125;    0.000
701.368;  974.850;  247.125;    0.000
701.475;  984.850;  208.125;    0.000
701.582; 1088.850;  262.125;    0.000
701.690; 1020.850;  224.125;    0.000
701.797; 1012.850;  294.125;    0.000
701.904; 1066.850;  303.125;    0.000
702.011; 1073.850;  278.125;    0.000
702.118; 1019.850;  279.125;    0.000
702.225; 1095.850;  342.125;    0.000
702.332; 1091.850;  281.125;    0.000
702.439; 1056.850;  313.125;    0.000
702.546; 1090.850;  295.125;    0.000
702.652; 1071.850;  293.125;    0.000
702.759; 1169.850;  333.125;    0.000
702.866; 1099.850;  272.125;    0.000
702.973; 1123.850;  310.125;    0.000
703.080; 1060.850;  313.125;    0.000
703.187; 1117.850;  316.125;    0.000
703.294; 1080.850;  328.125;    0.000
703.400;  975.850;  312.125;    0.000
703.507;  421.850;  349.125;    0.000
703.614;  297.850;  298.125;    0.000
703.720;  306.850;  300.125;    0.000
703.827;  327.850;  346.125;    0.000
703.934;  323.850;  308.125;    0.000
704.040;  312.850;  300.125;    0.000
704.147;  346.850;  317.125;    0.000
704.254;  340.850;  350.125;    0.000
704.360;  319.850;  285.125;    0.000
704.467;  373.850;  334.125;    0.000
704.573;  307.850;  330.125;    0.000
704.680;  336.850;  312.125;    0.000
704.786;  337.850;  305.125;    0.000
704.893;  315.850;  330.125;    0.000
704.999;  334.850;  315.125;    0.000
705.106;  351.850;  327.125;    0.000

