
Integration time [ms]:   0.300
Averaging Nr. [scans]: 1
Smoothing Nr. [pixels]: 0
Data measured with spectrometer [name]: NIR
Wave   ;Sample   ;Dark     ;Reference
[nm]   ;[counts] ;[counts] ;[counts] 

691.496;  -56.975;  155.525;    0.000
691.696;  -51.975;  186.525;    0.000
691.896; -120.975;  113.525;    0.000
692.096;  -44.975;  169.525;    0.000
692.296; -128.975;  119.525;    0.000
692.496;  -26.975;  182.525;    0.000
692.695;  -81.975;  119.525;    0.000
692.895;  -20.975;  183.525;    0.000
693.095; -110.975;  119.525;    0.000
693.295;  -82.975;  156.525;    0.000
693.495;  -41.975;  145.525;    0.000
693.695;  -92.975;  144.525;    0.000
693.894;  -46.975;  174.525;    0.000
694.094;  -63.975;  148.525;    0.000
694.294;  -51.975;  114.525;    0.000
694.494;  123.025;  137.525;    0.000
694.693; 1501.025;  112.525;    0.000
694.893; 1658.025;   85.525;    0.000
695.093; 1680.025;  152.525;    0.000
695.293; 1680.025;  159.525;    0.000
695.492; 1691.025;  131.525;    0.000
695.692; 1660.025;  134.525;    0.000
695.891; 1731.025;  161.525;    0.000
696.091; 1768.025;  180.525;    0.000
696.291; 1722.025;  120.525;    0.000
696.490; 1711.025;  146.525;    0.000
696.690; 1760.025;  145.525;    0.000
696.889; 1705.025;  171.525;    0.000
697.089; 1814.025;   98.525;    0.000
697.288; 1791.025;  172.525;    0.000
697.488; 1723.025;  137.525;    0.000
697.687; 1796.025;  171.525;    0.000
697.887; 1814.025;  142.525;    0.000
698.086; 1709.025;  159.525;    0.000
698.286; 1755.025;  122.525;    0.000
698.485; 1825.025;  121.525;    0.000
698.684; 1768.025;   94.525;    0.000
698.884; 1745.025;  131.525;    0.000
699.083; 1778.025;  112.525;    0.000
699.282; 1721.025;  119.525;    0.000
699.482; 1832.025;  117.525;    0.000
699.681; 1726.025;  115.525;    0.000
699.880; 1730.025;  166.525;    0.000
700.080; 1767.025;  194.525;    0.000
700.279; 1756.025;   98.525;    0.000
700.478; 1824.025;  159.525;    0.000
700.677; 1885.025;  134.525;    0.000
700.877; 1791.025;  171.525;    0.000
701.076; 1895.025;  141.525;    0.000
701.275; 1772.025;  119.525;    0.000
701.474; 1786.025;  132.525;    0.000
701.673; 1796.025;  141.525;    0.000
701.872; 1845.025;  158.525;    0.000
702.071; 1777.025;  129.525;    0.000
702.271; 1858.025;  122.525;    0.000
702.470; 1921.025;  158.525;    0.000
702.669; 1772.025;  145.525;    0.000
702.868; 1904.025;  135.525;    0.000
703.067; 1866.025;  169.525;    0.000
703.266; 1817.025;  125.525;    0.000
703.465; 1952.025;  153.525;    0.000
703.664; 1890.025;  113.525;    0.000
703.863; 1886.025;  170.525;    0.000
704.062; 1827.025;  115.525;    0.000
704.260; 1856.025;  133.525;    0.000
704.459; 1860.025;  123.525;    0.000
704.658; 1793.025;  105.525;    0.000
704.857; 1877.025;  125.525;    0.000
705.056; 1789.025;  108.525;    0.000
705.255; 1760.025;  117.525;    0.000
705.454; 1868.025;  126.525;    0.000
705.652; 1926.025;  137.525;    0.000
705.851; 1894.025;   95.525;    0.000
706.050; 1900.025;  120.525;    0.000
706.249; 1790.025;   81.525;    0.000
706.447; 1868.025;  105.525;    0.000
706.646; 1849.025;  107.525;    0.000
706.845; 1907.025;  104.525;    0.000
707.043; 1922.025;  136.525;    0.000
707.242; 1905.025;   89.525;    0.000
707.441; 1892.025;  147.525;    0.000
707.639; 1946.025;  156.525;    0.000
707.838; 1851.025;  114.525;    0.000
708.037; 1923.025;  100.525;    0.000
708.235; 1964.025;  103.525;    0.000
708.434; 1852.025;  102.525;    0.000
708.632; 1861.025;  100.525;    0.000
708.831; 1989.025;  121.525;    0.000
709.029; 1889.025;  102.525;    0.000
709.228; 2018.025;   88.525;    0.000
709.426; 2018.025;  135.525;    0.000
709.625; 1882.025;  128.525;    0.000
709.823; 1950.025;  123.525;    0.000
710.022; 1980.025;  137.525;    0.000
710.220; 1949.025;  134.525;    0.000
710.418; 2035.025;  122.525;    0.000
710.617; 1971.025;   64.525;    0.000
710.815; 1901.025;   94.525;    0.000
711.013; 2010.025;  127.525;    0.000
711.212; 2058.025;  105.525;    0.000
711.410; 2017.025;  117.525;    0.000
711.608; 2007.025;  114.525;    0.000
711.807; 1972.025;  119.525;    0.000
712.005; 1943.025;   92.525;    0.000
712.203; 1941.025;   95.525;    0.000
712.401; 2004.025;  107.525;    0.000
712.599; 1965.025;  127.525;    0.000
712.798; 2032.025;  120.525;    0.000
712.996; 1897.025;   76.525;    0.000
713.194; 2030.025;  118.525;    0.000
713.392; 2034.025;   60.525;    0.000
713.590; 2056.025;   92.525;    0.000
713.788; 1980.025;  110.525;    0.000
713.986; 2072.025;  130.525;    0.000
714.184; 2067.025;   71.525;    0.000
714.382; 2053.025;   86.525;    0.000
714.580; 2040.025;   74.525;    0.000
714.778; 2066.025;  133.525;    0.000
714.976; 2120.025;   81.525;    0.000
715.174; 2231.025;  100.525;    0.000
715.372; 2194.025;  141.525;    0.000
715.570; 2302.025;   73.525;    0.000
715.768; 2347.025;  119.525;    0.000
715.966; 2422.025;   81.525;    0.000
716.164; 2401.025;  130.525;    0.000
716.362; 2401.025;  125.525;    0.000
716.560; 2357.025;  109.525;    0.000
716.758; 2203.025;   96.525;    0.000
716.955; 2329.025;   83.525;    0.000
717.153; 2202.025;   87.525;    0.000
717.351; 2278.025;  123.525;    0.000
717.549; 2196.025;  121.525;    0.000
717.746; 2293.025;  128.525;    0.000
717.944; 2186.025;  132.525;    0.000
718.142; 2225.025;  120.525;    0.000
718.340; 2189.025;   94.525;    0.000
718.537; 2196.025;   95.525;    0.000
718.735; 2270.025;  152.525;    0.000
718.933; 2255.025;  124.525;    0.000
719.130; 2222.025;  114.525;    0.000
719.328; 2246.025;   63.525;    0.000
719.525; 2216.025;  146.525;    0.000
719.723; 2243.025;   96.525;    0.000
719.920; 2221.025;  120.525;    0.000
720.118; 2223.025;   59.525;    0.000
720.316; 2195.025;  116.525;    0.000
720.513; 2200.025;  127.525;    0.000
720.711; 2217.025;  110.525;    0.000
720.908; 2260.025;   92.525;    0.000
721.105; 2257.025;  138.525;    0.000
721.303; 2211.025;   90.525;    0.000
721.500; 2196.025;  126.525;    0.000
721.698; 2218.025;  103.525;    0.000
721.895; 2270.025;  206.525;    0.000
722.092; 2220.025;   63.525;    0.000
722.290; 2267.025;  123.525;    0.000
722.487; 2218.025;  137.525;    0.000
722.684; 2211.025;  126.525;    0.000
722.882; 2185.025;  119.525;    0.000
723.079; 2324.025;  132.525;    0.000
723.276; 2265.025;   98.525;    0.000
723.473; 2217.025;   97.525;    0.000
723.671; 2223.025;   43.525;    0.000
723.868; 2292.025;  142.525;    0.000
724.065; 2310.025;  102.525;    0.000
724.262; 2256.025;  119.525;    0.000
724.459; 2308.025;   73.525;    0.000
724.656; 2323.025;  128.525;    0.000
724.854; 2302.025;  135.525;    0.000
725.051; 2273.025;   81.525;    0.000
725.248; 2288.025;   88.525;    0.000
725.445; 2270.025;  129.525;    0.000
725.642; 2285.025;   76.525;    0.000
725.839; 2351.025;  134.525;    0.000
726.036; 2192.025;  101.525;    0.000
726.233; 2258.025;   68.525;    0.000
726.430; 2227.025;  121.525;    0.000
726.627; 2294.025;  136.525;    0.000
726.824; 2307.025;   87.525;    0.000
727.021; 2292.025;  141.525;    0.000
727.218; 2205.025;   92.525;    0.000
727.414; 2357.025;  121.525;    0.000
727.611; 2321.025;  100.525;    0.000
727.808; 2383.025;  130.525;    0.000
728.005; 2376.025;   83.525;    0.000
728.202; 2310.025;  120.525;    0.000
728.399; 2384.025;   75.525;    0.000
728.595; 2244.025;  148.525;    0.000
728.792; 2327.025;   79.525;    0.000
728.989; 2286.025;   86.525;    0.000
729.186; 2401.025;   80.525;    0.000
729.382; 2370.025;   72.525;    0.000
729.579; 2392.025;  112.525;    0.000
729.776; 2315.025;  106.525;    0.000
729.972; 2355.025;   77.525;    0.000
730.169; 2332.025;  118.525;    0.000
730.366; 2305.025;   92.525;    0.000
730.562; 2372.025;  104.525;    0.000
730.759; 2319.025;   95.525;    0.000
730.955; 2361.025;   85.525;    0.000
731.152; 2294.025;   79.525;    0.000
731.348; 2336.025;   72.525;    0.000
731.545; 2316.025;   56.525;    0.000
731.741; 2373.025;  106.525;    0.000
731.938; 2410.025;  113.525;    0.000
732.134; 2325.025;  106.525;    0.000
732.331; 2338.025;   82.525;    0.000
732.527; 2392.025;   80.525;    0.000
732.724; 2416.025;   97.525;    0.000
732.920; 2375.025;  127.525;    0.000
733.116; 2302.025;  115.525;    0.000
733.313; 2297.025;  153.525;    0.000
733.509; 2454.025;   76.525;    0.000
733.705; 2434.025;  159.525;    0.000
733.902; 2333.025;   82.525;    0.000
734.098; 2345.025;   70.525;    0.000
734.294; 2378.025;  105.525;    0.000
734.490; 2435.025;  110.525;    0.000
734.687; 2413.025;  102.525;    0.000
734.883; 2376.025;   77.525;    0.000
735.079; 2392.025;   93.525;    0.000
735.275; 2427.025;  109.525;    0.000
735.471; 2365.025;   99.525;    0.000
735.667; 2384.025;  107.525;    0.000
735.863; 2402.025;   89.525;    0.000
736.060; 2464.025;  105.525;    0.000
736.256; 2533.025;  113.525;    0.000
736.452; 2338.025;   90.525;    0.000
736.648; 2396.025;   88.525;    0.000
736.844; 2485.025;  129.525;    0.000
737.040; 2514.025;  139.525;    0.000
737.236; 2450.025;  129.525;    0.000
737.432; 2529.025;   67.525;    0.000
737.628; 2474.025;  104.525;    0.000
737.824; 2434.025;  111.525;    0.000
738.019; 2471.025;  116.525;    0.000
738.215; 2487.025;  135.525;    0.000
738.411; 2484.025;  118.525;    0.000
738.607; 2423.025;   58.525;    0.000
738.803; 2481.025;   32.525;    0.000
738.999; 2523.025;  120.525;    0.000
739.195; 2477.025;   76.525;    0.000
739.390; 2476.025;  119.525;    0.000
739.586; 2445.025;   83.525;    0.000
739.782; 2558.025;  134.525;    0.000
739.978; 2595.025;  122.525;    0.000
740.173; 2542.025;   96.525;    0.000
740.369; 2562.025;   86.525;    0.000
740.565; 2494.025;  122.525;    0.000
740.760; 2667.025;   99.525;    0.000
740.956; 2607.025;  137.525;    0.000
741.152; 2611.025;  108.525;    0.000
741.347; 2667.025;   65.525;    0.000
741.543; 2545.025;   73.525;    0.000
741.738; 2643.025;  142.525;    0.000
741.934; 2767.025;  131.525;    0.000
742.129; 2771.025;   66.525;    0.000
742.325; 2913.025;  143.525;    0.000
742.520; 3258.025;  119.525;    0.000
742.716; 3105.025;  109.525;    0.000
742.911; 3035.025;   62.525;    0.000
743.107; 3025.025;  119.525;    0.000
743.302; 2972.025;   78.525;    0.000
743.498; 3097.025;  130.525;    0.000
743.693; 2958.025;   75.525;    0.000
743.888; 3237.025;  135.525;    0.000
744.084; 3360.025;  106.525;    0.000
744.279; 3824.025;  101.525;    0.000
744.474; 3980.025;   91.525;    0.000
744.670; 3727.025;  144.525;    0.000
744.865; 3414.025;  128.525;    0.000
745.060; 3334.025;   63.525;    0.000
745.255; 3266.025;  155.525;    0.000
745.451; 3334.025;  110.525;    0.000
745.646; 3251.025;  150.525;    0.000
745.841; 3221.025;  128.525;    0.000
746.036; 3299.025;  110.525;    0.000
746.231; 3267.025;  126.525;    0.000
746.426; 3449.025;   83.525;    0.000
746.622; 3741.025;  157.525;    0.000
746.817; 4326.025;  112.525;    0.000
747.012; 4729.025;  115.525;    0.000
747.207; 4501.025;  161.525;    0.000
747.402; 4184.025;   88.525;    0.000
747.597; 3902.025;  103.525;    0.000
747.792; 3849.025;  152.525;    0.000
747.987; 3788.025;   80.525;    0.000
748.182; 3654.025;   89.525;    0.000
748.377; 3494.025;  104.525;    0.000
748.572; 3429.025;  138.525;    0.000
748.767; 3222.025;  100.525;    0.000
748.961; 3288.025;  106.525;    0.000
749.156; 3301.025;  113.525;    0.000
749.351; 3101.025;  116.525;    0.000
749.546; 3090.025;  107.525;    0.000
749.741; 3127.025;  102.525;    0.000
749.936; 3146.025;  105.525;    0.000
750.130; 3044.025;  111.525;    0.000
750.325; 3002.025;   72.525;    0.000
750.520; 3103.025;   96.525;    0.000
750.715; 3035.025;  135.525;    0.000
750.909; 2981.025;  107.525;    0.000
751.104; 2950.025;  106.525;    0.000
751.299; 2991.025;  144.525;    0.000
751.493; 3015.025;  116.525;    0.000
751.688; 2957.025;   96.525;    0.000
751.882; 2780.025;   92.525;    0.000
752.077; 2999.025;  109.525;    0.000
752.272; 2975.025;   96.525;    0.000
752.466; 2827.025;  110.525;    0.000
752.661; 2804.025;  120.525;    0.000
752.855; 2742.025;   70.525;    0.000
753.050; 2791.025;  129.525;    0.000
753.244; 2893.025;  126.525;    0.000
753.439; 2799.025;  115.525;    0.000
753.633; 2796.025;  120.525;    0.000
753.828; 2773.025;  129.525;    0.000
754.022; 2757.025;  139.525;    0.000
754.216; 2716.025;  121.525;    0.000
754.411; 2753.025;  108.525;    0.000
754.605; 2806.025;   94.525;    0.000
754.799; 2758.025;  125.525;    0.000
754.994; 2728.025;  160.525;    0.000
755.188; 2780.025;  151.525;    0.000
755.382; 2906.025;  102.525;    0.000
755.576; 2759.025;  103.525;    0.000
755.771; 2757.025;   99.525;    0.000
755.965; 2868.025;  158.525;    0.000
756.159; 2632.025;   96.525;    0.000
756.353; 2715.025;  157.525;    0.000
756.547; 2741.025;  132.525;    0.000
756.742; 2756.025;  106.525;    0.000
756.936; 2700.025;  113.525;    0.000
757.130; 2638.025;  114.525;    0.000
757.324; 2727.025;  111.525;    0.000
757.518; 2710.025;  142.525;    0.000
757.712; 2858.025;  137.525;    0.000
757.906; 2716.025;   93.525;    0.000
758.100; 2807.025;  119.525;    0.000
758.294; 2729.025;  132.525;    0.000
758.488; 2731.025;  153.525;    0.000
758.682; 2763.025;  101.525;    0.000
758.876; 2744.025;  129.525;    0.000
759.070; 2757.025;  168.525;    0.000
759.264; 2774.025;   96.525;    0.000
759.458; 2793.025;  117.525;    0.000
759.651; 2579.025;  135.525;    0.000
759.845; 2676.025;  127.525;    0.000
760.039; 2722.025;  120.525;    0.000
760.233; 2765.025;  124.525;    0.000
760.427; 2728.025;  115.525;    0.000
760.620; 2745.025;  130.525;    0.000
760.814; 2682.025;  102.525;    0.000
761.008; 2715.025;  174.525;    0.000
761.202; 2688.025;  132.525;    0.000
761.395; 2824.025;  126.525;    0.000
761.589; 2736.025;  133.525;    0.000
761.783; 2757.025;  147.525;    0.000
761.976; 2799.025;  147.525;    0.000
762.170; 2800.025;  174.525;    0.000
762.363; 2742.025;   97.525;    0.000
762.557; 2780.025;  141.525;    0.000
762.750; 2760.025;  112.525;    0.000
762.944; 2775.025;  110.525;    0.000
763.138; 2794.025;  125.525;    0.000
763.331; 2729.025;  101.525;    0.000
763.524; 2842.025;  101.525;    0.000
763.718; 2846.025;  156.525;    0.000
763.911; 2793.025;  143.525;    0.000
764.105; 2769.025;  139.525;    0.000
764.298; 2692.025;   89.525;    0.000
764.492; 2933.025;  111.525;    0.000
764.685; 2839.025;  136.525;    0.000
764.878; 2776.025;  146.525;    0.000
765.072; 2720.025;  110.525;    0.000
765.265; 2796.025;  141.525;    0.000
765.458; 2846.025;   82.525;    0.000
765.651; 2769.025;  144.525;    0.000
765.845; 2740.025;   79.525;    0.000
766.038; 2786.025;  123.525;    0.000
766.231; 3028.025;  125.525;    0.000
766.424; 3999.025;  131.525;    0.000
766.617; 4300.025;   62.525;    0.000
766.811; 3036.025;  142.525;    0.000
767.004; 2807.025;  134.525;    0.000
767.197; 2934.025;  147.525;    0.000
767.390; 2797.025;  100.525;    0.000
767.583; 2986.025;  121.525;    0.000
767.776; 2918.025;   91.525;    0.000
767.969; 2903.025;  113.525;    0.000
768.162; 2899.025;  170.525;    0.000
768.355; 2888.025;  134.525;    0.000
768.548; 2917.025;  177.525;    0.000
768.741; 2903.025;   96.525;    0.000
768.934; 2973.025;  143.525;    0.000
769.127; 2999.025;  147.525;    0.000
769.320; 2914.025;   93.525;    0.000
769.513; 3036.025;  137.525;    0.000
769.706; 3069.025;   96.525;    0.000
769.898; 4018.025;  118.525;    0.000
770.091; 3511.025;  138.525;    0.000
770.284; 3027.025;  133.525;    0.000
770.477; 3046.025;  137.525;    0.000
770.670; 2936.025;  124.525;    0.000
770.862; 3069.025;  125.525;    0.000
771.055; 3071.025;  135.525;    0.000
771.248; 3071.025;  109.525;    0.000
771.441; 3121.025;  141.525;    0.000
771.633; 3114.025;  142.525;    0.000
771.826; 3070.025;  123.525;    0.000
772.018; 3187.025;  136.525;    0.000
772.211; 3201.025;  145.525;    0.000
772.404; 3242.025;  127.525;    0.000
772.596; 3181.025;  193.525;    0.000
772.789; 3261.025;   64.525;    0.000
772.981; 3287.025;  142.525;    0.000
773.174; 3326.025;  105.525;    0.000
773.366; 3485.025;  166.525;    0.000
773.559; 3422.025;  125.525;    0.000
773.751; 3542.025;  126.525;    0.000
773.944; 3625.025;  147.525;    0.000
774.136; 3519.025;  155.525;    0.000
774.329; 3652.025;  127.525;    0.000
774.521; 3753.025;  133.525;    0.000
774.713; 3887.025;  139.525;    0.000
774.906; 3900.025;  170.525;    0.000
775.098; 4089.025;  144.525;    0.000
775.290; 4234.025;  162.525;    0.000
775.483; 4392.025;  137.525;    0.000
775.675; 4627.025;  148.525;    0.000
775.867; 4778.025;   81.525;    0.000
776.059; 5134.025;  134.525;    0.000
776.251; 5765.025;  137.525;    0.000
776.444; 6304.025;  155.525;    0.000
776.636; 7115.025;  148.525;    0.000
776.828; 8657.025;  129.525;    0.000
777.020;11835.025;  133.525;    0.000
777.212;16566.025;  137.525;    0.000
777.404;18588.025;  124.525;    0.000
777.596;17307.025;  142.525;    0.000
777.788;13494.025;  155.525;    0.000
777.980;10643.025;  119.525;    0.000
778.172; 9019.025;  129.525;    0.000
778.364; 7890.025;  122.525;    0.000
778.556; 6993.025;  129.525;    0.000
778.748; 6375.025;  178.525;    0.000
778.940; 5827.025;  128.525;    0.000
779.132; 5491.025;  145.525;    0.000
779.324; 4851.025;   89.525;    0.000
779.516; 4910.025;  161.525;    0.000
779.708; 4595.025;  183.525;    0.000
779.900; 4329.025;  124.525;    0.000
780.091; 4243.025;  143.525;    0.000
780.283; 4129.025;  135.525;    0.000
780.475; 4029.025;  129.525;    0.000
780.667; 4005.025;  178.525;    0.000
780.859; 3778.025;  146.525;    0.000
781.050; 3763.025;  156.525;    0.000
781.242; 3616.025;  138.525;    0.000
781.434; 3606.025;  117.525;    0.000
781.625; 3582.025;  161.525;    0.000
781.817; 3483.025;  127.525;    0.000
782.008; 3383.025;  138.525;    0.000
782.200; 3404.025;  139.525;    0.000
782.392; 3331.025;  179.525;    0.000
782.583; 3323.025;  137.525;    0.000
782.775; 3241.025;  162.525;    0.000
782.966; 3175.025;  159.525;    0.000
783.158; 3162.025;  118.525;    0.000
783.349; 3081.025;  160.525;    0.000
783.541; 3103.025;  139.525;    0.000
783.732; 3170.025;  145.525;    0.000
783.924; 3047.025;  146.525;    0.000
784.115; 2997.025;  125.525;    0.000
784.306; 2942.025;  118.525;    0.000
784.498; 3045.025;  144.525;    0.000
784.689; 3059.025;  145.525;    0.000
784.880; 2989.025;  137.525;    0.000
785.072; 3028.025;  157.525;    0.000
785.263; 2937.025;  149.525;    0.000
785.454; 2982.025;  128.525;    0.000
785.645; 2983.025;  131.525;    0.000
785.837; 2950.025;  137.525;    0.000
786.028; 2920.025;  161.525;    0.000
786.219; 2870.025;  155.525;    0.000
786.410; 2905.025;  146.525;    0.000
786.601; 2903.025;  120.525;    0.000
786.792; 2927.025;  179.525;    0.000
786.984; 2834.025;  113.525;    0.000
787.175; 2819.025;  156.525;    0.000
787.366; 2830.025;  131.525;    0.000
787.557; 2859.025;  138.525;    0.000
787.748; 2807.025;  112.525;    0.000
787.939; 2903.025;  115.525;    0.000
788.130; 2913.025;  150.525;    0.000
788.321; 2909.025;  122.525;    0.000
788.512; 2879.025;  147.525;    0.000
788.703; 2989.025;  126.525;    0.000
788.894; 2933.025;   80.525;    0.000
789.084; 2924.025;  127.525;    0.000
789.275; 2946.025;  141.525;    0.000
789.466; 2937.025;  108.525;    0.000
789.657; 2856.025;  137.525;    0.000
789.848; 2984.025;  126.525;    0.000
790.039; 3040.025;  144.525;    0.000
790.229; 3005.025;  105.525;    0.000
790.420; 2938.025;   96.525;    0.000
790.611; 2908.025;  171.525;    0.000
790.801; 2932.025;   89.525;    0.000
790.992; 2998.025;  140.525;    0.000
791.183; 2868.025;  143.525;    0.000
791.373; 2923.025;  128.525;    0.000
791.564; 2958.025;   96.525;    0.000
791.755; 2882.025;  111.525;    0.000
791.945; 2943.025;  112.525;    0.000
792.136; 2866.025;  124.525;    0.000
792.326; 2901.025;   88.525;    0.000
792.517; 2997.025;  130.525;    0.000
792.707; 2967.025;  144.525;    0.000
792.898; 3071.025;  120.525;    0.000
793.088; 2991.025;  106.525;    0.000
793.279; 2996.025;  104.525;    0.000
793.469; 3056.025;  103.525;    0.000
793.660; 3087.025;  120.525;    0.000
793.850; 3079.025;  106.525;    0.000
794.040; 3193.025;  135.525;    0.000
794.231; 3150.025;   80.525;    0.000
794.421; 3462.025;  120.525;    0.000
794.611; 3737.025;  154.525;    0.000
794.802; 4103.025;  103.525;    0.000
794.992; 4242.025;  120.525;    0.000
795.182; 4475.025;  156.525;    0.000
795.372; 4131.025;  104.525;    0.000
795.563; 3940.025;  153.525;    0.000
795.753; 3683.025;  112.525;    0.000
795.943; 3537.025;  128.525;    0.000
796.133; 3275.025;  128.525;    0.000
796.323; 3287.025;  152.525;    0.000
796.513; 3136.025;  123.525;    0.000
796.703; 3161.025;  134.525;    0.000
796.893; 3074.025;  120.525;    0.000
797.083; 3057.025;  136.525;    0.000
797.273; 3029.025;  128.525;    0.000
797.463; 2928.025;  140.525;    0.000
797.653; 2916.025;   75.525;    0.000
797.843; 2951.025;  114.525;    0.000
798.033; 2840.025;   90.525;    0.000
798.223; 2838.025;  136.525;    0.000
798.413; 2798.025;  164.525;    0.000
798.603; 2646.025;  150.525;    0.000
798.793; 2591.025;  137.525;    0.000
798.983; 2606.025;  119.525;    0.000
799.172; 2695.025;  136.525;    0.000
799.362; 2693.025;  138.525;    0.000
799.552; 2591.025;  123.525;    0.000
799.742; 2609.025;  117.525;    0.000
799.932; 2591.025;  108.525;    0.000
800.121; 2673.025;  152.525;    0.000
800.311; 2536.025;  117.525;    0.000
800.501; 2515.025;  100.525;    0.000
800.690; 2602.025;  139.525;    0.000
800.880; 2473.025;  138.525;    0.000
801.070; 2562.025;  120.525;    0.000
801.259; 2466.025;  143.525;    0.000
801.449; 2551.025;  110.525;    0.000
801.638; 2481.025;  140.525;    0.000
801.828; 2518.025;  103.525;    0.000
802.017; 2577.025;   78.525;    0.000
802.207; 2559.025;  126.525;    0.000
802.396; 2497.025;  151.525;    0.000
802.586; 2454.025;  106.525;    0.000
802.775; 2537.025;  152.525;    0.000
802.965; 2514.025;  117.525;    0.000
803.154; 2459.025;  171.525;    0.000
803.343; 2394.025;  126.525;    0.000
803.533; 2449.025;  135.525;    0.000
803.722; 2406.025;  144.525;    0.000
803.911; 2465.025;  109.525;    0.000
804.101; 2525.025;  146.525;    0.000
804.290; 2389.025;  115.525;    0.000
804.479; 2458.025;  128.525;    0.000
804.668; 2475.025;  156.525;    0.000
804.857; 2332.025;  151.525;    0.000
805.047; 2370.025;  131.525;    0.000
805.236; 2410.025;  144.525;    0.000
805.425; 2451.025;  160.525;    0.000
805.614; 2425.025;  112.525;    0.000
805.803; 2384.025;  120.525;    0.000
805.992; 2463.025;  148.525;    0.000
806.181; 2369.025;  108.525;    0.000
806.370; 2429.025;  142.525;    0.000
806.559; 2400.025;  116.525;    0.000
806.748; 2416.025;  108.525;    0.000
806.937; 2313.025;  110.525;    0.000
807.126; 2476.025;  126.525;    0.000
807.315; 2414.025;  121.525;    0.000
807.504; 2284.025;  102.525;    0.000
807.693; 2384.025;  134.525;    0.000
807.882; 2402.025;  135.525;    0.000
808.071; 2380.025;  135.525;    0.000
808.260; 2351.025;   93.525;    0.000
808.448; 2408.025;  151.525;    0.000
808.637; 2424.025;  105.525;    0.000
808.826; 2381.025;  178.525;    0.000
809.015; 2410.025;  152.525;    0.000
809.203; 2443.025;  147.525;    0.000
809.392; 2426.025;  144.525;    0.000
809.581; 2488.025;  167.525;    0.000
809.770; 2404.025;  151.525;    0.000
809.958; 2433.025;  128.525;    0.000
810.147; 2387.025;  152.525;    0.000
810.335; 2407.025;  160.525;    0.000
810.524; 2442.025;  130.525;    0.000
810.713; 2360.025;  128.525;    0.000
810.901; 2422.025;  140.525;    0.000
811.090; 2507.025;  152.525;    0.000
811.278; 2499.025;  126.525;    0.000
811.467; 2629.025;  161.525;    0.000
811.655; 2654.025;  184.525;    0.000
811.844; 2611.025;  148.525;    0.000
812.032; 2583.025;  138.525;    0.000
812.220; 2603.025;  157.525;    0.000
812.409; 2640.025;  143.525;    0.000
812.597; 2593.025;  124.525;    0.000
812.785; 2667.025;  170.525;    0.000
812.974; 2589.025;  135.525;    0.000
813.162; 2629.025;  135.525;    0.000
813.350; 2644.025;  182.525;    0.000
813.539; 2728.025;  126.525;    0.000
813.727; 2629.025;  127.525;    0.000
813.915; 2704.025;  140.525;    0.000
814.103; 2708.025;  176.525;    0.000
814.291; 2780.025;  115.525;    0.000
814.479; 2724.025;  119.525;    0.000
814.668; 2748.025;  134.525;    0.000
814.856; 2812.025;  120.525;    0.000
815.044; 2822.025;  164.525;    0.000
815.232; 2910.025;  146.525;    0.000
815.420; 2868.025;  154.525;    0.000
815.608; 2948.025;  137.525;    0.000
815.796; 2898.025;  108.525;    0.000
815.984; 2979.025;  134.525;    0.000
816.172; 3133.025;  123.525;    0.000
816.360; 3130.025;  181.525;    0.000
816.548; 3172.025;  139.525;    0.000
816.736; 3389.025;  138.525;    0.000
816.924; 3439.025;  151.525;    0.000
817.111; 3710.025;  156.525;    0.000
817.299; 3811.025;  147.525;    0.000
817.487; 4196.025;  188.525;    0.000
817.675; 4478.025;  129.525;    0.000
817.863; 5179.025;  128.525;    0.000
818.050; 6699.025;  110.525;    0.000
818.238;11471.025;  166.525;    0.000
818.426;15930.025;  136.525;    0.000
818.613;11939.025;  143.525;    0.000
818.801; 9651.025;  150.525;    0.000
818.989; 9351.025;  179.525;    0.000
819.176; 9913.025;  123.525;    0.000
819.364;14001.025;  148.525;    0.000
819.552;19947.025;   86.525;    0.000
819.739;15137.025;  169.525;    0.000
819.927;11107.025;  130.525;    0.000
820.114; 9240.025;  144.525;    0.000
820.302; 8206.025;  166.525;    0.000
820.489; 7311.025;  145.525;    0.000
820.677; 6896.025;  101.525;    0.000
820.864; 6583.025;  149.525;    0.000
821.052; 6354.025;  130.525;    0.000
821.239; 6549.025;  147.525;    0.000
821.426; 6593.025;  121.525;    0.000
821.614; 7132.025;  187.525;    0.000
821.801; 7503.025;  105.525;    0.000
821.988; 6855.025;  167.525;    0.000
822.176; 6536.025;  130.525;    0.000
822.363; 6578.025;  143.525;    0.000
822.550; 6230.025;  108.525;    0.000
822.737; 5715.025;  109.525;    0.000
822.924; 5383.025;  156.525;    0.000
823.112; 5218.025;  123.525;    0.000
823.299; 4953.025;  128.525;    0.000
823.486; 4549.025;  138.525;    0.000
823.673; 4487.025;  125.525;    0.000
823.860; 4443.025;  138.525;    0.000
824.047; 4417.025;  122.525;    0.000
824.234; 4688.025;  134.525;    0.000
824.421; 4664.025;   95.525;    0.000
824.608; 4251.025;  151.525;    0.000
824.795; 4111.025;  117.525;    0.000
824.982; 3814.025;  143.525;    0.000
825.169; 3718.025;   83.525;    0.000
825.356; 3478.025;  126.525;    0.000
825.543; 3413.025;   92.525;    0.000
825.730; 3273.025;  113.525;    0.000
825.917; 3305.025;  142.525;    0.000
826.104; 3045.025;  182.525;    0.000
826.290; 3075.025;  137.525;    0.000
826.477; 2878.025;  126.525;    0.000
826.664; 2938.025;  135.525;    0.000
826.851; 2852.025;  139.525;    0.000
827.038; 2874.025;  135.525;    0.000
827.224; 2811.025;  143.525;    0.000
827.411; 2809.025;  153.525;    0.000
827.598; 2649.025;  122.525;    0.000
827.784; 2686.025;  138.525;    0.000
827.971; 2581.025;  134.525;    0.000
828.157; 2615.025;  152.525;    0.000
828.344; 2548.025;  135.525;    0.000
828.531; 2556.025;  137.525;    0.000
828.717; 2561.025;  117.525;    0.000
828.904; 2504.025;  127.525;    0.000
829.090; 2421.025;  172.525;    0.000
829.277; 2442.025;  144.525;    0.000
829.463; 2362.025;  159.525;    0.000
829.650; 2416.025;  187.525;    0.000
829.836; 2356.025;  138.525;    0.000
830.022; 2332.025;  196.525;    0.000
830.209; 2335.025;  118.525;    0.000
830.395; 2301.025;  148.525;    0.000
830.581; 2284.025;  108.525;    0.000
830.768; 2292.025;  137.525;    0.000
830.954; 2264.025;  162.525;    0.000
831.140; 2171.025;  117.525;    0.000
831.327; 2242.025;  176.525;    0.000
831.513; 2250.025;  162.525;    0.000
831.699; 2184.025;  157.525;    0.000
831.885; 2034.025;  153.525;    0.000
832.071; 2107.025;  123.525;    0.000
832.257; 2145.025;  142.525;    0.000
832.444; 2145.025;  165.525;    0.000
832.630; 2074.025;  159.525;    0.000
832.816; 2165.025;  145.525;    0.000
833.002; 2099.025;  120.525;    0.000
833.188; 2066.025;  145.525;    0.000
833.374; 2080.025;  137.525;    0.000
833.560; 2073.025;  152.525;    0.000
833.746; 2034.025;  139.525;    0.000
833.932; 1977.025;  170.525;    0.000
834.118; 2001.025;  111.525;    0.000
834.303; 1960.025;  141.525;    0.000
834.489; 2006.025;  146.525;    0.000
834.675; 1947.025;  156.525;    0.000
834.861; 1964.025;   87.525;    0.000
835.047; 2074.025;  134.525;    0.000
835.233; 1984.025;   89.525;    0.000
835.418; 1965.025;  145.525;    0.000
835.604; 1965.025;  136.525;    0.000
835.790; 1940.025;  132.525;    0.000
835.976; 1895.025;  161.525;    0.000
836.161; 1938.025;  157.525;    0.000
836.347; 1954.025;  147.525;    0.000
836.533; 1824.025;  116.525;    0.000
836.718; 1954.025;  168.525;    0.000
836.904; 1883.025;  199.525;    0.000
837.089; 1961.025;  165.525;    0.000
837.275; 1923.025;  166.525;    0.000
837.460; 1850.025;  144.525;    0.000
837.646; 1881.025;  164.525;    0.000
837.831; 1947.025;  122.525;    0.000
838.017; 1910.025;  163.525;    0.000
838.202; 1891.025;  139.525;    0.000
838.388; 1993.025;  174.525;    0.000
838.573; 1936.025;  140.525;    0.000
838.759; 1877.025;  167.525;    0.000
838.944; 1939.025;  142.525;    0.000
839.129; 1847.025;  164.525;    0.000
839.315; 1904.025;  129.525;    0.000
839.500; 1994.025;  150.525;    0.000
839.685; 2044.025;  118.525;    0.000
839.870; 1999.025;  177.525;    0.000
840.056; 1885.025;  144.525;    0.000
840.241; 1900.025;  121.525;    0.000
840.426; 1905.025;  131.525;    0.000
840.611; 1996.025;  177.525;    0.000
840.796; 1911.025;  173.525;    0.000
840.981; 1962.025;  156.525;    0.000
841.166; 2074.025;  145.525;    0.000
841.352; 2018.025;  150.525;    0.000
841.537; 2046.025;  143.525;    0.000
841.722; 1963.025;  165.525;    0.000
841.907; 1991.025;  184.525;    0.000
842.092; 2051.025;  171.525;    0.000
842.277; 2093.025;  155.525;    0.000
842.461; 2109.025;  152.525;    0.000
842.646; 2137.025;  107.525;    0.000
842.831; 2225.025;  160.525;    0.000
843.016; 2205.025;  160.525;    0.000
843.201; 2252.025;  164.525;    0.000
843.386; 2342.025;  134.525;    0.000
843.571; 2430.025;  132.525;    0.000
843.755; 2428.025;  158.525;    0.000
843.940; 2572.025;  152.525;    0.000
844.125; 2868.025;  154.525;    0.000
844.310; 3351.025;  147.525;    0.000
844.494; 4009.025;  158.525;    0.000
844.679; 5234.025;  173.525;    0.000
844.864; 5212.025;  152.525;    0.000
845.048; 4296.025;  139.525;    0.000
845.233; 3929.025;  200.525;    0.000
845.418; 3518.025;  139.525;    0.000
845.602; 3199.025;  147.525;    0.000
845.787; 2922.025;  148.525;    0.000
845.971; 2754.025;  170.525;    0.000
846.156; 2594.025;  136.525;    0.000
846.340; 2501.025;  146.525;    0.000
846.525; 2473.025;  188.525;    0.000
846.709; 2381.025;  128.525;    0.000
846.893; 2267.025;  151.525;    0.000
847.078; 2223.025;  164.525;    0.000
847.262; 2126.025;  155.525;    0.000
847.447; 2064.025;  114.525;    0.000
847.631; 2124.025;  148.525;    0.000
847.815; 1999.025;  114.525;    0.000
848.000; 2021.025;  134.525;    0.000
848.184; 1929.025;  154.525;    0.000
848.368; 1944.025;  145.525;    0.000
848.552; 1910.025;  122.525;    0.000
848.736; 1889.025;  139.525;    0.000
848.921; 1948.025;  143.525;    0.000
849.105; 1726.025;  145.525;    0.000
849.289; 1888.025;  173.525;    0.000
849.473; 1825.025;  147.525;    0.000
849.657; 1744.025;  144.525;    0.000
849.841; 1780.025;  168.525;    0.000
850.025; 1795.025;  205.525;    0.000
850.209; 1770.025;  171.525;    0.000
850.393; 1740.025;  130.525;    0.000
850.577; 1780.025;  146.525;    0.000
850.761; 1796.025;  188.525;    0.000
850.945; 1793.025;  137.525;    0.000
851.129; 1789.025;  192.525;    0.000
851.313; 1724.025;  199.525;    0.000
851.497; 1708.025;  165.525;    0.000
851.680; 1752.025;  196.525;    0.000
851.864; 1746.025;  169.525;    0.000
852.048; 1762.025;  156.525;    0.000
852.232; 1766.025;  150.525;    0.000
852.416; 1728.025;  219.525;    0.000
852.599; 1760.025;  168.525;    0.000
852.783; 1659.025;  165.525;    0.000
852.967; 1799.025;  166.525;    0.000
853.150; 1731.025;  191.525;    0.000
853.334; 1730.025;  158.525;    0.000
853.518; 1750.025;  168.525;    0.000
853.701; 1709.025;  125.525;    0.000
853.885; 1743.025;  165.525;    0.000
854.068; 1641.025;  142.525;    0.000
854.252; 1657.025;  167.525;    0.000
854.435; 1711.025;  146.525;    0.000
854.619; 1640.025;  163.525;    0.000
854.802; 1629.025;  167.525;    0.000
854.986; 1678.025;  163.525;    0.000
855.169; 1674.025;  146.525;    0.000
855.353; 1707.025;  183.525;    0.000
855.536; 1642.025;  140.525;    0.000
855.719; 1646.025;  168.525;    0.000
855.903; 1713.025;  170.525;    0.000
856.086; 1637.025;  145.525;    0.000
856.269; 1741.025;  126.525;    0.000
856.452; 1689.025;  142.525;    0.000
856.636; 1721.025;  140.525;    0.000
856.819; 1822.025;  127.525;    0.000
857.002; 1864.025;  165.525;    0.000
857.185; 1752.025;  111.525;    0.000
857.368; 1842.025;  143.525;    0.000
857.552; 1738.025;  174.525;    0.000
857.735; 1833.025;  194.525;    0.000
857.918; 1838.025;  171.525;    0.000
858.101; 1760.025;  142.525;    0.000
858.284; 1735.025;  118.525;    0.000
858.467; 1799.025;  163.525;    0.000
858.650; 1726.025;  149.525;    0.000
858.833; 1835.025;  120.525;    0.000
859.016; 1830.025;  169.525;    0.000
859.199; 1869.025;  121.525;    0.000
859.382; 1953.025;  184.525;    0.000
859.564; 2079.025;  139.525;    0.000
859.747; 1971.025;  126.525;    0.000
859.930; 1937.025;  109.525;    0.000
860.113; 1956.025;  137.525;    0.000
860.296; 2028.025;  182.525;    0.000
860.478; 1935.025;  136.525;    0.000
860.661; 1959.025;  157.525;    0.000
860.844; 1836.025;  129.525;    0.000
861.027; 1898.025;  163.525;    0.000
861.209; 1870.025;  151.525;    0.000
861.392; 1927.025;  124.525;    0.000
861.575; 1865.025;  163.525;    0.000
861.757; 1954.025;  205.525;    0.000
861.940; 1959.025;  180.525;    0.000
862.122; 1893.025;  148.525;    0.000
862.305; 1925.025;  128.525;    0.000
862.487; 1954.025;  172.525;    0.000
862.670; 2077.025;  123.525;    0.000
862.852; 2239.025;  126.525;    0.000
863.035; 2566.025;  174.525;    0.000
863.217; 2540.025;  160.525;    0.000
863.400; 2353.025;  164.525;    0.000
863.582; 2350.025;  118.525;    0.000
863.764; 2265.025;  143.525;    0.000
863.947; 2275.025;  137.525;    0.000
864.129; 2172.025;  166.525;    0.000
864.311; 2104.025;  128.525;    0.000
864.493; 2121.025;  153.525;    0.000
864.676; 2064.025;  156.525;    0.000
864.858; 2055.025;  159.525;    0.000
865.040; 2006.025;  163.525;    0.000
865.222; 2118.025;  138.525;    0.000
865.404; 2156.025;  157.525;    0.000
865.587; 2284.025;  184.525;    0.000
865.769; 2255.025;  178.525;    0.000
865.951; 2163.025;  104.525;    0.000
866.133; 2243.025;  147.525;    0.000
866.315; 2232.025;  141.525;    0.000
866.497; 2170.025;  132.525;    0.000
866.679; 2259.025;  139.525;    0.000
866.861; 2357.025;  118.525;    0.000
867.043; 2295.025;  154.525;    0.000
867.225; 2574.025;  147.525;    0.000
867.407; 2705.025;  158.525;    0.000
867.589; 2887.025;  172.525;    0.000
867.770; 3354.025;  159.525;    0.000
867.952; 4245.025;  149.525;    0.000
868.134; 5369.025;  156.525;    0.000
868.316; 5466.025;  171.525;    0.000
868.498; 5361.025;  200.525;    0.000
868.679; 4759.025;  174.525;    0.000
868.861; 4240.025;  175.525;    0.000
869.043; 3620.025;  174.525;    0.000
869.224; 3317.025;  122.525;    0.000
869.406; 3064.025;  166.525;    0.000
869.588; 2949.025;  143.525;    0.000
869.769; 2730.025;  152.525;    0.000
869.951; 2768.025;  165.525;    0.000
870.132; 2736.025;  115.525;    0.000
870.314; 2924.025;  139.525;    0.000
870.495; 2970.025;  168.525;    0.000
870.677; 2775.025;  188.525;    0.000
870.858; 2730.025;  123.525;    0.000
871.040; 2790.025;  170.525;    0.000
871.221; 3026.025;  148.525;    0.000
871.403; 2851.025;  140.525;    0.000
871.584; 2839.025;  174.525;    0.000
871.765; 2907.025;  168.525;    0.000
871.947; 3035.025;  191.525;    0.000
872.128; 2689.025;  132.525;    0.000
872.309; 2483.025;  140.525;    0.000
872.491; 2299.025;  157.525;    0.000
872.672; 2125.025;  130.525;    0.000
872.853; 2217.025;  148.525;    0.000
873.034; 2142.025;  138.525;    0.000
873.215; 2089.025;  152.525;    0.000
873.396; 1955.025;  149.525;    0.000
873.578; 1966.025;  173.525;    0.000
873.759; 1920.025;  158.525;    0.000
873.940; 1879.025;  147.525;    0.000
874.121; 1774.025;  136.525;    0.000
874.302; 1897.025;  151.525;    0.000
874.483; 1769.025;  137.525;    0.000
874.664; 1748.025;  163.525;    0.000
874.845; 1837.025;  124.525;    0.000
875.026; 1699.025;  134.525;    0.000
875.207; 1690.025;  164.525;    0.000
875.388; 1730.025;  163.525;    0.000
875.568; 1762.025;  176.525;    0.000
875.749; 1614.025;  108.525;    0.000
875.930; 1711.025;  191.525;    0.000
876.111; 1753.025;  170.525;    0.000
876.292; 1599.025;  180.525;    0.000
876.472; 1675.025;  150.525;    0.000
876.653; 1623.025;  162.525;    0.000
876.834; 1641.025;  176.525;    0.000
877.015; 1650.025;  203.525;    0.000
877.195; 1643.025;  178.525;    0.000
877.376; 1653.025;  141.525;    0.000
877.556; 1583.025;  135.525;    0.000
877.737; 1638.025;  174.525;    0.000
877.918; 1627.025;  150.525;    0.000
878.098; 1511.025;  133.525;    0.000
878.279; 1478.025;  129.525;    0.000
878.459; 1553.025;  162.525;    0.000
878.640; 1633.025;  187.525;    0.000
878.820; 1583.025;  151.525;    0.000
879.000; 1553.025;  159.525;    0.000
879.181; 1549.025;  171.525;    0.000
879.361; 1556.025;  167.525;    0.000
879.542; 1534.025;  126.525;    0.000
879.722; 1523.025;  152.525;    0.000
879.902; 1558.025;  144.525;    0.000
880.083; 1632.025;  154.525;    0.000
880.263; 1678.025;  148.525;    0.000
880.443; 1731.025;  185.525;    0.000
880.623; 2029.025;  172.525;    0.000
880.803; 2289.025;  152.525;    0.000
880.984; 1998.025;  165.525;    0.000
881.164; 1787.025;  164.525;    0.000
881.344; 1743.025;  141.525;    0.000
881.524; 1702.025;  160.525;    0.000
881.704; 1670.025;  164.525;    0.000
881.884; 1737.025;  159.525;    0.000
882.064; 1779.025;  158.525;    0.000
882.244; 1771.025;  147.525;    0.000
882.424; 1801.025;  160.525;    0.000
882.604; 1625.025;  150.525;    0.000
882.784; 1618.025;  138.525;    0.000
882.964; 1583.025;  157.525;    0.000
883.144; 1555.025;  128.525;    0.000
883.324; 1652.025;  220.525;    0.000
883.504; 1636.025;  177.525;    0.000
883.683; 1473.025;  159.525;    0.000
883.863; 1617.025;  143.525;    0.000
884.043; 1513.025;  156.525;    0.000
884.223; 1550.025;  152.525;    0.000
884.402; 1474.025;  169.525;    0.000
884.582; 1506.025;  162.525;    0.000
884.762; 1524.025;  172.525;    0.000
884.941; 1542.025;  220.525;    0.000
885.121; 1517.025;  128.525;    0.000
885.301; 1489.025;  141.525;    0.000
885.480; 1495.025;  141.525;    0.000
885.660; 1538.025;  132.525;    0.000
885.839; 1497.025;  146.525;    0.000
886.019; 1558.025;  170.525;    0.000
886.198; 1494.025;  143.525;    0.000
886.378; 1471.025;  159.525;    0.000
886.557; 1481.025;  148.525;    0.000
886.737; 1450.025;  125.525;    0.000
886.916; 1381.025;  177.525;    0.000
887.095; 1449.025;  186.525;    0.000
887.275; 1473.025;  134.525;    0.000
887.454; 1456.025;  148.525;    0.000
887.633; 1405.025;  171.525;    0.000
887.813; 1470.025;  187.525;    0.000
887.992; 1426.025;  157.525;    0.000
888.171; 1492.025;  143.525;    0.000
888.350; 1416.025;  182.525;    0.000
888.530; 1460.025;  142.525;    0.000
888.709; 1425.025;  160.525;    0.000
888.888; 1447.025;  197.525;    0.000
889.067; 1472.025;  126.525;    0.000
889.246; 1494.025;  197.525;    0.000
889.425; 1486.025;  161.525;    0.000
889.604; 1468.025;  180.525;    0.000
889.783; 1503.025;  135.525;    0.000
889.962; 1358.025;  107.525;    0.000
890.141; 1419.025;  167.525;    0.000
890.320; 1461.025;  149.525;    0.000
890.499; 1476.025;  194.525;    0.000
890.678; 1447.025;  138.525;    0.000
890.857; 1441.025;  146.525;    0.000
891.036; 1419.025;  178.525;    0.000
891.214; 1460.025;  151.525;    0.000
891.393; 1450.025;  137.525;    0.000
891.572; 1403.025;  177.525;    0.000
891.751; 1472.025;  149.525;    0.000
891.930; 1461.025;  189.525;    0.000
892.108; 1418.025;  136.525;    0.000
892.287; 1421.025;  129.525;    0.000
892.466; 1429.025;  163.525;    0.000
892.644; 1478.025;  147.525;    0.000
892.823; 1444.025;  127.525;    0.000
893.001; 1403.025;  192.525;    0.000
893.180; 1388.025;  157.525;    0.000
893.359; 1434.025;  176.525;    0.000
893.537; 1403.025;  146.525;    0.000
893.716; 1522.025;  154.525;    0.000
893.894; 1475.025;  166.525;    0.000
894.073; 1436.025;  163.525;    0.000
894.251; 1445.025;  166.525;    0.000
894.429; 1401.025;  149.525;    0.000
894.608; 1443.025;  141.525;    0.000
894.786; 1391.025;  139.525;    0.000
894.964; 1392.025;  180.525;    0.000
895.143; 1396.025;  193.525;    0.000
895.321; 1396.025;  163.525;    0.000
895.499; 1475.025;  163.525;    0.000
895.677; 1391.025;  194.525;    0.000
895.856; 1468.025;  176.525;    0.000
896.034; 1490.025;  173.525;    0.000
896.212; 1446.025;  180.525;    0.000
896.390; 1467.025;  146.525;    0.000
896.568; 1455.025;  167.525;    0.000
896.746; 1462.025;  158.525;    0.000
896.924; 1469.025;  163.525;    0.000
897.102; 1461.025;  170.525;    0.000
897.280; 1469.025;  159.525;    0.000
897.458; 1515.025;  182.525;    0.000
897.636; 1457.025;  151.525;    0.000
897.814; 1470.025;  130.525;    0.000
897.992; 1468.025;  213.525;    0.000
898.170; 1500.025;  164.525;    0.000
898.348; 1505.025;  159.525;    0.000
898.526; 1492.025;  182.525;    0.000
898.704; 1445.025;  209.525;    0.000
898.882; 1414.025;  145.525;    0.000
899.059; 1408.025;  172.525;    0.000
899.237; 1516.025;  172.525;    0.000
899.415; 1460.025;  211.525;    0.000
899.593; 1444.025;  151.525;    0.000
899.770; 1523.025;  147.525;    0.000
899.948; 1482.025;  218.525;    0.000
900.125; 1470.025;  166.525;    0.000
900.303; 1476.025;  146.525;    0.000
900.481; 1478.025;  174.525;    0.000
900.658; 1531.025;  198.525;    0.000
900.836; 1505.025;  125.525;    0.000
901.013; 1509.025;  197.525;    0.000
901.191; 1468.025;  181.525;    0.000
901.368; 1493.025;  185.525;    0.000
901.546; 1543.025;  197.525;    0.000
901.723; 1564.025;  205.525;    0.000
901.901; 1544.025;  187.525;    0.000
902.078; 1606.025;  163.525;    0.000
902.255; 1596.025;  141.525;    0.000
902.433; 1615.025;  183.525;    0.000
902.610; 1590.025;  181.525;    0.000
902.787; 1592.025;  174.525;    0.000
902.964; 1679.025;  174.525;    0.000
903.142; 1666.025;  141.525;    0.000
903.319; 1669.025;  214.525;    0.000
903.496; 1667.025;  187.525;    0.000
903.673; 1776.025;  183.525;    0.000
903.850; 1729.025;  125.525;    0.000
904.027; 1769.025;  197.525;    0.000
904.204; 1820.025;  197.525;    0.000
904.381; 1955.025;  196.525;    0.000
904.558; 2014.025;  176.525;    0.000
904.735; 2130.025;  179.525;    0.000
904.912; 2180.025;  203.525;    0.000
905.089; 2140.025;  159.525;    0.000
905.266; 2087.025;  176.525;    0.000
905.443; 2005.025;  184.525;    0.000
905.620; 1943.025;  168.525;    0.000
905.797; 1850.025;  214.525;    0.000
905.974; 1766.025;  154.525;    0.000
906.151; 1827.025;  132.525;    0.000
906.327; 1784.025;  192.525;    0.000
906.504; 1795.025;  186.525;    0.000
906.681; 1827.025;  171.525;    0.000
906.858; 1727.025;  181.525;    0.000
907.034; 1795.025;  164.525;    0.000
907.211; 1678.025;  184.525;    0.000
907.388; 1663.025;  177.525;    0.000
907.564; 1649.025;  150.525;    0.000
907.741; 1543.025;  195.525;    0.000
907.917; 1705.025;  190.525;    0.000
908.094; 1679.025;  214.525;    0.000
908.271; 1633.025;  173.525;    0.000
908.447; 1740.025;  229.525;    0.000
908.623; 1593.025;  162.525;    0.000
908.800; 1640.025;  195.525;    0.000
908.976; 1581.025;  171.525;    0.000
909.153; 1574.025;  167.525;    0.000
909.329; 1598.025;  227.525;    0.000
909.505; 1552.025;  167.525;    0.000
909.682; 1626.025;  174.525;    0.000
909.858; 1496.025;  158.525;    0.000
910.034; 1623.025;  188.525;    0.000
910.211; 1577.025;  158.525;    0.000
910.387; 1542.025;  208.525;    0.000
910.563; 1575.025;  203.525;    0.000
910.739; 1548.025;  201.525;    0.000
910.915; 1499.025;  170.525;    0.000
911.091; 1510.025;  171.525;    0.000
911.268; 1615.025;  220.525;    0.000
911.444; 1461.025;  202.525;    0.000
911.620; 1546.025;  175.525;    0.000
911.796; 1477.025;  175.525;    0.000
911.972; 1565.025;  164.525;    0.000
912.148; 1521.025;  174.525;    0.000
912.324; 1570.025;  155.525;    0.000
912.500; 1573.025;  156.525;    0.000
912.676; 1538.025;  138.525;    0.000
912.851; 1502.025;  158.525;    0.000
913.027; 1520.025;  161.525;    0.000
913.203; 1609.025;  168.525;    0.000
913.379; 1510.025;  172.525;    0.000
913.555; 1579.025;  193.525;    0.000
913.730; 1525.025;  149.525;    0.000
913.906; 1512.025;  159.525;    0.000
914.082; 1540.025;  184.525;    0.000
914.258; 1493.025;  194.525;    0.000
914.433; 1515.025;  175.525;    0.000
914.609; 1538.025;  175.525;    0.000
914.784; 1514.025;  170.525;    0.000
914.960; 1518.025;  212.525;    0.000
915.136; 1456.025;  157.525;    0.000
915.311; 1593.025;  204.525;    0.000
915.487; 1511.025;  180.525;    0.000
915.662; 1637.025;  203.525;    0.000
915.838; 1559.025;  194.525;    0.000
916.013; 1620.025;  217.525;    0.000
916.189; 1548.025;  196.525;    0.000
916.364; 1567.025;  236.525;    0.000
916.539; 1616.025;  192.525;    0.000
916.715; 1503.025;  181.525;    0.000
916.890; 1578.025;  185.525;    0.000
917.065; 1528.025;  166.525;    0.000
917.240; 1463.025;  182.525;    0.000
917.416; 1580.025;  188.525;    0.000
917.591; 1587.025;  185.525;    0.000
917.766; 1541.025;  187.525;    0.000
917.941; 1536.025;  181.525;    0.000
918.116; 1611.025;  207.525;    0.000
918.292; 1552.025;  140.525;    0.000
918.467; 1629.025;  187.525;    0.000
918.642; 1640.025;  208.525;    0.000
918.817; 1610.025;  203.525;    0.000
918.992; 1533.025;  162.525;    0.000
919.167; 1580.025;  206.525;    0.000
919.342; 1594.025;  188.525;    0.000
919.517; 1686.025;  190.525;    0.000
919.692; 1629.025;  174.525;    0.000
919.867; 1552.025;  181.525;    0.000
920.041; 1710.025;  179.525;    0.000
920.216; 1647.025;  186.525;    0.000
920.391; 1735.025;  209.525;    0.000
920.566; 1680.025;  205.525;    0.000
920.741; 1738.025;  205.525;    0.000
920.915; 1755.025;  206.525;    0.000
921.090; 1875.025;  219.525;    0.000
921.265; 2105.025;  185.525;    0.000
921.439; 2284.025;  171.525;    0.000
921.614; 2225.025;  197.525;    0.000
921.789; 1983.025;  189.525;    0.000
921.963; 1919.025;  210.525;    0.000
922.138; 1818.025;  171.525;    0.000
922.312; 1866.025;  194.525;    0.000
922.487; 1884.025;  231.525;    0.000
922.661; 1981.025;  179.525;    0.000
922.836; 2007.025;  213.525;    0.000
923.010; 2111.025;  182.525;    0.000
923.185; 2039.025;  239.525;    0.000
923.359; 1940.025;  200.525;    0.000
923.534; 1918.025;  232.525;    0.000
923.708; 1993.025;  221.525;    0.000
923.882; 2023.025;  193.525;    0.000
924.057; 2025.025;  204.525;    0.000
924.231; 2060.025;  172.525;    0.000
924.405; 1873.025;  202.525;    0.000
924.579; 1866.025;  207.525;    0.000
924.753; 1799.025;  167.525;    0.000
924.928; 1784.025;  202.525;    0.000
925.102; 1888.025;  200.525;    0.000
925.276; 1744.025;  185.525;    0.000
925.450; 1749.025;  170.525;    0.000
925.624; 1805.025;  176.525;    0.000
925.798; 1796.025;  221.525;    0.000
925.972; 1876.025;  162.525;    0.000
926.146; 1946.025;  207.525;    0.000
926.320; 2004.025;  185.525;    0.000
926.494; 2108.025;  192.525;    0.000
926.668; 2146.025;  179.525;    0.000
926.842; 2252.025;  181.525;    0.000
927.016; 2173.025;  224.525;    0.000
927.190; 2176.025;  193.525;    0.000
927.363; 2102.025;  194.525;    0.000
927.537; 2041.025;  210.525;    0.000
927.711; 2036.025;  153.525;    0.000
927.885; 2012.025;  184.525;    0.000
928.058; 2026.025;  197.525;    0.000
928.232; 2001.025;  219.525;    0.000
928.406; 1944.025;  175.525;    0.000
928.579; 1960.025;  179.525;    0.000
928.753; 1946.025;  208.525;    0.000
928.927; 1877.025;  163.525;    0.000
929.100; 1860.025;  138.525;    0.000
929.274; 1802.025;  160.525;    0.000
929.447; 1782.025;  152.525;    0.000
929.621; 1839.025;  168.525;    0.000
929.794; 1890.025;  152.525;    0.000
929.968; 1804.025;  163.525;    0.000
930.141; 1747.025;  164.525;    0.000
930.315; 1743.025;  170.525;    0.000
930.488; 1751.025;  216.525;    0.000
930.661; 1755.025;  184.525;    0.000
930.835; 1670.025;  156.525;    0.000
931.008; 1737.025;  206.525;    0.000
931.181; 1693.025;  163.525;    0.000
931.354; 1763.025;  198.525;    0.000
931.528; 1651.025;  156.525;    0.000
931.701; 1625.025;  170.525;    0.000
931.874; 1736.025;  167.525;    0.000
932.047; 1654.025;  146.525;    0.000
932.220; 1679.025;  159.525;    0.000
932.393; 1625.025;  186.525;    0.000
932.566; 1572.025;  147.525;    0.000
932.739; 1614.025;  192.525;    0.000
932.912; 1611.025;  197.525;    0.000
933.085; 1639.025;  176.525;    0.000
933.258; 1652.025;  171.525;    0.000
933.431; 1544.025;  150.525;    0.000
933.604; 1631.025;  176.525;    0.000
933.777; 1633.025;  215.525;    0.000
933.950; 1563.025;  164.525;    0.000
934.123; 1578.025;  174.525;    0.000
934.296; 1548.025;  203.525;    0.000
934.468; 1567.025;  208.525;    0.000
934.641; 1522.025;  182.525;    0.000
934.814; 1597.025;  170.525;    0.000
934.987; 1549.025;  183.525;    0.000
935.159; 1622.025;  154.525;    0.000
935.332; 1629.025;  178.525;    0.000
935.505; 1611.025;  213.525;    0.000
935.677; 1636.025;  173.525;    0.000
935.850; 1550.025;  190.525;    0.000
936.022; 1617.025;  205.525;    0.000
936.195; 1602.025;  201.525;    0.000
936.367; 1557.025;  189.525;    0.000
936.540; 1574.025;  179.525;    0.000
936.712; 1621.025;  195.525;    0.000
936.885; 1620.025;  207.525;    0.000
937.057; 1585.025;  163.525;    0.000
937.229; 1564.025;  175.525;    0.000
937.402; 1667.025;  168.525;    0.000
937.574; 1610.025;  136.525;    0.000
937.746; 1660.025;  166.525;    0.000
937.919; 1778.025;  178.525;    0.000
938.091; 1678.025;  192.525;    0.000
938.263; 1755.025;  164.525;    0.000
938.435; 1847.025;  204.525;    0.000
938.608; 2002.025;  153.525;    0.000
938.780; 2045.025;  159.525;    0.000
938.952; 2279.025;  160.525;    0.000
939.124; 2199.025;  156.525;    0.000
939.296; 2401.025;  110.525;    0.000
939.468; 2429.025;  135.525;    0.000
939.640; 2204.025;  144.525;    0.000
939.812; 2233.025;  232.525;    0.000
939.984; 2017.025;  128.525;    0.000
940.156; 2016.025;  195.525;    0.000
940.328; 1980.025;  226.525;    0.000
940.500; 1924.025;  146.525;    0.000
940.672; 1902.025;  190.525;    0.000
940.843; 1780.025;  156.525;    0.000
941.015; 1830.025;  200.525;    0.000
941.187; 1760.025;  159.525;    0.000
941.359; 1772.025;  183.525;    0.000
941.531; 1755.025;  137.525;    0.000
941.702; 1742.025;  186.525;    0.000
941.874; 1667.025;  164.525;    0.000
942.046; 1644.025;  202.525;    0.000
942.217; 1730.025;  146.525;    0.000
942.389; 1627.025;  165.525;    0.000
942.560; 1577.025;  191.525;    0.000
942.732; 1735.025;  240.525;    0.000
942.904; 1646.025;  173.525;    0.000
943.075; 1559.025;  157.525;    0.000
943.247; 1581.025;  155.525;    0.000
943.418; 1592.025;  164.525;    0.000
943.589; 1583.025;  150.525;    0.000
943.761; 1555.025;  143.525;    0.000
943.932; 1603.025;  151.525;    0.000
944.104; 1614.025;  194.525;    0.000
944.275; 1642.025;  154.525;    0.000
944.446; 1641.025;  169.525;    0.000
944.617; 1603.025;  138.525;    0.000
944.789; 1537.025;  158.525;    0.000
944.960; 1577.025;  197.525;    0.000
945.131; 1571.025;  139.525;    0.000
945.302; 1510.025;  169.525;    0.000
945.473; 1501.025;  149.525;    0.000
945.645; 1604.025;  171.525;    0.000
945.816; 1568.025;  167.525;    0.000
945.987; 1495.025;  156.525;    0.000
946.158; 1587.025;  185.525;    0.000
946.329; 1566.025;  201.525;    0.000
946.500; 1510.025;  182.525;    0.000
946.671; 1538.025;  156.525;    0.000
946.842; 1485.025;  190.525;    0.000
947.013; 1493.025;  159.525;    0.000
947.183; 1597.025;  209.525;    0.000
947.354; 1487.025;  171.525;    0.000
947.525; 1517.025;  180.525;    0.000
947.696; 1544.025;  163.525;    0.000
947.867; 1458.025;  168.525;    0.000
948.037; 1410.025;  153.525;    0.000
948.208; 1473.025;  178.525;    0.000
948.379; 1518.025;  192.525;    0.000
948.550; 1464.025;  180.525;    0.000
948.720; 1439.025;  196.525;    0.000
948.891; 1515.025;  173.525;    0.000
949.061; 1468.025;  207.525;    0.000
949.232; 1455.025;  176.525;    0.000
949.403; 1408.025;  152.525;    0.000
949.573; 1449.025;  186.525;    0.000
949.744; 1469.025;  181.525;    0.000
949.914; 1496.025;  174.525;    0.000
950.085; 1497.025;  146.525;    0.000
950.255; 1538.025;  162.525;    0.000
950.425; 1510.025;  189.525;    0.000
950.596; 1452.025;  175.525;    0.000
950.766; 1488.025;  209.525;    0.000
950.936; 1472.025;  201.525;    0.000
951.107; 1477.025;  141.525;    0.000
951.277; 1551.025;  211.525;    0.000
951.447; 1474.025;  218.525;    0.000
951.617; 1454.025;  191.525;    0.000
951.788; 1352.025;  193.525;    0.000
951.958; 1426.025;  217.525;    0.000
952.128; 1451.025;  192.525;    0.000
952.298; 1429.025;  237.525;    0.000
952.468; 1453.025;  194.525;    0.000
952.638; 1454.025;  201.525;    0.000
952.808; 1491.025;  203.525;    0.000
952.978; 1439.025;  216.525;    0.000
953.148; 1436.025;  209.525;    0.000
953.318; 1422.025;  213.525;    0.000
953.488; 1433.025;  161.525;    0.000
953.658; 1479.025;  222.525;    0.000
953.828; 1475.025;  196.525;    0.000
953.998; 1504.025;  227.525;    0.000
954.167; 1485.025;  163.525;    0.000
954.337; 1450.025;  201.525;    0.000
954.507; 1513.025;  227.525;    0.000
954.677; 1517.025;  204.525;    0.000
954.846; 1474.025;  210.525;    0.000
955.016; 1324.025;  198.525;    0.000
955.186; 1509.025;  203.525;    0.000
955.355; 1480.025;  198.525;    0.000
955.525; 1408.025;  198.525;    0.000
955.695; 1415.025;  187.525;    0.000
955.864; 1474.025;  243.525;    0.000
956.034; 1458.025;  192.525;    0.000
956.203; 1440.025;  259.525;    0.000
956.373; 1294.025;  185.525;    0.000
956.542; 1461.025;  230.525;    0.000
956.711; 1353.025;  218.525;    0.000
956.881; 1453.025;  232.525;    0.000
957.050; 1458.025;  246.525;    0.000
957.220; 1409.025;  229.525;    0.000
957.389; 1392.025;  211.525;    0.000
957.558; 1414.025;  173.525;    0.000
957.727; 1470.025;  226.525;    0.000
957.897; 1453.025;  209.525;    0.000
958.066; 1466.025;  217.525;    0.000
958.235; 1422.025;  160.525;    0.000
958.404; 1379.025;  199.525;    0.000
958.573; 1407.025;  223.525;    0.000
958.743; 1310.025;  189.525;    0.000
958.912; 1411.025;  199.525;    0.000
959.081; 1381.025;  216.525;    0.000
959.250; 1395.025;  192.525;    0.000
959.419; 1369.025;  216.525;    0.000
959.588; 1293.025;  209.525;    0.000
959.757; 1381.025;  194.525;    0.000
959.926; 1384.025;  200.525;    0.000
960.094; 1419.025;  174.525;    0.000
960.263; 1396.025;  218.525;    0.000
960.432; 1374.025;  173.525;    0.000
960.601; 1248.025;  177.525;    0.000
960.770; 1392.025;  188.525;    0.000
960.939; 1391.025;  167.525;    0.000
961.107; 1346.025;  195.525;    0.000
961.276; 1419.025;  183.525;    0.000
961.445; 1432.025;  195.525;    0.000
961.613; 1354.025;  198.525;    0.000
961.782; 1435.025;  224.525;    0.000
961.951; 1463.025;  178.525;    0.000
962.119; 1401.025;  214.525;    0.000
962.288; 1378.025;  174.525;    0.000
962.456; 1371.025;  197.525;    0.000
962.625; 1411.025;  212.525;    0.000
962.793; 1369.025;  183.525;    0.000
962.962; 1342.025;  189.525;    0.000
963.130; 1361.025;  151.525;    0.000
963.298; 1379.025;  197.525;    0.000
963.467; 1457.025;  202.525;    0.000
963.635; 1438.025;  172.525;    0.000
963.803; 1385.025;  203.525;    0.000
963.972; 1430.025;  204.525;    0.000
964.140; 1385.025;  193.525;    0.000
964.308; 1360.025;  159.525;    0.000
964.477; 1375.025;  142.525;    0.000
964.645; 1358.025;  202.525;    0.000
964.813; 1405.025;  158.525;    0.000
964.981; 1348.025;  179.525;    0.000
965.149; 1408.025;  176.525;    0.000
965.317; 1391.025;  229.525;    0.000
965.485; 1403.025;  179.525;    0.000
965.653; 1316.025;  205.525;    0.000
965.821; 1432.025;  196.525;    0.000
965.989; 1406.025;  202.525;    0.000
966.157; 1359.025;  199.525;    0.000
966.325; 1381.025;  178.525;    0.000
966.493; 1432.025;  177.525;    0.000
966.661; 1386.025;  172.525;    0.000
966.829; 1381.025;  167.525;    0.000
966.996; 1389.025;  202.525;    0.000
967.164; 1380.025;  175.525;    0.000
967.332; 1432.025;  207.525;    0.000
967.500; 1325.025;  170.525;    0.000
967.667; 1512.025;  222.525;    0.000
967.835; 1456.025;  245.525;    0.000
968.003; 1358.025;  180.525;    0.000
968.170; 1490.025;  222.525;    0.000
968.338; 1396.025;  183.525;    0.000
968.505; 1426.025;  197.525;    0.000
968.673; 1392.025;  209.525;    0.000
968.841; 1357.025;  162.525;    0.000
969.008; 1397.025;  187.525;    0.000
969.175; 1432.025;  204.525;    0.000
969.343; 1279.025;  157.525;    0.000
969.510; 1468.025;  189.525;    0.000
969.678; 1318.025;  153.525;    0.000
969.845; 1372.025;  190.525;    0.000
970.012; 1402.025;  162.525;    0.000
970.180; 1469.025;  223.525;    0.000
970.347; 1422.025;  195.525;    0.000
970.514; 1367.025;  185.525;    0.000
970.681; 1378.025;  187.525;    0.000
970.849; 1385.025;  183.525;    0.000
971.016; 1490.025;  168.525;    0.000
971.183; 1423.025;  160.525;    0.000
971.350; 1431.025;  193.525;    0.000
971.517; 1411.025;  202.525;    0.000
971.684; 1456.025;  242.525;    0.000
971.851; 1485.025;  192.525;    0.000
972.018; 1431.025;  194.525;    0.000
972.185; 1447.025;  193.525;    0.000
972.352; 1409.025;  187.525;    0.000
972.519; 1450.025;  233.525;    0.000
972.686; 1364.025;  186.525;    0.000
972.853; 1459.025;  165.525;    0.000
973.020; 1457.025;  183.525;    0.000
973.186; 1370.025;  186.525;    0.000
973.353; 1417.025;  177.525;    0.000
973.520; 1444.025;  203.525;    0.000
973.687; 1389.025;  211.525;    0.000
973.853; 1472.025;  194.525;    0.000
974.020; 1389.025;  201.525;    0.000
974.187; 1410.025;  187.525;    0.000
974.353; 1540.025;  188.525;    0.000
974.520; 1404.025;  136.525;    0.000
974.687; 1386.025;  169.525;    0.000
974.853; 1498.025;  207.525;    0.000
975.020; 1369.025;  190.525;    0.000
975.186; 1366.025;  182.525;    0.000
975.353; 1456.025;  202.525;    0.000
975.519; 1385.025;  189.525;    0.000
975.685; 1431.025;  176.525;    0.000
975.852; 1408.025;  175.525;    0.000
976.018; 1447.025;  155.525;    0.000
976.184; 1402.025;  179.525;    0.000
976.351; 1412.025;  191.525;    0.000
976.517; 1397.025;  246.525;    0.000
976.683; 1404.025;  222.525;    0.000
976.849; 1421.025;  216.525;    0.000
977.016; 1365.025;  212.525;    0.000
977.182; 1386.025;  192.525;    0.000
977.348; 1408.025;  145.525;    0.000
977.514; 1342.025;  195.525;    0.000
977.680; 1394.025;  210.525;    0.000
977.846; 1420.025;  172.525;    0.000
978.012; 1395.025;  190.525;    0.000
978.178; 1350.025;  201.525;    0.000
978.344; 1363.025;  190.525;    0.000
978.510; 1317.025;  199.525;    0.000
978.676; 1270.025;  174.525;    0.000
978.842; 1319.025;  195.525;    0.000
979.008; 1321.025;  205.525;    0.000
979.174; 1323.025;  187.525;    0.000
979.340; 1398.025;  194.525;    0.000
979.505; 1395.025;  221.525;    0.000
979.671; 1377.025;  178.525;    0.000
979.837; 1350.025;  215.525;    0.000
980.003; 1343.025;  176.525;    0.000
980.168; 1425.025;  185.525;    0.000
980.334; 1353.025;  165.525;    0.000
980.499; 1414.025;  231.525;    0.000
980.665; 1483.025;  238.525;    0.000
980.831; 1365.025;  194.525;    0.000
980.996; 1426.025;  169.525;    0.000
981.162; 1472.025;  199.525;    0.000
981.327; 1439.025;  158.525;    0.000
981.493; 1443.025;  193.525;    0.000
981.658; 1458.025;  181.525;    0.000
981.823; 1435.025;  199.525;    0.000
981.989; 1400.025;  186.525;    0.000
982.154; 1493.025;  225.525;    0.000
982.319; 1395.025;  191.525;    0.000
982.485; 1419.025;  205.525;    0.000
982.650; 1427.025;  234.525;    0.000
982.815; 1390.025;  193.525;    0.000
982.980; 1438.025;  177.525;    0.000
983.146; 1425.025;  212.525;    0.000
983.311; 1409.025;  177.525;    0.000
983.476; 1379.025;  185.525;    0.000
983.641; 1367.025;  149.525;    0.000
983.806; 1431.025;  175.525;    0.000
983.971; 1416.025;  234.525;    0.000
984.136; 1450.025;  191.525;    0.000
984.301; 1385.025;  215.525;    0.000
984.466; 1399.025;  207.525;    0.000
984.631; 1407.025;  206.525;    0.000
984.796; 1412.025;  229.525;    0.000
984.961; 1421.025;  220.525;    0.000
985.126; 1366.025;  204.525;    0.000
985.291; 1337.025;  210.525;    0.000
985.455; 1395.025;  193.525;    0.000
985.620; 1376.025;  207.525;    0.000
985.785; 1352.025;  188.525;    0.000
985.950; 1307.025;  168.525;    0.000
986.114; 1456.025;  239.525;    0.000
986.279; 1453.025;  223.525;    0.000
986.444; 1370.025;  154.525;    0.000
986.608; 1442.025;  232.525;    0.000
986.773; 1397.025;  214.525;    0.000
986.937; 1472.025;  220.525;    0.000
987.102; 1482.025;  224.525;    0.000
987.266; 1433.025;  157.525;    0.000
987.431; 1481.025;  246.525;    0.000
987.595; 1384.025;  203.525;    0.000
987.760; 1382.025;  202.525;    0.000
987.924; 1409.025;  208.525;    0.000
988.088; 1384.025;  169.525;    0.000
988.253; 1446.025;  237.525;    0.000
988.417; 1358.025;  202.525;    0.000
988.581; 1409.025;  215.525;    0.000
988.746; 1378.025;  210.525;    0.000
988.910; 1434.025;  191.525;    0.000
989.074; 1393.025;  197.525;    0.000
989.238; 1337.025;  191.525;    0.000
989.402; 1410.025;  222.525;    0.000
989.566; 1415.025;  221.525;    0.000
989.731; 1335.025;  216.525;    0.000
989.895; 1418.025;  183.525;    0.000
990.059; 1326.025;  150.525;    0.000
990.223; 1373.025;  183.525;    0.000
990.387; 1395.025;  241.525;    0.000
990.551; 1393.025;  198.525;    0.000
990.714; 1419.025;  176.525;    0.000
990.878; 1399.025;  203.525;    0.000
991.042; 1410.025;  146.525;    0.000
991.206; 1405.025;  199.525;    0.000
991.370; 1416.025;  223.525;    0.000
991.534; 1427.025;  158.525;    0.000
991.697; 1431.025;  182.525;    0.000
991.861; 1519.025;  195.525;    0.000
992.025; 1464.025;  206.525;    0.000
992.188; 1454.025;  174.525;    0.000
992.352; 1487.025;  183.525;    0.000
992.516; 1343.025;  181.525;    0.000
992.679; 1419.025;  162.525;    0.000
992.843; 1384.025;  173.525;    0.000
993.006; 1443.025;  189.525;    0.000
993.170; 1501.025;  200.525;    0.000
993.333; 1397.025;  167.525;    0.000
993.497; 1415.025;  217.525;    0.000
993.660; 1458.025;  179.525;    0.000
993.824; 1385.025;  195.525;    0.000
993.987; 1398.025;  186.525;    0.000
994.150; 1464.025;  164.525;    0.000
994.314; 1461.025;  215.525;    0.000
994.477; 1439.025;  186.525;    0.000
994.640; 1524.025;  192.525;    0.000
994.803; 1445.025;  215.525;    0.000
994.967; 1488.025;  208.525;    0.000
995.130; 1442.025;  196.525;    0.000
995.293; 1341.025;  221.525;    0.000
995.456; 1460.025;  164.525;    0.000
995.619; 1328.025;  224.525;    0.000
995.782; 1470.025;  184.525;    0.000
995.945; 1387.025;  220.525;    0.000
996.108; 1440.025;  187.525;    0.000
996.271; 1402.025;  192.525;    0.000
996.434; 1456.025;  162.525;    0.000
996.597; 1499.025;  148.525;    0.000
996.760; 1465.025;  186.525;    0.000
996.923; 1422.025;  154.525;    0.000
997.086; 1459.025;  156.525;    0.000
997.248; 1512.025;  215.525;    0.000
997.411; 1423.025;  160.525;    0.000
997.574; 1430.025;  159.525;    0.000
997.737; 1485.025;  179.525;    0.000
997.899; 1371.025;  184.525;    0.000
998.062; 1482.025;  180.525;    0.000
998.225; 1491.025;  168.525;    0.000
998.387; 1411.025;  192.525;    0.000
998.550; 1412.025;  178.525;    0.000
998.712; 1445.025;  192.525;    0.000
998.875; 1431.025;  230.525;    0.000
999.037; 1355.025;  200.525;    0.000
999.200; 1377.025;  196.525;    0.000
999.362; 1416.025;  173.525;    0.000
999.525; 1412.025;  196.525;    0.000
999.687; 1371.025;  159.525;    0.000
999.849; 1463.025;  180.525;    0.000
1000.012; 1324.025;  210.525;    0.000
1000.174; 1464.025;  175.525;    0.000
1000.336; 1468.025;  174.525;    0.000
1000.499; 1405.025;  180.525;    0.000
1000.661; 1447.025;  204.525;    0.000
1000.823; 1450.025;  181.525;    0.000
1000.985; 1466.025;  178.525;    0.000
1001.147; 1526.025;  215.525;    0.000
1001.309; 1502.025;  212.525;    0.000
1001.471; 1591.025;  192.525;    0.000
1001.633; 1615.025;  207.525;    0.000
1001.796; 1521.025;  211.525;    0.000
1001.958; 1547.025;  200.525;    0.000
1002.119; 1581.025;  210.525;    0.000
1002.281; 1689.025;  204.525;    0.000
1002.443; 1687.025;  230.525;    0.000
1002.605; 1804.025;  178.525;    0.000
1002.767; 1863.025;  228.525;    0.000
1002.929; 1992.025;  199.525;    0.000
1003.091; 1984.025;  220.525;    0.000
1003.252; 2049.025;  219.525;    0.000
1003.414; 2152.025;  213.525;    0.000
1003.576; 2247.025;  202.525;    0.000
1003.738; 2376.025;  184.525;    0.000
1003.899; 2596.025;  218.525;    0.000
1004.061; 2606.025;  210.525;    0.000
1004.222; 2684.025;  179.525;    0.000
1004.384; 2733.025;  183.525;    0.000
1004.546; 2712.025;  206.525;    0.000
1004.707; 2734.025;  191.525;    0.000
1004.869; 2823.025;  197.525;    0.000
1005.030; 2738.025;  186.525;    0.000
1005.191; 2614.025;  188.525;    0.000
1005.353; 2704.025;  215.525;    0.000
1005.514; 2579.025;  184.525;    0.000
1005.675; 2513.025;  209.525;    0.000
1005.837; 2459.025;  239.525;    0.000
1005.998; 2367.025;  218.525;    0.000
1006.159; 2486.025;  212.525;    0.000
1006.321; 2361.025;  220.525;    0.000
1006.482; 2468.025;  201.525;    0.000
1006.643; 2591.025;  222.525;    0.000
1006.804; 2653.025;  191.525;    0.000
1006.965; 2607.025;  214.525;    0.000
1007.126; 2704.025;  214.525;    0.000
1007.287; 2666.025;  243.525;    0.000
1007.448; 2663.025;  251.525;    0.000
1007.609; 2750.025;  244.525;    0.000
1007.770; 2595.025;  211.525;    0.000
1007.931; 2562.025;  225.525;    0.000
1008.092; 2613.025;  188.525;    0.000
1008.253; 2697.025;  224.525;    0.000
1008.414; 2693.025;  198.525;    0.000
1008.575; 2681.025;  244.525;    0.000
1008.736; 2627.025;  219.525;    0.000
1008.896; 2604.025;  206.525;    0.000
1009.057; 2750.025;  258.525;    0.000
1009.218; 2740.025;  209.525;    0.000
1009.379; 2788.025;  204.525;    0.000
1009.539; 2759.025;  242.525;    0.000
1009.700; 2764.025;  205.525;    0.000
1009.860; 2737.025;  211.525;    0.000
1010.021; 2608.025;  219.525;    0.000
1010.182; 2790.025;  206.525;    0.000
1010.342; 2819.025;  219.525;    0.000
1010.503; 2832.025;  231.525;    0.000
1010.663; 2912.025;  260.525;    0.000
1010.823; 2800.025;  200.525;    0.000
1010.984; 2919.025;  189.525;    0.000
1011.144; 2821.025;  234.525;    0.000
1011.305; 2922.025;  212.525;    0.000
1011.465; 2926.025;  202.525;    0.000
1011.625; 3016.025;  236.525;    0.000
1011.785; 3081.025;  203.525;    0.000
1011.946; 3116.025;  195.525;    0.000
1012.106; 3139.025;  176.525;    0.000
1012.266; 3093.025;  211.525;    0.000
1012.426; 3166.025;  244.525;    0.000
1012.586; 3108.025;  202.525;    0.000
1012.746; 3064.025;  234.525;    0.000
1012.906; 3167.025;  246.525;    0.000
1013.066; 3082.025;  232.525;    0.000
1013.226; 3079.025;  248.525;    0.000
1013.386; 3222.025;  231.525;    0.000
1013.546; 3048.025;  233.525;    0.000
1013.706; 3121.025;  211.525;    0.000
1013.866; 3213.025;  240.525;    0.000
1014.026; 3247.025;  188.525;    0.000
1014.186; 3205.025;  186.525;    0.000
1014.346; 3216.025;  203.525;    0.000
1014.505; 3292.025;  238.525;    0.000
1014.665; 3426.025;  206.525;    0.000
1014.825; 3349.025;  200.525;    0.000
1014.985; 3306.025;  215.525;    0.000
1015.144; 3494.025;  250.525;    0.000
1015.304; 3756.025;  195.525;    0.000
1015.464; 3621.025;  237.525;    0.000
1015.623; 3520.025;  232.525;    0.000
1015.783; 3667.025;  220.525;    0.000
1015.942; 4137.025;  219.525;    0.000
1016.102; 4280.025;  202.525;    0.000
1016.261; 3918.025;  225.525;    0.000
1016.420; 4270.025;  246.525;    0.000
1016.580; 4753.025;  226.525;    0.000
1016.739; 4700.025;  214.525;    0.000
1016.899; 4702.025;  205.525;    0.000
1017.058; 4741.025;  217.525;    0.000
1017.217; 5101.025;  199.525;    0.000
1017.376; 4868.025;  219.525;    0.000
1017.536; 4392.025;  209.525;    0.000
1017.695; 4483.025;  213.525;    0.000
1017.854; 4506.025;  187.525;    0.000
1018.013; 4428.025;  222.525;    0.000
1018.172; 4204.025;  204.525;    0.000
1018.331; 4390.025;  195.525;    0.000
1018.490; 4309.025;  213.525;    0.000
1018.649; 4443.025;  216.525;    0.000
1018.808; 4606.025;  227.525;    0.000
1018.967; 4860.025;  206.525;    0.000
1019.126; 4749.025;  206.525;    0.000
1019.285; 4892.025;  219.525;    0.000
1019.444; 4787.025;  218.525;    0.000
1019.603; 4599.025;  206.525;    0.000
1019.762; 4546.025;  189.525;    0.000
1019.921; 4744.025;  217.525;    0.000
1020.079; 4734.025;  200.525;    0.000
1020.238; 5093.025;  219.525;    0.000
1020.397; 4811.025;  227.525;    0.000
1020.555; 4703.025;  207.525;    0.000
1020.714; 4926.025;  253.525;    0.000
1020.873; 5105.025;  230.525;    0.000
1021.031; 4974.025;  232.525;    0.000
1021.190; 4953.025;  226.525;    0.000
1021.348; 4897.025;  224.525;    0.000
1021.507; 5207.025;  215.525;    0.000
1021.665; 5412.025;  233.525;    0.000
1021.824; 5227.025;  196.525;    0.000
1021.982; 5058.025;  215.525;    0.000
1022.141; 5064.025;  200.525;    0.000
1022.299; 5531.025;  200.525;    0.000
1022.457; 5654.025;  179.525;    0.000
1022.616; 5061.025;  226.525;    0.000
1022.774; 4977.025;  216.525;    0.000
1022.932; 5200.025;  212.525;    0.000
1023.090; 5733.025;  220.525;    0.000
1023.249; 5569.025;  194.525;    0.000
1023.407; 5200.025;  227.525;    0.000
1023.565; 5070.025;  190.525;    0.000
1023.723; 5572.025;  190.525;    0.000
1023.881; 6040.025;  214.525;    0.000
1024.039; 5898.025;  179.525;    0.000
1024.197; 5276.025;  274.525;    0.000
1024.355; 5109.025;  269.525;    0.000
1024.513; 5558.025;  259.525;    0.000
1024.671; 6088.025;  211.525;    0.000
1024.829; 5923.025;  230.525;    0.000
1024.987; 5118.025;  239.525;    0.000
1025.145; 5138.025;  231.525;    0.000
1025.302; 5601.025;  212.525;    0.000
1025.460; 6158.025;  224.525;    0.000
1025.618; 6287.025;  217.525;    0.000
1025.776; 5479.025;  232.525;    0.000
1025.933; 5163.025;  212.525;    0.000
1026.091; 5610.025;  214.525;    0.000
1026.249; 6149.025;  224.525;    0.000
1026.406; 6585.025;  219.525;    0.000
1026.564; 5775.025;  262.525;    0.000
1026.721; 5399.025;  206.525;    0.000
1026.879; 5443.025;  227.525;    0.000
1027.036; 6088.025;  234.525;    0.000
1027.194; 6842.025;  256.525;    0.000
1027.351; 6459.025;  229.525;    0.000
1027.509; 5739.025;  253.525;    0.000
1027.666; 5387.025;  248.525;    0.000
1027.823; 6102.025;  215.525;    0.000
1027.981; 6871.025;  248.525;    0.000
1028.138; 6955.025;  257.525;    0.000
1028.295; 6197.025;  215.525;    0.000
1028.452; 5579.025;  236.525;    0.000
1028.609; 5573.025;  240.525;    0.000
1028.767; 6361.025;  258.525;    0.000
1028.924; 7127.025;  211.525;    0.000
1029.081; 6934.025;  226.525;    0.000
1029.238; 6465.025;  228.525;    0.000
1029.395; 5846.025;  264.525;    0.000
1029.552; 6126.025;  227.525;    0.000
1029.709; 6729.025;  232.525;    0.000
1029.866; 7305.025;  223.525;    0.000
1030.023; 7006.025;  220.525;    0.000
1030.180; 6173.025;  222.525;    0.000
1030.337; 5865.025;  224.525;    0.000
1030.494; 6300.025;  228.525;    0.000
1030.650; 6742.025;  242.525;    0.000
1030.807; 7355.025;  214.525;    0.000
1030.964; 6816.025;  207.525;    0.000
1031.121; 6298.025;  236.525;    0.000
1031.277; 5946.025;  206.525;    0.000
1031.434; 6371.025;  249.525;    0.000
1031.591; 7159.025;  253.525;    0.000
1031.747; 7276.025;  240.525;    0.000
1031.904; 7259.025;  212.525;    0.000
1032.060; 6765.025;  185.525;    0.000
1032.217; 6711.025;  201.525;    0.000
1032.373; 7223.025;  207.525;    0.000
1032.530; 7520.025;  226.525;    0.000
1032.686; 8375.025;  226.525;    0.000
1032.843; 8230.025;  203.525;    0.000
1032.999; 7987.025;  233.525;    0.000
1033.155; 8035.025;  232.525;    0.000
1033.312; 8148.025;  239.525;    0.000
1033.468; 9051.025;  207.525;    0.000
1033.624; 9831.025;  238.525;    0.000
1033.780;10451.025;  255.525;    0.000
1033.937;10149.025;  188.525;    0.000
1034.093;10032.025;  244.525;    0.000
1034.249; 9921.025;  182.525;    0.000
1034.405; 9639.025;  251.525;    0.000
1034.561;10039.025;  250.525;    0.000
1034.717;10902.025;  208.525;    0.000
1034.873;10748.025;  210.525;    0.000
1035.029;11090.025;  245.525;    0.000
1035.185;10389.025;  230.525;    0.000
1035.341;10115.025;  209.525;    0.000
1035.497;11293.025;  244.525;    0.000
1035.653;10928.025;  229.525;    0.000
1035.809;12667.025;  275.525;    0.000
1035.964;12990.025;  203.525;    0.000
1036.120;12155.025;  215.525;    0.000
1036.276;12262.025;  228.525;    0.000
1036.432;11664.025;  183.525;    0.000
1036.587;11667.025;  214.525;    0.000
1036.743;12301.025;  240.525;    0.000
1036.899;13055.025;  202.525;    0.000
1037.054;13291.025;  182.525;    0.000
1037.210;14460.025;  228.525;    0.000
1037.365;14605.025;  239.525;    0.000
1037.521;13564.025;  230.525;    0.000
1037.676;13393.025;  217.525;    0.000
1037.832;12169.025;  235.525;    0.000
1037.987;12492.025;  210.525;    0.000
1038.143;12320.025;  206.525;    0.000
1038.298;14280.025;  177.525;    0.000
1038.453;14418.025;  215.525;    0.000
1038.609;15744.025;  210.525;    0.000
1038.764;15676.025;  227.525;    0.000
1038.919;14408.025;  197.525;    0.000
1039.074;14426.025;  183.525;    0.000
1039.229;13587.025;  218.525;    0.000
1039.385;13328.025;  251.525;    0.000
1039.540;14264.025;  222.525;    0.000
1039.695;15410.025;  215.525;    0.000
1039.850;16365.025;  204.525;    0.000
1040.005;17451.025;  241.525;    0.000
1040.160;18576.025;  180.525;    0.000
1040.315;17388.025;  197.525;    0.000
1040.470;17267.025;  180.525;    0.000
1040.625;16234.025;  196.525;    0.000
1040.780;15869.025;  245.525;    0.000
1040.935;16104.025;  204.525;    0.000
1041.089;16214.025;  213.525;    0.000
1041.244;18575.025;  200.525;    0.000
1041.399;19459.025;  212.525;    0.000
1041.554;20802.025;  239.525;    0.000
1041.708;21758.025;  238.525;    0.000
1041.863;21373.025;  213.525;    0.000
1042.018;20695.025;  236.525;    0.000
1042.172;20707.025;  238.525;    0.000
1042.327;18065.025;  254.525;    0.000
1042.481;18949.025;  197.525;    0.000
1042.636;20936.025;  205.525;    0.000
1042.791;20927.025;  218.525;    0.000
1042.945;23781.025;  261.525;    0.000
1043.099;26834.025;  201.525;    0.000
1043.254;26214.025;  191.525;    0.000
1043.408;27768.025;  279.525;    0.000
1043.563;27037.025;  203.525;    0.000
1043.717;26206.025;  229.525;    0.000
1043.871;24767.025;  213.525;    0.000
1044.025;24813.025;  240.525;    0.000
1044.180;24006.025;  220.525;    0.000
1044.334;24556.025;  268.525;    0.000
1044.488;27047.025;  261.525;    0.000
1044.642;28221.025;  205.525;    0.000
1044.796;30484.025;  240.525;    0.000
1044.950;32787.023;  258.525;    0.000
1045.104;33766.023;  218.525;    0.000
1045.258;35425.023;  213.525;    0.000
1045.412;36022.023;  223.525;    0.000
1045.566;31746.025;  240.525;    0.000
1045.720;31455.025;  235.525;    0.000
1045.874;29845.025;  221.525;    0.000
1046.028;28156.025;  247.525;    0.000
1046.182;27117.025;  200.525;    0.000
1046.336;29747.025;  220.525;    0.000
1046.489;32541.025;  228.525;    0.000
1046.643;33002.023;  249.525;    0.000
1046.797;35210.023;  230.525;    0.000
1046.951;36572.023;  234.525;    0.000
1047.104;36063.023;  262.525;    0.000
1047.258;36980.023;  210.525;    0.000
1047.411;39119.023;  235.525;    0.000
1047.565;38611.023;  237.525;    0.000
1047.719;34792.023;  237.525;    0.000
1047.872;33257.023;  225.525;    0.000
1048.026;33200.023;  237.525;    0.000
1048.179;33127.023;  220.525;    0.000
1048.332;33227.023;  219.525;    0.000
1048.486;31764.025;  195.525;    0.000
1048.639;34534.023;  213.525;    0.000
1048.792;36074.023;  245.525;    0.000
1048.946;40867.023;  234.525;    0.000
1049.099;43941.023;  226.525;    0.000
1049.252;43676.023;  282.525;    0.000
1049.406;40793.023;  255.525;    0.000
1049.559;42553.023;  223.525;    0.000
1049.712;43693.023;  253.525;    0.000
1049.865;46894.023;  271.525;    0.000
1050.018;49264.023;  241.525;    0.000
1050.171;43418.023;  202.525;    0.000
1050.324;39058.023;  250.525;    0.000
1050.477;37582.023;  251.525;    0.000
1050.630;38761.023;  216.525;    0.000
1050.783;42184.023;  205.525;    0.000
1050.936;40735.023;  219.525;    0.000
1051.089;41215.023;  247.525;    0.000
1051.242;44425.023;  238.525;    0.000
1051.394;47072.023;  252.525;    0.000
1051.547;47128.023;  245.525;    0.000
1051.700;45849.023;  206.525;    0.000
1051.853;47435.023;  270.525;    0.000
1052.005;50786.023;  245.525;    0.000
1052.158;55026.023;  290.525;    0.000
1052.311;61376.023;  237.525;    0.000
1052.463;57800.023;  271.525;    0.000
1052.616;52193.023;  255.525;    0.000
1052.768;49713.023;  257.525;    0.000
1052.921;49455.023;  289.525;    0.000
1053.073;50130.023;  287.525;    0.000
1053.226;52640.023;  268.525;    0.000
1053.378;55974.023;  294.525;    0.000
1053.531;58020.023;  255.525;    0.000
1053.683;55247.023;  293.525;    0.000
1053.835;51557.023;  274.525;    0.000
1053.988;41128.023;  282.525;    0.000
1054.140; 8365.025;  291.525;    0.000
1054.292; 2010.025;  292.525;    0.000
1054.444; 1521.025;  299.525;    0.000
1054.596; 1390.025;  319.525;    0.000
1054.749; 1216.025;  295.525;    0.000
1054.901; 1100.025;  266.525;    0.000
1055.053; 1099.025;  300.525;    0.000
1055.205; 1048.025;  290.525;    0.000
1055.357;  993.025;  304.525;    0.000
1055.509;  972.025;  292.525;    0.000
1055.661;  960.025;  339.525;    0.000
1055.813;  861.025;  306.525;    0.000
1055.965;  916.025;  293.525;    0.000
1056.116;  898.025;  300.525;    0.000
1056.268;  940.025;  306.525;    0.000
1056.420;  920.025;  288.525;    0.000

