
Integration time [ms]:   0.300
Averaging Nr. [scans]: 1
Smoothing Nr. [pixels]: 0
Data measured with spectrometer [name]: NIR
Wave   ;Sample   ;Dark     ;Reference
[nm]   ;[counts] ;[counts] ;[counts] 

691.496;  -28.050;  155.525;    0.000
691.696;    3.950;  186.525;    0.000
691.896;  -24.050;  113.525;    0.000
692.096;  -15.050;  169.525;    0.000
692.296;  -52.050;  119.525;    0.000
692.496;   -4.050;  182.525;    0.000
692.695;  -56.050;  119.525;    0.000
692.895;   23.950;  183.525;    0.000
693.095;  -33.050;  119.525;    0.000
693.295;   -2.050;  156.525;    0.000
693.495;   25.950;  145.525;    0.000
693.695;    1.950;  144.525;    0.000
693.894;   -4.050;  174.525;    0.000
694.094;  -26.050;  148.525;    0.000
694.294;  -17.050;  114.525;    0.000
694.494;  312.950;  137.525;    0.000
694.693; 3028.950;  112.525;    0.000
694.893; 3267.950;   85.525;    0.000
695.093; 3374.950;  152.525;    0.000
695.293; 3255.950;  159.525;    0.000
695.492; 3448.950;  131.525;    0.000
695.692; 3378.950;  134.525;    0.000
695.891; 3319.950;  161.525;    0.000
696.091; 3337.950;  180.525;    0.000
696.291; 3431.950;  120.525;    0.000
696.490; 3516.950;  146.525;    0.000
696.690; 3531.950;  145.525;    0.000
696.889; 3515.950;  171.525;    0.000
697.089; 3364.950;   98.525;    0.000
697.288; 3563.950;  172.525;    0.000
697.488; 3518.950;  137.525;    0.000
697.687; 3457.950;  171.525;    0.000
697.887; 3393.950;  142.525;    0.000
698.086; 3540.950;  159.525;    0.000
698.286; 3513.950;  122.525;    0.000
698.485; 3503.950;  121.525;    0.000
698.684; 3524.950;   94.525;    0.000
698.884; 3572.950;  131.525;    0.000
699.083; 3542.950;  112.525;    0.000
699.282; 3510.950;  119.525;    0.000
699.482; 3445.950;  117.525;    0.000
699.681; 3448.950;  115.525;    0.000
699.880; 3560.950;  166.525;    0.000
700.080; 3551.950;  194.525;    0.000
700.279; 3583.950;   98.525;    0.000
700.478; 3606.950;  159.525;    0.000
700.677; 3610.950;  134.525;    0.000
700.877; 3628.950;  171.525;    0.000
701.076; 3541.950;  141.525;    0.000
701.275; 3559.950;  119.525;    0.000
701.474; 3651.950;  132.525;    0.000
701.673; 3511.950;  141.525;    0.000
701.872; 3742.950;  158.525;    0.000
702.071; 3654.950;  129.525;    0.000
702.271; 3701.950;  122.525;    0.000
702.470; 3569.950;  158.525;    0.000
702.669; 3679.950;  145.525;    0.000
702.868; 3669.950;  135.525;    0.000
703.067; 3607.950;  169.525;    0.000
703.266; 3614.950;  125.525;    0.000
703.465; 3814.950;  153.525;    0.000
703.664; 3745.950;  113.525;    0.000
703.863; 3818.950;  170.525;    0.000
704.062; 3653.950;  115.525;    0.000
704.260; 3785.950;  133.525;    0.000
704.459; 3689.950;  123.525;    0.000
704.658; 3612.950;  105.525;    0.000
704.857; 3821.950;  125.525;    0.000
705.056; 3686.950;  108.525;    0.000
705.255; 3712.950;  117.525;    0.000
705.454; 3784.950;  126.525;    0.000
705.652; 3738.950;  137.525;    0.000
705.851; 3692.950;   95.525;    0.000
706.050; 3761.950;  120.525;    0.000
706.249; 3714.950;   81.525;    0.000
706.447; 3858.950;  105.525;    0.000
706.646; 3681.950;  107.525;    0.000
706.845; 3820.950;  104.525;    0.000
707.043; 3746.950;  136.525;    0.000
707.242; 3731.950;   89.525;    0.000
707.441; 3813.950;  147.525;    0.000
707.639; 3742.950;  156.525;    0.000
707.838; 3856.950;  114.525;    0.000
708.037; 3853.950;  100.525;    0.000
708.235; 3827.950;  103.525;    0.000
708.434; 3724.950;  102.525;    0.000
708.632; 3903.950;  100.525;    0.000
708.831; 3776.950;  121.525;    0.000
709.029; 3818.950;  102.525;    0.000
709.228; 3799.950;   88.525;    0.000
709.426; 3952.950;  135.525;    0.000
709.625; 3891.950;  128.525;    0.000
709.823; 3878.950;  123.525;    0.000
710.022; 3943.950;  137.525;    0.000
710.220; 3999.950;  134.525;    0.000
710.418; 3986.950;  122.525;    0.000
710.617; 3983.950;   64.525;    0.000
710.815; 3913.950;   94.525;    0.000
711.013; 3979.950;  127.525;    0.000
711.212; 3961.950;  105.525;    0.000
711.410; 3983.950;  117.525;    0.000
711.608; 3917.950;  114.525;    0.000
711.807; 4010.950;  119.525;    0.000
712.005; 4019.950;   92.525;    0.000
712.203; 4004.950;   95.525;    0.000
712.401; 4059.950;  107.525;    0.000
712.599; 4010.950;  127.525;    0.000
712.798; 4007.950;  120.525;    0.000
712.996; 4073.950;   76.525;    0.000
713.194; 4080.950;  118.525;    0.000
713.392; 4049.950;   60.525;    0.000
713.590; 4079.950;   92.525;    0.000
713.788; 4135.950;  110.525;    0.000
713.986; 4178.950;  130.525;    0.000
714.184; 4130.950;   71.525;    0.000
714.382; 4320.950;   86.525;    0.000
714.580; 4295.950;   74.525;    0.000
714.778; 4279.950;  133.525;    0.000
714.976; 4299.950;   81.525;    0.000
715.174; 4361.950;  100.525;    0.000
715.372; 4458.950;  141.525;    0.000
715.570; 4709.950;   73.525;    0.000
715.768; 4961.950;  119.525;    0.000
715.966; 4873.950;   81.525;    0.000
716.164; 4960.950;  130.525;    0.000
716.362; 4967.950;  125.525;    0.000
716.560; 4818.950;  109.525;    0.000
716.758; 4722.950;   96.525;    0.000
716.955; 4646.950;   83.525;    0.000
717.153; 4560.950;   87.525;    0.000
717.351; 4621.950;  123.525;    0.000
717.549; 4641.950;  121.525;    0.000
717.746; 4601.950;  128.525;    0.000
717.944; 4629.950;  132.525;    0.000
718.142; 4484.950;  120.525;    0.000
718.340; 4536.950;   94.525;    0.000
718.537; 4490.950;   95.525;    0.000
718.735; 4596.950;  152.525;    0.000
718.933; 4574.950;  124.525;    0.000
719.130; 4414.950;  114.525;    0.000
719.328; 4344.950;   63.525;    0.000
719.525; 4357.950;  146.525;    0.000
719.723; 4410.950;   96.525;    0.000
719.920; 4525.950;  120.525;    0.000
720.118; 4439.950;   59.525;    0.000
720.316; 4564.950;  116.525;    0.000
720.513; 4530.950;  127.525;    0.000
720.711; 4497.950;  110.525;    0.000
720.908; 4480.950;   92.525;    0.000
721.105; 4449.950;  138.525;    0.000
721.303; 4530.950;   90.525;    0.000
721.500; 4489.950;  126.525;    0.000
721.698; 4460.950;  103.525;    0.000
721.895; 4440.950;  206.525;    0.000
722.092; 4550.950;   63.525;    0.000
722.290; 4459.950;  123.525;    0.000
722.487; 4310.950;  137.525;    0.000
722.684; 4366.950;  126.525;    0.000
722.882; 4568.950;  119.525;    0.000
723.079; 4459.950;  132.525;    0.000
723.276; 4485.950;   98.525;    0.000
723.473; 4507.950;   97.525;    0.000
723.671; 4619.950;   43.525;    0.000
723.868; 4496.950;  142.525;    0.000
724.065; 4587.950;  102.525;    0.000
724.262; 4514.950;  119.525;    0.000
724.459; 4509.950;   73.525;    0.000
724.656; 4565.950;  128.525;    0.000
724.854; 4584.950;  135.525;    0.000
725.051; 4533.950;   81.525;    0.000
725.248; 4523.950;   88.525;    0.000
725.445; 4720.950;  129.525;    0.000
725.642; 4580.950;   76.525;    0.000
725.839; 4722.950;  134.525;    0.000
726.036; 4610.950;  101.525;    0.000
726.233; 4581.950;   68.525;    0.000
726.430; 4708.950;  121.525;    0.000
726.627; 4796.950;  136.525;    0.000
726.824; 4697.950;   87.525;    0.000
727.021; 4699.950;  141.525;    0.000
727.218; 4736.950;   92.525;    0.000
727.414; 4666.950;  121.525;    0.000
727.611; 4660.950;  100.525;    0.000
727.808; 4632.950;  130.525;    0.000
728.005; 4555.950;   83.525;    0.000
728.202; 4690.950;  120.525;    0.000
728.399; 4795.950;   75.525;    0.000
728.595; 4750.950;  148.525;    0.000
728.792; 4710.950;   79.525;    0.000
728.989; 4693.950;   86.525;    0.000
729.186; 4597.950;   80.525;    0.000
729.382; 4747.950;   72.525;    0.000
729.579; 4549.950;  112.525;    0.000
729.776; 4667.950;  106.525;    0.000
729.972; 4682.950;   77.525;    0.000
730.169; 4778.950;  118.525;    0.000
730.366; 4621.950;   92.525;    0.000
730.562; 4818.950;  104.525;    0.000
730.759; 4749.950;   95.525;    0.000
730.955; 4713.950;   85.525;    0.000
731.152; 4751.950;   79.525;    0.000
731.348; 4784.950;   72.525;    0.000
731.545; 4711.950;   56.525;    0.000
731.741; 4848.950;  106.525;    0.000
731.938; 4724.950;  113.525;    0.000
732.134; 4811.950;  106.525;    0.000
732.331; 4838.950;   82.525;    0.000
732.527; 4797.950;   80.525;    0.000
732.724; 4716.950;   97.525;    0.000
732.920; 4838.950;  127.525;    0.000
733.116; 4751.950;  115.525;    0.000
733.313; 4817.950;  153.525;    0.000
733.509; 4732.950;   76.525;    0.000
733.705; 4938.950;  159.525;    0.000
733.902; 4879.950;   82.525;    0.000
734.098; 4941.950;   70.525;    0.000
734.294; 4946.950;  105.525;    0.000
734.490; 4876.950;  110.525;    0.000
734.687; 4969.950;  102.525;    0.000
734.883; 4863.950;   77.525;    0.000
735.079; 4852.950;   93.525;    0.000
735.275; 4879.950;  109.525;    0.000
735.471; 4746.950;   99.525;    0.000
735.667; 4842.950;  107.525;    0.000
735.863; 4973.950;   89.525;    0.000
736.060; 4824.950;  105.525;    0.000
736.256; 4975.950;  113.525;    0.000
736.452; 4931.950;   90.525;    0.000
736.648; 4953.950;   88.525;    0.000
736.844; 4982.950;  129.525;    0.000
737.040; 4992.950;  139.525;    0.000
737.236; 5015.950;  129.525;    0.000
737.432; 4913.950;   67.525;    0.000
737.628; 4974.950;  104.525;    0.000
737.824; 5109.950;  111.525;    0.000
738.019; 5154.950;  116.525;    0.000
738.215; 5141.950;  135.525;    0.000
738.411; 5058.950;  118.525;    0.000
738.607; 5095.950;   58.525;    0.000
738.803; 5116.950;   32.525;    0.000
738.999; 5203.950;  120.525;    0.000
739.195; 5206.950;   76.525;    0.000
739.390; 5143.950;  119.525;    0.000
739.586; 5261.950;   83.525;    0.000
739.782; 5218.950;  134.525;    0.000
739.978; 5201.950;  122.525;    0.000
740.173; 5269.950;   96.525;    0.000
740.369; 5181.950;   86.525;    0.000
740.565; 5442.950;  122.525;    0.000
740.760; 5405.950;   99.525;    0.000
740.956; 5462.950;  137.525;    0.000
741.152; 5346.950;  108.525;    0.000
741.347; 5448.950;   65.525;    0.000
741.543; 5401.950;   73.525;    0.000
741.738; 5624.950;  142.525;    0.000
741.934; 5677.950;  131.525;    0.000
742.129; 6029.950;   66.525;    0.000
742.325; 6684.950;  143.525;    0.000
742.520; 7328.950;  119.525;    0.000
742.716; 7056.950;  109.525;    0.000
742.911; 6670.950;   62.525;    0.000
743.107; 6642.950;  119.525;    0.000
743.302; 6442.950;   78.525;    0.000
743.498; 6426.950;  130.525;    0.000
743.693; 6552.950;   75.525;    0.000
743.888; 6933.950;  135.525;    0.000
744.084; 7731.950;  106.525;    0.000
744.279; 9337.950;  101.525;    0.000
744.474; 9671.950;   91.525;    0.000
744.670; 8764.950;  144.525;    0.000
744.865; 7884.950;  128.525;    0.000
745.060; 7443.950;   63.525;    0.000
745.255; 7328.950;  155.525;    0.000
745.451; 7179.950;  110.525;    0.000
745.646; 6994.950;  150.525;    0.000
745.841; 6944.950;  128.525;    0.000
746.036; 7125.950;  110.525;    0.000
746.231; 7130.950;  126.525;    0.000
746.426; 7495.950;   83.525;    0.000
746.622; 8731.950;  157.525;    0.000
746.817;11078.950;  112.525;    0.000
747.012;12546.950;  115.525;    0.000
747.207;11105.950;  161.525;    0.000
747.402;10005.950;   88.525;    0.000
747.597; 9157.950;  103.525;    0.000
747.792; 8659.950;  152.525;    0.000
747.987; 8377.950;   80.525;    0.000
748.182; 8032.950;   89.525;    0.000
748.377; 7774.950;  104.525;    0.000
748.572; 7542.950;  138.525;    0.000
748.767; 7165.950;  100.525;    0.000
748.961; 6988.950;  106.525;    0.000
749.156; 6862.950;  113.525;    0.000
749.351; 6771.950;  116.525;    0.000
749.546; 6559.950;  107.525;    0.000
749.741; 6504.950;  102.525;    0.000
749.936; 6470.950;  105.525;    0.000
750.130; 6375.950;  111.525;    0.000
750.325; 6245.950;   72.525;    0.000
750.520; 6339.950;   96.525;    0.000
750.715; 6272.950;  135.525;    0.000
750.909; 6141.950;  107.525;    0.000
751.104; 6139.950;  106.525;    0.000
751.299; 6054.950;  144.525;    0.000
751.493; 6029.950;  116.525;    0.000
751.688; 6036.950;   96.525;    0.000
751.882; 6064.950;   92.525;    0.000
752.077; 5997.950;  109.525;    0.000
752.272; 5911.950;   96.525;    0.000
752.466; 5886.950;  110.525;    0.000
752.661; 5890.950;  120.525;    0.000
752.855; 5784.950;   70.525;    0.000
753.050; 5846.950;  129.525;    0.000
753.244; 5757.950;  126.525;    0.000
753.439; 5795.950;  115.525;    0.000
753.633; 5677.950;  120.525;    0.000
753.828; 5564.950;  129.525;    0.000
754.022; 5657.950;  139.525;    0.000
754.216; 5758.950;  121.525;    0.000
754.411; 5555.950;  108.525;    0.000
754.605; 5606.950;   94.525;    0.000
754.799; 5534.950;  125.525;    0.000
754.994; 5584.950;  160.525;    0.000
755.188; 5679.950;  151.525;    0.000
755.382; 5579.950;  102.525;    0.000
755.576; 5573.950;  103.525;    0.000
755.771; 5503.950;   99.525;    0.000
755.965; 5580.950;  158.525;    0.000
756.159; 5641.950;   96.525;    0.000
756.353; 5503.950;  157.525;    0.000
756.547; 5560.950;  132.525;    0.000
756.742; 5429.950;  106.525;    0.000
756.936; 5552.950;  113.525;    0.000
757.130; 5432.950;  114.525;    0.000
757.324; 5379.950;  111.525;    0.000
757.518; 5568.950;  142.525;    0.000
757.712; 5608.950;  137.525;    0.000
757.906; 5556.950;   93.525;    0.000
758.100; 5542.950;  119.525;    0.000
758.294; 5425.950;  132.525;    0.000
758.488; 5476.950;  153.525;    0.000
758.682; 5528.950;  101.525;    0.000
758.876; 5492.950;  129.525;    0.000
759.070; 5495.950;  168.525;    0.000
759.264; 5492.950;   96.525;    0.000
759.458; 5350.950;  117.525;    0.000
759.651; 5474.950;  135.525;    0.000
759.845; 5418.950;  127.525;    0.000
760.039; 5503.950;  120.525;    0.000
760.233; 5428.950;  124.525;    0.000
760.427; 5331.950;  115.525;    0.000
760.620; 5503.950;  130.525;    0.000
760.814; 5455.950;  102.525;    0.000
761.008; 5595.950;  174.525;    0.000
761.202; 5488.950;  132.525;    0.000
761.395; 5439.950;  126.525;    0.000
761.589; 5489.950;  133.525;    0.000
761.783; 5427.950;  147.525;    0.000
761.976; 5507.950;  147.525;    0.000
762.170; 5512.950;  174.525;    0.000
762.363; 5521.950;   97.525;    0.000
762.557; 5526.950;  141.525;    0.000
762.750; 5523.950;  112.525;    0.000
762.944; 5413.950;  110.525;    0.000
763.138; 5582.950;  125.525;    0.000
763.331; 5432.950;  101.525;    0.000
763.524; 5683.950;  101.525;    0.000
763.718; 5725.950;  156.525;    0.000
763.911; 5690.950;  143.525;    0.000
764.105; 5673.950;  139.525;    0.000
764.298; 5686.950;   89.525;    0.000
764.492; 5569.950;  111.525;    0.000
764.685; 5602.950;  136.525;    0.000
764.878; 5563.950;  146.525;    0.000
765.072; 5544.950;  110.525;    0.000
765.265; 5583.950;  141.525;    0.000
765.458; 5528.950;   82.525;    0.000
765.651; 5675.950;  144.525;    0.000
765.845; 5573.950;   79.525;    0.000
766.038; 5692.950;  123.525;    0.000
766.231; 6399.950;  125.525;    0.000
766.424; 9162.950;  131.525;    0.000
766.617; 9369.950;   62.525;    0.000
766.811; 6206.950;  142.525;    0.000
767.004; 5936.950;  134.525;    0.000
767.197; 5787.950;  147.525;    0.000
767.390; 5755.950;  100.525;    0.000
767.583; 5640.950;  121.525;    0.000
767.776; 5657.950;   91.525;    0.000
767.969; 5720.950;  113.525;    0.000
768.162; 5797.950;  170.525;    0.000
768.355; 5765.950;  134.525;    0.000
768.548; 5944.950;  177.525;    0.000
768.741; 5780.950;   96.525;    0.000
768.934; 5828.950;  143.525;    0.000
769.127; 5858.950;  147.525;    0.000
769.320; 5814.950;   93.525;    0.000
769.513; 5962.950;  137.525;    0.000
769.706; 6712.950;   96.525;    0.000
769.898; 9148.950;  118.525;    0.000
770.091; 7365.950;  138.525;    0.000
770.284; 6115.950;  133.525;    0.000
770.477; 6155.950;  137.525;    0.000
770.670; 6160.950;  124.525;    0.000
770.862; 6210.950;  125.525;    0.000
771.055; 6138.950;  135.525;    0.000
771.248; 6353.950;  109.525;    0.000
771.441; 6273.950;  141.525;    0.000
771.633; 6298.950;  142.525;    0.000
771.826; 6271.950;  123.525;    0.000
772.018; 6369.950;  136.525;    0.000
772.211; 6324.950;  145.525;    0.000
772.404; 6534.950;  127.525;    0.000
772.596; 6475.950;  193.525;    0.000
772.789; 6463.950;   64.525;    0.000
772.981; 6638.950;  142.525;    0.000
773.174; 6626.950;  105.525;    0.000
773.366; 6745.950;  166.525;    0.000
773.559; 6769.950;  125.525;    0.000
773.751; 6961.950;  126.525;    0.000
773.944; 7065.950;  147.525;    0.000
774.136; 7237.950;  155.525;    0.000
774.329; 7304.950;  127.525;    0.000
774.521; 7360.950;  133.525;    0.000
774.713; 7784.950;  139.525;    0.000
774.906; 7910.950;  170.525;    0.000
775.098; 8366.950;  144.525;    0.000
775.290; 8598.950;  162.525;    0.000
775.483; 8990.950;  137.525;    0.000
775.675; 9588.950;  148.525;    0.000
775.867;10239.950;   81.525;    0.000
776.059;11049.950;  134.525;    0.000
776.251;11987.950;  137.525;    0.000
776.444;13685.950;  155.525;    0.000
776.636;15686.950;  148.525;    0.000
776.828;19685.949;  129.525;    0.000
777.020;27464.949;  133.525;    0.000
777.212;40459.949;  137.525;    0.000
777.404;45070.949;  124.525;    0.000
777.596;41565.949;  142.525;    0.000
777.788;31324.949;  155.525;    0.000
777.980;24328.949;  119.525;    0.000
778.172;19511.949;  129.525;    0.000
778.364;16947.949;  122.525;    0.000
778.556;15170.950;  129.525;    0.000
778.748;13478.950;  178.525;    0.000
778.940;12378.950;  128.525;    0.000
779.132;11425.950;  145.525;    0.000
779.324;10389.950;   89.525;    0.000
779.516; 9821.950;  161.525;    0.000
779.708; 9475.950;  183.525;    0.000
779.900; 8789.950;  124.525;    0.000
780.091; 8562.950;  143.525;    0.000
780.283; 8260.950;  135.525;    0.000
780.475; 8036.950;  129.525;    0.000
780.667; 7837.950;  178.525;    0.000
780.859; 7644.950;  146.525;    0.000
781.050; 7277.950;  156.525;    0.000
781.242; 7146.950;  138.525;    0.000
781.434; 6890.950;  117.525;    0.000
781.625; 6972.950;  161.525;    0.000
781.817; 6706.950;  127.525;    0.000
782.008; 6672.950;  138.525;    0.000
782.200; 6489.950;  139.525;    0.000
782.392; 6601.950;  179.525;    0.000
782.583; 6424.950;  137.525;    0.000
782.775; 6297.950;  162.525;    0.000
782.966; 6290.950;  159.525;    0.000
783.158; 6206.950;  118.525;    0.000
783.349; 6128.950;  160.525;    0.000
783.541; 6076.950;  139.525;    0.000
783.732; 5996.950;  145.525;    0.000
783.924; 5889.950;  146.525;    0.000
784.115; 5907.950;  125.525;    0.000
784.306; 5844.950;  118.525;    0.000
784.498; 5748.950;  144.525;    0.000
784.689; 5842.950;  145.525;    0.000
784.880; 5796.950;  137.525;    0.000
785.072; 5711.950;  157.525;    0.000
785.263; 5834.950;  149.525;    0.000
785.454; 5756.950;  128.525;    0.000
785.645; 5621.950;  131.525;    0.000
785.837; 5682.950;  137.525;    0.000
786.028; 5691.950;  161.525;    0.000
786.219; 5537.950;  155.525;    0.000
786.410; 5622.950;  146.525;    0.000
786.601; 5604.950;  120.525;    0.000
786.792; 5491.950;  179.525;    0.000
786.984; 5639.950;  113.525;    0.000
787.175; 5520.950;  156.525;    0.000
787.366; 5401.950;  131.525;    0.000
787.557; 5466.950;  138.525;    0.000
787.748; 5505.950;  112.525;    0.000
787.939; 5513.950;  115.525;    0.000
788.130; 5690.950;  150.525;    0.000
788.321; 5476.950;  122.525;    0.000
788.512; 5571.950;  147.525;    0.000
788.703; 5598.950;  126.525;    0.000
788.894; 5606.950;   80.525;    0.000
789.084; 5651.950;  127.525;    0.000
789.275; 5584.950;  141.525;    0.000
789.466; 5707.950;  108.525;    0.000
789.657; 5639.950;  137.525;    0.000
789.848; 5509.950;  126.525;    0.000
790.039; 5595.950;  144.525;    0.000
790.229; 5560.950;  105.525;    0.000
790.420; 5447.950;   96.525;    0.000
790.611; 5523.950;  171.525;    0.000
790.801; 5604.950;   89.525;    0.000
790.992; 5653.950;  140.525;    0.000
791.183; 5686.950;  143.525;    0.000
791.373; 5431.950;  128.525;    0.000
791.564; 5597.950;   96.525;    0.000
791.755; 5610.950;  111.525;    0.000
791.945; 5570.950;  112.525;    0.000
792.136; 5567.950;  124.525;    0.000
792.326; 5591.950;   88.525;    0.000
792.517; 5646.950;  130.525;    0.000
792.707; 5777.950;  144.525;    0.000
792.898; 5743.950;  120.525;    0.000
793.088; 5785.950;  106.525;    0.000
793.279; 5795.950;  104.525;    0.000
793.469; 5969.950;  103.525;    0.000
793.660; 6122.950;  120.525;    0.000
793.850; 6095.950;  106.525;    0.000
794.040; 6218.950;  135.525;    0.000
794.231; 6523.950;   80.525;    0.000
794.421; 6996.950;  120.525;    0.000
794.611; 7873.950;  154.525;    0.000
794.802; 8951.950;  103.525;    0.000
794.992; 9467.950;  120.525;    0.000
795.182; 9673.950;  156.525;    0.000
795.372; 9178.950;  104.525;    0.000
795.563; 8340.950;  153.525;    0.000
795.753; 7639.950;  112.525;    0.000
795.943; 7071.950;  128.525;    0.000
796.133; 6718.950;  128.525;    0.000
796.323; 6669.950;  152.525;    0.000
796.513; 6386.950;  123.525;    0.000
796.703; 6015.950;  134.525;    0.000
796.893; 6029.950;  120.525;    0.000
797.083; 6035.950;  136.525;    0.000
797.273; 6000.950;  128.525;    0.000
797.463; 5945.950;  140.525;    0.000
797.653; 5725.950;   75.525;    0.000
797.843; 5596.950;  114.525;    0.000
798.033; 5523.950;   90.525;    0.000
798.223; 5568.950;  136.525;    0.000
798.413; 5402.950;  164.525;    0.000
798.603; 5396.950;  150.525;    0.000
798.793; 5360.950;  137.525;    0.000
798.983; 5343.950;  119.525;    0.000
799.172; 5156.950;  136.525;    0.000
799.362; 5263.950;  138.525;    0.000
799.552; 5210.950;  123.525;    0.000
799.742; 5124.950;  117.525;    0.000
799.932; 5197.950;  108.525;    0.000
800.121; 5274.950;  152.525;    0.000
800.311; 5085.950;  117.525;    0.000
800.501; 5009.950;  100.525;    0.000
800.690; 5186.950;  139.525;    0.000
800.880; 5022.950;  138.525;    0.000
801.070; 5119.950;  120.525;    0.000
801.259; 5042.950;  143.525;    0.000
801.449; 5112.950;  110.525;    0.000
801.638; 5055.950;  140.525;    0.000
801.828; 5097.950;  103.525;    0.000
802.017; 5039.950;   78.525;    0.000
802.207; 5029.950;  126.525;    0.000
802.396; 5038.950;  151.525;    0.000
802.586; 5033.950;  106.525;    0.000
802.775; 4904.950;  152.525;    0.000
802.965; 5015.950;  117.525;    0.000
803.154; 4918.950;  171.525;    0.000
803.343; 4995.950;  126.525;    0.000
803.533; 4936.950;  135.525;    0.000
803.722; 4978.950;  144.525;    0.000
803.911; 4927.950;  109.525;    0.000
804.101; 5057.950;  146.525;    0.000
804.290; 4943.950;  115.525;    0.000
804.479; 4890.950;  128.525;    0.000
804.668; 4887.950;  156.525;    0.000
804.857; 4879.950;  151.525;    0.000
805.047; 4960.950;  131.525;    0.000
805.236; 4897.950;  144.525;    0.000
805.425; 4951.950;  160.525;    0.000
805.614; 4929.950;  112.525;    0.000
805.803; 4955.950;  120.525;    0.000
805.992; 4916.950;  148.525;    0.000
806.181; 4988.950;  108.525;    0.000
806.370; 5029.950;  142.525;    0.000
806.559; 4988.950;  116.525;    0.000
806.748; 5057.950;  108.525;    0.000
806.937; 4970.950;  110.525;    0.000
807.126; 4990.950;  126.525;    0.000
807.315; 5012.950;  121.525;    0.000
807.504; 5004.950;  102.525;    0.000
807.693; 5092.950;  134.525;    0.000
807.882; 4939.950;  135.525;    0.000
808.071; 5119.950;  135.525;    0.000
808.260; 5118.950;   93.525;    0.000
808.448; 5166.950;  151.525;    0.000
808.637; 5034.950;  105.525;    0.000
808.826; 5189.950;  178.525;    0.000
809.015; 5123.950;  152.525;    0.000
809.203; 5329.950;  147.525;    0.000
809.392; 5217.950;  144.525;    0.000
809.581; 5307.950;  167.525;    0.000
809.770; 5290.950;  151.525;    0.000
809.958; 5273.950;  128.525;    0.000
810.147; 5312.950;  152.525;    0.000
810.335; 5382.950;  160.525;    0.000
810.524; 5413.950;  130.525;    0.000
810.713; 5483.950;  128.525;    0.000
810.901; 5574.950;  140.525;    0.000
811.090; 5684.950;  152.525;    0.000
811.278; 5697.950;  126.525;    0.000
811.467; 5894.950;  161.525;    0.000
811.655; 5997.950;  184.525;    0.000
811.844; 5917.950;  148.525;    0.000
812.032; 5740.950;  138.525;    0.000
812.220; 5988.950;  157.525;    0.000
812.409; 5881.950;  143.525;    0.000
812.597; 6086.950;  124.525;    0.000
812.785; 6062.950;  170.525;    0.000
812.974; 6052.950;  135.525;    0.000
813.162; 6130.950;  135.525;    0.000
813.350; 6212.950;  182.525;    0.000
813.539; 6271.950;  126.525;    0.000
813.727; 6415.950;  127.525;    0.000
813.915; 6384.950;  140.525;    0.000
814.103; 6499.950;  176.525;    0.000
814.291; 6636.950;  115.525;    0.000
814.479; 6783.950;  119.525;    0.000
814.668; 6891.950;  134.525;    0.000
814.856; 6976.950;  120.525;    0.000
815.044; 7159.950;  164.525;    0.000
815.232; 7282.950;  146.525;    0.000
815.420; 7505.950;  154.525;    0.000
815.608; 7587.950;  137.525;    0.000
815.796; 7894.950;  108.525;    0.000
815.984; 7959.950;  134.525;    0.000
816.172; 8361.950;  123.525;    0.000
816.360; 8474.950;  181.525;    0.000
816.548; 8839.950;  139.525;    0.000
816.736; 9337.950;  138.525;    0.000
816.924; 9917.950;  151.525;    0.000
817.111;10474.950;  156.525;    0.000
817.299;11183.950;  147.525;    0.000
817.487;12409.950;  188.525;    0.000
817.675;13724.950;  129.525;    0.000
817.863;16070.950;  128.525;    0.000
818.050;21515.949;  110.525;    0.000
818.238;35391.949;  166.525;    0.000
818.426;47312.949;  136.525;    0.000
818.613;37048.949;  143.525;    0.000
818.801;30835.949;  150.525;    0.000
818.989;29463.949;  179.525;    0.000
819.176;31867.949;  123.525;    0.000
819.364;42802.949;  148.525;    0.000
819.552;55634.949;   86.525;    0.000
819.739;44647.949;  169.525;    0.000
819.927;34583.949;  130.525;    0.000
820.114;29045.949;  144.525;    0.000
820.302;25445.949;  166.525;    0.000
820.489;23159.949;  145.525;    0.000
820.677;21267.949;  101.525;    0.000
820.864;19875.949;  149.525;    0.000
821.052;19620.949;  130.525;    0.000
821.239;19010.949;  147.525;    0.000
821.426;19365.949;  121.525;    0.000
821.614;21459.949;  187.525;    0.000
821.801;22161.949;  105.525;    0.000
821.988;19786.949;  167.525;    0.000
822.176;18821.949;  130.525;    0.000
822.363;18732.949;  143.525;    0.000
822.550;17357.949;  108.525;    0.000
822.737;16084.950;  109.525;    0.000
822.924;14799.950;  156.525;    0.000
823.112;14160.950;  123.525;    0.000
823.299;13336.950;  128.525;    0.000
823.486;12762.950;  138.525;    0.000
823.673;12126.950;  125.525;    0.000
823.860;11631.950;  138.525;    0.000
824.047;11754.950;  122.525;    0.000
824.234;12572.950;  134.525;    0.000
824.421;12685.950;   95.525;    0.000
824.608;11279.950;  151.525;    0.000
824.795;10485.950;  117.525;    0.000
824.982; 9977.950;  143.525;    0.000
825.169; 9456.950;   83.525;    0.000
825.356; 8902.950;  126.525;    0.000
825.543; 8517.950;   92.525;    0.000
825.730; 8248.950;  113.525;    0.000
825.917; 7948.950;  142.525;    0.000
826.104; 7848.950;  182.525;    0.000
826.290; 7485.950;  137.525;    0.000
826.477; 7318.950;  126.525;    0.000
826.664; 7168.950;  135.525;    0.000
826.851; 7038.950;  139.525;    0.000
827.038; 6768.950;  135.525;    0.000
827.224; 6586.950;  143.525;    0.000
827.411; 6559.950;  153.525;    0.000
827.598; 6438.950;  122.525;    0.000
827.784; 6281.950;  138.525;    0.000
827.971; 6176.950;  134.525;    0.000
828.157; 6055.950;  152.525;    0.000
828.344; 6009.950;  135.525;    0.000
828.531; 5845.950;  137.525;    0.000
828.717; 5770.950;  117.525;    0.000
828.904; 5738.950;  127.525;    0.000
829.090; 5683.950;  172.525;    0.000
829.277; 5608.950;  144.525;    0.000
829.463; 5472.950;  159.525;    0.000
829.650; 5375.950;  187.525;    0.000
829.836; 5423.950;  138.525;    0.000
830.022; 5341.950;  196.525;    0.000
830.209; 5186.950;  118.525;    0.000
830.395; 5054.950;  148.525;    0.000
830.581; 5065.950;  108.525;    0.000
830.768; 4879.950;  137.525;    0.000
830.954; 5000.950;  162.525;    0.000
831.140; 4949.950;  117.525;    0.000
831.327; 4849.950;  176.525;    0.000
831.513; 4922.950;  162.525;    0.000
831.699; 4721.950;  157.525;    0.000
831.885; 4800.950;  153.525;    0.000
832.071; 4632.950;  123.525;    0.000
832.257; 4562.950;  142.525;    0.000
832.444; 4567.950;  165.525;    0.000
832.630; 4606.950;  159.525;    0.000
832.816; 4534.950;  145.525;    0.000
833.002; 4512.950;  120.525;    0.000
833.188; 4457.950;  145.525;    0.000
833.374; 4377.950;  137.525;    0.000
833.560; 4421.950;  152.525;    0.000
833.746; 4375.950;  139.525;    0.000
833.932; 4212.950;  170.525;    0.000
834.118; 4182.950;  111.525;    0.000
834.303; 4254.950;  141.525;    0.000
834.489; 4226.950;  146.525;    0.000
834.675; 4259.950;  156.525;    0.000
834.861; 4106.950;   87.525;    0.000
835.047; 4205.950;  134.525;    0.000
835.233; 4095.950;   89.525;    0.000
835.418; 4109.950;  145.525;    0.000
835.604; 4109.950;  136.525;    0.000
835.790; 4111.950;  132.525;    0.000
835.976; 4002.950;  161.525;    0.000
836.161; 4085.950;  157.525;    0.000
836.347; 3956.950;  147.525;    0.000
836.533; 3968.950;  116.525;    0.000
836.718; 3969.950;  168.525;    0.000
836.904; 4055.950;  199.525;    0.000
837.089; 3992.950;  165.525;    0.000
837.275; 3876.950;  166.525;    0.000
837.460; 3900.950;  144.525;    0.000
837.646; 3958.950;  164.525;    0.000
837.831; 3969.950;  122.525;    0.000
838.017; 3954.950;  163.525;    0.000
838.202; 3936.950;  139.525;    0.000
838.388; 4006.950;  174.525;    0.000
838.573; 3945.950;  140.525;    0.000
838.759; 3850.950;  167.525;    0.000
838.944; 3723.950;  142.525;    0.000
839.129; 3872.950;  164.525;    0.000
839.315; 3883.950;  129.525;    0.000
839.500; 3792.950;  150.525;    0.000
839.685; 3855.950;  118.525;    0.000
839.870; 3863.950;  177.525;    0.000
840.056; 3800.950;  144.525;    0.000
840.241; 3927.950;  121.525;    0.000
840.426; 3980.950;  131.525;    0.000
840.611; 3945.950;  177.525;    0.000
840.796; 3919.950;  173.525;    0.000
840.981; 3952.950;  156.525;    0.000
841.166; 3907.950;  145.525;    0.000
841.352; 3938.950;  150.525;    0.000
841.537; 3976.950;  143.525;    0.000
841.722; 4045.950;  165.525;    0.000
841.907; 4018.950;  184.525;    0.000
842.092; 3989.950;  171.525;    0.000
842.277; 4005.950;  155.525;    0.000
842.461; 4164.950;  152.525;    0.000
842.646; 4244.950;  107.525;    0.000
842.831; 4281.950;  160.525;    0.000
843.016; 4506.950;  160.525;    0.000
843.201; 4574.950;  164.525;    0.000
843.386; 4718.950;  134.525;    0.000
843.571; 4904.950;  132.525;    0.000
843.755; 5192.950;  158.525;    0.000
843.940; 5463.950;  152.525;    0.000
844.125; 6179.950;  154.525;    0.000
844.310; 7327.950;  147.525;    0.000
844.494; 9348.950;  158.525;    0.000
844.679;12722.950;  173.525;    0.000
844.864;12475.950;  152.525;    0.000
845.048;10119.950;  139.525;    0.000
845.233; 8549.950;  200.525;    0.000
845.418; 7482.950;  139.525;    0.000
845.602; 6823.950;  147.525;    0.000
845.787; 6173.950;  148.525;    0.000
845.971; 5695.950;  170.525;    0.000
846.156; 5306.950;  136.525;    0.000
846.340; 5015.950;  146.525;    0.000
846.525; 4817.950;  188.525;    0.000
846.709; 4718.950;  128.525;    0.000
846.893; 4519.950;  151.525;    0.000
847.078; 4305.950;  164.525;    0.000
847.262; 4181.950;  155.525;    0.000
847.447; 4036.950;  114.525;    0.000
847.631; 3969.950;  148.525;    0.000
847.815; 3909.950;  114.525;    0.000
848.000; 3818.950;  134.525;    0.000
848.184; 3832.950;  154.525;    0.000
848.368; 3824.950;  145.525;    0.000
848.552; 3636.950;  122.525;    0.000
848.736; 3726.950;  139.525;    0.000
848.921; 3579.950;  143.525;    0.000
849.105; 3556.950;  145.525;    0.000
849.289; 3484.950;  173.525;    0.000
849.473; 3498.950;  147.525;    0.000
849.657; 3523.950;  144.525;    0.000
849.841; 3391.950;  168.525;    0.000
850.025; 3450.950;  205.525;    0.000
850.209; 3350.950;  171.525;    0.000
850.393; 3289.950;  130.525;    0.000
850.577; 3293.950;  146.525;    0.000
850.761; 3367.950;  188.525;    0.000
850.945; 3255.950;  137.525;    0.000
851.129; 3179.950;  192.525;    0.000
851.313; 3324.950;  199.525;    0.000
851.497; 3280.950;  165.525;    0.000
851.680; 3303.950;  196.525;    0.000
851.864; 3247.950;  169.525;    0.000
852.048; 3221.950;  156.525;    0.000
852.232; 3174.950;  150.525;    0.000
852.416; 3246.950;  219.525;    0.000
852.599; 3181.950;  168.525;    0.000
852.783; 3169.950;  165.525;    0.000
852.967; 3240.950;  166.525;    0.000
853.150; 3219.950;  191.525;    0.000
853.334; 3149.950;  158.525;    0.000
853.518; 3214.950;  168.525;    0.000
853.701; 3068.950;  125.525;    0.000
853.885; 3092.950;  165.525;    0.000
854.068; 3039.950;  142.525;    0.000
854.252; 3066.950;  167.525;    0.000
854.435; 3249.950;  146.525;    0.000
854.619; 3200.950;  163.525;    0.000
854.802; 3126.950;  167.525;    0.000
854.986; 3073.950;  163.525;    0.000
855.169; 3133.950;  146.525;    0.000
855.353; 3184.950;  183.525;    0.000
855.536; 3196.950;  140.525;    0.000
855.719; 3235.950;  168.525;    0.000
855.903; 3192.950;  170.525;    0.000
856.086; 3214.950;  145.525;    0.000
856.269; 3250.950;  126.525;    0.000
856.452; 3226.950;  142.525;    0.000
856.636; 3299.950;  140.525;    0.000
856.819; 3616.950;  127.525;    0.000
857.002; 3761.950;  165.525;    0.000
857.185; 3645.950;  111.525;    0.000
857.368; 3455.950;  143.525;    0.000
857.552; 3381.950;  174.525;    0.000
857.735; 3396.950;  194.525;    0.000
857.918; 3318.950;  171.525;    0.000
858.101; 3350.950;  142.525;    0.000
858.284; 3281.950;  118.525;    0.000
858.467; 3350.950;  163.525;    0.000
858.650; 3492.950;  149.525;    0.000
858.833; 3559.950;  120.525;    0.000
859.016; 3631.950;  169.525;    0.000
859.199; 3694.950;  121.525;    0.000
859.382; 4113.950;  184.525;    0.000
859.564; 4314.950;  139.525;    0.000
859.747; 4349.950;  126.525;    0.000
859.930; 3995.950;  109.525;    0.000
860.113; 3885.950;  137.525;    0.000
860.296; 3850.950;  182.525;    0.000
860.478; 3677.950;  136.525;    0.000
860.661; 3650.950;  157.525;    0.000
860.844; 3637.950;  129.525;    0.000
861.027; 3628.950;  163.525;    0.000
861.209; 3661.950;  151.525;    0.000
861.392; 3536.950;  124.525;    0.000
861.575; 3647.950;  163.525;    0.000
861.757; 3746.950;  205.525;    0.000
861.940; 3826.950;  180.525;    0.000
862.122; 3732.950;  148.525;    0.000
862.305; 3826.950;  128.525;    0.000
862.487; 4067.950;  172.525;    0.000
862.670; 4237.950;  123.525;    0.000
862.852; 5093.950;  126.525;    0.000
863.035; 6202.950;  174.525;    0.000
863.217; 6041.950;  160.525;    0.000
863.400; 5373.950;  164.525;    0.000
863.582; 5018.950;  118.525;    0.000
863.764; 4824.950;  143.525;    0.000
863.947; 4557.950;  137.525;    0.000
864.129; 4392.950;  166.525;    0.000
864.311; 4276.950;  128.525;    0.000
864.493; 4293.950;  153.525;    0.000
864.676; 4200.950;  156.525;    0.000
864.858; 4112.950;  159.525;    0.000
865.040; 4170.950;  163.525;    0.000
865.222; 4112.950;  138.525;    0.000
865.404; 4246.950;  157.525;    0.000
865.587; 4468.950;  184.525;    0.000
865.769; 4620.950;  178.525;    0.000
865.951; 4613.950;  104.525;    0.000
866.133; 4532.950;  147.525;    0.000
866.315; 4479.950;  141.525;    0.000
866.497; 4518.950;  132.525;    0.000
866.679; 4830.950;  139.525;    0.000
866.861; 4888.950;  118.525;    0.000
867.043; 5094.950;  154.525;    0.000
867.225; 5359.950;  147.525;    0.000
867.407; 5799.950;  158.525;    0.000
867.589; 6555.950;  172.525;    0.000
867.770; 8070.950;  159.525;    0.000
867.952;11107.950;  149.525;    0.000
868.134;14577.950;  156.525;    0.000
868.316;14383.950;  171.525;    0.000
868.498;13831.950;  200.525;    0.000
868.679;12075.950;  174.525;    0.000
868.861;10095.950;  175.525;    0.000
869.043; 8540.950;  174.525;    0.000
869.224; 7499.950;  122.525;    0.000
869.406; 6625.950;  166.525;    0.000
869.588; 6441.950;  143.525;    0.000
869.769; 6003.950;  152.525;    0.000
869.951; 5836.950;  165.525;    0.000
870.132; 6007.950;  115.525;    0.000
870.314; 6660.950;  139.525;    0.000
870.495; 6752.950;  168.525;    0.000
870.677; 6233.950;  188.525;    0.000
870.858; 5928.950;  123.525;    0.000
871.040; 6403.950;  170.525;    0.000
871.221; 6922.950;  148.525;    0.000
871.403; 6652.950;  140.525;    0.000
871.584; 6014.950;  174.525;    0.000
871.765; 6230.950;  168.525;    0.000
871.947; 6635.950;  191.525;    0.000
872.128; 5937.950;  132.525;    0.000
872.309; 5198.950;  140.525;    0.000
872.491; 4831.950;  157.525;    0.000
872.672; 4449.950;  130.525;    0.000
872.853; 4455.950;  148.525;    0.000
873.034; 4304.950;  138.525;    0.000
873.215; 4075.950;  152.525;    0.000
873.396; 3789.950;  149.525;    0.000
873.578; 3726.950;  173.525;    0.000
873.759; 3663.950;  158.525;    0.000
873.940; 3438.950;  147.525;    0.000
874.121; 3429.950;  136.525;    0.000
874.302; 3380.950;  151.525;    0.000
874.483; 3307.950;  137.525;    0.000
874.664; 3385.950;  163.525;    0.000
874.845; 3355.950;  124.525;    0.000
875.026; 3276.950;  134.525;    0.000
875.207; 3188.950;  164.525;    0.000
875.388; 3115.950;  163.525;    0.000
875.568; 3034.950;  176.525;    0.000
875.749; 3019.950;  108.525;    0.000
875.930; 2956.950;  191.525;    0.000
876.111; 2904.950;  170.525;    0.000
876.292; 2887.950;  180.525;    0.000
876.472; 2879.950;  150.525;    0.000
876.653; 2883.950;  162.525;    0.000
876.834; 2822.950;  176.525;    0.000
877.015; 2852.950;  203.525;    0.000
877.195; 2877.950;  178.525;    0.000
877.376; 2777.950;  141.525;    0.000
877.556; 2709.950;  135.525;    0.000
877.737; 2739.950;  174.525;    0.000
877.918; 2732.950;  150.525;    0.000
878.098; 2640.950;  133.525;    0.000
878.279; 2708.950;  129.525;    0.000
878.459; 2622.950;  162.525;    0.000
878.640; 2699.950;  187.525;    0.000
878.820; 2676.950;  151.525;    0.000
879.000; 2664.950;  159.525;    0.000
879.181; 2638.950;  171.525;    0.000
879.361; 2623.950;  167.525;    0.000
879.542; 2621.950;  126.525;    0.000
879.722; 2516.950;  152.525;    0.000
879.902; 2652.950;  144.525;    0.000
880.083; 2653.950;  154.525;    0.000
880.263; 2715.950;  148.525;    0.000
880.443; 2720.950;  185.525;    0.000
880.623; 2780.950;  172.525;    0.000
880.803; 3106.950;  152.525;    0.000
880.984; 2856.950;  165.525;    0.000
881.164; 2865.950;  164.525;    0.000
881.344; 2764.950;  141.525;    0.000
881.524; 2770.950;  160.525;    0.000
881.704; 2845.950;  164.525;    0.000
881.884; 2886.950;  159.525;    0.000
882.064; 3014.950;  158.525;    0.000
882.244; 3096.950;  147.525;    0.000
882.424; 2837.950;  160.525;    0.000
882.604; 2852.950;  150.525;    0.000
882.784; 2763.950;  138.525;    0.000
882.964; 2753.950;  157.525;    0.000
883.144; 2630.950;  128.525;    0.000
883.324; 2648.950;  220.525;    0.000
883.504; 2634.950;  177.525;    0.000
883.683; 2577.950;  159.525;    0.000
883.863; 2624.950;  143.525;    0.000
884.043; 2511.950;  156.525;    0.000
884.223; 2516.950;  152.525;    0.000
884.402; 2551.950;  169.525;    0.000
884.582; 2526.950;  162.525;    0.000
884.762; 2510.950;  172.525;    0.000
884.941; 2447.950;  220.525;    0.000
885.121; 2442.950;  128.525;    0.000
885.301; 2485.950;  141.525;    0.000
885.480; 2433.950;  141.525;    0.000
885.660; 2351.950;  132.525;    0.000
885.839; 2365.950;  146.525;    0.000
886.019; 2467.950;  170.525;    0.000
886.198; 2366.950;  143.525;    0.000
886.378; 2424.950;  159.525;    0.000
886.557; 2361.950;  148.525;    0.000
886.737; 2352.950;  125.525;    0.000
886.916; 2375.950;  177.525;    0.000
887.095; 2245.950;  186.525;    0.000
887.275; 2228.950;  134.525;    0.000
887.454; 2272.950;  148.525;    0.000
887.633; 2280.950;  171.525;    0.000
887.813; 2303.950;  187.525;    0.000
887.992; 2370.950;  157.525;    0.000
888.171; 2322.950;  143.525;    0.000
888.350; 2368.950;  182.525;    0.000
888.530; 2350.950;  142.525;    0.000
888.709; 2325.950;  160.525;    0.000
888.888; 2203.950;  197.525;    0.000
889.067; 2291.950;  126.525;    0.000
889.246; 2332.950;  197.525;    0.000
889.425; 2237.950;  161.525;    0.000
889.604; 2390.950;  180.525;    0.000
889.783; 2303.950;  135.525;    0.000
889.962; 2213.950;  107.525;    0.000
890.141; 2318.950;  167.525;    0.000
890.320; 2254.950;  149.525;    0.000
890.499; 2269.950;  194.525;    0.000
890.678; 2245.950;  138.525;    0.000
890.857; 2188.950;  146.525;    0.000
891.036; 2195.950;  178.525;    0.000
891.214; 2283.950;  151.525;    0.000
891.393; 2312.950;  137.525;    0.000
891.572; 2246.950;  177.525;    0.000
891.751; 2232.950;  149.525;    0.000
891.930; 2285.950;  189.525;    0.000
892.108; 2289.950;  136.525;    0.000
892.287; 2340.950;  129.525;    0.000
892.466; 2215.950;  163.525;    0.000
892.644; 2272.950;  147.525;    0.000
892.823; 2184.950;  127.525;    0.000
893.001; 2238.950;  192.525;    0.000
893.180; 2330.950;  157.525;    0.000
893.359; 2257.950;  176.525;    0.000
893.537; 2206.950;  146.525;    0.000
893.716; 2196.950;  154.525;    0.000
893.894; 2215.950;  166.525;    0.000
894.073; 2315.950;  163.525;    0.000
894.251; 2266.950;  166.525;    0.000
894.429; 2271.950;  149.525;    0.000
894.608; 2268.950;  141.525;    0.000
894.786; 2265.950;  139.525;    0.000
894.964; 2317.950;  180.525;    0.000
895.143; 2221.950;  193.525;    0.000
895.321; 2251.950;  163.525;    0.000
895.499; 2226.950;  163.525;    0.000
895.677; 2268.950;  194.525;    0.000
895.856; 2298.950;  176.525;    0.000
896.034; 2288.950;  173.525;    0.000
896.212; 2383.950;  180.525;    0.000
896.390; 2261.950;  146.525;    0.000
896.568; 2290.950;  167.525;    0.000
896.746; 2219.950;  158.525;    0.000
896.924; 2318.950;  163.525;    0.000
897.102; 2325.950;  170.525;    0.000
897.280; 2242.950;  159.525;    0.000
897.458; 2287.950;  182.525;    0.000
897.636; 2289.950;  151.525;    0.000
897.814; 2301.950;  130.525;    0.000
897.992; 2310.950;  213.525;    0.000
898.170; 2257.950;  164.525;    0.000
898.348; 2215.950;  159.525;    0.000
898.526; 2332.950;  182.525;    0.000
898.704; 2308.950;  209.525;    0.000
898.882; 2321.950;  145.525;    0.000
899.059; 2302.950;  172.525;    0.000
899.237; 2285.950;  172.525;    0.000
899.415; 2340.950;  211.525;    0.000
899.593; 2398.950;  151.525;    0.000
899.770; 2326.950;  147.525;    0.000
899.948; 2365.950;  218.525;    0.000
900.125; 2384.950;  166.525;    0.000
900.303; 2328.950;  146.525;    0.000
900.481; 2337.950;  174.525;    0.000
900.658; 2415.950;  198.525;    0.000
900.836; 2352.950;  125.525;    0.000
901.013; 2388.950;  197.525;    0.000
901.191; 2430.950;  181.525;    0.000
901.368; 2462.950;  185.525;    0.000
901.546; 2443.950;  197.525;    0.000
901.723; 2524.950;  205.525;    0.000
901.901; 2606.950;  187.525;    0.000
902.078; 2619.950;  163.525;    0.000
902.255; 2677.950;  141.525;    0.000
902.433; 2621.950;  183.525;    0.000
902.610; 2718.950;  181.525;    0.000
902.787; 2625.950;  174.525;    0.000
902.964; 2741.950;  174.525;    0.000
903.142; 2786.950;  141.525;    0.000
903.319; 2862.950;  214.525;    0.000
903.496; 2903.950;  187.525;    0.000
903.673; 2952.950;  183.525;    0.000
903.850; 3014.950;  125.525;    0.000
904.027; 3145.950;  197.525;    0.000
904.204; 3173.950;  197.525;    0.000
904.381; 3459.950;  196.525;    0.000
904.558; 4028.950;  176.525;    0.000
904.735; 4399.950;  179.525;    0.000
904.912; 4510.950;  203.525;    0.000
905.089; 4566.950;  159.525;    0.000
905.266; 4113.950;  176.525;    0.000
905.443; 3864.950;  184.525;    0.000
905.620; 3573.950;  168.525;    0.000
905.797; 3467.950;  214.525;    0.000
905.974; 3335.950;  154.525;    0.000
906.151; 3314.950;  132.525;    0.000
906.327; 3360.950;  192.525;    0.000
906.504; 3262.950;  186.525;    0.000
906.681; 3071.950;  171.525;    0.000
906.858; 3067.950;  181.525;    0.000
907.034; 3027.950;  164.525;    0.000
907.211; 2940.950;  184.525;    0.000
907.388; 2837.950;  177.525;    0.000
907.564; 2805.950;  150.525;    0.000
907.741; 2911.950;  195.525;    0.000
907.917; 2733.950;  190.525;    0.000
908.094; 2726.950;  214.525;    0.000
908.271; 2598.950;  173.525;    0.000
908.447; 2654.950;  229.525;    0.000
908.623; 2605.950;  162.525;    0.000
908.800; 2574.950;  195.525;    0.000
908.976; 2597.950;  171.525;    0.000
909.153; 2585.950;  167.525;    0.000
909.329; 2541.950;  227.525;    0.000
909.505; 2516.950;  167.525;    0.000
909.682; 2465.950;  174.525;    0.000
909.858; 2412.950;  158.525;    0.000
910.034; 2528.950;  188.525;    0.000
910.211; 2500.950;  158.525;    0.000
910.387; 2474.950;  208.525;    0.000
910.563; 2434.950;  203.525;    0.000
910.739; 2404.950;  201.525;    0.000
910.915; 2418.950;  170.525;    0.000
911.091; 2428.950;  171.525;    0.000
911.268; 2417.950;  220.525;    0.000
911.444; 2333.950;  202.525;    0.000
911.620; 2320.950;  175.525;    0.000
911.796; 2267.950;  175.525;    0.000
911.972; 2332.950;  164.525;    0.000
912.148; 2422.950;  174.525;    0.000
912.324; 2436.950;  155.525;    0.000
912.500; 2372.950;  156.525;    0.000
912.676; 2339.950;  138.525;    0.000
912.851; 2424.950;  158.525;    0.000
913.027; 2443.950;  161.525;    0.000
913.203; 2328.950;  168.525;    0.000
913.379; 2342.950;  172.525;    0.000
913.555; 2391.950;  193.525;    0.000
913.730; 2322.950;  149.525;    0.000
913.906; 2323.950;  159.525;    0.000
914.082; 2402.950;  184.525;    0.000
914.258; 2389.950;  194.525;    0.000
914.433; 2341.950;  175.525;    0.000
914.609; 2351.950;  175.525;    0.000
914.784; 2307.950;  170.525;    0.000
914.960; 2409.950;  212.525;    0.000
915.136; 2290.950;  157.525;    0.000
915.311; 2360.950;  204.525;    0.000
915.487; 2315.950;  180.525;    0.000
915.662; 2469.950;  203.525;    0.000
915.838; 2398.950;  194.525;    0.000
916.013; 2389.950;  217.525;    0.000
916.189; 2348.950;  196.525;    0.000
916.364; 2315.950;  236.525;    0.000
916.539; 2282.950;  192.525;    0.000
916.715; 2395.950;  181.525;    0.000
916.890; 2392.950;  185.525;    0.000
917.065; 2320.950;  166.525;    0.000
917.240; 2353.950;  182.525;    0.000
917.416; 2451.950;  188.525;    0.000
917.591; 2345.950;  185.525;    0.000
917.766; 2458.950;  187.525;    0.000
917.941; 2398.950;  181.525;    0.000
918.116; 2364.950;  207.525;    0.000
918.292; 2309.950;  140.525;    0.000
918.467; 2330.950;  187.525;    0.000
918.642; 2401.950;  208.525;    0.000
918.817; 2367.950;  203.525;    0.000
918.992; 2314.950;  162.525;    0.000
919.167; 2384.950;  206.525;    0.000
919.342; 2453.950;  188.525;    0.000
919.517; 2452.950;  190.525;    0.000
919.692; 2477.950;  174.525;    0.000
919.867; 2457.950;  181.525;    0.000
920.041; 2458.950;  179.525;    0.000
920.216; 2522.950;  186.525;    0.000
920.391; 2640.950;  209.525;    0.000
920.566; 2596.950;  205.525;    0.000
920.741; 2584.950;  205.525;    0.000
920.915; 2809.950;  206.525;    0.000
921.090; 2913.950;  219.525;    0.000
921.265; 3488.950;  185.525;    0.000
921.439; 3918.950;  171.525;    0.000
921.614; 3504.950;  197.525;    0.000
921.789; 3094.950;  189.525;    0.000
921.963; 3094.950;  210.525;    0.000
922.138; 2880.950;  171.525;    0.000
922.312; 2863.950;  194.525;    0.000
922.487; 2898.950;  231.525;    0.000
922.661; 3005.950;  179.525;    0.000
922.836; 3387.950;  213.525;    0.000
923.010; 3510.950;  182.525;    0.000
923.185; 3269.950;  239.525;    0.000
923.359; 3049.950;  200.525;    0.000
923.534; 3106.950;  232.525;    0.000
923.708; 3119.950;  221.525;    0.000
923.882; 3285.950;  193.525;    0.000
924.057; 3240.950;  204.525;    0.000
924.231; 3070.950;  172.525;    0.000
924.405; 2933.950;  202.525;    0.000
924.579; 2949.950;  207.525;    0.000
924.753; 2846.950;  167.525;    0.000
924.928; 2786.950;  202.525;    0.000
925.102; 2783.950;  200.525;    0.000
925.276; 2876.950;  185.525;    0.000
925.450; 2854.950;  170.525;    0.000
925.624; 2981.950;  176.525;    0.000
925.798; 3039.950;  221.525;    0.000
925.972; 3135.950;  162.525;    0.000
926.146; 3250.950;  207.525;    0.000
926.320; 3595.950;  185.525;    0.000
926.494; 3794.950;  192.525;    0.000
926.668; 3939.950;  179.525;    0.000
926.842; 4115.950;  181.525;    0.000
927.016; 3983.950;  224.525;    0.000
927.190; 4049.950;  193.525;    0.000
927.363; 3823.950;  194.525;    0.000
927.537; 3801.950;  210.525;    0.000
927.711; 3755.950;  153.525;    0.000
927.885; 3637.950;  184.525;    0.000
928.058; 3622.950;  197.525;    0.000
928.232; 3523.950;  219.525;    0.000
928.406; 3370.950;  175.525;    0.000
928.579; 3403.950;  179.525;    0.000
928.753; 3296.950;  208.525;    0.000
928.927; 3209.950;  163.525;    0.000
929.100; 3101.950;  138.525;    0.000
929.274; 3039.950;  160.525;    0.000
929.447; 2921.950;  152.525;    0.000
929.621; 3040.950;  168.525;    0.000
929.794; 2926.950;  152.525;    0.000
929.968; 2896.950;  163.525;    0.000
930.141; 2831.950;  164.525;    0.000
930.315; 2842.950;  170.525;    0.000
930.488; 2798.950;  216.525;    0.000
930.661; 2787.950;  184.525;    0.000
930.835; 2722.950;  156.525;    0.000
931.008; 2713.950;  206.525;    0.000
931.181; 2627.950;  163.525;    0.000
931.354; 2677.950;  198.525;    0.000
931.528; 2669.950;  156.525;    0.000
931.701; 2689.950;  170.525;    0.000
931.874; 2548.950;  167.525;    0.000
932.047; 2519.950;  146.525;    0.000
932.220; 2584.950;  159.525;    0.000
932.393; 2626.950;  186.525;    0.000
932.566; 2488.950;  147.525;    0.000
932.739; 2532.950;  192.525;    0.000
932.912; 2481.950;  197.525;    0.000
933.085; 2440.950;  176.525;    0.000
933.258; 2467.950;  171.525;    0.000
933.431; 2430.950;  150.525;    0.000
933.604; 2430.950;  176.525;    0.000
933.777; 2474.950;  215.525;    0.000
933.950; 2376.950;  164.525;    0.000
934.123; 2283.950;  174.525;    0.000
934.296; 2333.950;  203.525;    0.000
934.468; 2435.950;  208.525;    0.000
934.641; 2371.950;  182.525;    0.000
934.814; 2408.950;  170.525;    0.000
934.987; 2351.950;  183.525;    0.000
935.159; 2424.950;  154.525;    0.000
935.332; 2387.950;  178.525;    0.000
935.505; 2285.950;  213.525;    0.000
935.677; 2286.950;  173.525;    0.000
935.850; 2305.950;  190.525;    0.000
936.022; 2402.950;  205.525;    0.000
936.195; 2401.950;  201.525;    0.000
936.367; 2388.950;  189.525;    0.000
936.540; 2423.950;  179.525;    0.000
936.712; 2468.950;  195.525;    0.000
936.885; 2435.950;  207.525;    0.000
937.057; 2328.950;  163.525;    0.000
937.229; 2432.950;  175.525;    0.000
937.402; 2553.950;  168.525;    0.000
937.574; 2482.950;  136.525;    0.000
937.746; 2513.950;  166.525;    0.000
937.919; 2714.950;  178.525;    0.000
938.091; 2756.950;  192.525;    0.000
938.263; 2940.950;  164.525;    0.000
938.435; 3219.950;  204.525;    0.000
938.608; 3530.950;  153.525;    0.000
938.780; 4031.950;  159.525;    0.000
938.952; 4352.950;  160.525;    0.000
939.124; 4408.950;  156.525;    0.000
939.296; 4929.950;  110.525;    0.000
939.468; 5177.950;  135.525;    0.000
939.640; 4605.950;  144.525;    0.000
939.812; 4184.950;  232.525;    0.000
939.984; 3692.950;  128.525;    0.000
940.156; 3342.950;  195.525;    0.000
940.328; 3266.950;  226.525;    0.000
940.500; 3158.950;  146.525;    0.000
940.672; 3008.950;  190.525;    0.000
940.843; 2880.950;  156.525;    0.000
941.015; 2795.950;  200.525;    0.000
941.187; 2749.950;  159.525;    0.000
941.359; 2701.950;  183.525;    0.000
941.531; 2714.950;  137.525;    0.000
941.702; 2668.950;  186.525;    0.000
941.874; 2673.950;  164.525;    0.000
942.046; 2562.950;  202.525;    0.000
942.217; 2594.950;  146.525;    0.000
942.389; 2525.950;  165.525;    0.000
942.560; 2392.950;  191.525;    0.000
942.732; 2476.950;  240.525;    0.000
942.904; 2317.950;  173.525;    0.000
943.075; 2281.950;  157.525;    0.000
943.247; 2302.950;  155.525;    0.000
943.418; 2298.950;  164.525;    0.000
943.589; 2386.950;  150.525;    0.000
943.761; 2370.950;  143.525;    0.000
943.932; 2220.950;  151.525;    0.000
944.104; 2217.950;  194.525;    0.000
944.275; 2265.950;  154.525;    0.000
944.446; 2233.950;  169.525;    0.000
944.617; 2193.950;  138.525;    0.000
944.789; 2190.950;  158.525;    0.000
944.960; 2202.950;  197.525;    0.000
945.131; 2094.950;  139.525;    0.000
945.302; 2238.950;  169.525;    0.000
945.473; 2142.950;  149.525;    0.000
945.645; 2207.950;  171.525;    0.000
945.816; 2139.950;  167.525;    0.000
945.987; 2225.950;  156.525;    0.000
946.158; 2275.950;  185.525;    0.000
946.329; 2257.950;  201.525;    0.000
946.500; 2217.950;  182.525;    0.000
946.671; 2087.950;  156.525;    0.000
946.842; 2182.950;  190.525;    0.000
947.013; 2113.950;  159.525;    0.000
947.183; 2088.950;  209.525;    0.000
947.354; 2104.950;  171.525;    0.000
947.525; 2115.950;  180.525;    0.000
947.696; 2137.950;  163.525;    0.000
947.867; 2096.950;  168.525;    0.000
948.037; 2064.950;  153.525;    0.000
948.208; 2046.950;  178.525;    0.000
948.379; 2067.950;  192.525;    0.000
948.550; 1992.950;  180.525;    0.000
948.720; 2052.950;  196.525;    0.000
948.891; 2028.950;  173.525;    0.000
949.061; 1995.950;  207.525;    0.000
949.232; 2043.950;  176.525;    0.000
949.403; 1974.950;  152.525;    0.000
949.573; 1938.950;  186.525;    0.000
949.744; 1976.950;  181.525;    0.000
949.914; 1947.950;  174.525;    0.000
950.085; 2013.950;  146.525;    0.000
950.255; 1951.950;  162.525;    0.000
950.425; 1943.950;  189.525;    0.000
950.596; 1964.950;  175.525;    0.000
950.766; 2015.950;  209.525;    0.000
950.936; 1904.950;  201.525;    0.000
951.107; 1929.950;  141.525;    0.000
951.277; 1969.950;  211.525;    0.000
951.447; 1994.950;  218.525;    0.000
951.617; 1943.950;  191.525;    0.000
951.788; 1888.950;  193.525;    0.000
951.958; 1892.950;  217.525;    0.000
952.128; 1988.950;  192.525;    0.000
952.298; 1851.950;  237.525;    0.000
952.468; 1849.950;  194.525;    0.000
952.638; 1896.950;  201.525;    0.000
952.808; 1912.950;  203.525;    0.000
952.978; 1920.950;  216.525;    0.000
953.148; 1845.950;  209.525;    0.000
953.318; 1934.950;  213.525;    0.000
953.488; 1924.950;  161.525;    0.000
953.658; 1842.950;  222.525;    0.000
953.828; 1884.950;  196.525;    0.000
953.998; 1912.950;  227.525;    0.000
954.167; 1811.950;  163.525;    0.000
954.337; 1862.950;  201.525;    0.000
954.507; 1851.950;  227.525;    0.000
954.677; 1848.950;  204.525;    0.000
954.846; 1842.950;  210.525;    0.000
955.016; 1805.950;  198.525;    0.000
955.186; 1821.950;  203.525;    0.000
955.355; 1853.950;  198.525;    0.000
955.525; 1762.950;  198.525;    0.000
955.695; 1793.950;  187.525;    0.000
955.864; 1800.950;  243.525;    0.000
956.034; 1860.950;  192.525;    0.000
956.203; 1898.950;  259.525;    0.000
956.373; 1755.950;  185.525;    0.000
956.542; 1796.950;  230.525;    0.000
956.711; 1742.950;  218.525;    0.000
956.881; 1810.950;  232.525;    0.000
957.050; 1869.950;  246.525;    0.000
957.220; 1799.950;  229.525;    0.000
957.389; 1832.950;  211.525;    0.000
957.558; 1801.950;  173.525;    0.000
957.727; 1791.950;  226.525;    0.000
957.897; 1778.950;  209.525;    0.000
958.066; 1733.950;  217.525;    0.000
958.235; 1728.950;  160.525;    0.000
958.404; 1776.950;  199.525;    0.000
958.573; 1731.950;  223.525;    0.000
958.743; 1637.950;  189.525;    0.000
958.912; 1730.950;  199.525;    0.000
959.081; 1744.950;  216.525;    0.000
959.250; 1720.950;  192.525;    0.000
959.419; 1731.950;  216.525;    0.000
959.588; 1742.950;  209.525;    0.000
959.757; 1709.950;  194.525;    0.000
959.926; 1768.950;  200.525;    0.000
960.094; 1660.950;  174.525;    0.000
960.263; 1791.950;  218.525;    0.000
960.432; 1683.950;  173.525;    0.000
960.601; 1654.950;  177.525;    0.000
960.770; 1666.950;  188.525;    0.000
960.939; 1662.950;  167.525;    0.000
961.107; 1697.950;  195.525;    0.000
961.276; 1667.950;  183.525;    0.000
961.445; 1651.950;  195.525;    0.000
961.613; 1661.950;  198.525;    0.000
961.782; 1619.950;  224.525;    0.000
961.951; 1704.950;  178.525;    0.000
962.119; 1689.950;  214.525;    0.000
962.288; 1681.950;  174.525;    0.000
962.456; 1614.950;  197.525;    0.000
962.625; 1585.950;  212.525;    0.000
962.793; 1680.950;  183.525;    0.000
962.962; 1666.950;  189.525;    0.000
963.130; 1730.950;  151.525;    0.000
963.298; 1765.950;  197.525;    0.000
963.467; 1626.950;  202.525;    0.000
963.635; 1644.950;  172.525;    0.000
963.803; 1653.950;  203.525;    0.000
963.972; 1705.950;  204.525;    0.000
964.140; 1668.950;  193.525;    0.000
964.308; 1645.950;  159.525;    0.000
964.477; 1610.950;  142.525;    0.000
964.645; 1638.950;  202.525;    0.000
964.813; 1708.950;  158.525;    0.000
964.981; 1690.950;  179.525;    0.000
965.149; 1782.950;  176.525;    0.000
965.317; 1747.950;  229.525;    0.000
965.485; 1643.950;  179.525;    0.000
965.653; 1676.950;  205.525;    0.000
965.821; 1695.950;  196.525;    0.000
965.989; 1753.950;  202.525;    0.000
966.157; 1733.950;  199.525;    0.000
966.325; 1667.950;  178.525;    0.000
966.493; 1666.950;  177.525;    0.000
966.661; 1591.950;  172.525;    0.000
966.829; 1604.950;  167.525;    0.000
966.996; 1682.950;  202.525;    0.000
967.164; 1687.950;  175.525;    0.000
967.332; 1669.950;  207.525;    0.000
967.500; 1691.950;  170.525;    0.000
967.667; 1628.950;  222.525;    0.000
967.835; 1715.950;  245.525;    0.000
968.003; 1723.950;  180.525;    0.000
968.170; 1708.950;  222.525;    0.000
968.338; 1605.950;  183.525;    0.000
968.505; 1726.950;  197.525;    0.000
968.673; 1623.950;  209.525;    0.000
968.841; 1599.950;  162.525;    0.000
969.008; 1620.950;  187.525;    0.000
969.175; 1670.950;  204.525;    0.000
969.343; 1633.950;  157.525;    0.000
969.510; 1691.950;  189.525;    0.000
969.678; 1629.950;  153.525;    0.000
969.845; 1630.950;  190.525;    0.000
970.012; 1659.950;  162.525;    0.000
970.180; 1648.950;  223.525;    0.000
970.347; 1681.950;  195.525;    0.000
970.514; 1624.950;  185.525;    0.000
970.681; 1643.950;  187.525;    0.000
970.849; 1623.950;  183.525;    0.000
971.016; 1582.950;  168.525;    0.000
971.183; 1614.950;  160.525;    0.000
971.350; 1644.950;  193.525;    0.000
971.517; 1697.950;  202.525;    0.000
971.684; 1703.950;  242.525;    0.000
971.851; 1659.950;  192.525;    0.000
972.018; 1689.950;  194.525;    0.000
972.185; 1682.950;  193.525;    0.000
972.352; 1616.950;  187.525;    0.000
972.519; 1661.950;  233.525;    0.000
972.686; 1613.950;  186.525;    0.000
972.853; 1666.950;  165.525;    0.000
973.020; 1677.950;  183.525;    0.000
973.186; 1648.950;  186.525;    0.000
973.353; 1680.950;  177.525;    0.000
973.520; 1712.950;  203.525;    0.000
973.687; 1647.950;  211.525;    0.000
973.853; 1734.950;  194.525;    0.000
974.020; 1656.950;  201.525;    0.000
974.187; 1584.950;  187.525;    0.000
974.353; 1700.950;  188.525;    0.000
974.520; 1521.950;  136.525;    0.000
974.687; 1613.950;  169.525;    0.000
974.853; 1626.950;  207.525;    0.000
975.020; 1624.950;  190.525;    0.000
975.186; 1568.950;  182.525;    0.000
975.353; 1650.950;  202.525;    0.000
975.519; 1652.950;  189.525;    0.000
975.685; 1619.950;  176.525;    0.000
975.852; 1614.950;  175.525;    0.000
976.018; 1592.950;  155.525;    0.000
976.184; 1579.950;  179.525;    0.000
976.351; 1644.950;  191.525;    0.000
976.517; 1625.950;  246.525;    0.000
976.683; 1647.950;  222.525;    0.000
976.849; 1614.950;  216.525;    0.000
977.016; 1525.950;  212.525;    0.000
977.182; 1530.950;  192.525;    0.000
977.348; 1636.950;  145.525;    0.000
977.514; 1577.950;  195.525;    0.000
977.680; 1515.950;  210.525;    0.000
977.846; 1568.950;  172.525;    0.000
978.012; 1565.950;  190.525;    0.000
978.178; 1578.950;  201.525;    0.000
978.344; 1630.950;  190.525;    0.000
978.510; 1589.950;  199.525;    0.000
978.676; 1546.950;  174.525;    0.000
978.842; 1590.950;  195.525;    0.000
979.008; 1563.950;  205.525;    0.000
979.174; 1603.950;  187.525;    0.000
979.340; 1608.950;  194.525;    0.000
979.505; 1515.950;  221.525;    0.000
979.671; 1635.950;  178.525;    0.000
979.837; 1559.950;  215.525;    0.000
980.003; 1533.950;  176.525;    0.000
980.168; 1566.950;  185.525;    0.000
980.334; 1551.950;  165.525;    0.000
980.499; 1593.950;  231.525;    0.000
980.665; 1667.950;  238.525;    0.000
980.831; 1598.950;  194.525;    0.000
980.996; 1505.950;  169.525;    0.000
981.162; 1603.950;  199.525;    0.000
981.327; 1654.950;  158.525;    0.000
981.493; 1611.950;  193.525;    0.000
981.658; 1587.950;  181.525;    0.000
981.823; 1598.950;  199.525;    0.000
981.989; 1633.950;  186.525;    0.000
982.154; 1643.950;  225.525;    0.000
982.319; 1619.950;  191.525;    0.000
982.485; 1611.950;  205.525;    0.000
982.650; 1705.950;  234.525;    0.000
982.815; 1666.950;  193.525;    0.000
982.980; 1701.950;  177.525;    0.000
983.146; 1543.950;  212.525;    0.000
983.311; 1639.950;  177.525;    0.000
983.476; 1652.950;  185.525;    0.000
983.641; 1649.950;  149.525;    0.000
983.806; 1598.950;  175.525;    0.000
983.971; 1587.950;  234.525;    0.000
984.136; 1699.950;  191.525;    0.000
984.301; 1602.950;  215.525;    0.000
984.466; 1622.950;  207.525;    0.000
984.631; 1603.950;  206.525;    0.000
984.796; 1523.950;  229.525;    0.000
984.961; 1551.950;  220.525;    0.000
985.126; 1657.950;  204.525;    0.000
985.291; 1583.950;  210.525;    0.000
985.455; 1571.950;  193.525;    0.000
985.620; 1589.950;  207.525;    0.000
985.785; 1599.950;  188.525;    0.000
985.950; 1534.950;  168.525;    0.000
986.114; 1557.950;  239.525;    0.000
986.279; 1585.950;  223.525;    0.000
986.444; 1742.950;  154.525;    0.000
986.608; 1669.950;  232.525;    0.000
986.773; 1649.950;  214.525;    0.000
986.937; 1654.950;  220.525;    0.000
987.102; 1726.950;  224.525;    0.000
987.266; 1593.950;  157.525;    0.000
987.431; 1698.950;  246.525;    0.000
987.595; 1580.950;  203.525;    0.000
987.760; 1625.950;  202.525;    0.000
987.924; 1635.950;  208.525;    0.000
988.088; 1654.950;  169.525;    0.000
988.253; 1639.950;  237.525;    0.000
988.417; 1558.950;  202.525;    0.000
988.581; 1602.950;  215.525;    0.000
988.746; 1641.950;  210.525;    0.000
988.910; 1623.950;  191.525;    0.000
989.074; 1543.950;  197.525;    0.000
989.238; 1583.950;  191.525;    0.000
989.402; 1627.950;  222.525;    0.000
989.566; 1634.950;  221.525;    0.000
989.731; 1611.950;  216.525;    0.000
989.895; 1641.950;  183.525;    0.000
990.059; 1551.950;  150.525;    0.000
990.223; 1531.950;  183.525;    0.000
990.387; 1587.950;  241.525;    0.000
990.551; 1563.950;  198.525;    0.000
990.714; 1616.950;  176.525;    0.000
990.878; 1511.950;  203.525;    0.000
991.042; 1559.950;  146.525;    0.000
991.206; 1541.950;  199.525;    0.000
991.370; 1615.950;  223.525;    0.000
991.534; 1542.950;  158.525;    0.000
991.697; 1553.950;  182.525;    0.000
991.861; 1505.950;  195.525;    0.000
992.025; 1542.950;  206.525;    0.000
992.188; 1583.950;  174.525;    0.000
992.352; 1549.950;  183.525;    0.000
992.516; 1514.950;  181.525;    0.000
992.679; 1510.950;  162.525;    0.000
992.843; 1513.950;  173.525;    0.000
993.006; 1575.950;  189.525;    0.000
993.170; 1558.950;  200.525;    0.000
993.333; 1499.950;  167.525;    0.000
993.497; 1581.950;  217.525;    0.000
993.660; 1558.950;  179.525;    0.000
993.824; 1555.950;  195.525;    0.000
993.987; 1593.950;  186.525;    0.000
994.150; 1551.950;  164.525;    0.000
994.314; 1628.950;  215.525;    0.000
994.477; 1539.950;  186.525;    0.000
994.640; 1575.950;  192.525;    0.000
994.803; 1586.950;  215.525;    0.000
994.967; 1571.950;  208.525;    0.000
995.130; 1498.950;  196.525;    0.000
995.293; 1483.950;  221.525;    0.000
995.456; 1541.950;  164.525;    0.000
995.619; 1591.950;  224.525;    0.000
995.782; 1501.950;  184.525;    0.000
995.945; 1551.950;  220.525;    0.000
996.108; 1539.950;  187.525;    0.000
996.271; 1546.950;  192.525;    0.000
996.434; 1567.950;  162.525;    0.000
996.597; 1530.950;  148.525;    0.000
996.760; 1551.950;  186.525;    0.000
996.923; 1457.950;  154.525;    0.000
997.086; 1557.950;  156.525;    0.000
997.248; 1523.950;  215.525;    0.000
997.411; 1535.950;  160.525;    0.000
997.574; 1531.950;  159.525;    0.000
997.737; 1514.950;  179.525;    0.000
997.899; 1512.950;  184.525;    0.000
998.062; 1485.950;  180.525;    0.000
998.225; 1483.950;  168.525;    0.000
998.387; 1529.950;  192.525;    0.000
998.550; 1519.950;  178.525;    0.000
998.712; 1538.950;  192.525;    0.000
998.875; 1502.950;  230.525;    0.000
999.037; 1517.950;  200.525;    0.000
999.200; 1482.950;  196.525;    0.000
999.362; 1437.950;  173.525;    0.000
999.525; 1525.950;  196.525;    0.000
999.687; 1487.950;  159.525;    0.000
999.849; 1528.950;  180.525;    0.000
1000.012; 1471.950;  210.525;    0.000
1000.174; 1514.950;  175.525;    0.000
1000.336; 1526.950;  174.525;    0.000
1000.499; 1621.950;  180.525;    0.000
1000.661; 1584.950;  204.525;    0.000
1000.823; 1527.950;  181.525;    0.000
1000.985; 1525.950;  178.525;    0.000
1001.147; 1621.950;  215.525;    0.000
1001.309; 1606.950;  212.525;    0.000
1001.471; 1628.950;  192.525;    0.000
1001.633; 1621.950;  207.525;    0.000
1001.796; 1578.950;  211.525;    0.000
1001.958; 1598.950;  200.525;    0.000
1002.119; 1693.950;  210.525;    0.000
1002.281; 1770.950;  204.525;    0.000
1002.443; 1828.950;  230.525;    0.000
1002.605; 1845.950;  178.525;    0.000
1002.767; 1955.950;  228.525;    0.000
1002.929; 1948.950;  199.525;    0.000
1003.091; 2019.950;  220.525;    0.000
1003.252; 2266.950;  219.525;    0.000
1003.414; 2310.950;  213.525;    0.000
1003.576; 2333.950;  202.525;    0.000
1003.738; 2418.950;  184.525;    0.000
1003.899; 2573.950;  218.525;    0.000
1004.061; 2737.950;  210.525;    0.000
1004.222; 2805.950;  179.525;    0.000
1004.384; 2922.950;  183.525;    0.000
1004.546; 2843.950;  206.525;    0.000
1004.707; 3006.950;  191.525;    0.000
1004.869; 3070.950;  197.525;    0.000
1005.030; 2942.950;  186.525;    0.000
1005.191; 2803.950;  188.525;    0.000
1005.353; 2815.950;  215.525;    0.000
1005.514; 2465.950;  184.525;    0.000
1005.675; 2471.950;  209.525;    0.000
1005.837; 2415.950;  239.525;    0.000
1005.998; 2365.950;  218.525;    0.000
1006.159; 2463.950;  212.525;    0.000
1006.321; 2534.950;  220.525;    0.000
1006.482; 2559.950;  201.525;    0.000
1006.643; 2633.950;  222.525;    0.000
1006.804; 2894.950;  191.525;    0.000
1006.965; 2881.950;  214.525;    0.000
1007.126; 2813.950;  214.525;    0.000
1007.287; 2823.950;  243.525;    0.000
1007.448; 2792.950;  251.525;    0.000
1007.609; 2755.950;  244.525;    0.000
1007.770; 2588.950;  211.525;    0.000
1007.931; 2624.950;  225.525;    0.000
1008.092; 2633.950;  188.525;    0.000
1008.253; 2748.950;  224.525;    0.000
1008.414; 2771.950;  198.525;    0.000
1008.575; 2798.950;  244.525;    0.000
1008.736; 2806.950;  219.525;    0.000
1008.896; 2894.950;  206.525;    0.000
1009.057; 2716.950;  258.525;    0.000
1009.218; 2791.950;  209.525;    0.000
1009.379; 2767.950;  204.525;    0.000
1009.539; 2831.950;  242.525;    0.000
1009.700; 2895.950;  205.525;    0.000
1009.860; 2954.950;  211.525;    0.000
1010.021; 2877.950;  219.525;    0.000
1010.182; 2873.950;  206.525;    0.000
1010.342; 2859.950;  219.525;    0.000
1010.503; 2973.950;  231.525;    0.000
1010.663; 3031.950;  260.525;    0.000
1010.823; 3030.950;  200.525;    0.000
1010.984; 3134.950;  189.525;    0.000
1011.144; 3293.950;  234.525;    0.000
1011.305; 3360.950;  212.525;    0.000
1011.465; 3459.950;  202.525;    0.000
1011.625; 3437.950;  236.525;    0.000
1011.785; 3511.950;  203.525;    0.000
1011.946; 3552.950;  195.525;    0.000
1012.106; 3496.950;  176.525;    0.000
1012.266; 3413.950;  211.525;    0.000
1012.426; 3422.950;  244.525;    0.000
1012.586; 3437.950;  202.525;    0.000
1012.746; 3438.950;  234.525;    0.000
1012.906; 3366.950;  246.525;    0.000
1013.066; 3344.950;  232.525;    0.000
1013.226; 3443.950;  248.525;    0.000
1013.386; 3358.950;  231.525;    0.000
1013.546; 3345.950;  233.525;    0.000
1013.706; 3233.950;  211.525;    0.000
1013.866; 3250.950;  240.525;    0.000
1014.026; 3395.950;  188.525;    0.000
1014.186; 3261.950;  186.525;    0.000
1014.346; 3214.950;  203.525;    0.000
1014.505; 3384.950;  238.525;    0.000
1014.665; 3441.950;  206.525;    0.000
1014.825; 3297.950;  200.525;    0.000
1014.985; 3282.950;  215.525;    0.000
1015.144; 3515.950;  250.525;    0.000
1015.304; 3756.950;  195.525;    0.000
1015.464; 3604.950;  237.525;    0.000
1015.623; 3478.950;  232.525;    0.000
1015.783; 3809.950;  220.525;    0.000
1015.942; 4097.950;  219.525;    0.000
1016.102; 3806.950;  202.525;    0.000
1016.261; 3820.950;  225.525;    0.000
1016.420; 4463.950;  246.525;    0.000
1016.580; 4774.950;  226.525;    0.000
1016.739; 4582.950;  214.525;    0.000
1016.899; 4271.950;  205.525;    0.000
1017.058; 4670.950;  217.525;    0.000
1017.217; 4885.950;  199.525;    0.000
1017.376; 4543.950;  219.525;    0.000
1017.536; 4193.950;  209.525;    0.000
1017.695; 4175.950;  213.525;    0.000
1017.854; 4339.950;  187.525;    0.000
1018.013; 4132.950;  222.525;    0.000
1018.172; 3919.950;  204.525;    0.000
1018.331; 3964.950;  195.525;    0.000
1018.490; 4349.950;  213.525;    0.000
1018.649; 4529.950;  216.525;    0.000
1018.808; 4570.950;  227.525;    0.000
1018.967; 4533.950;  206.525;    0.000
1019.126; 4558.950;  206.525;    0.000
1019.285; 4854.950;  219.525;    0.000
1019.444; 4746.950;  218.525;    0.000
1019.603; 4359.950;  206.525;    0.000
1019.762; 4266.950;  189.525;    0.000
1019.921; 4377.950;  217.525;    0.000
1020.079; 4819.950;  200.525;    0.000
1020.238; 5081.950;  219.525;    0.000
1020.397; 4799.950;  227.525;    0.000
1020.555; 4447.950;  207.525;    0.000
1020.714; 4564.950;  253.525;    0.000
1020.873; 5039.950;  230.525;    0.000
1021.031; 4984.950;  232.525;    0.000
1021.190; 4601.950;  226.525;    0.000
1021.348; 4527.950;  224.525;    0.000
1021.507; 4834.950;  215.525;    0.000
1021.665; 5419.950;  233.525;    0.000
1021.824; 4928.950;  196.525;    0.000
1021.982; 4430.950;  215.525;    0.000
1022.141; 4553.950;  200.525;    0.000
1022.299; 5289.950;  200.525;    0.000
1022.457; 5667.950;  179.525;    0.000
1022.616; 4968.950;  226.525;    0.000
1022.774; 4523.950;  216.525;    0.000
1022.932; 4696.950;  212.525;    0.000
1023.090; 5630.950;  220.525;    0.000
1023.249; 5795.950;  194.525;    0.000
1023.407; 4956.950;  227.525;    0.000
1023.565; 4347.950;  190.525;    0.000
1023.723; 4972.950;  190.525;    0.000
1023.881; 5717.950;  214.525;    0.000
1024.039; 5703.950;  179.525;    0.000
1024.197; 5154.950;  274.525;    0.000
1024.355; 4735.950;  269.525;    0.000
1024.513; 4884.950;  259.525;    0.000
1024.671; 5686.950;  211.525;    0.000
1024.829; 5883.950;  230.525;    0.000
1024.987; 5237.950;  239.525;    0.000
1025.145; 4561.950;  231.525;    0.000
1025.302; 5012.950;  212.525;    0.000
1025.460; 5687.950;  224.525;    0.000
1025.618; 5869.950;  217.525;    0.000
1025.776; 5438.950;  232.525;    0.000
1025.933; 4910.950;  212.525;    0.000
1026.091; 4858.950;  214.525;    0.000
1026.249; 5625.950;  224.525;    0.000
1026.406; 6136.950;  219.525;    0.000
1026.564; 5869.950;  262.525;    0.000
1026.721; 5291.950;  206.525;    0.000
1026.879; 4847.950;  227.525;    0.000
1027.036; 5538.950;  234.525;    0.000
1027.194; 5924.950;  256.525;    0.000
1027.351; 6106.950;  229.525;    0.000
1027.509; 5415.950;  253.525;    0.000
1027.666; 5021.950;  248.525;    0.000
1027.823; 5277.950;  215.525;    0.000
1027.981; 5832.950;  248.525;    0.000
1028.138; 6335.950;  257.525;    0.000
1028.295; 5639.950;  215.525;    0.000
1028.452; 5290.950;  236.525;    0.000
1028.609; 5164.950;  240.525;    0.000
1028.767; 5796.950;  258.525;    0.000
1028.924; 6333.950;  211.525;    0.000
1029.081; 6139.950;  226.525;    0.000
1029.238; 6065.950;  228.525;    0.000
1029.395; 5494.950;  264.525;    0.000
1029.552; 5680.950;  227.525;    0.000
1029.709; 5920.950;  232.525;    0.000
1029.866; 6253.950;  223.525;    0.000
1030.023; 6124.950;  220.525;    0.000
1030.180; 5509.950;  222.525;    0.000
1030.337; 5452.950;  224.525;    0.000
1030.494; 5628.950;  228.525;    0.000
1030.650; 6056.950;  242.525;    0.000
1030.807; 6714.950;  214.525;    0.000
1030.964; 6038.950;  207.525;    0.000
1031.121; 5794.950;  236.525;    0.000
1031.277; 5596.950;  206.525;    0.000
1031.434; 5800.950;  249.525;    0.000
1031.591; 6489.950;  253.525;    0.000
1031.747; 6441.950;  240.525;    0.000
1031.904; 6485.950;  212.525;    0.000
1032.060; 6200.950;  185.525;    0.000
1032.217; 5812.950;  201.525;    0.000
1032.373; 6544.950;  207.525;    0.000
1032.530; 6680.950;  226.525;    0.000
1032.686; 7454.950;  226.525;    0.000
1032.843; 7420.950;  203.525;    0.000
1032.999; 6968.950;  233.525;    0.000
1033.155; 6906.950;  232.525;    0.000
1033.312; 6888.950;  239.525;    0.000
1033.468; 7971.950;  207.525;    0.000
1033.624; 8658.950;  238.525;    0.000
1033.780; 9178.950;  255.525;    0.000
1033.937; 8783.950;  188.525;    0.000
1034.093; 8238.950;  244.525;    0.000
1034.249; 7885.950;  182.525;    0.000
1034.405; 8177.950;  251.525;    0.000
1034.561; 8841.950;  250.525;    0.000
1034.717; 9389.950;  208.525;    0.000
1034.873; 9477.950;  210.525;    0.000
1035.029; 9692.950;  245.525;    0.000
1035.185; 8686.950;  230.525;    0.000
1035.341; 8522.950;  209.525;    0.000
1035.497; 9238.950;  244.525;    0.000
1035.653; 9390.950;  229.525;    0.000
1035.809;10674.950;  275.525;    0.000
1035.964;11535.950;  203.525;    0.000
1036.120;10853.950;  215.525;    0.000
1036.276;11287.950;  228.525;    0.000
1036.432;10679.950;  183.525;    0.000
1036.587; 9955.950;  214.525;    0.000
1036.743;10303.950;  240.525;    0.000
1036.899;11208.950;  202.525;    0.000
1037.054;11139.950;  182.525;    0.000
1037.210;12609.950;  228.525;    0.000
1037.365;12743.950;  239.525;    0.000
1037.521;12203.950;  230.525;    0.000
1037.676;11784.950;  217.525;    0.000
1037.832;11197.950;  235.525;    0.000
1037.987;11248.950;  210.525;    0.000
1038.143;11519.950;  206.525;    0.000
1038.298;13091.950;  177.525;    0.000
1038.453;13254.950;  215.525;    0.000
1038.609;14024.950;  210.525;    0.000
1038.764;14464.950;  227.525;    0.000
1038.919;13181.950;  197.525;    0.000
1039.074;13311.950;  183.525;    0.000
1039.229;12267.950;  218.525;    0.000
1039.385;12378.950;  251.525;    0.000
1039.540;12724.950;  222.525;    0.000
1039.695;13714.950;  215.525;    0.000
1039.850;15271.950;  204.525;    0.000
1040.005;16093.950;  241.525;    0.000
1040.160;16583.949;  180.525;    0.000
1040.315;16280.950;  197.525;    0.000
1040.470;15343.950;  180.525;    0.000
1040.625;14601.950;  196.525;    0.000
1040.780;14232.950;  245.525;    0.000
1040.935;14019.950;  204.525;    0.000
1041.089;14474.950;  213.525;    0.000
1041.244;16525.949;  200.525;    0.000
1041.399;17620.949;  212.525;    0.000
1041.554;18720.949;  239.525;    0.000
1041.708;21025.949;  238.525;    0.000
1041.863;19905.949;  213.525;    0.000
1042.018;19088.949;  236.525;    0.000
1042.172;18556.949;  238.525;    0.000
1042.327;17708.949;  254.525;    0.000
1042.481;17688.949;  197.525;    0.000
1042.636;17964.949;  205.525;    0.000
1042.791;18228.949;  218.525;    0.000
1042.945;21476.949;  261.525;    0.000
1043.099;24722.949;  201.525;    0.000
1043.254;23662.949;  191.525;    0.000
1043.408;24230.949;  279.525;    0.000
1043.563;26974.949;  203.525;    0.000
1043.717;24616.949;  229.525;    0.000
1043.871;21873.949;  213.525;    0.000
1044.025;21293.949;  240.525;    0.000
1044.180;22055.949;  220.525;    0.000
1044.334;21971.949;  268.525;    0.000
1044.488;23000.949;  261.525;    0.000
1044.642;24062.949;  205.525;    0.000
1044.796;25388.949;  240.525;    0.000
1044.950;29969.949;  258.525;    0.000
1045.104;33111.949;  218.525;    0.000
1045.258;32190.949;  213.525;    0.000
1045.412;31595.949;  223.525;    0.000
1045.566;31126.949;  240.525;    0.000
1045.720;30402.949;  235.525;    0.000
1045.874;26743.949;  221.525;    0.000
1046.028;25131.949;  247.525;    0.000
1046.182;25451.949;  200.525;    0.000
1046.336;25275.949;  220.525;    0.000
1046.489;26857.949;  228.525;    0.000
1046.643;28221.949;  249.525;    0.000
1046.797;30725.949;  230.525;    0.000
1046.951;31459.949;  234.525;    0.000
1047.104;31705.949;  262.525;    0.000
1047.258;33796.949;  210.525;    0.000
1047.411;37104.949;  235.525;    0.000
1047.565;37100.949;  237.525;    0.000
1047.719;34917.949;  237.525;    0.000
1047.872;34318.949;  225.525;    0.000
1048.026;32170.949;  237.525;    0.000
1048.179;31184.949;  220.525;    0.000
1048.332;29654.949;  219.525;    0.000
1048.486;30006.949;  195.525;    0.000
1048.639;30617.949;  213.525;    0.000
1048.792;31325.949;  245.525;    0.000
1048.946;34146.949;  234.525;    0.000
1049.099;38079.949;  226.525;    0.000
1049.252;38807.949;  282.525;    0.000
1049.406;35110.949;  255.525;    0.000
1049.559;37734.949;  223.525;    0.000
1049.712;43983.949;  253.525;    0.000
1049.865;44993.949;  271.525;    0.000
1050.018;45105.949;  241.525;    0.000
1050.171;38797.949;  202.525;    0.000
1050.324;36965.949;  250.525;    0.000
1050.477;39591.949;  251.525;    0.000
1050.630;44182.949;  216.525;    0.000
1050.783;44008.949;  205.525;    0.000
1050.936;40486.949;  219.525;    0.000
1051.089;38826.949;  247.525;    0.000
1051.242;39213.949;  238.525;    0.000
1051.394;43297.949;  252.525;    0.000
1051.547;46618.949;  245.525;    0.000
1051.700;43291.949;  206.525;    0.000
1051.853;41063.949;  270.525;    0.000
1052.005;42082.949;  245.525;    0.000
1052.158;47216.949;  290.525;    0.000
1052.311;53443.949;  237.525;    0.000
1052.463;49949.949;  271.525;    0.000
1052.616;45217.949;  255.525;    0.000
1052.768;40475.949;  257.525;    0.000
1052.921;39702.949;  289.525;    0.000
1053.073;43183.949;  287.525;    0.000
1053.226;49264.949;  268.525;    0.000
1053.378;56416.949;  294.525;    0.000
1053.531;60077.949;  255.525;    0.000
1053.683;57023.949;  293.525;    0.000
1053.835;49049.949;  274.525;    0.000
1053.988;37692.949;  282.525;    0.000
1054.140; 6814.950;  291.525;    0.000
1054.292; 1618.950;  292.525;    0.000
1054.444; 1207.950;  299.525;    0.000
1054.596; 1146.950;  319.525;    0.000
1054.749; 1060.950;  295.525;    0.000
1054.901;  963.950;  266.525;    0.000
1055.053;  901.950;  300.525;    0.000
1055.205;  909.950;  290.525;    0.000
1055.357;  795.950;  304.525;    0.000
1055.509;  820.950;  292.525;    0.000
1055.661;  799.950;  339.525;    0.000
1055.813;  756.950;  306.525;    0.000
1055.965;  758.950;  293.525;    0.000
1056.116;  711.950;  300.525;    0.000
1056.268;  728.950;  306.525;    0.000
1056.420;  741.950;  288.525;    0.000

