
Integration time [ms]:   0.300
Averaging Nr. [scans]: 1
Smoothing Nr. [pixels]: 0
Data measured with spectrometer [name]: UV2
Wave   ;Sample   ;Dark     ;Reference
[nm]   ;[counts] ;[counts] ;[counts] 

353.533;  232.150;  178.050;    0.000
353.597;  253.150;  251.050;    0.000
353.660;  216.150;  213.050;    0.000
353.723;  212.150;  185.050;    0.000
353.786;  192.150;  191.050;    0.000
353.850;  201.150;  238.050;    0.000
353.913;  193.150;  181.050;    0.000
353.976;  215.150;  190.050;    0.000
354.039;  155.150;  184.050;    0.000
354.102;  201.150;  231.050;    0.000
354.166;  225.150;  188.050;    0.000
354.229;  201.150;  224.050;    0.000
354.292;  176.150;  186.050;    0.000
354.355;  222.150;  175.050;    0.000
354.418;  215.150;  191.050;    0.000
354.481;  229.150;  181.050;    0.000
354.545;  647.150;  193.050;    0.000
354.608;  731.150;  210.050;    0.000
354.671;  666.150;  183.050;    0.000
354.734;  708.150;  189.050;    0.000
354.797;  729.150;  168.050;    0.000
354.860;  738.150;  178.050;    0.000
354.923;  766.150;  236.050;    0.000
354.986;  758.150;  181.050;    0.000
355.050;  755.150;  168.050;    0.000
355.113;  753.150;  201.050;    0.000
355.176;  784.150;  206.050;    0.000
355.239;  840.150;  213.050;    0.000
355.302;  776.150;  198.050;    0.000
355.365;  794.150;  199.050;    0.000
355.428;  831.150;  200.050;    0.000
355.491;  857.150;  232.050;    0.000
355.554;  843.150;  184.050;    0.000
355.617;  915.150;  214.050;    0.000
355.680;  872.150;  191.050;    0.000
355.743;  882.150;  161.050;    0.000
355.806;  879.150;  153.050;    0.000
355.869;  896.150;  221.050;    0.000
355.932;  868.150;  152.050;    0.000
355.995;  865.150;  195.050;    0.000
356.058;  866.150;  172.050;    0.000
356.121;  910.150;  186.050;    0.000
356.184; 1007.150;  196.050;    0.000
356.247;  917.150;  183.050;    0.000
356.310;  879.150;  159.050;    0.000
356.373;  986.150;  183.050;    0.000
356.436;  940.150;  176.050;    0.000
356.498;  942.150;  191.050;    0.000
356.561;  903.150;  145.050;    0.000
356.624;  974.150;  187.050;    0.000
356.687;  996.150;  181.050;    0.000
356.750;  939.150;  227.050;    0.000
356.813;  962.150;  147.050;    0.000
356.876;  976.150;  184.050;    0.000
356.939;  916.150;  141.050;    0.000
357.001;  977.150;  188.050;    0.000
357.064;  956.150;  173.050;    0.000
357.127; 1024.150;  159.050;    0.000
357.190;  985.150;  185.050;    0.000
357.253;  997.150;  180.050;    0.000
357.316; 1047.150;  199.050;    0.000
357.378;  987.150;  196.050;    0.000
357.441;  971.150;  175.050;    0.000
357.504; 1055.150;  164.050;    0.000
357.567;  959.150;  145.050;    0.000
357.629; 1038.150;  205.050;    0.000
357.692; 1012.150;  175.050;    0.000
357.755; 1024.150;  205.050;    0.000
357.818; 1008.150;  141.050;    0.000
357.880; 1024.150;  170.050;    0.000
357.943;  992.150;  152.050;    0.000
358.006; 1031.150;  145.050;    0.000
358.069; 1055.150;  164.050;    0.000
358.131; 1001.150;  148.050;    0.000
358.194;  985.150;  122.050;    0.000
358.257;  997.150;  147.050;    0.000
358.319; 1002.150;  156.050;    0.000
358.382; 1050.150;  193.050;    0.000
358.445; 1001.150;  155.050;    0.000
358.507; 1073.150;  160.050;    0.000
358.570; 1053.150;  159.050;    0.000
358.633;  956.150;  163.050;    0.000
358.695; 1058.150;  174.050;    0.000
358.758;  991.150;  127.050;    0.000
358.821;  999.150;  165.050;    0.000
358.883; 1061.150;  145.050;    0.000
358.946; 1033.150;  127.050;    0.000
359.008; 1104.150;  180.050;    0.000
359.071; 1098.150;  173.050;    0.000
359.134; 1090.150;  150.050;    0.000
359.196; 1051.150;  158.050;    0.000
359.259; 1141.150;  159.050;    0.000
359.321; 1105.150;  159.050;    0.000
359.384; 1110.150;  182.050;    0.000
359.446; 1078.150;  140.050;    0.000
359.509; 1108.150;  146.050;    0.000
359.571; 1107.150;  133.050;    0.000
359.634; 1099.150;   93.050;    0.000
359.696; 1074.150;  142.050;    0.000
359.759; 1158.150;  161.050;    0.000
359.821; 1069.150;  110.050;    0.000
359.884; 1054.150;  114.050;    0.000
359.946; 1166.150;  180.050;    0.000
360.009; 1100.150;  158.050;    0.000
360.071; 1090.150;  116.050;    0.000
360.134; 1143.150;  170.050;    0.000
360.196; 1138.150;  128.050;    0.000
360.259; 1158.150;  157.050;    0.000
360.321; 1175.150;  122.050;    0.000
360.384; 1150.150;  119.050;    0.000
360.446; 1102.150;  122.050;    0.000
360.508; 1094.150;  195.050;    0.000
360.571; 1150.150;  128.050;    0.000
360.633; 1162.150;  172.050;    0.000
360.696; 1102.150;  115.050;    0.000
360.758; 1148.150;  162.050;    0.000
360.820; 1178.150;  149.050;    0.000
360.883; 1092.150;  151.050;    0.000
360.945; 1148.150;  149.050;    0.000
361.007; 1160.150;  135.050;    0.000
361.070; 1143.150;  162.050;    0.000
361.132; 1208.150;  198.050;    0.000
361.194; 1135.150;  141.050;    0.000
361.257; 1133.150;  154.050;    0.000
361.319; 1177.150;  147.050;    0.000
361.381; 1144.150;  154.050;    0.000
361.443; 1185.150;  144.050;    0.000
361.506; 1132.150;  164.050;    0.000
361.568; 1147.150;  148.050;    0.000
361.630; 1241.150;  127.050;    0.000
361.693; 1189.150;  158.050;    0.000
361.755; 1237.150;  161.050;    0.000
361.817; 1241.150;  173.050;    0.000
361.879; 1220.150;  159.050;    0.000
361.941; 1169.150;  153.050;    0.000
362.004; 1217.150;  148.050;    0.000
362.066; 1177.150;  150.050;    0.000
362.128; 1183.150;  132.050;    0.000
362.190; 1221.150;  207.050;    0.000
362.252; 1199.150;  142.050;    0.000
362.315; 1249.150;  153.050;    0.000
362.377; 1215.150;  164.050;    0.000
362.439; 1206.150;  155.050;    0.000
362.501; 1281.150;  157.050;    0.000
362.563; 1206.150;  188.050;    0.000
362.625; 1219.150;  194.050;    0.000
362.688; 1236.150;  159.050;    0.000
362.750; 1234.150;  205.050;    0.000
362.812; 1193.150;  148.050;    0.000
362.874; 1220.150;  173.050;    0.000
362.936; 1250.150;  152.050;    0.000
362.998; 1241.150;  145.050;    0.000
363.060; 1264.150;  184.050;    0.000
363.122; 1219.150;  147.050;    0.000
363.184; 1209.150;  136.050;    0.000
363.246; 1296.150;  171.050;    0.000
363.308; 1221.150;  154.050;    0.000
363.370; 1277.150;  175.050;    0.000
363.432; 1304.150;  139.050;    0.000
363.494; 1235.150;  163.050;    0.000
363.556; 1213.150;  117.050;    0.000
363.618; 1183.150;  126.050;    0.000
363.680; 1299.150;  147.050;    0.000
363.742; 1243.150;  161.050;    0.000
363.804; 1308.150;  159.050;    0.000
363.866; 1233.150;  170.050;    0.000
363.928; 1184.150;  122.050;    0.000
363.990; 1300.150;  167.050;    0.000
364.052; 1240.150;  180.050;    0.000
364.114; 1257.150;  119.050;    0.000
364.176; 1287.150;  184.050;    0.000
364.238; 1297.150;  180.050;    0.000
364.300; 1289.150;  159.050;    0.000
364.362; 1265.150;  163.050;    0.000
364.424; 1301.150;  139.050;    0.000
364.486; 1328.150;  189.050;    0.000
364.548; 1241.150;  167.050;    0.000
364.609; 1321.150;  165.050;    0.000
364.671; 1223.150;  171.050;    0.000
364.733; 1297.150;  165.050;    0.000
364.795; 1225.150;  122.050;    0.000
364.857; 1275.150;  147.050;    0.000
364.919; 1257.150;  104.050;    0.000
364.981; 1238.150;  143.050;    0.000
365.042; 1289.150;  166.050;    0.000
365.104; 1315.150;  162.050;    0.000
365.166; 1274.150;  155.050;    0.000
365.228; 1291.150;  179.050;    0.000
365.290; 1242.150;  133.050;    0.000
365.351; 1269.150;  142.050;    0.000
365.413; 1260.150;  144.050;    0.000
365.475; 1332.150;  139.050;    0.000
365.537; 1258.150;  181.050;    0.000
365.598; 1280.150;  166.050;    0.000
365.660; 1181.150;  130.050;    0.000
365.722; 1335.150;  177.050;    0.000
365.784; 1205.150;  149.050;    0.000
365.845; 1300.150;  156.050;    0.000
365.907; 1241.150;  122.050;    0.000
365.969; 1349.150;  140.050;    0.000
366.030; 1294.150;  156.050;    0.000
366.092; 1293.150;  140.050;    0.000
366.154; 1325.150;  169.050;    0.000
366.215; 1317.150;  170.050;    0.000
366.277; 1281.150;  143.050;    0.000
366.339; 1354.150;  139.050;    0.000
366.400; 1295.150;  139.050;    0.000
366.462; 1327.150;  140.050;    0.000
366.524; 1357.150;  150.050;    0.000
366.585; 1383.150;  163.050;    0.000
366.647; 1348.150;  193.050;    0.000
366.708; 1310.150;  135.050;    0.000
366.770; 1370.150;  165.050;    0.000
366.832; 1347.150;  168.050;    0.000
366.893; 1338.150;  157.050;    0.000
366.955; 1341.150;  132.050;    0.000
367.016; 1332.150;  127.050;    0.000
367.078; 1284.150;  146.050;    0.000
367.139; 1336.150;  129.050;    0.000
367.201; 1324.150;  148.050;    0.000
367.262; 1347.150;  165.050;    0.000
367.324; 1305.150;  171.050;    0.000
367.385; 1355.150;  118.050;    0.000
367.447; 1393.150;  144.050;    0.000
367.508; 1361.150;  135.050;    0.000
367.570; 1310.150;  160.050;    0.000
367.631; 1273.150;  157.050;    0.000
367.693; 1378.150;  168.050;    0.000
367.754; 1327.150;  139.050;    0.000
367.816; 1335.150;  141.050;    0.000
367.877; 1422.150;  195.050;    0.000
367.939; 1365.150;  166.050;    0.000
368.000; 1306.150;  127.050;    0.000
368.062; 1342.150;  143.050;    0.000
368.123; 1364.150;  156.050;    0.000
368.184; 1370.150;  179.050;    0.000
368.246; 1289.150;  168.050;    0.000
368.307; 1398.150;  203.050;    0.000
368.369; 1386.150;  149.050;    0.000
368.430; 1359.150;  121.050;    0.000
368.491; 1408.150;  131.050;    0.000
368.553; 1341.150;  161.050;    0.000
368.614; 1434.150;  157.050;    0.000
368.675; 1352.150;  152.050;    0.000
368.737; 1346.150;  168.050;    0.000
368.798; 1447.150;  147.050;    0.000
368.859; 1357.150;  174.050;    0.000
368.921; 1408.150;  168.050;    0.000
368.982; 1369.150;  151.050;    0.000
369.043; 1358.150;  169.050;    0.000
369.104; 1360.150;  149.050;    0.000
369.166; 1427.150;  178.050;    0.000
369.227; 1349.150;  149.050;    0.000
369.288; 1383.150;  131.050;    0.000
369.349; 1388.150;  128.050;    0.000
369.411; 1385.150;  198.050;    0.000
369.472; 1396.150;  156.050;    0.000
369.533; 1337.150;  142.050;    0.000
369.594; 1454.150;  125.050;    0.000
369.656; 1363.150;  153.050;    0.000
369.717; 1401.150;  124.050;    0.000
369.778; 1407.150;  163.050;    0.000
369.839; 1435.150;  130.050;    0.000
369.900; 1410.150;  170.050;    0.000
369.961; 1384.150;  142.050;    0.000
370.023; 1497.150;  197.050;    0.000
370.084; 1430.150;  151.050;    0.000
370.145; 1348.150;  128.050;    0.000
370.206; 1404.150;  152.050;    0.000
370.267; 1439.150;  154.050;    0.000
370.328; 1427.150;  154.050;    0.000
370.389; 1442.150;  173.050;    0.000
370.451; 1425.150;  191.050;    0.000
370.512; 1483.150;  155.050;    0.000
370.573; 1374.150;  134.050;    0.000
370.634; 1430.150;  160.050;    0.000
370.695; 1346.150;  124.050;    0.000
370.756; 1413.150;  169.050;    0.000
370.817; 1462.150;  169.050;    0.000
370.878; 1468.150;  200.050;    0.000
370.939; 1402.150;  157.050;    0.000
371.000; 1434.150;  131.050;    0.000
371.061; 1473.150;  136.050;    0.000
371.122; 1476.150;  176.050;    0.000
371.183; 1445.150;   81.050;    0.000
371.244; 1438.150;  156.050;    0.000
371.305; 1402.150;  131.050;    0.000
371.366; 1447.150;  161.050;    0.000
371.427; 1449.150;  127.050;    0.000
371.488; 1445.150;  184.050;    0.000
371.549; 1448.150;  159.050;    0.000
371.610; 1432.150;  147.050;    0.000
371.671; 1474.150;  132.050;    0.000
371.732; 1451.150;  163.050;    0.000
371.793; 1451.150;  179.050;    0.000
371.853; 1393.150;  179.050;    0.000
371.914; 1433.150;  149.050;    0.000
371.975; 1470.150;  117.050;    0.000
372.036; 1476.150;  141.050;    0.000
372.097; 1402.150;  101.050;    0.000
372.158; 1389.150;  115.050;    0.000
372.219; 1439.150;  174.050;    0.000
372.280; 1474.150;  134.050;    0.000
372.340; 1429.150;  180.050;    0.000
372.401; 1408.150;  166.050;    0.000
372.462; 1451.150;  171.050;    0.000
372.523; 1434.150;  132.050;    0.000
372.584; 1502.150;  182.050;    0.000
372.645; 1375.150;  149.050;    0.000
372.705; 1499.150;  182.050;    0.000
372.766; 1518.150;  145.050;    0.000
372.827; 1538.150;  161.050;    0.000
372.888; 1458.150;  156.050;    0.000
372.948; 1448.150;  158.050;    0.000
373.009; 1506.150;  178.050;    0.000
373.070; 1502.150;  166.050;    0.000
373.131; 1454.150;  154.050;    0.000
373.191; 1518.150;  193.050;    0.000
373.252; 1499.150;  148.050;    0.000
373.313; 1420.150;  152.050;    0.000
373.373; 1404.150;  156.050;    0.000
373.434; 1454.150;  166.050;    0.000
373.495; 1366.150;  152.050;    0.000
373.555; 1478.150;  145.050;    0.000
373.616; 1493.150;  141.050;    0.000
373.677; 1529.150;  169.050;    0.000
373.737; 1450.150;  166.050;    0.000
373.798; 1432.150;  151.050;    0.000
373.859; 1546.150;  170.050;    0.000
373.919; 1439.150;  206.050;    0.000
373.980; 1521.150;  140.050;    0.000
374.041; 1448.150;  148.050;    0.000
374.101; 1573.150;  165.050;    0.000
374.162; 1580.150;  166.050;    0.000
374.222; 1520.150;  156.050;    0.000
374.283; 1503.150;  161.050;    0.000
374.343; 1553.150;  185.050;    0.000
374.404; 1553.150;  148.050;    0.000
374.465; 1531.150;  162.050;    0.000
374.525; 1529.150;  177.050;    0.000
374.586; 1552.150;  164.050;    0.000
374.646; 1503.150;  180.050;    0.000
374.707; 1567.150;  203.050;    0.000
374.767; 1560.150;  148.050;    0.000
374.828; 1523.150;  142.050;    0.000
374.888; 1531.150;  187.050;    0.000
374.949; 1586.150;  137.050;    0.000
375.009; 1526.150;  155.050;    0.000
375.070; 1601.150;  165.050;    0.000
375.130; 1552.150;  168.050;    0.000
375.190; 1546.150;  157.050;    0.000
375.251; 1580.150;  206.050;    0.000
375.311; 1548.150;  141.050;    0.000
375.372; 1551.150;  144.050;    0.000
375.432; 1599.150;  153.050;    0.000
375.493; 1604.150;  168.050;    0.000
375.553; 1549.150;  146.050;    0.000
375.613; 1563.150;  142.050;    0.000
375.674; 1540.150;  153.050;    0.000
375.734; 1552.150;  166.050;    0.000
375.794; 1505.150;  145.050;    0.000
375.855; 1469.150;  162.050;    0.000
375.915; 1540.150;  162.050;    0.000
375.975; 1493.150;  144.050;    0.000
376.036; 1583.150;  128.050;    0.000
376.096; 1565.150;  122.050;    0.000
376.156; 1501.150;  140.050;    0.000
376.217; 1505.150;  158.050;    0.000
376.277; 1623.150;  163.050;    0.000
376.337; 1492.150;  139.050;    0.000
376.398; 1639.150;  176.050;    0.000
376.458; 1539.150;  143.050;    0.000
376.518; 1513.150;  136.050;    0.000
376.578; 1528.150;  177.050;    0.000
376.639; 1585.150;  163.050;    0.000
376.699; 1528.150;  183.050;    0.000
376.759; 1562.150;  169.050;    0.000
376.819; 1541.150;  147.050;    0.000
376.880; 1535.150;  188.050;    0.000
376.940; 1601.150;  185.050;    0.000
377.000; 1513.150;  131.050;    0.000
377.060; 1560.150;  182.050;    0.000
377.120; 1491.150;  165.050;    0.000
377.180; 1572.150;  169.050;    0.000
377.241; 1601.150;  146.050;    0.000
377.301; 1629.150;  183.050;    0.000
377.361; 1531.150;  124.050;    0.000
377.421; 1588.150;  186.050;    0.000
377.481; 1577.150;  178.050;    0.000
377.541; 1647.150;  140.050;    0.000
377.601; 1527.150;  175.050;    0.000
377.661; 1612.150;  169.050;    0.000
377.722; 1635.150;  144.050;    0.000
377.782; 1581.150;  182.050;    0.000
377.842; 1604.150;  161.050;    0.000
377.902; 1558.150;  151.050;    0.000
377.962; 1483.150;  134.050;    0.000
378.022; 1596.150;  153.050;    0.000
378.082; 1615.150;  178.050;    0.000
378.142; 1621.150;  118.050;    0.000
378.202; 1630.150;  153.050;    0.000
378.262; 1606.150;  166.050;    0.000
378.322; 1605.150;  174.050;    0.000
378.382; 1554.150;  148.050;    0.000
378.442; 1663.150;  190.050;    0.000
378.502; 1636.150;  136.050;    0.000
378.562; 1600.150;  130.050;    0.000
378.622; 1639.150;  188.050;    0.000
378.682; 1594.150;  163.050;    0.000
378.742; 1664.150;  150.050;    0.000
378.802; 1613.150;  127.050;    0.000
378.862; 1669.150;  186.050;    0.000
378.921; 1606.150;  203.050;    0.000
378.981; 1540.150;  177.050;    0.000
379.041; 1613.150;  134.050;    0.000
379.101; 1703.150;  167.050;    0.000
379.161; 1681.150;  130.050;    0.000
379.221; 1744.150;  169.050;    0.000
379.281; 1683.150;  162.050;    0.000
379.341; 1685.150;  134.050;    0.000
379.401; 1656.150;  151.050;    0.000
379.460; 1739.150;  190.050;    0.000
379.520; 1687.150;  158.050;    0.000
379.580; 1712.150;  162.050;    0.000
379.640; 1689.150;  146.050;    0.000
379.700; 1649.150;  167.050;    0.000
379.759; 1696.150;  194.050;    0.000
379.819; 1704.150;  176.050;    0.000
379.879; 1699.150;  140.050;    0.000
379.939; 1737.150;  184.050;    0.000
379.999; 1711.150;  165.050;    0.000
380.058; 1761.150;  194.050;    0.000
380.118; 1763.150;  137.050;    0.000
380.178; 1738.150;  139.050;    0.000
380.237; 1811.150;  139.050;    0.000
380.297; 1792.150;  160.050;    0.000
380.357; 1785.150;  194.050;    0.000
380.417; 1780.150;  174.050;    0.000
380.476; 1756.150;  153.050;    0.000
380.536; 1752.150;  169.050;    0.000
380.596; 1809.150;  159.050;    0.000
380.655; 1793.150;  178.050;    0.000
380.715; 1805.150;  196.050;    0.000
380.775; 1789.150;  202.050;    0.000
380.834; 1779.150;  186.050;    0.000
380.894; 1765.150;  167.050;    0.000
380.954; 1739.150;  150.050;    0.000
381.013; 1727.150;  187.050;    0.000
381.073; 1721.150;  114.050;    0.000
381.132; 1836.150;  176.050;    0.000
381.192; 1819.150;  197.050;    0.000
381.252; 1836.150;  172.050;    0.000
381.311; 1806.150;  155.050;    0.000
381.371; 1827.150;  172.050;    0.000
381.430; 1715.150;  143.050;    0.000
381.490; 1860.150;  136.050;    0.000
381.549; 1835.150;  131.050;    0.000
381.609; 1886.150;  203.050;    0.000
381.668; 1802.150;  135.050;    0.000
381.728; 1942.150;  163.050;    0.000
381.787; 1865.150;  195.050;    0.000
381.847; 1908.150;  185.050;    0.000
381.906; 1848.150;  187.050;    0.000
381.966; 1960.150;  153.050;    0.000
382.025; 2012.150;  175.050;    0.000
382.085; 2017.150;  195.050;    0.000
382.144; 1987.150;  210.050;    0.000
382.204; 1965.150;  201.050;    0.000
382.263; 2007.150;  178.050;    0.000
382.323; 1981.150;  151.050;    0.000
382.382; 2061.150;  147.050;    0.000
382.441; 2086.150;  144.050;    0.000
382.501; 2109.150;  156.050;    0.000
382.560; 2108.150;  160.050;    0.000
382.619; 2215.150;  173.050;    0.000
382.679; 2225.150;  167.050;    0.000
382.738; 2354.150;  189.050;    0.000
382.798; 2419.150;  181.050;    0.000
382.857; 2601.150;  161.050;    0.000
382.916; 2640.150;  162.050;    0.000
382.976; 2839.150;  169.050;    0.000
383.035; 2728.150;  174.050;    0.000
383.094; 2822.150;  178.050;    0.000
383.154; 3055.150;  188.050;    0.000
383.213; 3335.150;  162.050;    0.000
383.272; 3152.150;  144.050;    0.000
383.331; 2781.150;  144.050;    0.000
383.391; 2672.150;  198.050;    0.000
383.450; 2590.150;  185.050;    0.000
383.509; 2640.150;  132.050;    0.000
383.568; 2639.150;  171.050;    0.000
383.628; 2803.150;  171.050;    0.000
383.687; 2941.150;  172.050;    0.000
383.746; 3400.150;  144.050;    0.000
383.805; 3709.150;  177.050;    0.000
383.864; 3628.150;  145.050;    0.000
383.924; 3032.150;  203.050;    0.000
383.983; 2561.150;  153.050;    0.000
384.042; 2443.150;  171.050;    0.000
384.101; 2457.150;  186.050;    0.000
384.160; 2245.150;  132.050;    0.000
384.219; 2175.150;  157.050;    0.000
384.279; 2205.150;  166.050;    0.000
384.338; 2132.150;  141.050;    0.000
384.397; 2055.150;  142.050;    0.000
384.456; 2057.150;  155.050;    0.000
384.515; 2010.150;  158.050;    0.000
384.574; 2103.150;  208.050;    0.000
384.633; 2063.150;  158.050;    0.000
384.692; 2026.150;  162.050;    0.000
384.751; 2099.150;  179.050;    0.000
384.810; 1968.150;  150.050;    0.000
384.869; 2014.150;  147.050;    0.000
384.929; 2032.150;  132.050;    0.000
384.988; 2144.150;  166.050;    0.000
385.047; 1998.150;  161.050;    0.000
385.106; 2047.150;  180.050;    0.000
385.165; 2008.150;  123.050;    0.000
385.224; 1977.150;  153.050;    0.000
385.283; 2001.150;  158.050;    0.000
385.342; 1994.150;  184.050;    0.000
385.401; 2000.150;  191.050;    0.000
385.459; 2001.150;  143.050;    0.000
385.518; 1981.150;  152.050;    0.000
385.577; 2001.150;  134.050;    0.000
385.636; 1972.150;  187.050;    0.000
385.695; 1965.150;  141.050;    0.000
385.754; 1985.150;  143.050;    0.000
385.813; 1923.150;  145.050;    0.000
385.872; 1957.150;  116.050;    0.000
385.931; 1983.150;  147.050;    0.000
385.990; 1893.150;  170.050;    0.000
386.049; 2037.150;  189.050;    0.000
386.107; 1998.150;  122.050;    0.000
386.166; 1965.150;  155.050;    0.000
386.225; 2010.150;  173.050;    0.000
386.284; 1997.150;  138.050;    0.000
386.343; 1997.150;  216.050;    0.000
386.402; 1946.150;  162.050;    0.000
386.460; 1981.150;  131.050;    0.000
386.519; 1942.150;  122.050;    0.000
386.578; 2015.150;  140.050;    0.000
386.637; 1991.150;  169.050;    0.000
386.696; 2080.150;  176.050;    0.000
386.754; 2001.150;  127.050;    0.000
386.813; 2054.150;  138.050;    0.000
386.872; 1980.150;  135.050;    0.000
386.931; 2080.150;  170.050;    0.000
386.989; 2013.150;  167.050;    0.000
387.048; 1997.150;  131.050;    0.000
387.107; 1994.150;  176.050;    0.000
387.165; 1945.150;  139.050;    0.000
387.224; 2011.150;  150.050;    0.000
387.283; 2015.150;  169.050;    0.000
387.342; 2017.150;  191.050;    0.000
387.400; 2052.150;  131.050;    0.000
387.459; 1869.150;  139.050;    0.000
387.517; 1974.150;  214.050;    0.000
387.576; 1986.150;  146.050;    0.000
387.635; 1945.150;  161.050;    0.000
387.693; 2049.150;  197.050;    0.000
387.752; 2085.150;  159.050;    0.000
387.811; 2014.150;  144.050;    0.000
387.869; 1992.150;  172.050;    0.000
387.928; 1991.150;  160.050;    0.000
387.986; 2035.150;  192.050;    0.000
388.045; 1939.150;  121.050;    0.000
388.103; 2044.150;  129.050;    0.000
388.162; 1977.150;  169.050;    0.000
388.221; 2016.150;  171.050;    0.000
388.279; 2022.150;  135.050;    0.000
388.338; 2036.150;  222.050;    0.000
388.396; 1959.150;  168.050;    0.000
388.455; 1937.150;  178.050;    0.000
388.513; 1975.150;  151.050;    0.000
388.572; 1984.150;  147.050;    0.000
388.630; 1985.150;  158.050;    0.000
388.689; 2046.150;  163.050;    0.000
388.747; 1971.150;  180.050;    0.000
388.806; 2026.150;  119.050;    0.000
388.864; 2003.150;  159.050;    0.000
388.922; 1985.150;  152.050;    0.000
388.981; 1942.150;  125.050;    0.000
389.039; 1954.150;  151.050;    0.000
389.098; 2014.150;  151.050;    0.000
389.156; 2072.150;  175.050;    0.000
389.214; 2007.150;  133.050;    0.000
389.273; 2052.150;  142.050;    0.000
389.331; 2050.150;  179.050;    0.000
389.390; 2014.150;  179.050;    0.000
389.448; 1899.150;  159.050;    0.000
389.506; 1934.150;  140.050;    0.000
389.565; 2043.150;  160.050;    0.000
389.623; 1996.150;  181.050;    0.000
389.681; 2042.150;  181.050;    0.000
389.740; 2062.150;  187.050;    0.000
389.798; 1990.150;  163.050;    0.000
389.856; 2018.150;  185.050;    0.000
389.914; 2057.150;  170.050;    0.000
389.973; 2008.150;  150.050;    0.000
390.031; 2002.150;  149.050;    0.000
390.089; 2022.150;  191.050;    0.000
390.147; 1952.150;  126.050;    0.000
390.206; 2067.150;  174.050;    0.000
390.264; 2029.150;  164.050;    0.000
390.322; 2020.150;  150.050;    0.000
390.380; 1998.150;  137.050;    0.000
390.439; 2031.150;  176.050;    0.000
390.497; 2084.150;  188.050;    0.000
390.555; 2051.150;  143.050;    0.000
390.613; 2047.150;  174.050;    0.000
390.671; 2088.150;  208.050;    0.000
390.729; 1954.150;  135.050;    0.000
390.788; 2025.150;  169.050;    0.000
390.846; 2024.150;  173.050;    0.000
390.904; 2066.150;  176.050;    0.000
390.962; 2101.150;  179.050;    0.000
391.020; 2052.150;  201.050;    0.000
391.078; 2071.150;  192.050;    0.000
391.136; 2069.150;  170.050;    0.000
391.194; 2014.150;  163.050;    0.000
391.253; 2087.150;  203.050;    0.000
391.311; 2089.150;  170.050;    0.000
391.369; 2082.150;  191.050;    0.000
391.427; 2153.150;  226.050;    0.000
391.485; 2144.150;  181.050;    0.000
391.543; 2122.150;  177.050;    0.000
391.601; 2045.150;  150.050;    0.000
391.659; 2096.150;  201.050;    0.000
391.717; 2087.150;  166.050;    0.000
391.775; 2121.150;  200.050;    0.000
391.833; 2084.150;  180.050;    0.000
391.891; 2121.150;  172.050;    0.000
391.949; 2113.150;  174.050;    0.000
392.007; 2140.150;  194.050;    0.000
392.065; 2135.150;  161.050;    0.000
392.123; 2185.150;  159.050;    0.000
392.180; 2169.150;  193.050;    0.000
392.238; 2149.150;  188.050;    0.000
392.296; 2205.150;  206.050;    0.000
392.354; 2208.150;  170.050;    0.000
392.412; 2213.150;  207.050;    0.000
392.470; 2107.150;  168.050;    0.000
392.528; 2125.150;  185.050;    0.000
392.586; 2121.150;  154.050;    0.000
392.644; 2209.150;  190.050;    0.000
392.701; 2227.150;  195.050;    0.000
392.759; 2076.150;  229.050;    0.000
392.817; 2197.150;  176.050;    0.000
392.875; 2209.150;  198.050;    0.000
392.933; 2205.150;  174.050;    0.000
392.991; 2160.150;  237.050;    0.000
393.048; 2197.150;  212.050;    0.000
393.106; 2221.150;  191.050;    0.000
393.164; 2127.150;  136.050;    0.000
393.222; 2149.150;  164.050;    0.000
393.279; 2301.150;  208.050;    0.000
393.337; 2263.150;  203.050;    0.000
393.395; 2201.150;  191.050;    0.000
393.453; 2200.150;  153.050;    0.000
393.510; 2183.150;  171.050;    0.000
393.568; 2205.150;  203.050;    0.000
393.626; 2172.150;  169.050;    0.000
393.684; 2173.150;  201.050;    0.000
393.741; 2211.150;  172.050;    0.000
393.799; 2200.150;  149.050;    0.000
393.857; 2145.150;  151.050;    0.000
393.914; 2159.150;  192.050;    0.000
393.972; 2223.150;  176.050;    0.000
394.030; 2172.150;  165.050;    0.000
394.087; 2221.150;  192.050;    0.000
394.145; 2183.150;  183.050;    0.000
394.202; 2176.150;  161.050;    0.000
394.260; 2120.150;  135.050;    0.000
394.318; 2193.150;  188.050;    0.000
394.375; 2229.150;  163.050;    0.000
394.433; 2210.150;  151.050;    0.000
394.490; 2201.150;  190.050;    0.000
394.548; 2193.150;  157.050;    0.000
394.605; 2305.150;  205.050;    0.000
394.663; 2193.150;  173.050;    0.000
394.720; 2276.150;  171.050;    0.000
394.778; 2361.150;  190.050;    0.000
394.836; 2181.150;  134.050;    0.000
394.893; 2377.150;  142.050;    0.000
394.951; 2291.150;  192.050;    0.000
395.008; 2327.150;  149.050;    0.000
395.065; 2261.150;  194.050;    0.000
395.123; 2337.150;  160.050;    0.000
395.180; 2269.150;  178.050;    0.000
395.238; 2326.150;  191.050;    0.000
395.295; 2348.150;  160.050;    0.000
395.353; 2351.150;  162.050;    0.000
395.410; 2329.150;  165.050;    0.000
395.468; 2381.150;  190.050;    0.000
395.525; 2436.150;  173.050;    0.000
395.582; 2379.150;  161.050;    0.000
395.640; 2396.150;  200.050;    0.000
395.697; 2323.150;  198.050;    0.000
395.754; 2321.150;  136.050;    0.000
395.812; 2353.150;  172.050;    0.000
395.869; 2390.150;  172.050;    0.000
395.927; 2285.150;  145.050;    0.000
395.984; 2320.150;  220.050;    0.000
396.041; 2377.150;  137.050;    0.000
396.098; 2265.150;  161.050;    0.000
396.156; 2388.150;  159.050;    0.000
396.213; 2343.150;  200.050;    0.000
396.270; 2391.150;  209.050;    0.000
396.328; 2321.150;  162.050;    0.000
396.385; 2355.150;  186.050;    0.000
396.442; 2423.150;  177.050;    0.000
396.499; 2326.150;  183.050;    0.000
396.557; 2368.150;  182.050;    0.000
396.614; 2355.150;  186.050;    0.000
396.671; 2374.150;  144.050;    0.000
396.728; 2416.150;  176.050;    0.000
396.785; 2362.150;  169.050;    0.000
396.843; 2411.150;  134.050;    0.000
396.900; 2380.150;  184.050;    0.000
396.957; 2462.150;  197.050;    0.000
397.014; 2395.150;  187.050;    0.000
397.071; 2472.150;  186.050;    0.000
397.128; 2524.150;  200.050;    0.000
397.186; 2437.150;  175.050;    0.000
397.243; 2560.150;  154.050;    0.000
397.300; 2462.150;  191.050;    0.000
397.357; 2381.150;  238.050;    0.000
397.414; 2509.150;  161.050;    0.000
397.471; 2427.150;  135.050;    0.000
397.528; 2579.150;  158.050;    0.000
397.585; 2504.150;  159.050;    0.000
397.642; 2413.150;  180.050;    0.000
397.699; 2553.150;  170.050;    0.000
397.756; 2474.150;  175.050;    0.000
397.814; 2582.150;  182.050;    0.000
397.871; 2473.150;  173.050;    0.000
397.928; 2573.150;  173.050;    0.000
397.985; 2469.150;  176.050;    0.000
398.042; 2576.150;  189.050;    0.000
398.099; 2536.150;  160.050;    0.000
398.156; 2525.150;  218.050;    0.000
398.212; 2597.150;  194.050;    0.000
398.269; 2573.150;  199.050;    0.000
398.326; 2577.150;  188.050;    0.000
398.383; 2567.150;  187.050;    0.000
398.440; 2531.150;  174.050;    0.000
398.497; 2697.150;  214.050;    0.000
398.554; 2507.150;  181.050;    0.000
398.611; 2721.150;  195.050;    0.000
398.668; 2616.150;  145.050;    0.000
398.725; 2524.150;  178.050;    0.000
398.782; 2655.150;  210.050;    0.000
398.839; 2636.150;  216.050;    0.000
398.895; 2655.150;  189.050;    0.000
398.952; 2583.150;  206.050;    0.000
399.009; 2643.150;  142.050;    0.000
399.066; 2694.150;  192.050;    0.000
399.123; 2665.150;  181.050;    0.000
399.180; 2814.150;  200.050;    0.000
399.236; 2822.150;  156.050;    0.000
399.293; 2820.150;  194.050;    0.000
399.350; 2804.150;  167.050;    0.000
399.407; 2817.150;  192.050;    0.000
399.463; 2836.150;  161.050;    0.000
399.520; 2984.150;  149.050;    0.000
399.577; 2897.150;  156.050;    0.000
399.634; 3019.150;  195.050;    0.000
399.690; 2911.150;  163.050;    0.000
399.747; 3029.150;  192.050;    0.000
399.804; 2937.150;  212.050;    0.000
399.861; 2939.150;  203.050;    0.000
399.917; 2892.150;  221.050;    0.000
399.974; 2870.150;  221.050;    0.000
400.031; 2987.150;  195.050;    0.000
400.087; 2801.150;  159.050;    0.000
400.144; 2886.150;  201.050;    0.000
400.201; 2877.150;  206.050;    0.000
400.257; 2874.150;  168.050;    0.000
400.314; 2788.150;  183.050;    0.000
400.370; 2899.150;  209.050;    0.000
400.427; 2784.150;  192.050;    0.000
400.484; 2861.150;  150.050;    0.000
400.540; 2828.150;  213.050;    0.000
400.597; 2843.150;  161.050;    0.000
400.653; 2794.150;  170.050;    0.000
400.710; 2841.150;  173.050;    0.000
400.766; 2857.150;  204.050;    0.000
400.823; 2773.150;  194.050;    0.000
400.879; 2774.150;  188.050;    0.000
400.936; 2826.150;  172.050;    0.000
400.993; 2757.150;  154.050;    0.000
401.049; 2767.150;  157.050;    0.000
401.105; 2705.150;  214.050;    0.000
401.162; 2848.150;  195.050;    0.000
401.218; 2714.150;  195.050;    0.000
401.275; 2709.150;  182.050;    0.000
401.331; 2772.150;  188.050;    0.000
401.388; 2697.150;  194.050;    0.000
401.444; 2707.150;  175.050;    0.000
401.501; 2686.150;  169.050;    0.000
401.557; 2735.150;  176.050;    0.000
401.614; 2651.150;  153.050;    0.000
401.670; 2727.150;  178.050;    0.000
401.726; 2736.150;  179.050;    0.000
401.783; 2758.150;  198.050;    0.000
401.839; 2894.150;  179.050;    0.000
401.895; 2738.150;  154.050;    0.000
401.952; 2672.150;  138.050;    0.000
402.008; 2715.150;  135.050;    0.000
402.064; 2638.150;  154.050;    0.000
402.121; 2774.150;  199.050;    0.000
402.177; 2798.150;  126.050;    0.000
402.233; 2813.150;  190.050;    0.000
402.290; 2776.150;  175.050;    0.000
402.346; 2822.150;  200.050;    0.000
402.402; 2764.150;  191.050;    0.000
402.458; 2752.150;  172.050;    0.000
402.515; 2765.150;  186.050;    0.000
402.571; 2837.150;  189.050;    0.000
402.627; 2790.150;  151.050;    0.000
402.683; 2803.150;  187.050;    0.000
402.740; 2763.150;  147.050;    0.000
402.796; 2895.150;  176.050;    0.000
402.852; 2917.150;  200.050;    0.000
402.908; 2776.150;  201.050;    0.000
402.964; 2810.150;  153.050;    0.000
403.021; 2732.150;  165.050;    0.000
403.077; 2920.150;  195.050;    0.000
403.133; 2747.150;  139.050;    0.000
403.189; 2847.150;  166.050;    0.000
403.245; 2900.150;  194.050;    0.000
403.301; 2833.150;  210.050;    0.000
403.357; 2811.150;  187.050;    0.000
403.414; 2936.150;  195.050;    0.000
403.470; 2830.150;  150.050;    0.000
403.526; 2827.150;  158.050;    0.000
403.582; 2889.150;  184.050;    0.000
403.638; 2840.150;  171.050;    0.000
403.694; 2885.150;  197.050;    0.000
403.750; 2898.150;  196.050;    0.000
403.806; 2992.150;  192.050;    0.000
403.862; 2935.150;  169.050;    0.000
403.918; 2959.150;  199.050;    0.000
403.974; 3003.150;  156.050;    0.000
404.030; 2972.150;  193.050;    0.000
404.086; 2887.150;  161.050;    0.000
404.142; 2994.150;  172.050;    0.000
404.198; 2972.150;  195.050;    0.000
404.254; 2908.150;  167.050;    0.000
404.310; 2821.150;  156.050;    0.000
404.366; 2864.150;  144.050;    0.000
404.422; 2882.150;  161.050;    0.000
404.478; 2897.150;  179.050;    0.000
404.534; 2895.150;  163.050;    0.000
404.590; 2881.150;  183.050;    0.000
404.646; 2941.150;  155.050;    0.000
404.701; 2894.150;  142.050;    0.000
404.757; 2933.150;  175.050;    0.000
404.813; 2908.150;  153.050;    0.000
404.869; 2955.150;  199.050;    0.000
404.925; 2859.150;  153.050;    0.000
404.981; 2930.150;  174.050;    0.000
405.037; 3009.150;  185.050;    0.000
405.092; 2923.150;  166.050;    0.000
405.148; 2832.150;  161.050;    0.000
405.204; 3026.150;  170.050;    0.000
405.260; 2882.150;  154.050;    0.000
405.316; 2993.150;  128.050;    0.000
405.371; 2900.150;  142.050;    0.000
405.427; 2957.150;  196.050;    0.000
405.483; 3034.150;  172.050;    0.000
405.539; 2922.150;  182.050;    0.000
405.594; 3017.150;  153.050;    0.000
405.650; 2911.150;  124.050;    0.000
405.706; 2933.150;  189.050;    0.000
405.761; 2942.150;  165.050;    0.000
405.817; 2938.150;  152.050;    0.000
405.873; 2913.150;  174.050;    0.000
405.928; 3012.150;  167.050;    0.000
405.984; 3061.150;  210.050;    0.000
406.040; 3016.150;  160.050;    0.000
406.095; 2960.150;  163.050;    0.000
406.151; 3059.150;  208.050;    0.000
406.207; 2991.150;  177.050;    0.000
406.262; 2951.150;  176.050;    0.000
406.318; 3033.150;  157.050;    0.000
406.374; 3083.150;  141.050;    0.000
406.429; 3054.150;  189.050;    0.000
406.485; 3064.150;  190.050;    0.000
406.540; 3152.150;  155.050;    0.000
406.596; 3103.150;  182.050;    0.000
406.651; 3090.150;  200.050;    0.000
406.707; 3158.150;  130.050;    0.000
406.763; 3123.150;  174.050;    0.000
406.818; 3209.150;  151.050;    0.000
406.874; 3128.150;  122.050;    0.000
406.929; 3138.150;  153.050;    0.000
406.985; 3162.150;  198.050;    0.000
407.040; 3208.150;  174.050;    0.000
407.095; 3197.150;  161.050;    0.000
407.151; 3255.150;  184.050;    0.000
407.206; 3314.150;  188.050;    0.000
407.262; 3304.150;  180.050;    0.000
407.317; 3333.150;  186.050;    0.000
407.373; 3267.150;  200.050;    0.000
407.428; 3370.150;  211.050;    0.000
407.484; 3362.150;  193.050;    0.000
407.539; 3363.150;  167.050;    0.000
407.594; 3457.150;  178.050;    0.000
407.650; 3392.150;  171.050;    0.000
407.705; 3392.150;  153.050;    0.000
407.760; 3358.150;  196.050;    0.000
407.816; 3364.150;  205.050;    0.000
407.871; 3367.150;  232.050;    0.000
407.926; 3355.150;  215.050;    0.000
407.982; 3309.150;  154.050;    0.000
408.037; 3326.150;  217.050;    0.000
408.092; 3339.150;  190.050;    0.000
408.148; 3288.150;  181.050;    0.000
408.203; 3314.150;  203.050;    0.000
408.258; 3285.150;  154.050;    0.000
408.314; 3410.150;  198.050;    0.000
408.369; 3256.150;  156.050;    0.000
408.424; 3271.150;  216.050;    0.000
408.479; 3248.150;  191.050;    0.000
408.534; 3267.150;  200.050;    0.000
408.590; 3232.150;  182.050;    0.000
408.645; 3223.150;  141.050;    0.000
408.700; 3370.150;  209.050;    0.000
408.755; 3297.150;  205.050;    0.000
408.810; 3274.150;  171.050;    0.000
408.866; 3251.150;  200.050;    0.000
408.921; 3314.150;  188.050;    0.000
408.976; 3254.150;  156.050;    0.000
409.031; 3201.150;  164.050;    0.000
409.086; 3262.150;  155.050;    0.000
409.141; 3260.150;  205.050;    0.000
409.196; 3184.150;  173.050;    0.000
409.252; 3176.150;  179.050;    0.000
409.307; 3213.150;  131.050;    0.000
409.362; 3244.150;  173.050;    0.000
409.417; 3193.150;  120.050;    0.000
409.472; 3235.150;  198.050;    0.000
409.527; 3235.150;  153.050;    0.000
409.582; 3195.150;  177.050;    0.000
409.637; 3239.150;  184.050;    0.000
409.692; 3231.150;  203.050;    0.000
409.747; 3242.150;  158.050;    0.000
409.802; 3314.150;  212.050;    0.000
409.857; 3194.150;  192.050;    0.000
409.912; 3248.150;  179.050;    0.000
409.967; 3260.150;  177.050;    0.000
410.022; 3324.150;  204.050;    0.000
410.077; 3184.150;  175.050;    0.000
410.132; 3206.150;  207.050;    0.000
410.187; 3197.150;  169.050;    0.000
410.242; 3287.150;  186.050;    0.000
410.297; 3233.150;  185.050;    0.000
410.351; 3251.150;  191.050;    0.000
410.406; 3304.150;  215.050;    0.000
410.461; 3219.150;  190.050;    0.000
410.516; 3160.150;  172.050;    0.000
410.571; 3229.150;  190.050;    0.000
410.626; 3296.150;  189.050;    0.000
410.681; 3227.150;  191.050;    0.000
410.736; 3206.150;  166.050;    0.000
410.790; 3219.150;  179.050;    0.000
410.845; 3237.150;  196.050;    0.000
410.900; 3113.150;  168.050;    0.000
410.955; 3284.150;  173.050;    0.000
411.010; 3192.150;  162.050;    0.000
411.064; 3256.150;  205.050;    0.000
411.119; 3255.150;  203.050;    0.000
411.174; 3167.150;  207.050;    0.000
411.229; 3239.150;  218.050;    0.000
411.283; 3209.150;  218.050;    0.000
411.338; 3335.150;  180.050;    0.000
411.393; 3240.150;  191.050;    0.000
411.447; 3254.150;  207.050;    0.000
411.502; 3274.150;  204.050;    0.000
411.557; 3215.150;  208.050;    0.000
411.612; 3262.150;  191.050;    0.000
411.666; 3199.150;  233.050;    0.000
411.721; 3294.150;  193.050;    0.000
411.776; 3340.150;  195.050;    0.000
411.830; 3314.150;  229.050;    0.000
411.885; 3230.150;  181.050;    0.000
411.939; 3306.150;  214.050;    0.000
411.994; 3222.150;  140.050;    0.000
412.049; 3219.150;  205.050;    0.000
412.103; 3262.150;  232.050;    0.000
412.158; 3154.150;  228.050;    0.000
412.212; 3320.150;  204.050;    0.000
412.267; 3244.150;  203.050;    0.000
412.322; 3294.150;  212.050;    0.000
412.376; 3230.150;  195.050;    0.000
412.431; 3198.150;  197.050;    0.000
412.485; 3227.150;  235.050;    0.000
412.540; 3273.150;  197.050;    0.000
412.594; 3214.150;  199.050;    0.000
412.649; 3230.150;  195.050;    0.000
412.703; 3276.150;  214.050;    0.000
412.758; 3202.150;  213.050;    0.000
412.812; 3217.150;  154.050;    0.000
412.866; 3248.150;  159.050;    0.000
412.921; 3192.150;  207.050;    0.000
412.975; 3271.150;  194.050;    0.000
413.030; 3236.150;  214.050;    0.000
413.084; 3213.150;  174.050;    0.000
413.139; 3147.150;  211.050;    0.000
413.193; 3217.150;  223.050;    0.000
413.247; 3268.150;  198.050;    0.000
413.302; 3153.150;  184.050;    0.000
413.356; 3293.150;  194.050;    0.000
413.410; 3254.150;  219.050;    0.000
413.465; 3331.150;  209.050;    0.000
413.519; 3193.150;  178.050;    0.000
413.573; 3263.150;  189.050;    0.000
413.628; 3183.150;  184.050;    0.000
413.682; 3224.150;  189.050;    0.000
413.736; 3202.150;  196.050;    0.000
413.791; 3317.150;  208.050;    0.000
413.845; 3144.150;  206.050;    0.000
413.899; 3200.150;  193.050;    0.000
413.953; 3197.150;  176.050;    0.000
414.008; 3142.150;  163.050;    0.000
414.062; 3181.150;  195.050;    0.000
414.116; 3171.150;  176.050;    0.000
414.170; 3295.150;  218.050;    0.000
414.225; 3193.150;  183.050;    0.000
414.279; 3212.150;  191.050;    0.000
414.333; 3217.150;  215.050;    0.000
414.387; 3188.150;  187.050;    0.000
414.441; 3228.150;  182.050;    0.000
414.496; 3239.150;  205.050;    0.000
414.550; 3333.150;  203.050;    0.000
414.604; 3259.150;  223.050;    0.000
414.658; 3255.150;  159.050;    0.000
414.712; 3209.150;  194.050;    0.000
414.766; 3288.150;  232.050;    0.000
414.820; 3217.150;  235.050;    0.000
414.874; 3180.150;  169.050;    0.000
414.928; 3208.150;  207.050;    0.000
414.982; 3203.150;  174.050;    0.000
415.037; 3161.150;  173.050;    0.000
415.091; 3251.150;  219.050;    0.000
415.145; 3257.150;  174.050;    0.000
415.199; 3287.150;  207.050;    0.000
415.253; 3208.150;  228.050;    0.000
415.307; 3243.150;  182.050;    0.000
415.361; 3344.150;  219.050;    0.000
415.415; 3237.150;  218.050;    0.000
415.469; 3266.150;  233.050;    0.000
415.523; 3355.150;  203.050;    0.000
415.577; 3300.150;  186.050;    0.000
415.631; 3309.150;  215.050;    0.000
415.684; 3307.150;  212.050;    0.000
415.738; 3252.150;  206.050;    0.000
415.792; 3378.150;  219.050;    0.000
415.846; 3241.150;  208.050;    0.000
415.900; 3297.150;  203.050;    0.000
415.954; 3242.150;  237.050;    0.000
416.008; 3263.150;  242.050;    0.000
416.062; 3176.150;  197.050;    0.000
416.116; 3209.150;  189.050;    0.000
416.169; 3327.150;  199.050;    0.000
416.223; 3128.150;  230.050;    0.000
416.277; 3322.150;  226.050;    0.000
416.331; 3187.150;  254.050;    0.000
416.385; 3187.150;  204.050;    0.000
416.439; 3214.150;  201.050;    0.000
416.492; 3227.150;  238.050;    0.000
416.546; 3254.150;  234.050;    0.000
416.600; 3204.150;  244.050;    0.000
416.654; 3240.150;  233.050;    0.000
416.707; 3222.150;  214.050;    0.000
416.761; 3184.150;  214.050;    0.000
416.815; 3126.150;  192.050;    0.000
416.869; 3301.150;  225.050;    0.000
416.922; 3297.150;  214.050;    0.000
416.976; 3210.150;  206.050;    0.000
417.030; 3263.150;  226.050;    0.000
417.083; 3248.150;  207.050;    0.000
417.137; 3205.150;  236.050;    0.000
417.191; 3111.150;  208.050;    0.000
417.244; 3248.150;  260.050;    0.000
417.298; 3254.150;  222.050;    0.000
417.352; 3217.150;  191.050;    0.000
417.405; 3145.150;  229.050;    0.000
417.459; 3302.150;  249.050;    0.000
417.512; 3197.150;  259.050;    0.000
417.566; 3198.150;  220.050;    0.000
417.620; 3181.150;  229.050;    0.000
417.673; 3165.150;  190.050;    0.000
417.727; 3276.150;  204.050;    0.000
417.780; 3119.150;  223.050;    0.000
417.834; 3270.150;  213.050;    0.000
417.887; 3209.150;  238.050;    0.000
417.941; 3137.150;  244.050;    0.000
417.994; 3215.150;  247.050;    0.000
418.048; 3198.150;  225.050;    0.000
418.101; 3244.150;  210.050;    0.000
418.155; 3185.150;  224.050;    0.000
418.208; 3207.150;  229.050;    0.000
418.262; 3264.150;  255.050;    0.000
418.315; 3142.150;  248.050;    0.000
418.369; 3213.150;  212.050;    0.000
418.422; 3205.150;  241.050;    0.000
418.476; 3234.150;  220.050;    0.000
418.529; 3239.150;  257.050;    0.000
418.582; 3200.150;  203.050;    0.000
418.636; 3145.150;  221.050;    0.000
418.689; 3193.150;  202.050;    0.000
418.743; 3218.150;  227.050;    0.000
418.796; 3186.150;  226.050;    0.000
418.849; 3281.150;  199.050;    0.000
418.903; 3235.150;  234.050;    0.000
418.956; 3275.150;  236.050;    0.000
419.009; 3258.150;  305.050;    0.000
419.063; 3140.150;  216.050;    0.000
419.116; 3203.150;  245.050;    0.000
419.169; 3204.150;  208.050;    0.000
419.222; 3134.150;  233.050;    0.000
419.276; 3296.150;  244.050;    0.000
419.329; 3187.150;  197.050;    0.000
419.382; 3040.150;  222.050;    0.000
419.435; 3105.150;  199.050;    0.000
419.489; 3182.150;  226.050;    0.000
419.542; 3207.150;  223.050;    0.000
419.595; 3232.150;  204.050;    0.000
419.648; 3165.150;  234.050;    0.000
419.701; 3263.150;  211.050;    0.000
419.755; 3108.150;  184.050;    0.000
419.808; 3170.150;  223.050;    0.000
419.861; 3123.150;  197.050;    0.000
419.914; 3255.150;  258.050;    0.000
419.967; 3134.150;  205.050;    0.000
420.020; 3169.150;  195.050;    0.000
420.073; 3116.150;  191.050;    0.000
420.127; 3140.150;  256.050;    0.000
420.180; 3182.150;  232.050;    0.000
420.233; 3014.150;  200.050;    0.000
420.286; 3073.150;  207.050;    0.000
420.339; 3099.150;  223.050;    0.000
420.392; 3099.150;  243.050;    0.000
420.445; 3134.150;  195.050;    0.000
420.498; 3106.150;  239.050;    0.000
420.551; 3015.150;  201.050;    0.000
420.604; 3120.150;  245.050;    0.000
420.657; 3068.150;  221.050;    0.000
420.710; 3034.150;  223.050;    0.000
420.763; 3064.150;  241.050;    0.000
420.816; 3010.150;  198.050;    0.000
420.869; 3061.150;  210.050;    0.000
420.922; 3057.150;  206.050;    0.000
420.975; 3014.150;  239.050;    0.000
421.028; 3009.150;  248.050;    0.000
421.081; 3014.150;  236.050;    0.000
421.134; 3065.150;  208.050;    0.000
421.187; 3035.150;  216.050;    0.000
421.239; 2922.150;  199.050;    0.000
421.292; 3015.150;  255.050;    0.000
421.345; 2930.150;  241.050;    0.000
421.398; 2975.150;  221.050;    0.000
421.451; 3036.150;  237.050;    0.000
421.504; 2980.150;  225.050;    0.000
421.557; 2960.150;  213.050;    0.000
421.609; 2978.150;  178.050;    0.000
421.662; 2988.150;  206.050;    0.000
421.715; 2997.150;  212.050;    0.000
421.768; 2963.150;  236.050;    0.000
421.821; 2963.150;  228.050;    0.000
421.873; 3048.150;  200.050;    0.000
421.926; 3021.150;  226.050;    0.000
421.979; 2979.150;  221.050;    0.000
422.032; 3030.150;  219.050;    0.000
422.084; 2972.150;  253.050;    0.000
422.137; 2865.150;  195.050;    0.000
422.190; 2917.150;  192.050;    0.000
422.243; 3026.150;  236.050;    0.000
422.295; 3042.150;  205.050;    0.000
422.348; 2987.150;  198.050;    0.000
422.401; 2977.150;  245.050;    0.000
422.453; 3015.150;  241.050;    0.000
422.506; 3032.150;  255.050;    0.000
422.559; 3012.150;  188.050;    0.000
422.611; 2982.150;  236.050;    0.000
422.664; 3039.150;  218.050;    0.000
422.716; 3014.150;  210.050;    0.000
422.769; 2999.150;  209.050;    0.000
422.822; 2949.150;  213.050;    0.000
422.874; 2988.150;  227.050;    0.000
422.927; 3008.150;  272.050;    0.000
422.979; 2958.150;  204.050;    0.000
423.032; 2832.150;  210.050;    0.000
423.084; 2979.150;  236.050;    0.000
423.137; 2917.150;  223.050;    0.000
423.189; 2851.150;  253.050;    0.000
423.242; 2936.150;  185.050;    0.000
423.294; 2807.150;  232.050;    0.000
423.347; 2990.150;  213.050;    0.000
423.399; 3071.150;  227.050;    0.000
423.452; 2982.150;  236.050;    0.000
423.504; 2827.150;  232.050;    0.000
423.557; 2870.150;  195.050;    0.000
423.609; 2916.150;  238.050;    0.000
423.662; 2958.150;  207.050;    0.000
423.714; 2928.150;  231.050;    0.000
423.766; 2924.150;  211.050;    0.000
423.819; 2886.150;  207.050;    0.000
423.871; 2935.150;  228.050;    0.000
423.923; 2804.150;  223.050;    0.000
423.976; 2871.150;  217.050;    0.000
424.028; 2927.150;  231.050;    0.000
424.081; 2846.150;  219.050;    0.000
424.133; 2758.150;  255.050;    0.000
424.185; 2897.150;  199.050;    0.000
424.238; 2850.150;  238.050;    0.000
424.290; 2934.150;  209.050;    0.000
424.342; 2846.150;  213.050;    0.000
424.394; 2850.150;  215.050;    0.000
424.447; 2847.150;  265.050;    0.000
424.499; 2904.150;  238.050;    0.000
424.551; 2922.150;  256.050;    0.000
424.603; 2832.150;  222.050;    0.000
424.656; 2920.150;  227.050;    0.000
424.708; 2896.150;  250.050;    0.000
424.760; 2875.150;  228.050;    0.000
424.812; 2836.150;  249.050;    0.000
424.864; 2763.150;  222.050;    0.000
424.917; 2837.150;  235.050;    0.000
424.969; 2909.150;  266.050;    0.000
425.021; 2926.150;  233.050;    0.000
425.073; 2873.150;  194.050;    0.000
425.125; 2800.150;  256.050;    0.000
425.177; 2765.150;  225.050;    0.000
425.229; 2799.150;  242.050;    0.000
425.282; 2812.150;  236.050;    0.000
425.334; 2831.150;  250.050;    0.000
425.386; 2853.150;  231.050;    0.000
425.438; 2901.150;  216.050;    0.000
425.490; 2842.150;  240.050;    0.000
425.542; 2805.150;  231.050;    0.000
425.594; 2800.150;  206.050;    0.000
425.646; 2823.150;  201.050;    0.000
425.698; 2805.150;  193.050;    0.000
425.750; 2850.150;  241.050;    0.000
425.802; 2837.150;  199.050;    0.000
425.854; 2767.150;  216.050;    0.000
425.906; 2802.150;  220.050;    0.000
425.958; 2801.150;  200.050;    0.000
426.010; 2750.150;  214.050;    0.000
426.062; 2819.150;  245.050;    0.000
426.114; 2820.150;  241.050;    0.000
426.166; 2812.150;  241.050;    0.000
426.218; 2857.150;  255.050;    0.000
426.270; 2776.150;  228.050;    0.000
426.321; 2742.150;  222.050;    0.000
426.373; 2795.150;  218.050;    0.000
426.425; 2777.150;  258.050;    0.000
426.477; 2663.150;  225.050;    0.000
426.529; 2779.150;  223.050;    0.000
426.581; 2692.150;  198.050;    0.000
426.633; 2676.150;  228.050;    0.000
426.684; 2781.150;  210.050;    0.000
426.736; 2828.150;  208.050;    0.000
426.788; 2724.150;  231.050;    0.000
426.840; 2713.150;  212.050;    0.000
426.892; 2691.150;  221.050;    0.000
426.943; 2759.150;  240.050;    0.000
426.995; 2683.150;  243.050;    0.000
427.047; 2717.150;  231.050;    0.000
427.099; 2785.150;  189.050;    0.000
427.150; 2652.150;  212.050;    0.000
427.202; 2664.150;  219.050;    0.000
427.254; 2632.150;  203.050;    0.000
427.306; 2671.150;  217.050;    0.000
427.357; 2699.150;  232.050;    0.000
427.409; 2661.150;  251.050;    0.000
427.461; 2655.150;  185.050;    0.000
427.512; 2635.150;  239.050;    0.000
427.564; 2708.150;  208.050;    0.000
427.616; 2720.150;  233.050;    0.000
427.667; 2613.150;  223.050;    0.000
427.719; 2640.150;  206.050;    0.000
427.770; 2682.150;  195.050;    0.000
427.822; 2687.150;  223.050;    0.000
427.874; 2657.150;  232.050;    0.000
427.925; 2705.150;  209.050;    0.000
427.977; 2605.150;  208.050;    0.000
428.028; 2666.150;  187.050;    0.000
428.080; 2634.150;  209.050;    0.000
428.131; 2607.150;  237.050;    0.000
428.183; 2691.150;  200.050;    0.000
428.234; 2659.150;  215.050;    0.000
428.286; 2558.150;  229.050;    0.000
428.337; 2588.150;  206.050;    0.000
428.389; 2644.150;  216.050;    0.000
428.440; 2754.150;  287.050;    0.000
428.492; 2698.150;  269.050;    0.000
428.543; 2616.150;  234.050;    0.000
428.595; 2565.150;  214.050;    0.000
428.646; 2613.150;  229.050;    0.000
428.697; 2660.150;  249.050;    0.000
428.749; 2582.150;  250.050;    0.000
428.800; 2663.150;  242.050;    0.000
428.852; 2649.150;  232.050;    0.000
428.903; 2559.150;  196.050;    0.000
428.954; 2671.150;  226.050;    0.000
429.006; 2644.150;  232.050;    0.000
429.057; 2550.150;  188.050;    0.000
429.108; 2571.150;  237.050;    0.000
429.160; 2550.150;  221.050;    0.000
429.211; 2594.150;  222.050;    0.000
429.262; 2579.150;  215.050;    0.000
429.314; 2596.150;  225.050;    0.000
429.365; 2556.150;  220.050;    0.000
429.416; 2684.150;  242.050;    0.000
429.467; 2626.150;  220.050;    0.000
429.519; 2546.150;  217.050;    0.000
429.570; 2641.150;  248.050;    0.000
429.621; 2543.150;  233.050;    0.000
429.672; 2497.150;  220.050;    0.000
429.724; 2502.150;  179.050;    0.000
429.775; 2534.150;  218.050;    0.000
429.826; 2545.150;  197.050;    0.000
429.877; 2482.150;  206.050;    0.000
429.928; 2475.150;  229.050;    0.000
429.980; 2504.150;  207.050;    0.000
430.031; 2592.150;  264.050;    0.000
430.082; 2613.150;  210.050;    0.000
430.133; 2564.150;  218.050;    0.000
430.184; 2520.150;  246.050;    0.000
430.235; 2597.150;  201.050;    0.000
430.286; 2587.150;  207.050;    0.000
430.337; 2481.150;  224.050;    0.000
430.388; 2537.150;  216.050;    0.000
430.439; 2547.150;  210.050;    0.000
430.490; 2467.150;  208.050;    0.000
430.542; 2494.150;  211.050;    0.000
430.593; 2475.150;  203.050;    0.000
430.644; 2519.150;  235.050;    0.000
430.695; 2564.150;  200.050;    0.000
430.746; 2536.150;  215.050;    0.000
430.797; 2518.150;  235.050;    0.000
430.848; 2526.150;  197.050;    0.000
430.898; 2456.150;  209.050;    0.000
430.949; 2413.150;  231.050;    0.000
431.000; 2545.150;  227.050;    0.000
431.051; 2488.150;  225.050;    0.000
431.102; 2516.150;  180.050;    0.000
431.153; 2455.150;  248.050;    0.000
431.204; 2491.150;  185.050;    0.000
431.255; 2581.150;  199.050;    0.000
431.306; 2593.150;  228.050;    0.000
431.357; 2541.150;  237.050;    0.000
431.408; 2474.150;  223.050;    0.000
431.458; 2488.150;  240.050;    0.000
431.509; 2461.150;  207.050;    0.000
431.560; 2529.150;  219.050;    0.000
431.611; 2463.150;  206.050;    0.000
431.662; 2506.150;  253.050;    0.000
431.713; 2661.150;  199.050;    0.000
431.763; 2497.150;  197.050;    0.000
431.814; 2479.150;  205.050;    0.000
431.865; 2518.150;  218.050;    0.000
431.916; 2460.150;  202.050;    0.000
431.966; 2415.150;  203.050;    0.000
432.017; 2533.150;  244.050;    0.000
432.068; 2526.150;  246.050;    0.000
432.118; 2462.150;  212.050;    0.000
432.169; 2461.150;  214.050;    0.000
432.220; 2552.150;  241.050;    0.000
432.271; 2455.150;  237.050;    0.000
432.321; 2506.150;  246.050;    0.000
432.372; 2460.150;  257.050;    0.000
432.423; 2523.150;  198.050;    0.000
432.473; 2503.150;  202.050;    0.000
432.524; 2458.150;  242.050;    0.000
432.574; 2484.150;  202.050;    0.000
432.625; 2437.150;  212.050;    0.000
432.676; 2470.150;  242.050;    0.000
432.726; 2486.150;  268.050;    0.000
432.777; 2490.150;  228.050;    0.000
432.827; 2485.150;  230.050;    0.000
432.878; 2447.150;  221.050;    0.000
432.928; 2432.150;  218.050;    0.000
432.979; 2506.150;  243.050;    0.000
433.029; 2456.150;  217.050;    0.000
433.080; 2429.150;  208.050;    0.000
433.130; 2438.150;  236.050;    0.000
433.181; 2535.150;  282.050;    0.000
433.231; 2496.150;  257.050;    0.000
433.282; 2509.150;  268.050;    0.000
433.332; 2451.150;  241.050;    0.000
433.383; 2436.150;  271.050;    0.000
433.433; 2466.150;  262.050;    0.000
433.484; 2517.150;  266.050;    0.000
433.534; 2429.150;  217.050;    0.000
433.585; 2404.150;  230.050;    0.000
433.635; 2339.150;  245.050;    0.000
433.685; 2458.150;  250.050;    0.000
433.736; 2483.150;  308.050;    0.000
433.786; 2421.150;  242.050;    0.000
433.836; 2427.150;  256.050;    0.000
433.887; 2530.150;  250.050;    0.000
433.937; 2486.150;  250.050;    0.000
433.987; 2392.150;  219.050;    0.000
434.038; 2463.150;  248.050;    0.000
434.088; 2450.150;  231.050;    0.000
434.138; 2474.150;  266.050;    0.000
434.189; 2400.150;  240.050;    0.000
434.239; 2481.150;  245.050;    0.000
434.289; 2530.150;  285.050;    0.000
434.339; 2468.150;  255.050;    0.000
434.389; 2538.150;  242.050;    0.000
434.440; 2513.150;  273.050;    0.000
434.490; 2581.150;  272.050;    0.000
434.540; 2498.150;  264.050;    0.000
434.590; 2607.150;  233.050;    0.000
434.640; 2624.150;  244.050;    0.000
434.691; 2619.150;  226.050;    0.000
434.741; 2623.150;  253.050;    0.000
434.791; 2546.150;  269.050;    0.000
434.841; 2538.150;  252.050;    0.000
434.891; 2635.150;  281.050;    0.000
434.941; 2504.150;  296.050;    0.000
434.991; 2564.150;  264.050;    0.000
435.042; 2614.150;  262.050;    0.000
435.092; 2586.150;  237.050;    0.000
435.142; 2520.150;  232.050;    0.000
435.192; 2533.150;  251.050;    0.000
435.242; 2515.150;  251.050;    0.000
435.292; 2478.150;  246.050;    0.000
435.342; 2482.150;  236.050;    0.000
435.392; 2477.150;  273.050;    0.000
435.442; 2513.150;  273.050;    0.000
435.492; 2410.150;  273.050;    0.000
435.542; 2390.150;  242.050;    0.000
435.592; 2420.150;  213.050;    0.000
435.642; 2393.150;  248.050;    0.000
435.692; 2415.150;  242.050;    0.000
435.742; 2452.150;  222.050;    0.000
435.792; 2448.150;  260.050;    0.000
435.842; 2461.150;  266.050;    0.000
435.891; 2443.150;  227.050;    0.000
435.941; 2388.150;  228.050;    0.000
435.991; 2417.150;  282.050;    0.000
436.041; 2355.150;  231.050;    0.000
436.091; 2343.150;  250.050;    0.000
436.141; 2388.150;  221.050;    0.000
436.191; 2351.150;  223.050;    0.000
436.241; 2381.150;  250.050;    0.000
436.290; 2426.150;  243.050;    0.000
436.340; 2408.150;  236.050;    0.000
436.390; 2419.150;  260.050;    0.000
436.440; 2462.150;  253.050;    0.000
436.490; 2351.150;  236.050;    0.000
436.539; 2366.150;  249.050;    0.000
436.589; 2373.150;  231.050;    0.000
436.639; 2350.150;  237.050;    0.000
436.689; 2320.150;  222.050;    0.000
436.738; 2374.150;  263.050;    0.000
436.788; 2320.150;  230.050;    0.000
436.838; 2333.150;  281.050;    0.000
436.887; 2460.150;  230.050;    0.000
436.937; 2359.150;  250.050;    0.000
436.987; 2358.150;  251.050;    0.000
437.036; 2341.150;  238.050;    0.000
437.086; 2377.150;  234.050;    0.000
437.136; 2429.150;  250.050;    0.000
437.185; 2346.150;  228.050;    0.000
437.235; 2308.150;  309.050;    0.000
437.285; 2321.150;  246.050;    0.000
437.334; 2279.150;  262.050;    0.000
437.384; 2271.150;  228.050;    0.000
437.433; 2258.150;  241.050;    0.000
437.483; 2231.150;  220.050;    0.000
437.532; 2269.150;  252.050;    0.000
437.582; 2262.150;  270.050;    0.000
437.631; 2316.150;  251.050;    0.000
437.681; 2258.150;  284.050;    0.000
437.730; 2276.150;  239.050;    0.000
437.780; 2275.150;  221.050;    0.000
437.829; 2298.150;  254.050;    0.000
437.879; 2331.150;  221.050;    0.000
437.928; 2224.150;  205.050;    0.000
437.978; 2175.150;  223.050;    0.000
438.027; 2266.150;  262.050;    0.000
438.077; 2314.150;  280.050;    0.000
438.126; 2172.150;  254.050;    0.000
438.176; 2283.150;  230.050;    0.000
438.225; 2274.150;  227.050;    0.000
438.274; 2226.150;  264.050;    0.000
438.324; 2296.150;  233.050;    0.000
438.373; 2269.150;  238.050;    0.000
438.422; 2212.150;  260.050;    0.000
438.472; 2258.150;  223.050;    0.000
438.521; 2230.150;  213.050;    0.000
438.570; 2213.150;  236.050;    0.000
438.620; 2247.150;  282.050;    0.000
438.669; 2201.150;  209.050;    0.000
438.718; 2306.150;  245.050;    0.000
438.768; 2186.150;  238.050;    0.000
438.817; 2179.150;  259.050;    0.000
438.866; 2210.150;  232.050;    0.000
438.915; 2209.150;  288.050;    0.000
438.965; 2282.150;  228.050;    0.000
439.014; 2266.150;  246.050;    0.000
439.063; 2324.150;  287.050;    0.000
439.112; 2184.150;  217.050;    0.000
439.162; 2283.150;  275.050;    0.000
439.211; 2286.150;  287.050;    0.000
439.260; 2252.150;  238.050;    0.000
439.309; 2225.150;  225.050;    0.000
439.358; 2255.150;  248.050;    0.000
439.407; 2226.150;  237.050;    0.000
439.456; 2218.150;  223.050;    0.000
439.506; 2199.150;  266.050;    0.000
439.555; 2179.150;  260.050;    0.000
439.604; 2250.150;  233.050;    0.000
439.653; 2244.150;  242.050;    0.000
439.702; 2336.150;  255.050;    0.000
439.751; 2182.150;  202.050;    0.000
439.800; 2322.150;  247.050;    0.000
439.849; 2272.150;  250.050;    0.000
439.898; 2231.150;  216.050;    0.000
439.947; 2233.150;  231.050;    0.000
439.996; 2318.150;  272.050;    0.000
440.045; 2228.150;  217.050;    0.000
440.094; 2249.150;  220.050;    0.000
440.143; 2240.150;  245.050;    0.000
440.192; 2307.150;  267.050;    0.000
440.241; 2288.150;  263.050;    0.000
440.290; 2263.150;  246.050;    0.000
440.339; 2213.150;  225.050;    0.000
440.388; 2323.150;  256.050;    0.000
440.437; 2244.150;  253.050;    0.000
440.486; 2239.150;  249.050;    0.000
440.535; 2290.150;  232.050;    0.000
440.583; 2313.150;  220.050;    0.000
440.632; 2240.150;  239.050;    0.000
440.681; 2289.150;  236.050;    0.000
440.730; 2262.150;  282.050;    0.000
440.779; 2274.150;  245.050;    0.000
440.828; 2277.150;  213.050;    0.000
440.876; 2263.150;  231.050;    0.000
440.925; 2325.150;  271.050;    0.000
440.974; 2264.150;  240.050;    0.000
441.023; 2286.150;  214.050;    0.000
441.072; 2271.150;  236.050;    0.000
441.120; 2322.150;  271.050;    0.000
441.169; 2377.150;  281.050;    0.000
441.218; 2291.150;  255.050;    0.000
441.267; 2370.150;  272.050;    0.000
441.315; 2324.150;  229.050;    0.000
441.364; 2342.150;  241.050;    0.000
441.413; 2311.150;  224.050;    0.000
441.461; 2366.150;  241.050;    0.000
441.510; 2330.150;  289.050;    0.000
441.559; 2375.150;  222.050;    0.000
441.607; 2388.150;  242.050;    0.000
441.656; 2344.150;  255.050;    0.000
441.705; 2414.150;  260.050;    0.000
441.753; 2418.150;  290.050;    0.000
441.802; 2350.150;  264.050;    0.000
441.850; 2351.150;  224.050;    0.000
441.899; 2337.150;  275.050;    0.000
441.948; 2276.150;  227.050;    0.000
441.996; 2350.150;  216.050;    0.000
442.045; 2356.150;  271.050;    0.000
442.093; 2308.150;  227.050;    0.000
442.142; 2383.150;  273.050;    0.000
442.190; 2351.150;  257.050;    0.000
442.239; 2386.150;  269.050;    0.000
442.287; 2317.150;  257.050;    0.000
442.336; 2305.150;  237.050;    0.000
442.384; 2272.150;  214.050;    0.000
442.433; 2352.150;  272.050;    0.000
442.481; 2308.150;  258.050;    0.000
442.529; 2375.150;  242.050;    0.000
442.578; 2305.150;  278.050;    0.000
442.626; 2249.150;  264.050;    0.000
442.675; 2375.150;  293.050;    0.000
442.723; 2255.150;  244.050;    0.000
442.771; 2376.150;  232.050;    0.000
442.820; 2291.150;  266.050;    0.000
442.868; 2279.150;  253.050;    0.000
442.917; 2292.150;  250.050;    0.000
442.965; 2374.150;  279.050;    0.000
443.013; 2283.150;  253.050;    0.000
443.062; 2332.150;  282.050;    0.000
443.110; 2284.150;  258.050;    0.000
443.158; 2333.150;  246.050;    0.000
443.206; 2308.150;  255.050;    0.000
443.255; 2378.150;  296.050;    0.000
443.303; 2343.150;  272.050;    0.000
443.351; 2339.150;  270.050;    0.000
443.399; 2323.150;  258.050;    0.000
443.448; 2323.150;  265.050;    0.000
443.496; 2340.150;  219.050;    0.000
443.544; 2296.150;  205.050;    0.000
443.592; 2346.150;  266.050;    0.000
443.640; 2364.150;  260.050;    0.000
443.689; 2384.150;  232.050;    0.000
443.737; 2325.150;  281.050;    0.000
443.785; 2335.150;  248.050;    0.000
443.833; 2340.150;  286.050;    0.000
443.881; 2401.150;  225.050;    0.000
443.929; 2397.150;  255.050;    0.000
443.977; 2313.150;  248.050;    0.000
444.025; 2364.150;  255.050;    0.000
444.074; 2373.150;  266.050;    0.000
444.122; 2445.150;  266.050;    0.000
444.170; 2363.150;  207.050;    0.000
444.218; 2395.150;  253.050;    0.000
444.266; 2461.150;  263.050;    0.000
444.314; 2355.150;  272.050;    0.000
444.362; 2471.150;  272.050;    0.000
444.410; 2434.150;  255.050;    0.000
444.458; 2452.150;  288.050;    0.000
444.506; 2449.150;  263.050;    0.000
444.554; 2422.150;  243.050;    0.000
444.602; 2406.150;  285.050;    0.000
444.650; 2460.150;  273.050;    0.000
444.698; 2421.150;  221.050;    0.000
444.746; 2529.150;  243.050;    0.000
444.793; 2382.150;  217.050;    0.000
444.841; 2418.150;  262.050;    0.000
444.889; 2461.150;  264.050;    0.000
444.937; 2437.150;  226.050;    0.000
444.985; 2367.150;  257.050;    0.000
445.033; 2372.150;  264.050;    0.000
445.081; 2396.150;  264.050;    0.000
445.129; 2381.150;  187.050;    0.000
445.176; 2381.150;  212.050;    0.000
445.224; 2322.150;  198.050;    0.000
445.272; 2451.150;  265.050;    0.000
445.320; 2393.150;  239.050;    0.000
445.368; 2373.150;  245.050;    0.000
445.415; 2349.150;  215.050;    0.000
445.463; 2378.150;  202.050;    0.000
445.511; 2334.150;  234.050;    0.000
445.559; 2359.150;  269.050;    0.000
445.606; 2413.150;  214.050;    0.000
445.654; 2431.150;  227.050;    0.000
445.702; 2384.150;  276.050;    0.000
445.749; 2390.150;  256.050;    0.000
445.797; 2366.150;  236.050;    0.000
445.845; 2311.150;  230.050;    0.000
445.892; 2402.150;  233.050;    0.000
445.940; 2433.150;  257.050;    0.000
445.988; 2406.150;  253.050;    0.000
446.035; 2372.150;  265.050;    0.000
446.083; 2456.150;  254.050;    0.000
446.130; 2308.150;  228.050;    0.000
446.178; 2323.150;  256.050;    0.000
446.226; 2404.150;  238.050;    0.000
446.273; 2327.150;  228.050;    0.000
446.321; 2415.150;  220.050;    0.000
446.368; 2413.150;  249.050;    0.000
446.416; 2338.150;  221.050;    0.000
446.463; 2387.150;  232.050;    0.000
446.511; 2382.150;  243.050;    0.000
446.558; 2394.150;  217.050;    0.000
446.606; 2379.150;  256.050;    0.000
446.653; 2386.150;  238.050;    0.000
446.701; 2364.150;  259.050;    0.000
446.748; 2434.150;  227.050;    0.000
446.796; 2386.150;  236.050;    0.000
446.843; 2440.150;  241.050;    0.000
446.891; 2382.150;  292.050;    0.000
446.938; 2433.150;  219.050;    0.000
446.985; 2378.150;  255.050;    0.000
447.033; 2492.150;  237.050;    0.000
447.080; 2451.150;  278.050;    0.000
447.128; 2444.150;  237.050;    0.000
447.175; 2427.150;  247.050;    0.000
447.222; 2398.150;  235.050;    0.000
447.270; 2561.150;  274.050;    0.000
447.317; 2442.150;  222.050;    0.000
447.364; 2481.150;  230.050;    0.000
447.411; 2540.150;  297.050;    0.000
447.459; 2436.150;  243.050;    0.000
447.506; 2569.150;  202.050;    0.000
447.553; 2542.150;  232.050;    0.000
447.601; 2593.150;  262.050;    0.000
447.648; 2557.150;  254.050;    0.000
447.695; 2617.150;  287.050;    0.000
447.742; 2523.150;  232.050;    0.000
447.789; 2640.150;  257.050;    0.000
447.837; 2557.150;  260.050;    0.000
447.884; 2673.150;  272.050;    0.000
447.931; 2697.150;  241.050;    0.000
447.978; 2578.150;  241.050;    0.000
448.025; 2647.150;  264.050;    0.000
448.072; 2707.150;  279.050;    0.000
448.120; 2703.150;  263.050;    0.000
448.167; 2707.150;  284.050;    0.000
448.214; 2554.150;  252.050;    0.000
448.261; 2608.150;  247.050;    0.000
448.308; 2640.150;  249.050;    0.000
448.355; 2556.150;  263.050;    0.000
448.402; 2606.150;  251.050;    0.000
448.449; 2448.150;  257.050;    0.000
448.496; 2475.150;  243.050;    0.000
448.543; 2561.150;  274.050;    0.000
448.590; 2483.150;  299.050;    0.000
448.637; 2484.150;  259.050;    0.000
448.684; 2517.150;  266.050;    0.000
448.731; 2418.150;  261.050;    0.000
448.778; 2391.150;  292.050;    0.000
448.825; 2376.150;  253.050;    0.000
448.872; 2369.150;  253.050;    0.000
448.919; 2403.150;  218.050;    0.000
448.966; 2428.150;  254.050;    0.000
449.013; 2454.150;  263.050;    0.000
449.060; 2463.150;  282.050;    0.000
449.107; 2315.150;  244.050;    0.000
449.154; 2324.150;  236.050;    0.000
449.200; 2337.150;  226.050;    0.000
449.247; 2328.150;  273.050;    0.000
449.294; 2270.150;  270.050;    0.000
449.341; 2366.150;  283.050;    0.000
449.388; 2275.150;  261.050;    0.000
449.435; 2303.150;  254.050;    0.000
449.481; 2461.150;  318.050;    0.000
449.528; 2374.150;  274.050;    0.000
449.575; 2258.150;  251.050;    0.000
449.622; 2290.150;  276.050;    0.000
449.668; 2210.150;  242.050;    0.000
449.715; 2217.150;  286.050;    0.000
449.762; 2280.150;  268.050;    0.000
449.809; 2246.150;  285.050;    0.000
449.855; 2228.150;  277.050;    0.000
449.902; 2234.150;  246.050;    0.000
449.949; 2281.150;  268.050;    0.000
449.995; 2289.150;  289.050;    0.000
450.042; 2250.150;  256.050;    0.000
450.089; 2197.150;  290.050;    0.000
450.135; 2302.150;  300.050;    0.000
450.182; 2291.150;  317.050;    0.000
450.229; 2275.150;  282.050;    0.000
450.275; 2258.150;  307.050;    0.000
450.322; 2275.150;  260.050;    0.000
450.368; 2210.150;  315.050;    0.000
450.415; 2282.150;  306.050;    0.000
450.462; 2200.150;  314.050;    0.000
450.508; 2246.150;  303.050;    0.000
450.555; 2260.150;  281.050;    0.000
450.601; 2216.150;  291.050;    0.000
450.648; 2150.150;  288.050;    0.000
450.694; 2261.150;  290.050;    0.000
450.741; 2322.150;  303.050;    0.000
450.787; 2191.150;  298.050;    0.000
450.834; 2157.150;  265.050;    0.000
450.880; 2180.150;  273.050;    0.000
450.927; 2219.150;  312.050;    0.000
450.973; 2218.150;  303.050;    0.000
451.019; 2108.150;  222.050;    0.000
451.066; 2241.150;  284.050;    0.000
451.112; 2233.150;  296.050;    0.000
451.159; 2154.150;  299.050;    0.000
451.205; 2228.150;  311.050;    0.000
451.251; 2191.150;  306.050;    0.000
451.298; 2209.150;  281.050;    0.000
451.344; 2209.150;  311.050;    0.000
451.390; 2196.150;  331.050;    0.000
451.437; 2185.150;  303.050;    0.000
451.483; 2182.150;  284.050;    0.000
451.529; 2089.150;  310.050;    0.000
451.576; 2167.150;  301.050;    0.000
451.622; 2133.150;  275.050;    0.000
451.668; 2209.150;  269.050;    0.000
451.714; 2192.150;  277.050;    0.000
451.761; 2227.150;  298.050;    0.000
451.807; 2212.150;  316.050;    0.000
451.853; 2105.150;  301.050;    0.000
451.899; 2107.150;  292.050;    0.000
451.945; 2137.150;  324.050;    0.000
451.992; 2142.150;  292.050;    0.000
452.038; 2081.150;  261.050;    0.000
452.084; 2139.150;  286.050;    0.000
452.130; 2126.150;  301.050;    0.000
452.176; 2091.150;  287.050;    0.000
452.222; 2092.150;  265.050;    0.000
452.268; 2127.150;  268.050;    0.000
452.315; 2130.150;  272.050;    0.000
452.361; 2216.150;  258.050;    0.000
452.407; 2170.150;  279.050;    0.000
452.453; 2129.150;  252.050;    0.000
452.499; 2206.150;  305.050;    0.000
452.545; 2168.150;  263.050;    0.000
452.591; 2059.150;  284.050;    0.000
452.637; 2118.150;  289.050;    0.000
452.683; 2205.150;  249.050;    0.000
452.729; 2138.150;  290.050;    0.000
452.775; 2195.150;  315.050;    0.000
452.821; 2204.150;  271.050;    0.000
452.867; 2172.150;  258.050;    0.000
452.913; 2149.150;  256.050;    0.000
452.959; 2052.150;  266.050;    0.000
453.005; 2146.150;  299.050;    0.000
453.051; 2071.150;  299.050;    0.000
453.097; 2083.150;  268.050;    0.000
453.142; 2153.150;  251.050;    0.000
453.188; 2003.150;  284.050;    0.000
453.234; 2054.150;  285.050;    0.000
453.280; 2160.150;  263.050;    0.000
453.326; 2080.150;  273.050;    0.000
453.372; 2073.150;  253.050;    0.000
453.418; 2016.150;  269.050;    0.000
453.463; 2106.150;  250.050;    0.000
453.509; 2163.150;  289.050;    0.000
453.555; 2119.150;  262.050;    0.000
453.601; 2059.150;  274.050;    0.000
453.647; 2089.150;  306.050;    0.000
453.692; 2152.150;  264.050;    0.000
453.738; 2120.150;  312.050;    0.000
453.784; 2080.150;  300.050;    0.000
453.829; 2148.150;  284.050;    0.000
453.875; 2079.150;  270.050;    0.000
453.921; 1983.150;  237.050;    0.000
453.967; 2089.150;  263.050;    0.000
454.012; 2119.150;  295.050;    0.000
454.058; 2099.150;  293.050;    0.000
454.104; 2070.150;  264.050;    0.000
454.149; 2094.150;  282.050;    0.000
454.195; 2049.150;  277.050;    0.000
454.240; 2128.150;  307.050;    0.000
454.286; 2064.150;  282.050;    0.000
454.332; 2066.150;  291.050;    0.000
454.377; 2142.150;  302.050;    0.000
454.423; 2085.150;  276.050;    0.000
454.468; 2123.150;  281.050;    0.000
454.514; 2043.150;  290.050;    0.000
454.559; 2098.150;  289.050;    0.000
454.605; 2108.150;  258.050;    0.000
454.650; 2167.150;  281.050;    0.000
454.696; 2130.150;  308.050;    0.000
454.741; 2138.150;  288.050;    0.000
454.787; 2168.150;  284.050;    0.000
454.832; 2089.150;  306.050;    0.000
454.878; 2046.150;  288.050;    0.000
454.923; 2106.150;  287.050;    0.000
454.969; 2156.150;  325.050;    0.000
455.014; 2073.150;  323.050;    0.000
455.060; 2137.150;  290.050;    0.000
455.105; 2066.150;  285.050;    0.000
455.150; 2060.150;  303.050;    0.000
455.196; 2047.150;  282.050;    0.000
455.241; 2091.150;  281.050;    0.000
455.286; 2103.150;  290.050;    0.000
455.332; 2050.150;  280.050;    0.000
455.377; 2039.150;  243.050;    0.000
455.422; 2036.150;  308.050;    0.000
455.468; 2116.150;  308.050;    0.000
455.513; 2056.150;  290.050;    0.000
455.558; 2022.150;  211.050;    0.000
455.604; 2034.150;  289.050;    0.000
455.649; 2101.150;  297.050;    0.000
455.694; 2077.150;  287.050;    0.000
455.739; 2059.150;  296.050;    0.000
455.785; 2134.150;  315.050;    0.000
455.830; 2122.150;  328.050;    0.000
455.875; 2145.150;  310.050;    0.000
455.920; 2003.150;  261.050;    0.000
455.965; 2132.150;  277.050;    0.000
456.010; 2134.150;  317.050;    0.000
456.056; 2146.150;  299.050;    0.000
456.101; 1979.150;  262.050;    0.000
456.146; 2124.150;  318.050;    0.000
456.191; 2151.150;  274.050;    0.000
456.236; 2044.150;  274.050;    0.000
456.281; 2018.150;  275.050;    0.000
456.326; 2116.150;  256.050;    0.000
456.371; 2133.150;  260.050;    0.000
456.416; 2078.150;  304.050;    0.000
456.461; 2131.150;  278.050;    0.000
456.507; 2070.150;  299.050;    0.000
456.552; 2099.150;  305.050;    0.000
456.597; 2055.150;  271.050;    0.000
456.642; 2052.150;  273.050;    0.000
456.687; 2130.150;  290.050;    0.000
456.732; 2140.150;  327.050;    0.000
456.776; 2078.150;  284.050;    0.000
456.821; 2094.150;  321.050;    0.000
456.866; 2075.150;  272.050;    0.000
456.911; 2060.150;  232.050;    0.000
456.956; 2051.150;  263.050;    0.000
457.001; 2090.150;  277.050;    0.000
457.046; 2008.150;  284.050;    0.000
457.091; 2130.150;  269.050;    0.000
457.136; 2055.150;  269.050;    0.000
457.181; 2100.150;  275.050;    0.000
457.225; 2182.150;  310.050;    0.000
457.270; 2175.150;  295.050;    0.000
457.315; 2082.150;  284.050;    0.000
457.360; 2164.150;  264.050;    0.000
457.405; 2065.150;  273.050;    0.000
457.450; 2194.150;  284.050;    0.000
457.494; 2130.150;  273.050;    0.000
457.539; 2136.150;  287.050;    0.000
457.584; 2173.150;  279.050;    0.000
457.629; 2047.150;  288.050;    0.000
457.673; 2208.150;  297.050;    0.000
457.718; 2142.150;  270.050;    0.000
457.763; 2139.150;  295.050;    0.000
457.807; 2125.150;  321.050;    0.000
457.852; 2186.150;  293.050;    0.000
457.897; 2151.150;  282.050;    0.000
457.941; 2160.150;  320.050;    0.000
457.986; 2180.150;  295.050;    0.000
458.031; 2145.150;  314.050;    0.000
458.075; 2152.150;  280.050;    0.000
458.120; 2216.150;  314.050;    0.000
458.165; 2141.150;  289.050;    0.000
458.209; 2213.150;  289.050;    0.000
458.254; 2193.150;  272.050;    0.000
458.298; 2127.150;  305.050;    0.000
458.343; 2127.150;  284.050;    0.000
458.387; 2239.150;  340.050;    0.000
458.432; 2217.150;  306.050;    0.000
458.476; 2271.150;  311.050;    0.000
458.521; 2224.150;  304.050;    0.000
458.565; 2266.150;  329.050;    0.000
458.610; 2264.150;  287.050;    0.000
458.654; 2221.150;  300.050;    0.000
458.699; 2158.150;  295.050;    0.000
458.743; 2221.150;  269.050;    0.000
458.788; 2284.150;  294.050;    0.000
458.832; 2297.150;  301.050;    0.000
458.877; 2281.150;  303.050;    0.000
458.921; 2244.150;  259.050;    0.000
458.965; 2247.150;  308.050;    0.000
459.010; 2255.150;  330.050;    0.000
459.054; 2385.150;  298.050;    0.000
459.099; 2229.150;  303.050;    0.000
459.143; 2325.150;  333.050;    0.000
459.187; 2260.150;  291.050;    0.000
459.231; 2304.150;  316.050;    0.000
459.276; 2299.150;  294.050;    0.000
459.320; 2311.150;  291.050;    0.000
459.364; 2319.150;  318.050;    0.000
459.409; 2287.150;  325.050;    0.000
459.453; 2305.150;  293.050;    0.000
459.497; 2354.150;  354.050;    0.000
459.541; 2278.150;  313.050;    0.000
459.586; 2338.150;  282.050;    0.000
459.630; 2280.150;  286.050;    0.000
459.674; 2393.150;  292.050;    0.000
459.718; 2412.150;  280.050;    0.000
459.762; 2276.150;  304.050;    0.000
459.807; 2378.150;  352.050;    0.000
459.851; 2329.150;  300.050;    0.000
459.895; 2401.150;  311.050;    0.000
459.939; 2347.150;  303.050;    0.000
459.983; 2343.150;  299.050;    0.000
460.027; 2324.150;  307.050;    0.000
460.071; 2351.150;  313.050;    0.000
460.115; 2443.150;  325.050;    0.000
460.159; 2416.150;  331.050;    0.000
460.204; 2344.150;  301.050;    0.000
460.248; 2403.150;  329.050;    0.000
460.292; 2450.150;  310.050;    0.000
460.336; 2358.150;  304.050;    0.000
460.380; 2421.150;  313.050;    0.000
460.424; 2463.150;  300.050;    0.000
460.468; 2492.150;  338.050;    0.000
460.512; 2432.150;  310.050;    0.000
460.556; 2490.150;  337.050;    0.000
460.599; 2387.150;  310.050;    0.000
460.643; 2430.150;  303.050;    0.000
460.687; 2427.150;  316.050;    0.000
460.731; 2341.150;  292.050;    0.000
460.775; 2402.150;  294.050;    0.000
460.819; 2492.150;  310.050;    0.000
460.863; 2392.150;  349.050;    0.000
460.907; 2352.150;  265.050;    0.000
460.951; 2391.150;  325.050;    0.000
460.995; 2448.150;  338.050;    0.000
461.038; 2381.150;  304.050;    0.000
461.082; 2397.150;  312.050;    0.000
461.126; 2497.150;  358.050;    0.000
461.170; 2474.150;  306.050;    0.000
461.214; 2517.150;  330.050;    0.000
461.257; 2391.150;  311.050;    0.000
461.301; 2507.150;  303.050;    0.000
461.345; 2431.150;  310.050;    0.000
461.389; 2464.150;  296.050;    0.000
461.432; 2539.150;  304.050;    0.000
461.476; 2436.150;  305.050;    0.000
461.520; 2452.150;  319.050;    0.000
461.563; 2414.150;  294.050;    0.000
461.607; 2431.150;  295.050;    0.000
461.651; 2392.150;  335.050;    0.000
461.694; 2455.150;  276.050;    0.000
461.738; 2465.150;  327.050;    0.000
461.782; 2462.150;  288.050;    0.000
461.825; 2500.150;  319.050;    0.000
461.869; 2523.150;  305.050;    0.000
461.913; 2466.150;  281.050;    0.000
461.956; 2525.150;  281.050;    0.000
462.000; 2500.150;  339.050;    0.000
462.043; 2471.150;  347.050;    0.000
462.087; 2540.150;  314.050;    0.000
462.130; 2550.150;  332.050;    0.000
462.174; 2605.150;  332.050;    0.000
462.217; 2527.150;  299.050;    0.000
462.261; 2584.150;  323.050;    0.000
462.304; 2507.150;  286.050;    0.000
462.348; 2562.150;  305.050;    0.000
462.391; 2505.150;  293.050;    0.000
462.435; 2610.150;  365.050;    0.000
462.478; 2561.150;  329.050;    0.000
462.522; 2568.150;  316.050;    0.000
462.565; 2598.150;  328.050;    0.000
462.608; 2697.150;  350.050;    0.000
462.652; 2604.150;  328.050;    0.000
462.695; 2635.150;  358.050;    0.000
462.739; 2603.150;  317.050;    0.000
462.782; 2686.150;  329.050;    0.000
462.825; 2627.150;  368.050;    0.000
462.869; 2741.150;  343.050;    0.000
462.912; 2736.150;  404.050;    0.000
462.955; 2758.150;  328.050;    0.000
462.998; 2688.150;  340.050;    0.000
463.042; 2668.150;  361.050;    0.000
463.085; 2779.150;  337.050;    0.000
463.128; 2791.150;  373.050;    0.000
463.172; 2590.150;  347.050;    0.000
463.215;  411.150;  305.050;    0.000
463.258;  323.150;  324.050;    0.000
463.301;  308.150;  296.050;    0.000
463.344;  300.150;  332.050;    0.000
463.388;  328.150;  309.050;    0.000
463.431;  298.150;  298.050;    0.000
463.474;  320.150;  351.050;    0.000
463.517;  309.150;  319.050;    0.000
463.560;  329.150;  325.050;    0.000
463.603;  309.150;  330.050;    0.000
463.646;  324.150;  332.050;    0.000
463.690;  315.150;  325.050;    0.000
463.733;  327.150;  323.050;    0.000
463.776;  297.150;  276.050;    0.000
463.819;  315.150;  320.050;    0.000
463.862;  319.150;  275.050;    0.000

