
Integration time [ms]:   0.300
Averaging Nr. [scans]: 1
Smoothing Nr. [pixels]: 0
Data measured with spectrometer [name]: VIS
Wave   ;Sample   ;Dark     ;Reference
[nm]   ;[counts] ;[counts] ;[counts] 

450.961;  209.100;  204.125;    0.000
451.100;  269.100;  219.125;    0.000
451.239;  193.100;  196.125;    0.000
451.377;  249.100;  252.125;    0.000
451.516;  202.100;  215.125;    0.000
451.655;  212.100;  214.125;    0.000
451.794;  210.100;  241.125;    0.000
451.932;  232.100;  242.125;    0.000
452.071;  228.100;  204.125;    0.000
452.210;  247.100;  243.125;    0.000
452.348;  214.100;  241.125;    0.000
452.487;  189.100;  246.125;    0.000
452.626;  220.100;  235.125;    0.000
452.764;  232.100;  230.125;    0.000
452.903;  223.100;  199.125;    0.000
453.042;  271.100;  178.125;    0.000
453.180; 2976.100;  291.125;    0.000
453.319; 3236.100;  335.125;    0.000
453.458; 3122.100;  245.125;    0.000
453.596; 3233.100;  325.125;    0.000
453.735; 3275.100;  291.125;    0.000
453.873; 3124.100;  295.125;    0.000
454.012; 3260.100;  291.125;    0.000
454.150; 3373.100;  292.125;    0.000
454.289; 3358.100;  328.125;    0.000
454.427; 3435.100;  295.125;    0.000
454.566; 3396.100;  295.125;    0.000
454.704; 3374.100;  301.125;    0.000
454.843; 3488.100;  278.125;    0.000
454.981; 3537.100;  306.125;    0.000
455.120; 3487.100;  237.125;    0.000
455.258; 3554.100;  325.125;    0.000
455.397; 3657.100;  276.125;    0.000
455.535; 3678.100;  269.125;    0.000
455.674; 3708.100;  259.125;    0.000
455.812; 3801.100;  264.125;    0.000
455.951; 3761.100;  286.125;    0.000
456.089; 3740.100;  302.125;    0.000
456.227; 3803.100;  230.125;    0.000
456.366; 3968.100;  303.125;    0.000
456.504; 4018.100;  316.125;    0.000
456.642; 4038.100;  309.125;    0.000
456.781; 3956.100;  299.125;    0.000
456.919; 3997.100;  281.125;    0.000
457.057; 4102.100;  253.125;    0.000
457.196; 4097.100;  268.125;    0.000
457.334; 4093.100;  292.125;    0.000
457.472; 4208.100;  287.125;    0.000
457.610; 4230.100;  300.125;    0.000
457.749; 4255.100;  342.125;    0.000
457.887; 4352.100;  310.125;    0.000
458.025; 4494.100;  310.125;    0.000
458.163; 4482.100;  323.125;    0.000
458.301; 4537.100;  336.125;    0.000
458.440; 4595.100;  297.125;    0.000
458.578; 4586.100;  295.125;    0.000
458.716; 4653.100;  309.125;    0.000
458.854; 4755.100;  335.125;    0.000
458.992; 4824.100;  244.125;    0.000
459.130; 4915.100;  370.125;    0.000
459.269; 4921.100;  313.125;    0.000
459.407; 5130.100;  370.125;    0.000
459.545; 5061.100;  341.125;    0.000
459.683; 5194.100;  336.125;    0.000
459.821; 5175.100;  311.125;    0.000
459.959; 5276.100;  330.125;    0.000
460.097; 5327.100;  355.125;    0.000
460.235; 5278.100;  348.125;    0.000
460.373; 5475.100;  338.125;    0.000
460.511; 5457.100;  361.125;    0.000
460.649; 5480.100;  295.125;    0.000
460.787; 5529.100;  325.125;    0.000
460.925; 5503.100;  266.125;    0.000
461.063; 5615.100;  365.125;    0.000
461.201; 5562.100;  334.125;    0.000
461.339; 5654.100;  341.125;    0.000
461.477; 5626.100;  304.125;    0.000
461.615; 5763.100;  311.125;    0.000
461.753; 5735.100;  342.125;    0.000
461.891; 5711.100;  333.125;    0.000
462.029; 6053.100;  336.125;    0.000
462.166; 5981.100;  272.125;    0.000
462.304; 6009.100;  313.125;    0.000
462.442; 6149.100;  313.125;    0.000
462.580; 6125.100;  328.125;    0.000
462.718; 6128.100;  358.125;    0.000
462.856; 6310.100;  302.125;    0.000
462.993; 6294.100;  360.125;    0.000
463.131; 6202.100;  280.125;    0.000
463.269; 6202.100;  312.125;    0.000
463.407; 5996.100;  263.125;    0.000
463.545; 6005.100;  253.125;    0.000
463.682; 6117.100;  296.125;    0.000
463.820; 6333.100;  308.125;    0.000
463.958; 6541.100;  300.125;    0.000
464.095; 6512.100;  289.125;    0.000
464.233; 6676.100;  340.125;    0.000
464.371; 6706.100;  300.125;    0.000
464.509; 6630.100;  266.125;    0.000
464.646; 6678.100;  294.125;    0.000
464.784; 6466.100;  284.125;    0.000
464.921; 6490.100;  350.125;    0.000
465.059; 6293.100;  256.125;    0.000
465.197; 6261.100;  289.125;    0.000
465.334; 6205.100;  287.125;    0.000
465.472; 6111.100;  322.125;    0.000
465.609; 6019.100;  311.125;    0.000
465.747; 6118.100;  336.125;    0.000
465.885; 5920.100;  308.125;    0.000
466.022; 5868.100;  299.125;    0.000
466.160; 5881.100;  293.125;    0.000
466.297; 6015.100;  317.125;    0.000
466.435; 5833.100;  336.125;    0.000
466.572; 6072.100;  282.125;    0.000
466.710; 5932.100;  299.125;    0.000
466.847; 5894.100;  288.125;    0.000
466.985; 5819.100;  274.125;    0.000
467.122; 5870.100;  302.125;    0.000
467.260; 5818.100;  271.125;    0.000
467.397; 5720.100;  263.125;    0.000
467.534; 5837.100;  320.125;    0.000
467.672; 5713.100;  309.125;    0.000
467.809; 5707.100;  275.125;    0.000
467.947; 5831.100;  319.125;    0.000
468.084; 5768.100;  309.125;    0.000
468.221; 5932.100;  302.125;    0.000
468.359; 5860.100;  286.125;    0.000
468.496; 5877.100;  293.125;    0.000
468.633; 5677.100;  273.125;    0.000
468.771; 5968.100;  296.125;    0.000
468.908; 5812.100;  277.125;    0.000
469.045; 5944.100;  303.125;    0.000
469.183; 5876.100;  314.125;    0.000
469.320; 5976.100;  278.125;    0.000
469.457; 6078.100;  308.125;    0.000
469.594; 5978.100;  272.125;    0.000
469.732; 5988.100;  321.125;    0.000
469.869; 6028.100;  299.125;    0.000
470.006; 6096.100;  267.125;    0.000
470.143; 6141.100;  298.125;    0.000
470.280; 6087.100;  272.125;    0.000
470.417; 6228.100;  314.125;    0.000
470.555; 6108.100;  305.125;    0.000
470.692; 6184.100;  309.125;    0.000
470.829; 6172.100;  311.125;    0.000
470.966; 6133.100;  260.125;    0.000
471.103; 6162.100;  267.125;    0.000
471.240; 6044.100;  290.125;    0.000
471.377; 6096.100;  290.125;    0.000
471.514; 6082.100;  295.125;    0.000
471.651; 6094.100;  300.125;    0.000
471.789; 6163.100;  281.125;    0.000
471.926; 6002.100;  291.125;    0.000
472.063; 6110.100;  305.125;    0.000
472.200; 5867.100;  285.125;    0.000
472.337; 5803.100;  288.125;    0.000
472.474; 5861.100;  276.125;    0.000
472.611; 5893.100;  309.125;    0.000
472.748; 5983.100;  280.125;    0.000
472.884; 5961.100;  300.125;    0.000
473.021; 5961.100;  280.125;    0.000
473.158; 5906.100;  304.125;    0.000
473.295; 5864.100;  308.125;    0.000
473.432; 5907.100;  294.125;    0.000
473.569; 5798.100;  288.125;    0.000
473.706; 5744.100;  254.125;    0.000
473.843; 5779.100;  282.125;    0.000
473.980; 5758.100;  286.125;    0.000
474.117; 5833.100;  257.125;    0.000
474.253; 5947.100;  298.125;    0.000
474.390; 5858.100;  253.125;    0.000
474.527; 5879.100;  271.125;    0.000
474.664; 5841.100;  257.125;    0.000
474.801; 5860.100;  296.125;    0.000
474.937; 5951.100;  263.125;    0.000
475.074; 5923.100;  262.125;    0.000
475.211; 5923.100;  299.125;    0.000
475.348; 5942.100;  308.125;    0.000
475.484; 6068.100;  278.125;    0.000
475.621; 5985.100;  287.125;    0.000
475.758; 6051.100;  231.125;    0.000
475.894; 6015.100;  295.125;    0.000
476.031; 5971.100;  290.125;    0.000
476.168; 5774.100;  287.125;    0.000
476.304; 5998.100;  331.125;    0.000
476.441; 6153.100;  301.125;    0.000
476.578; 6011.100;  263.125;    0.000
476.714; 5979.100;  261.125;    0.000
476.851; 6143.100;  247.125;    0.000
476.987; 6183.100;  297.125;    0.000
477.124; 6226.100;  296.125;    0.000
477.261; 6179.100;  299.125;    0.000
477.397; 6203.100;  292.125;    0.000
477.534; 6229.100;  289.125;    0.000
477.670; 6333.100;  268.125;    0.000
477.807; 6401.100;  234.125;    0.000
477.943; 6415.100;  279.125;    0.000
478.080; 6373.100;  276.125;    0.000
478.216; 6400.100;  248.125;    0.000
478.353; 6506.100;  296.125;    0.000
478.489; 6428.100;  267.125;    0.000
478.626; 6557.100;  243.125;    0.000
478.762; 6526.100;  252.125;    0.000
478.898; 6660.100;  266.125;    0.000
479.035; 6641.100;  290.125;    0.000
479.171; 6622.100;  247.125;    0.000
479.308; 6554.100;  283.125;    0.000
479.444; 6689.100;  244.125;    0.000
479.580; 6570.100;  259.125;    0.000
479.717; 6654.100;  301.125;    0.000
479.853; 6581.100;  257.125;    0.000
479.989; 6795.100;  249.125;    0.000
480.126; 6774.100;  218.125;    0.000
480.262; 6839.100;  275.125;    0.000
480.398; 6775.100;  246.125;    0.000
480.535; 6804.100;  246.125;    0.000
480.671; 6793.100;  272.125;    0.000
480.807; 6709.100;  281.125;    0.000
480.943; 6681.100;  233.125;    0.000
481.080; 6731.100;  303.125;    0.000
481.216; 6594.100;  229.125;    0.000
481.352; 6686.100;  240.125;    0.000
481.488; 6602.100;  284.125;    0.000
481.624; 6702.100;  236.125;    0.000
481.760; 6563.100;  255.125;    0.000
481.897; 6455.100;  206.125;    0.000
482.033; 6511.100;  254.125;    0.000
482.169; 6567.100;  268.125;    0.000
482.305; 6525.100;  214.125;    0.000
482.441; 6523.100;  225.125;    0.000
482.577; 6559.100;  251.125;    0.000
482.713; 6583.100;  221.125;    0.000
482.849; 6527.100;  218.125;    0.000
482.985; 6410.100;  245.125;    0.000
483.121; 6511.100;  224.125;    0.000
483.258; 6601.100;  249.125;    0.000
483.394; 6615.100;  224.125;    0.000
483.530; 6649.100;  247.125;    0.000
483.665; 6637.100;  256.125;    0.000
483.801; 6485.100;  220.125;    0.000
483.937; 6526.100;  200.125;    0.000
484.073; 6561.100;  272.125;    0.000
484.209; 6672.100;  243.125;    0.000
484.345; 6496.100;  274.125;    0.000
484.481; 6718.100;  264.125;    0.000
484.617; 6639.100;  270.125;    0.000
484.753; 6658.100;  244.125;    0.000
484.889; 6594.100;  293.125;    0.000
485.025; 6662.100;  257.125;    0.000
485.161; 6627.100;  264.125;    0.000
485.296; 6793.100;  247.125;    0.000
485.432; 6651.100;  240.125;    0.000
485.568; 6663.100;  240.125;    0.000
485.704; 6693.100;  232.125;    0.000
485.840; 6711.100;  280.125;    0.000
485.975; 6710.100;  253.125;    0.000
486.111; 6663.100;  250.125;    0.000
486.247; 6813.100;  272.125;    0.000
486.383; 6742.100;  258.125;    0.000
486.518; 6661.100;  256.125;    0.000
486.654; 6747.100;  250.125;    0.000
486.790; 6805.100;  259.125;    0.000
486.926; 6684.100;  256.125;    0.000
487.061; 6763.100;  267.125;    0.000
487.197; 6798.100;  224.125;    0.000
487.333; 6645.100;  265.125;    0.000
487.468; 6708.100;  223.125;    0.000
487.604; 6756.100;  298.125;    0.000
487.740; 6705.100;  261.125;    0.000
487.875; 6779.100;  278.125;    0.000
488.011; 6818.100;  292.125;    0.000
488.146; 6854.100;  239.125;    0.000
488.282; 6688.100;  265.125;    0.000
488.417; 6802.100;  286.125;    0.000
488.553; 6711.100;  271.125;    0.000
488.688; 6731.100;  252.125;    0.000
488.824; 6675.100;  239.125;    0.000
488.960; 6714.100;  266.125;    0.000
489.095; 6773.100;  229.125;    0.000
489.230; 6705.100;  247.125;    0.000
489.366; 6827.100;  260.125;    0.000
489.501; 6997.100;  257.125;    0.000
489.637; 6845.100;  233.125;    0.000
489.772; 6912.100;  254.125;    0.000
489.908; 6942.100;  235.125;    0.000
490.043; 6927.100;  266.125;    0.000
490.178; 6920.100;  228.125;    0.000
490.314; 6830.100;  310.125;    0.000
490.449; 6828.100;  251.125;    0.000
490.585; 6917.100;  221.125;    0.000
490.720; 6811.100;  203.125;    0.000
490.855; 6992.100;  266.125;    0.000
490.991; 6821.100;  249.125;    0.000
491.126; 6828.100;  313.125;    0.000
491.261; 6932.100;  284.125;    0.000
491.396; 6991.100;  225.125;    0.000
491.532; 6998.100;  227.125;    0.000
491.667; 6924.100;  210.125;    0.000
491.802; 6978.100;  214.125;    0.000
491.937; 7026.100;  246.125;    0.000
492.073; 7137.100;  250.125;    0.000
492.208; 7081.100;  267.125;    0.000
492.343; 7110.100;  245.125;    0.000
492.478; 7203.100;  271.125;    0.000
492.613; 7099.100;  253.125;    0.000
492.749; 7076.100;  249.125;    0.000
492.884; 7000.100;  217.125;    0.000
493.019; 7145.100;  244.125;    0.000
493.154; 7059.100;  265.125;    0.000
493.289; 6903.100;  266.125;    0.000
493.424; 7012.100;  226.125;    0.000
493.559; 7038.100;  222.125;    0.000
493.694; 7098.100;  218.125;    0.000
493.829; 7139.100;  246.125;    0.000
493.964; 7051.100;  243.125;    0.000
494.099; 7212.100;  269.125;    0.000
494.234; 7147.100;  249.125;    0.000
494.369; 7013.100;  279.125;    0.000
494.504; 7197.100;  261.125;    0.000
494.639; 7143.100;  289.125;    0.000
494.774; 7002.100;  252.125;    0.000
494.909; 6975.100;  250.125;    0.000
495.044; 7118.100;  207.125;    0.000
495.179; 7048.100;  266.125;    0.000
495.314; 7171.100;  228.125;    0.000
495.449; 7209.100;  262.125;    0.000
495.584; 7009.100;  281.125;    0.000
495.719; 7101.100;  251.125;    0.000
495.854; 7216.100;  237.125;    0.000
495.988; 7169.100;  238.125;    0.000
496.123; 7252.100;  255.125;    0.000
496.258; 7184.100;  264.125;    0.000
496.393; 7398.100;  253.125;    0.000
496.528; 7362.100;  244.125;    0.000
496.663; 7442.100;  267.125;    0.000
496.797; 7548.100;  271.125;    0.000
496.932; 7554.100;  262.125;    0.000
497.067; 7717.100;  260.125;    0.000
497.202; 7711.100;  264.125;    0.000
497.336; 7777.100;  243.125;    0.000
497.471; 7986.100;  251.125;    0.000
497.606; 8071.100;  219.125;    0.000
497.740; 8352.100;  264.125;    0.000
497.875; 8501.100;  252.125;    0.000
498.010; 8638.100;  241.125;    0.000
498.144; 8809.100;  261.125;    0.000
498.279; 8927.100;  221.125;    0.000
498.414; 9144.100;  246.125;    0.000
498.548; 9178.100;  212.125;    0.000
498.683; 9237.100;  260.125;    0.000
498.817; 9290.100;  244.125;    0.000
498.952; 9547.100;  252.125;    0.000
499.087; 9746.100;  251.125;    0.000
499.221; 9955.100;  282.125;    0.000
499.356;10200.100;  264.125;    0.000
499.490;10369.100;  280.125;    0.000
499.625;10801.100;  256.125;    0.000
499.759;11025.100;  253.125;    0.000
499.894;11455.100;  261.125;    0.000
500.028;11524.100;  304.125;    0.000
500.162;11876.100;  272.125;    0.000
500.297;12032.100;  274.125;    0.000
500.431;12112.100;  320.125;    0.000
500.566;12099.100;  268.125;    0.000
500.700;12022.100;  280.125;    0.000
500.835;11760.100;  288.125;    0.000
500.969;11314.100;  253.125;    0.000
501.103;11174.100;  234.125;    0.000
501.238;10957.100;  302.125;    0.000
501.372;10357.100;  292.125;    0.000
501.506;10044.100;  222.125;    0.000
501.641; 9805.100;  274.125;    0.000
501.775; 9289.100;  245.125;    0.000
501.909; 9046.100;  283.125;    0.000
502.043; 9004.100;  252.125;    0.000
502.178; 8810.100;  293.125;    0.000
502.312; 8608.100;  223.125;    0.000
502.446; 8408.100;  292.125;    0.000
502.580; 8401.100;  253.125;    0.000
502.715; 8214.100;  282.125;    0.000
502.849; 8149.100;  258.125;    0.000
502.983; 8134.100;  267.125;    0.000
503.117; 7926.100;  226.125;    0.000
503.251; 7816.100;  260.125;    0.000
503.385; 7735.100;  291.125;    0.000
503.520; 7592.100;  279.125;    0.000
503.654; 7477.100;  229.125;    0.000
503.788; 7347.100;  259.125;    0.000
503.922; 7270.100;  246.125;    0.000
504.056; 7415.100;  269.125;    0.000
504.190; 7186.100;  265.125;    0.000
504.324; 7204.100;  298.125;    0.000
504.458; 7145.100;  235.125;    0.000
504.592; 7087.100;  275.125;    0.000
504.726; 6991.100;  226.125;    0.000
504.860; 6849.100;  298.125;    0.000
504.994; 6790.100;  253.125;    0.000
505.128; 6748.100;  283.125;    0.000
505.262; 6637.100;  255.125;    0.000
505.396; 6559.100;  219.125;    0.000
505.530; 6580.100;  279.125;    0.000
505.664; 6305.100;  306.125;    0.000
505.798; 6282.100;  297.125;    0.000
505.932; 6252.100;  273.125;    0.000
506.066; 6119.100;  271.125;    0.000
506.199; 6174.100;  273.125;    0.000
506.333; 6094.100;  227.125;    0.000
506.467; 6093.100;  302.125;    0.000
506.601; 5926.100;  254.125;    0.000
506.735; 5939.100;  299.125;    0.000
506.869; 5941.100;  278.125;    0.000
507.002; 5837.100;  259.125;    0.000
507.136; 5914.100;  285.125;    0.000
507.270; 5833.100;  255.125;    0.000
507.404; 5701.100;  273.125;    0.000
507.537; 5694.100;  245.125;    0.000
507.671; 5744.100;  251.125;    0.000
507.805; 5699.100;  286.125;    0.000
507.939; 5498.100;  261.125;    0.000
508.072; 5576.100;  298.125;    0.000
508.206; 5515.100;  238.125;    0.000
508.340; 5454.100;  289.125;    0.000
508.473; 5591.100;  255.125;    0.000
508.607; 5511.100;  266.125;    0.000
508.740; 5534.100;  253.125;    0.000
508.874; 5567.100;  233.125;    0.000
509.008; 5633.100;  274.125;    0.000
509.141; 5475.100;  235.125;    0.000
509.275; 5425.100;  225.125;    0.000
509.408; 5573.100;  254.125;    0.000
509.542; 5387.100;  244.125;    0.000
509.675; 5466.100;  263.125;    0.000
509.809; 5407.100;  271.125;    0.000
509.942; 5420.100;  246.125;    0.000
510.076; 5318.100;  221.125;    0.000
510.209; 5227.100;  270.125;    0.000
510.343; 5255.100;  265.125;    0.000
510.476; 5415.100;  291.125;    0.000
510.610; 5262.100;  251.125;    0.000
510.743; 5233.100;  304.125;    0.000
510.877; 5191.100;  259.125;    0.000
511.010; 5167.100;  274.125;    0.000
511.143; 5211.100;  255.125;    0.000
511.277; 5163.100;  267.125;    0.000
511.410; 5176.100;  270.125;    0.000
511.543; 5195.100;  231.125;    0.000
511.677; 5151.100;  275.125;    0.000
511.810; 5167.100;  265.125;    0.000
511.943; 5081.100;  231.125;    0.000
512.077; 5226.100;  225.125;    0.000
512.210; 5073.100;  235.125;    0.000
512.343; 5043.100;  251.125;    0.000
512.476; 5099.100;  260.125;    0.000
512.610; 5112.100;  289.125;    0.000
512.743; 5249.100;  270.125;    0.000
512.876; 5192.100;  289.125;    0.000
513.009; 5259.100;  293.125;    0.000
513.142; 5187.100;  282.125;    0.000
513.276; 5088.100;  244.125;    0.000
513.409; 5130.100;  277.125;    0.000
513.542; 5230.100;  254.125;    0.000
513.675; 5229.100;  258.125;    0.000
513.808; 5147.100;  243.125;    0.000
513.941; 5122.100;  274.125;    0.000
514.074; 5105.100;  296.125;    0.000
514.207; 5083.100;  267.125;    0.000
514.340; 5208.100;  283.125;    0.000
514.474; 5067.100;  255.125;    0.000
514.607; 5223.100;  291.125;    0.000
514.740; 5172.100;  296.125;    0.000
514.873; 5297.100;  275.125;    0.000
515.006; 5418.100;  313.125;    0.000
515.139; 5345.100;  253.125;    0.000
515.272; 5393.100;  263.125;    0.000
515.404; 5570.100;  258.125;    0.000
515.537; 5578.100;  285.125;    0.000
515.670; 5525.100;  286.125;    0.000
515.803; 5404.100;  266.125;    0.000
515.936; 5340.100;  251.125;    0.000
516.069; 5521.100;  231.125;    0.000
516.202; 5499.100;  278.125;    0.000
516.335; 5670.100;  295.125;    0.000
516.468; 5802.100;  239.125;    0.000
516.600; 6290.100;  229.125;    0.000
516.733; 7222.100;  301.125;    0.000
516.866; 7251.100;  287.125;    0.000
516.999; 6875.100;  265.125;    0.000
517.132; 7895.100;  291.125;    0.000
517.264;10009.100;  262.125;    0.000
517.397; 9857.100;  292.125;    0.000
517.530; 8139.100;  299.125;    0.000
517.663; 7403.100;  268.125;    0.000
517.795; 6985.100;  323.125;    0.000
517.928; 6754.100;  281.125;    0.000
518.061; 6674.100;  242.125;    0.000
518.193; 7895.100;  279.125;    0.000
518.326;11395.100;  288.125;    0.000
518.459;12224.100;  251.125;    0.000
518.591; 9723.100;  314.125;    0.000
518.724; 7837.100;  279.125;    0.000
518.857; 7017.100;  245.125;    0.000
518.989; 6623.100;  290.125;    0.000
519.122; 6304.100;  319.125;    0.000
519.254; 6125.100;  295.125;    0.000
519.387; 5768.100;  271.125;    0.000
519.519; 5710.100;  312.125;    0.000
519.652; 5667.100;  289.125;    0.000
519.784; 5462.100;  311.125;    0.000
519.917; 5374.100;  283.125;    0.000
520.049; 5406.100;  281.125;    0.000
520.182; 5229.100;  242.125;    0.000
520.314; 5349.100;  310.125;    0.000
520.447; 5375.100;  215.125;    0.000
520.579; 5161.100;  277.125;    0.000
520.712; 5055.100;  224.125;    0.000
520.844; 5210.100;  293.125;    0.000
520.976; 4930.100;  281.125;    0.000
521.109; 4901.100;  279.125;    0.000
521.241; 4950.100;  318.125;    0.000
521.373; 4957.100;  242.125;    0.000
521.506; 4911.100;  246.125;    0.000
521.638; 4785.100;  312.125;    0.000
521.770; 4774.100;  257.125;    0.000
521.903; 4799.100;  295.125;    0.000
522.035; 4654.100;  283.125;    0.000
522.167; 4719.100;  281.125;    0.000
522.300; 4712.100;  262.125;    0.000
522.432; 4713.100;  272.125;    0.000
522.564; 4713.100;  277.125;    0.000
522.696; 4581.100;  295.125;    0.000
522.828; 4575.100;  284.125;    0.000
522.961; 4558.100;  295.125;    0.000
523.093; 4480.100;  282.125;    0.000
523.225; 4532.100;  270.125;    0.000
523.357; 4598.100;  285.125;    0.000
523.489; 4555.100;  292.125;    0.000
523.621; 4505.100;  285.125;    0.000
523.753; 4482.100;  273.125;    0.000
523.885; 4376.100;  271.125;    0.000
524.018; 4397.100;  276.125;    0.000
524.150; 4367.100;  320.125;    0.000
524.282; 4416.100;  304.125;    0.000
524.414; 4393.100;  302.125;    0.000
524.546; 4356.100;  305.125;    0.000
524.678; 4312.100;  264.125;    0.000
524.810; 4307.100;  258.125;    0.000
524.942; 4292.100;  252.125;    0.000
525.074; 4306.100;  275.125;    0.000
525.206; 4272.100;  286.125;    0.000
525.338; 4200.100;  280.125;    0.000
525.469; 4249.100;  267.125;    0.000
525.601; 4218.100;  266.125;    0.000
525.733; 4165.100;  283.125;    0.000
525.865; 4236.100;  273.125;    0.000
525.997; 4298.100;  286.125;    0.000
526.129; 4180.100;  249.125;    0.000
526.261; 4231.100;  233.125;    0.000
526.393; 4296.100;  257.125;    0.000
526.524; 4150.100;  184.125;    0.000
526.656; 4239.100;  259.125;    0.000
526.788; 4220.100;  268.125;    0.000
526.920; 4219.100;  262.125;    0.000
527.052; 4074.100;  250.125;    0.000
527.183; 4215.100;  264.125;    0.000
527.315; 4263.100;  301.125;    0.000
527.447; 4080.100;  262.125;    0.000
527.578; 4147.100;  267.125;    0.000
527.710; 4109.100;  299.125;    0.000
527.842; 4063.100;  266.125;    0.000
527.973; 4249.100;  240.125;    0.000
528.105; 4080.100;  275.125;    0.000
528.237; 4131.100;  239.125;    0.000
528.368; 4024.100;  275.125;    0.000
528.500; 4121.100;  271.125;    0.000
528.632; 4038.100;  252.125;    0.000
528.763; 4062.100;  253.125;    0.000
528.895; 4131.100;  259.125;    0.000
529.026; 4118.100;  209.125;    0.000
529.158; 4144.100;  291.125;    0.000
529.289; 4109.100;  280.125;    0.000
529.421; 4153.100;  274.125;    0.000
529.552; 4147.100;  253.125;    0.000
529.684; 4171.100;  310.125;    0.000
529.815; 4122.100;  305.125;    0.000
529.947; 4034.100;  234.125;    0.000
530.078; 4184.100;  259.125;    0.000
530.210; 4155.100;  264.125;    0.000
530.341; 4073.100;  267.125;    0.000
530.472; 4011.100;  232.125;    0.000
530.604; 4145.100;  293.125;    0.000
530.735; 4216.100;  275.125;    0.000
530.867; 4177.100;  280.125;    0.000
530.998; 4098.100;  295.125;    0.000
531.129; 4139.100;  274.125;    0.000
531.260; 4190.100;  272.125;    0.000
531.392; 4162.100;  275.125;    0.000
531.523; 4190.100;  244.125;    0.000
531.654; 4185.100;  289.125;    0.000
531.786; 4301.100;  259.125;    0.000
531.917; 4295.100;  286.125;    0.000
532.048; 4181.100;  293.125;    0.000
532.179; 4309.100;  288.125;    0.000
532.311; 4164.100;  296.125;    0.000
532.442; 4248.100;  277.125;    0.000
532.573; 4177.100;  273.125;    0.000
532.704; 4140.100;  308.125;    0.000
532.835; 4214.100;  308.125;    0.000
532.966; 4172.100;  274.125;    0.000
533.097; 4066.100;  310.125;    0.000
533.229; 4200.100;  294.125;    0.000
533.360; 4132.100;  324.125;    0.000
533.491; 4137.100;  278.125;    0.000
533.622; 4170.100;  319.125;    0.000
533.753; 4145.100;  303.125;    0.000
533.884; 4104.100;  269.125;    0.000
534.015; 4220.100;  266.125;    0.000
534.146; 4180.100;  283.125;    0.000
534.277; 4223.100;  299.125;    0.000
534.408; 4298.100;  265.125;    0.000
534.539; 4152.100;  310.125;    0.000
534.670; 4148.100;  319.125;    0.000
534.801; 4178.100;  281.125;    0.000
534.932; 4135.100;  239.125;    0.000
535.063; 4115.100;  276.125;    0.000
535.194; 4104.100;  361.125;    0.000
535.324; 4154.100;  283.125;    0.000
535.455; 4035.100;  282.125;    0.000
535.586; 4171.100;  331.125;    0.000
535.717; 4045.100;  262.125;    0.000
535.848; 4030.100;  308.125;    0.000
535.979; 4069.100;  273.125;    0.000
536.109; 4009.100;  277.125;    0.000
536.240; 4047.100;  293.125;    0.000
536.371; 4072.100;  295.125;    0.000
536.502; 4113.100;  330.125;    0.000
536.632; 3966.100;  280.125;    0.000
536.763; 3974.100;  332.125;    0.000
536.894; 3941.100;  334.125;    0.000
537.025; 3842.100;  295.125;    0.000
537.155; 3940.100;  321.125;    0.000
537.286; 3921.100;  292.125;    0.000
537.417; 3983.100;  314.125;    0.000
537.547; 3952.100;  287.125;    0.000
537.678; 3947.100;  287.125;    0.000
537.808; 3952.100;  278.125;    0.000
537.939; 3988.100;  304.125;    0.000
538.070; 4041.100;  303.125;    0.000
538.200; 3970.100;  279.125;    0.000
538.331; 3855.100;  321.125;    0.000
538.461; 3924.100;  313.125;    0.000
538.592; 3952.100;  290.125;    0.000
538.722; 4046.100;  285.125;    0.000
538.853; 3933.100;  261.125;    0.000
538.983; 3943.100;  280.125;    0.000
539.114; 3946.100;  310.125;    0.000
539.244; 3994.100;  281.125;    0.000
539.375; 4003.100;  292.125;    0.000
539.505; 3862.100;  286.125;    0.000
539.636; 3977.100;  276.125;    0.000
539.766; 4035.100;  287.125;    0.000
539.896; 3923.100;  292.125;    0.000
540.027; 4081.100;  262.125;    0.000
540.157; 3955.100;  269.125;    0.000
540.287; 3898.100;  282.125;    0.000
540.418; 3899.100;  269.125;    0.000
540.548; 3945.100;  328.125;    0.000
540.678; 3936.100;  271.125;    0.000
540.809; 3959.100;  272.125;    0.000
540.939; 4077.100;  299.125;    0.000
541.069; 4041.100;  266.125;    0.000
541.200; 3968.100;  242.125;    0.000
541.330; 4090.100;  257.125;    0.000
541.460; 4021.100;  270.125;    0.000
541.590; 4022.100;  287.125;    0.000
541.720; 4018.100;  255.125;    0.000
541.851; 3948.100;  273.125;    0.000
541.981; 3999.100;  244.125;    0.000
542.111; 4120.100;  263.125;    0.000
542.241; 4047.100;  271.125;    0.000
542.371; 4135.100;  263.125;    0.000
542.501; 4196.100;  274.125;    0.000
542.631; 4235.100;  288.125;    0.000
542.761; 4250.100;  261.125;    0.000
542.891; 4287.100;  253.125;    0.000
543.021; 4291.100;  249.125;    0.000
543.151; 4310.100;  261.125;    0.000
543.281; 4209.100;  256.125;    0.000
543.411; 4245.100;  290.125;    0.000
543.542; 4185.100;  278.125;    0.000
543.671; 4143.100;  238.125;    0.000
543.801; 4271.100;  256.125;    0.000
543.931; 4206.100;  254.125;    0.000
544.061; 4168.100;  237.125;    0.000
544.191; 4240.100;  245.125;    0.000
544.321; 4147.100;  267.125;    0.000
544.451; 4209.100;  262.125;    0.000
544.581; 4275.100;  221.125;    0.000
544.711; 4350.100;  252.125;    0.000
544.841; 4334.100;  264.125;    0.000
544.970; 4449.100;  315.125;    0.000
545.100; 4384.100;  245.125;    0.000
545.230; 4527.100;  276.125;    0.000
545.360; 4431.100;  278.125;    0.000
545.490; 4379.100;  268.125;    0.000
545.619; 4314.100;  237.125;    0.000
545.749; 4264.100;  228.125;    0.000
545.879; 4135.100;  234.125;    0.000
546.009; 4155.100;  287.125;    0.000
546.138; 4273.100;  222.125;    0.000
546.268; 4137.100;  228.125;    0.000
546.398; 4196.100;  244.125;    0.000
546.527; 4113.100;  233.125;    0.000
546.657; 4221.100;  189.125;    0.000
546.786; 4208.100;  247.125;    0.000
546.916; 4236.100;  244.125;    0.000
547.046; 4292.100;  214.125;    0.000
547.175; 4126.100;  242.125;    0.000
547.305; 4178.100;  252.125;    0.000
547.434; 4192.100;  191.125;    0.000
547.564; 4190.100;  208.125;    0.000
547.693; 4256.100;  213.125;    0.000
547.823; 4153.100;  209.125;    0.000
547.953; 4225.100;  250.125;    0.000
548.082; 4218.100;  231.125;    0.000
548.211; 4065.100;  226.125;    0.000
548.341; 4100.100;  254.125;    0.000
548.470; 4234.100;  266.125;    0.000
548.600; 4160.100;  229.125;    0.000
548.729; 4103.100;  225.125;    0.000
548.859; 4194.100;  185.125;    0.000
548.988; 4214.100;  225.125;    0.000
549.117; 4321.100;  241.125;    0.000
549.247; 4172.100;  236.125;    0.000
549.376; 4243.100;  220.125;    0.000
549.505; 4279.100;  254.125;    0.000
549.635; 4231.100;  268.125;    0.000
549.764; 4190.100;  194.125;    0.000
549.893; 4314.100;  232.125;    0.000
550.023; 4377.100;  222.125;    0.000
550.152; 4333.100;  223.125;    0.000
550.281; 4259.100;  210.125;    0.000
550.410; 4327.100;  197.125;    0.000
550.539; 4357.100;  222.125;    0.000
550.669; 4294.100;  245.125;    0.000
550.798; 4404.100;  265.125;    0.000
550.927; 4257.100;  249.125;    0.000
551.056; 4291.100;  184.125;    0.000
551.185; 4334.100;  247.125;    0.000
551.314; 4263.100;  258.125;    0.000
551.443; 4238.100;  224.125;    0.000
551.573; 4348.100;  204.125;    0.000
551.702; 4415.100;  220.125;    0.000
551.831; 4425.100;  287.125;    0.000
551.960; 4341.100;  259.125;    0.000
552.089; 4361.100;  222.125;    0.000
552.218; 4510.100;  254.125;    0.000
552.347; 4377.100;  260.125;    0.000
552.476; 4500.100;  251.125;    0.000
552.605; 4590.100;  229.125;    0.000
552.734; 4474.100;  261.125;    0.000
552.863; 4489.100;  225.125;    0.000
552.992; 4708.100;  202.125;    0.000
553.121; 4662.100;  193.125;    0.000
553.249; 4657.100;  224.125;    0.000
553.378; 4583.100;  274.125;    0.000
553.507; 4546.100;  248.125;    0.000
553.636; 4592.100;  203.125;    0.000
553.765; 4515.100;  224.125;    0.000
553.894; 4434.100;  246.125;    0.000
554.023; 4561.100;  229.125;    0.000
554.151; 4465.100;  216.125;    0.000
554.280; 4402.100;  223.125;    0.000
554.409; 4457.100;  240.125;    0.000
554.538; 4395.100;  277.125;    0.000
554.666; 4344.100;  244.125;    0.000
554.795; 4258.100;  240.125;    0.000
554.924; 4413.100;  257.125;    0.000
555.052; 4344.100;  266.125;    0.000
555.181; 4339.100;  244.125;    0.000
555.310; 4378.100;  262.125;    0.000
555.439; 4315.100;  260.125;    0.000
555.567; 4276.100;  234.125;    0.000
555.696; 4286.100;  237.125;    0.000
555.824; 4221.100;  232.125;    0.000
555.953; 4355.100;  279.125;    0.000
556.082; 4275.100;  234.125;    0.000
556.210; 4304.100;  235.125;    0.000
556.339; 4319.100;  198.125;    0.000
556.467; 4230.100;  216.125;    0.000
556.596; 4339.100;  273.125;    0.000
556.724; 4383.100;  245.125;    0.000
556.853; 4310.100;  241.125;    0.000
556.981; 4245.100;  219.125;    0.000
557.110; 4215.100;  242.125;    0.000
557.238; 4263.100;  202.125;    0.000
557.367; 4229.100;  254.125;    0.000
557.495; 4129.100;  260.125;    0.000
557.623; 4224.100;  207.125;    0.000
557.752; 4249.100;  219.125;    0.000
557.880; 4223.100;  209.125;    0.000
558.008; 4306.100;  243.125;    0.000
558.137; 4216.100;  244.125;    0.000
558.265; 4280.100;  221.125;    0.000
558.393; 4216.100;  297.125;    0.000
558.522; 4191.100;  232.125;    0.000
558.650; 4329.100;  299.125;    0.000
558.778; 4280.100;  210.125;    0.000
558.906; 4290.100;  240.125;    0.000
559.035; 4258.100;  252.125;    0.000
559.163; 4251.100;  246.125;    0.000
559.291; 4246.100;  213.125;    0.000
559.419; 4220.100;  221.125;    0.000
559.548; 4263.100;  208.125;    0.000
559.676; 4307.100;  254.125;    0.000
559.804; 4393.100;  213.125;    0.000
559.932; 4275.100;  208.125;    0.000
560.060; 4338.100;  276.125;    0.000
560.188; 4411.100;  278.125;    0.000
560.316; 4433.100;  217.125;    0.000
560.444; 4364.100;  254.125;    0.000
560.572; 4447.100;  226.125;    0.000
560.700; 4549.100;  282.125;    0.000
560.828; 4473.100;  211.125;    0.000
560.956; 4570.100;  264.125;    0.000
561.085; 4472.100;  295.125;    0.000
561.212; 4401.100;  229.125;    0.000
561.340; 4556.100;  259.125;    0.000
561.468; 4610.100;  253.125;    0.000
561.596; 4531.100;  240.125;    0.000
561.724; 4526.100;  259.125;    0.000
561.852; 4560.100;  224.125;    0.000
561.980; 4560.100;  251.125;    0.000
562.108; 4675.100;  214.125;    0.000
562.236; 4597.100;  258.125;    0.000
562.364; 4587.100;  237.125;    0.000
562.492; 4722.100;  228.125;    0.000
562.619; 4678.100;  223.125;    0.000
562.747; 4683.100;  263.125;    0.000
562.875; 4706.100;  257.125;    0.000
563.003; 4789.100;  216.125;    0.000
563.130; 4793.100;  190.125;    0.000
563.258; 4793.100;  225.125;    0.000
563.386; 4955.100;  259.125;    0.000
563.514; 4975.100;  264.125;    0.000
563.641; 5030.100;  230.125;    0.000
563.769; 5122.100;  257.125;    0.000
563.897; 5102.100;  210.125;    0.000
564.024; 5155.100;  221.125;    0.000
564.152; 5313.100;  256.125;    0.000
564.280; 5197.100;  225.125;    0.000
564.407; 5341.100;  262.125;    0.000
564.535; 5321.100;  235.125;    0.000
564.662; 5485.100;  238.125;    0.000
564.790; 5388.100;  248.125;    0.000
564.917; 5466.100;  214.125;    0.000
565.045; 5498.100;  253.125;    0.000
565.173; 5500.100;  225.125;    0.000
565.300; 5610.100;  261.125;    0.000
565.428; 5788.100;  218.125;    0.000
565.555; 5699.100;  245.125;    0.000
565.682; 5811.100;  242.125;    0.000
565.810; 6004.100;  228.125;    0.000
565.937; 6157.100;  230.125;    0.000
566.065; 6392.100;  251.125;    0.000
566.192; 6285.100;  196.125;    0.000
566.320; 6577.100;  217.125;    0.000
566.447; 6692.100;  224.125;    0.000
566.574; 6658.100;  221.125;    0.000
566.702; 6834.100;  221.125;    0.000
566.829; 7002.100;  252.125;    0.000
566.956; 7004.100;  214.125;    0.000
567.083; 7088.100;  204.125;    0.000
567.211; 6949.100;  216.125;    0.000
567.338; 7199.100;  228.125;    0.000
567.465; 7183.100;  208.125;    0.000
567.593; 7134.100;  205.125;    0.000
567.720; 7208.100;  194.125;    0.000
567.847; 7328.100;  268.125;    0.000
567.974; 7427.100;  198.125;    0.000
568.101; 7675.100;  224.125;    0.000
568.228; 8757.100;  236.125;    0.000
568.356; 9104.100;  207.125;    0.000
568.483; 8942.100;  220.125;    0.000
568.610; 8863.100;  181.125;    0.000
568.737; 9937.100;  216.125;    0.000
568.864;11292.100;  258.125;    0.000
568.991;10726.100;  203.125;    0.000
569.118; 9527.100;  232.125;    0.000
569.245; 8767.100;  192.125;    0.000
569.372; 8236.100;  226.125;    0.000
569.499; 7656.100;  211.125;    0.000
569.626; 7409.100;  247.125;    0.000
569.753; 7145.100;  248.125;    0.000
569.880; 6949.100;  226.125;    0.000
570.007; 6736.100;  215.125;    0.000
570.134; 6392.100;  205.125;    0.000
570.261; 6444.100;  187.125;    0.000
570.388; 6476.100;  258.125;    0.000
570.515; 6164.100;  241.125;    0.000
570.642; 6024.100;  211.125;    0.000
570.768; 6034.100;  228.125;    0.000
570.895; 6032.100;  229.125;    0.000
571.022; 5878.100;  203.125;    0.000
571.149; 5912.100;  206.125;    0.000
571.276; 5782.100;  191.125;    0.000
571.402; 5805.100;  218.125;    0.000
571.529; 5578.100;  192.125;    0.000
571.656; 5505.100;  209.125;    0.000
571.783; 5426.100;  181.125;    0.000
571.909; 5421.100;  251.125;    0.000
572.036; 5320.100;  225.125;    0.000
572.163; 5345.100;  214.125;    0.000
572.289; 5268.100;  252.125;    0.000
572.416; 5177.100;  220.125;    0.000
572.543; 5246.100;  225.125;    0.000
572.669; 5150.100;  226.125;    0.000
572.796; 5218.100;  231.125;    0.000
572.922; 5094.100;  258.125;    0.000
573.049; 5034.100;  202.125;    0.000
573.176; 5095.100;  254.125;    0.000
573.302; 5063.100;  215.125;    0.000
573.429; 5107.100;  251.125;    0.000
573.555; 4949.100;  221.125;    0.000
573.682; 4955.100;  227.125;    0.000
573.808; 5017.100;  259.125;    0.000
573.935; 5013.100;  233.125;    0.000
574.061; 4953.100;  241.125;    0.000
574.188; 4912.100;  238.125;    0.000
574.314; 4881.100;  221.125;    0.000
574.440; 4880.100;  221.125;    0.000
574.567; 5084.100;  216.125;    0.000
574.693; 4976.100;  224.125;    0.000
574.820; 4950.100;  199.125;    0.000
574.946; 4872.100;  248.125;    0.000
575.072; 4826.100;  220.125;    0.000
575.198; 4806.100;  262.125;    0.000
575.325; 5008.100;  232.125;    0.000
575.451; 4869.100;  225.125;    0.000
575.577; 4872.100;  216.125;    0.000
575.704; 4795.100;  248.125;    0.000
575.830; 4835.100;  227.125;    0.000
575.956; 4922.100;  206.125;    0.000
576.082; 4958.100;  222.125;    0.000
576.208; 4926.100;  206.125;    0.000
576.335; 4769.100;  256.125;    0.000
576.461; 4867.100;  247.125;    0.000
576.587; 4729.100;  219.125;    0.000
576.713; 4843.100;  215.125;    0.000
576.839; 4797.100;  225.125;    0.000
576.965; 4962.100;  230.125;    0.000
577.091; 4727.100;  235.125;    0.000
577.217; 4890.100;  235.125;    0.000
577.343; 4915.100;  233.125;    0.000
577.469; 4858.100;  242.125;    0.000
577.596; 4869.100;  241.125;    0.000
577.722; 4835.100;  255.125;    0.000
577.848; 4761.100;  235.125;    0.000
577.974; 4839.100;  210.125;    0.000
578.099; 4803.100;  239.125;    0.000
578.225; 4912.100;  258.125;    0.000
578.351; 4749.100;  209.125;    0.000
578.477; 4832.100;  255.125;    0.000
578.603; 4749.100;  213.125;    0.000
578.729; 4909.100;  221.125;    0.000
578.855; 4922.100;  209.125;    0.000
578.981; 5026.100;  206.125;    0.000
579.107; 5044.100;  221.125;    0.000
579.232; 4862.100;  206.125;    0.000
579.358; 5032.100;  226.125;    0.000
579.484; 5001.100;  244.125;    0.000
579.610; 4989.100;  261.125;    0.000
579.735; 5040.100;  270.125;    0.000
579.861; 5015.100;  255.125;    0.000
579.987; 5112.100;  249.125;    0.000
580.113; 5098.100;  260.125;    0.000
580.238; 5034.100;  206.125;    0.000
580.364; 5116.100;  249.125;    0.000
580.490; 5295.100;  225.125;    0.000
580.615; 5228.100;  266.125;    0.000
580.741; 5213.100;  224.125;    0.000
580.867; 5147.100;  251.125;    0.000
580.992; 5326.100;  270.125;    0.000
581.118; 5321.100;  248.125;    0.000
581.243; 5372.100;  251.125;    0.000
581.369; 5226.100;  192.125;    0.000
581.494; 5319.100;  259.125;    0.000
581.620; 5353.100;  245.125;    0.000
581.745; 5428.100;  232.125;    0.000
581.871; 5426.100;  243.125;    0.000
581.996; 5747.100;  216.125;    0.000
582.122; 5665.100;  263.125;    0.000
582.247; 5710.100;  254.125;    0.000
582.373; 5696.100;  232.125;    0.000
582.498; 5699.100;  275.125;    0.000
582.624; 5697.100;  260.125;    0.000
582.749; 5818.100;  251.125;    0.000
582.874; 5953.100;  245.125;    0.000
583.000; 5906.100;  278.125;    0.000
583.125; 5927.100;  211.125;    0.000
583.250; 5998.100;  246.125;    0.000
583.376; 6097.100;  259.125;    0.000
583.501; 6166.100;  254.125;    0.000
583.626; 6207.100;  209.125;    0.000
583.751; 6233.100;  239.125;    0.000
583.877; 6491.100;  255.125;    0.000
584.002; 6588.100;  263.125;    0.000
584.127; 6543.100;  205.125;    0.000
584.252; 6765.100;  196.125;    0.000
584.377; 6718.100;  249.125;    0.000
584.503; 6785.100;  219.125;    0.000
584.628; 7054.100;  243.125;    0.000
584.753; 7033.100;  250.125;    0.000
584.878; 7166.100;  208.125;    0.000
585.003; 7343.100;  234.125;    0.000
585.128; 7628.100;  207.125;    0.000
585.253; 7809.100;  219.125;    0.000
585.378; 8060.100;  205.125;    0.000
585.503; 8197.100;  256.125;    0.000
585.628; 8325.100;  217.125;    0.000
585.753; 8664.100;  213.125;    0.000
585.878; 8730.100;  147.125;    0.000
586.003; 9016.100;  256.125;    0.000
586.128; 9348.100;  214.125;    0.000
586.253; 9738.100;  254.125;    0.000
586.378; 9822.100;  252.125;    0.000
586.503;10251.100;  219.125;    0.000
586.628;10806.100;  226.125;    0.000
586.753;11320.100;  237.125;    0.000
586.878;11737.100;  185.125;    0.000
587.003;12301.100;  248.125;    0.000
587.127;12813.100;  237.125;    0.000
587.252;13513.100;  221.125;    0.000
587.377;14500.100;  244.125;    0.000
587.502;15048.100;  260.125;    0.000
587.627;16440.100;  232.125;    0.000
587.751;17286.100;  250.125;    0.000
587.876;18782.100;  234.125;    0.000
588.001;20404.100;  248.125;    0.000
588.125;22252.100;  236.125;    0.000
588.250;24762.100;  192.125;    0.000
588.375;27995.100;  265.125;    0.000
588.499;31731.100;  235.125;    0.000
588.624;37276.102;  212.125;    0.000
588.749;44990.102;  214.125;    0.000
588.873;52527.102;  236.125;    0.000
588.998;58139.102;  230.125;    0.000
589.122;60749.102;  231.125;    0.000
589.247;58120.102;  250.125;    0.000
589.372;53571.102;  247.125;    0.000
589.496;54241.102;  230.125;    0.000
589.621;57137.102;  237.125;    0.000
589.745;55224.102;  277.125;    0.000
589.870;47802.102;  283.125;    0.000
589.994;39839.102;  263.125;    0.000
590.118;34546.102;  239.125;    0.000
590.243;30114.100;  218.125;    0.000
590.367;26714.100;  226.125;    0.000
590.492;23985.100;  269.125;    0.000
590.616;22157.100;  205.125;    0.000
590.740;20275.100;  243.125;    0.000
590.865;18865.100;  281.125;    0.000
590.989;17423.100;  233.125;    0.000
591.114;16308.100;  222.125;    0.000
591.238;15624.100;  204.125;    0.000
591.362;14813.100;  283.125;    0.000
591.486;14014.100;  236.125;    0.000
591.611;13415.100;  228.125;    0.000
591.735;12780.100;  249.125;    0.000
591.859;12392.100;  202.125;    0.000
591.983;11852.100;  257.125;    0.000
592.107;11323.100;  230.125;    0.000
592.232;11055.100;  266.125;    0.000
592.356;10770.100;  232.125;    0.000
592.480;10572.100;  245.125;    0.000
592.604;10156.100;  254.125;    0.000
592.728; 9773.100;  233.125;    0.000
592.852; 9569.100;  213.125;    0.000
592.976; 9279.100;  234.125;    0.000
593.100; 9182.100;  246.125;    0.000
593.224; 9040.100;  305.125;    0.000
593.349; 8928.100;  240.125;    0.000
593.473; 8542.100;  206.125;    0.000
593.597; 8435.100;  243.125;    0.000
593.721; 8341.100;  247.125;    0.000
593.844; 8244.100;  230.125;    0.000
593.968; 8090.100;  226.125;    0.000
594.092; 7905.100;  193.125;    0.000
594.216; 7809.100;  237.125;    0.000
594.340; 7636.100;  235.125;    0.000
594.464; 7490.100;  225.125;    0.000
594.588; 7421.100;  269.125;    0.000
594.712; 7352.100;  242.125;    0.000
594.836; 7108.100;  240.125;    0.000
594.959; 7068.100;  255.125;    0.000
595.083; 6909.100;  258.125;    0.000
595.207; 6724.100;  264.125;    0.000
595.331; 6524.100;  215.125;    0.000
595.455; 6532.100;  234.125;    0.000
595.578; 6370.100;  215.125;    0.000
595.702; 6384.100;  259.125;    0.000
595.826; 6224.100;  232.125;    0.000
595.949; 6170.100;  251.125;    0.000
596.073; 6072.100;  197.125;    0.000
596.197; 5983.100;  239.125;    0.000
596.320; 5944.100;  229.125;    0.000
596.444; 5774.100;  264.125;    0.000
596.568; 5909.100;  207.125;    0.000
596.691; 5710.100;  234.125;    0.000
596.815; 5687.100;  241.125;    0.000
596.938; 5538.100;  244.125;    0.000
597.062; 5565.100;  210.125;    0.000
597.186; 5620.100;  247.125;    0.000
597.309; 5539.100;  215.125;    0.000
597.433; 5351.100;  266.125;    0.000
597.556; 5325.100;  234.125;    0.000
597.680; 5330.100;  261.125;    0.000
597.803; 5258.100;  239.125;    0.000
597.926; 5167.100;  251.125;    0.000
598.050; 5123.100;  227.125;    0.000
598.173; 5082.100;  247.125;    0.000
598.297; 4953.100;  244.125;    0.000
598.420; 5167.100;  243.125;    0.000
598.543; 5135.100;  237.125;    0.000
598.667; 4975.100;  239.125;    0.000
598.790; 5019.100;  217.125;    0.000
598.913; 4904.100;  244.125;    0.000
599.037; 4785.100;  249.125;    0.000
599.160; 4841.100;  222.125;    0.000
599.283; 4881.100;  235.125;    0.000
599.406; 4801.100;  228.125;    0.000
599.530; 4818.100;  234.125;    0.000
599.653; 4828.100;  228.125;    0.000
599.776; 4756.100;  263.125;    0.000
599.899; 4796.100;  197.125;    0.000
600.022; 4658.100;  224.125;    0.000
600.145; 4645.100;  211.125;    0.000
600.269; 4602.100;  246.125;    0.000
600.392; 4562.100;  233.125;    0.000
600.515; 4570.100;  266.125;    0.000
600.638; 4553.100;  246.125;    0.000
600.761; 4518.100;  213.125;    0.000
600.884; 4359.100;  279.125;    0.000
601.007; 4609.100;  268.125;    0.000
601.130; 4523.100;  203.125;    0.000
601.253; 4522.100;  241.125;    0.000
601.376; 4425.100;  248.125;    0.000
601.499; 4411.100;  241.125;    0.000
601.622; 4452.100;  266.125;    0.000
601.745; 4397.100;  237.125;    0.000
601.868; 4453.100;  256.125;    0.000
601.991; 4290.100;  260.125;    0.000
602.113; 4371.100;  246.125;    0.000
602.236; 4232.100;  243.125;    0.000
602.359; 4354.100;  220.125;    0.000
602.482; 4310.100;  236.125;    0.000
602.605; 4305.100;  216.125;    0.000
602.728; 4173.100;  247.125;    0.000
602.850; 4302.100;  255.125;    0.000
602.973; 4185.100;  224.125;    0.000
603.096; 4291.100;  258.125;    0.000
603.219; 4284.100;  222.125;    0.000
603.341; 4228.100;  235.125;    0.000
603.464; 4219.100;  223.125;    0.000
603.587; 4238.100;  250.125;    0.000
603.709; 4127.100;  229.125;    0.000
603.832; 4154.100;  285.125;    0.000
603.955; 4206.100;  225.125;    0.000
604.077; 4119.100;  235.125;    0.000
604.200; 4207.100;  209.125;    0.000
604.323; 4145.100;  240.125;    0.000
604.445; 4119.100;  198.125;    0.000
604.568; 4109.100;  230.125;    0.000
604.690; 4065.100;  225.125;    0.000
604.813; 4141.100;  248.125;    0.000
604.935; 4134.100;  204.125;    0.000
605.058; 4127.100;  191.125;    0.000
605.180; 4066.100;  237.125;    0.000
605.303; 4022.100;  224.125;    0.000
605.425; 4108.100;  244.125;    0.000
605.547; 4071.100;  268.125;    0.000
605.670; 3983.100;  211.125;    0.000
605.792; 4009.100;  266.125;    0.000
605.915; 3965.100;  202.125;    0.000
606.037; 3962.100;  236.125;    0.000
606.159; 3875.100;  234.125;    0.000
606.282; 3949.100;  223.125;    0.000
606.404; 3964.100;  217.125;    0.000
606.526; 3918.100;  221.125;    0.000
606.648; 3863.100;  204.125;    0.000
606.771; 3911.100;  265.125;    0.000
606.893; 3858.100;  211.125;    0.000
607.015; 3920.100;  206.125;    0.000
607.137; 3839.100;  222.125;    0.000
607.260; 3817.100;  228.125;    0.000
607.382; 3891.100;  202.125;    0.000
607.504; 3857.100;  257.125;    0.000
607.626; 3956.100;  249.125;    0.000
607.748; 3929.100;  233.125;    0.000
607.870; 3908.100;  222.125;    0.000
607.992; 3783.100;  227.125;    0.000
608.114; 3724.100;  228.125;    0.000
608.237; 3818.100;  254.125;    0.000
608.359; 3854.100;  216.125;    0.000
608.481; 3778.100;  197.125;    0.000
608.603; 3781.100;  209.125;    0.000
608.725; 3918.100;  220.125;    0.000
608.847; 3801.100;  259.125;    0.000
608.969; 3779.100;  242.125;    0.000
609.090; 3721.100;  218.125;    0.000
609.212; 3698.100;  200.125;    0.000
609.334; 3733.100;  212.125;    0.000
609.456; 3944.100;  231.125;    0.000
609.578; 3819.100;  249.125;    0.000
609.700; 3680.100;  185.125;    0.000
609.822; 3775.100;  200.125;    0.000
609.944; 3776.100;  236.125;    0.000
610.065; 3728.100;  255.125;    0.000
610.187; 3721.100;  208.125;    0.000
610.309; 3782.100;  202.125;    0.000
610.431; 3765.100;  232.125;    0.000
610.552; 3730.100;  232.125;    0.000
610.674; 3612.100;  217.125;    0.000
610.796; 3738.100;  186.125;    0.000
610.918; 3709.100;  211.125;    0.000
611.039; 3750.100;  244.125;    0.000
611.161; 3621.100;  202.125;    0.000
611.282; 3676.100;  212.125;    0.000
611.404; 3691.100;  235.125;    0.000
611.526; 3728.100;  213.125;    0.000
611.647; 3757.100;  248.125;    0.000
611.769; 3612.100;  205.125;    0.000
611.890; 3588.100;  224.125;    0.000
612.012; 3637.100;  189.125;    0.000
612.133; 3594.100;  186.125;    0.000
612.255; 3634.100;  246.125;    0.000
612.377; 3578.100;  230.125;    0.000
612.498; 3704.100;  196.125;    0.000
612.619; 3692.100;  234.125;    0.000
612.741; 3607.100;  221.125;    0.000
612.862; 3669.100;  227.125;    0.000
612.984; 3657.100;  189.125;    0.000
613.105; 3670.100;  232.125;    0.000
613.226; 3608.100;  199.125;    0.000
613.348; 3713.100;  260.125;    0.000
613.469; 3628.100;  217.125;    0.000
613.590; 3524.100;  236.125;    0.000
613.712; 3677.100;  226.125;    0.000
613.833; 3568.100;  231.125;    0.000
613.954; 3586.100;  236.125;    0.000
614.076; 3662.100;  236.125;    0.000
614.197; 3662.100;  228.125;    0.000
614.318; 3566.100;  207.125;    0.000
614.439; 3656.100;  237.125;    0.000
614.560; 3587.100;  202.125;    0.000
614.682; 3611.100;  230.125;    0.000
614.803; 3621.100;  236.125;    0.000
614.924; 3621.100;  257.125;    0.000
615.045; 3676.100;  228.125;    0.000
615.166; 3741.100;  221.125;    0.000
615.287; 3981.100;  199.125;    0.000
615.408; 4474.100;  228.125;    0.000
615.529; 4662.100;  200.125;    0.000
615.650; 4450.100;  224.125;    0.000
615.771; 4170.100;  202.125;    0.000
615.892; 4326.100;  215.125;    0.000
616.013; 5211.100;  246.125;    0.000
616.134; 5749.100;  210.125;    0.000
616.255; 5291.100;  232.125;    0.000
616.376; 4711.100;  241.125;    0.000
616.497; 4335.100;  213.125;    0.000
616.618; 4173.100;  171.125;    0.000
616.739; 4064.100;  221.125;    0.000
616.860; 3969.100;  244.125;    0.000
616.981; 3967.100;  240.125;    0.000
617.102; 3917.100;  234.125;    0.000
617.222; 3870.100;  265.125;    0.000
617.343; 3730.100;  206.125;    0.000
617.464; 3798.100;  246.125;    0.000
617.585; 3721.100;  256.125;    0.000
617.705; 3692.100;  249.125;    0.000
617.826; 3659.100;  218.125;    0.000
617.947; 3767.100;  225.125;    0.000
618.068; 3617.100;  199.125;    0.000
618.188; 3704.100;  202.125;    0.000
618.309; 3608.100;  220.125;    0.000
618.430; 3523.100;  229.125;    0.000
618.550; 3587.100;  252.125;    0.000
618.671; 3574.100;  233.125;    0.000
618.791; 3632.100;  227.125;    0.000
618.912; 3570.100;  236.125;    0.000
619.033; 3603.100;  220.125;    0.000
619.153; 3517.100;  228.125;    0.000
619.274; 3493.100;  208.125;    0.000
619.394; 3480.100;  255.125;    0.000
619.515; 3353.100;  206.125;    0.000
619.635; 3437.100;  204.125;    0.000
619.756; 3550.100;  252.125;    0.000
619.876; 3500.100;  238.125;    0.000
619.996; 3462.100;  249.125;    0.000
620.117; 3624.100;  223.125;    0.000
620.237; 3540.100;  210.125;    0.000
620.358; 3449.100;  264.125;    0.000
620.478; 3470.100;  263.125;    0.000
620.598; 3525.100;  238.125;    0.000
620.719; 3366.100;  225.125;    0.000
620.839; 3504.100;  259.125;    0.000
620.959; 3408.100;  218.125;    0.000
621.079; 3317.100;  253.125;    0.000
621.200; 3416.100;  245.125;    0.000
621.320; 3413.100;  254.125;    0.000
621.440; 3456.100;  233.125;    0.000
621.560; 3262.100;  235.125;    0.000
621.681; 3402.100;  234.125;    0.000
621.801; 3422.100;  240.125;    0.000
621.921; 3448.100;  239.125;    0.000
622.041; 3368.100;  288.125;    0.000
622.161; 3387.100;  229.125;    0.000
622.281; 3363.100;  223.125;    0.000
622.401; 3425.100;  240.125;    0.000
622.521; 3278.100;  267.125;    0.000
622.641; 3332.100;  226.125;    0.000
622.761; 3353.100;  252.125;    0.000
622.882; 3219.100;  207.125;    0.000
623.002; 3324.100;  226.125;    0.000
623.121; 3233.100;  207.125;    0.000
623.241; 3374.100;  215.125;    0.000
623.361; 3320.100;  222.125;    0.000
623.481; 3217.100;  187.125;    0.000
623.601; 3374.100;  283.125;    0.000
623.721; 3368.100;  283.125;    0.000
623.841; 3291.100;  233.125;    0.000
623.961; 3310.100;  215.125;    0.000
624.081; 3258.100;  219.125;    0.000
624.201; 3261.100;  221.125;    0.000
624.320; 3280.100;  215.125;    0.000
624.440; 3149.100;  222.125;    0.000
624.560; 3285.100;  231.125;    0.000
624.680; 3249.100;  225.125;    0.000
624.799; 3194.100;  230.125;    0.000
624.919; 3184.100;  243.125;    0.000
625.039; 3230.100;  203.125;    0.000
625.159; 3290.100;  257.125;    0.000
625.278; 3232.100;  230.125;    0.000
625.398; 3195.100;  195.125;    0.000
625.518; 3282.100;  211.125;    0.000
625.637; 3259.100;  267.125;    0.000
625.757; 3223.100;  228.125;    0.000
625.876; 3138.100;  231.125;    0.000
625.996; 3203.100;  219.125;    0.000
626.115; 3207.100;  235.125;    0.000
626.235; 3191.100;  199.125;    0.000
626.354; 3151.100;  226.125;    0.000
626.474; 3145.100;  225.125;    0.000
626.594; 3251.100;  223.125;    0.000
626.713; 3137.100;  231.125;    0.000
626.832; 3181.100;  287.125;    0.000
626.952; 3205.100;  251.125;    0.000
627.071; 3160.100;  254.125;    0.000
627.191; 3063.100;  193.125;    0.000
627.310; 3178.100;  213.125;    0.000
627.429; 3220.100;  259.125;    0.000
627.549; 3090.100;  243.125;    0.000
627.668; 3032.100;  181.125;    0.000
627.787; 3183.100;  232.125;    0.000
627.907; 3187.100;  222.125;    0.000
628.026; 3082.100;  219.125;    0.000
628.145; 3063.100;  201.125;    0.000
628.264; 3076.100;  198.125;    0.000
628.384; 3179.100;  208.125;    0.000
628.503; 3139.100;  251.125;    0.000
628.622; 3135.100;  195.125;    0.000
628.741; 3111.100;  180.125;    0.000
628.860; 3190.100;  235.125;    0.000
628.980; 3115.100;  222.125;    0.000
629.099; 3129.100;  237.125;    0.000
629.218; 3015.100;  175.125;    0.000
629.337; 3097.100;  194.125;    0.000
629.456; 3103.100;  225.125;    0.000
629.575; 3057.100;  239.125;    0.000
629.694; 3170.100;  230.125;    0.000
629.813; 3129.100;  197.125;    0.000
629.932; 3068.100;  225.125;    0.000
630.051; 3127.100;  238.125;    0.000
630.170; 3058.100;  233.125;    0.000
630.289; 3021.100;  231.125;    0.000
630.408; 3056.100;  204.125;    0.000
630.527; 3130.100;  262.125;    0.000
630.646; 3049.100;  181.125;    0.000
630.764; 3003.100;  218.125;    0.000
630.883; 3092.100;  215.125;    0.000
631.002; 3082.100;  224.125;    0.000
631.121; 3127.100;  209.125;    0.000
631.240; 3064.100;  230.125;    0.000
631.359; 3143.100;  235.125;    0.000
631.477; 3118.100;  223.125;    0.000
631.596; 3031.100;  218.125;    0.000
631.715; 3049.100;  234.125;    0.000
631.834; 3018.100;  215.125;    0.000
631.952; 3053.100;  243.125;    0.000
632.071; 3041.100;  219.125;    0.000
632.190; 2941.100;  235.125;    0.000
632.308; 3080.100;  239.125;    0.000
632.427; 3085.100;  211.125;    0.000
632.546; 3010.100;  233.125;    0.000
632.664; 3018.100;  219.125;    0.000
632.783; 2992.100;  203.125;    0.000
632.901; 3054.100;  221.125;    0.000
633.020; 2984.100;  197.125;    0.000
633.138; 2979.100;  244.125;    0.000
633.257; 3039.100;  205.125;    0.000
633.375; 3012.100;  245.125;    0.000
633.494; 2961.100;  218.125;    0.000
633.612; 2964.100;  222.125;    0.000
633.731; 2939.100;  212.125;    0.000
633.849; 2971.100;  218.125;    0.000
633.968; 3062.100;  236.125;    0.000
634.086; 2962.100;  233.125;    0.000
634.204; 3008.100;  215.125;    0.000
634.323; 2965.100;  230.125;    0.000
634.441; 2979.100;  235.125;    0.000
634.559; 3009.100;  202.125;    0.000
634.678; 2931.100;  218.125;    0.000
634.796; 2940.100;  203.125;    0.000
634.914; 3066.100;  227.125;    0.000
635.032; 3059.100;  279.125;    0.000
635.151; 2916.100;  221.125;    0.000
635.269; 2845.100;  207.125;    0.000
635.387; 2994.100;  195.125;    0.000
635.505; 2983.100;  243.125;    0.000
635.623; 2949.100;  269.125;    0.000
635.742; 2932.100;  232.125;    0.000
635.860; 2994.100;  243.125;    0.000
635.978; 2939.100;  215.125;    0.000
636.096; 2817.100;  225.125;    0.000
636.214; 2916.100;  244.125;    0.000
636.332; 2888.100;  226.125;    0.000
636.450; 2997.100;  227.125;    0.000
636.568; 2785.100;  225.125;    0.000
636.686; 2878.100;  194.125;    0.000
636.804; 2956.100;  234.125;    0.000
636.922; 2908.100;  177.125;    0.000
637.040; 2938.100;  225.125;    0.000
637.158; 2906.100;  194.125;    0.000
637.276; 2949.100;  219.125;    0.000
637.394; 2928.100;  219.125;    0.000
637.512; 2952.100;  210.125;    0.000
637.629; 2951.100;  242.125;    0.000
637.747; 2807.100;  193.125;    0.000
637.865; 2788.100;  219.125;    0.000
637.983; 2890.100;  251.125;    0.000
638.101; 2844.100;  221.125;    0.000
638.218; 2859.100;  193.125;    0.000
638.336; 2885.100;  224.125;    0.000
638.454; 2894.100;  227.125;    0.000
638.572; 2849.100;  245.125;    0.000
638.689; 2886.100;  222.125;    0.000
638.807; 2925.100;  244.125;    0.000
638.925; 2928.100;  238.125;    0.000
639.042; 2783.100;  213.125;    0.000
639.160; 2890.100;  186.125;    0.000
639.278; 2853.100;  203.125;    0.000
639.395; 2806.100;  270.125;    0.000
639.513; 2806.100;  227.125;    0.000
639.630; 2875.100;  200.125;    0.000
639.748; 2801.100;  199.125;    0.000
639.865; 2918.100;  233.125;    0.000
639.983; 2765.100;  181.125;    0.000
640.100; 2821.100;  219.125;    0.000
640.218; 2869.100;  234.125;    0.000
640.335; 2812.100;  233.125;    0.000
640.453; 2839.100;  202.125;    0.000
640.570; 2758.100;  214.125;    0.000
640.688; 2792.100;  215.125;    0.000
640.805; 2812.100;  229.125;    0.000
640.922; 2880.100;  244.125;    0.000
641.040; 2829.100;  233.125;    0.000
641.157; 2829.100;  199.125;    0.000
641.274; 2780.100;  205.125;    0.000
641.391; 2820.100;  244.125;    0.000
641.509; 2778.100;  184.125;    0.000
641.626; 2742.100;  244.125;    0.000
641.743; 2892.100;  221.125;    0.000
641.860; 2762.100;  206.125;    0.000
641.978; 2786.100;  272.125;    0.000
642.095; 2783.100;  218.125;    0.000
642.212; 2805.100;  208.125;    0.000
642.329; 2856.100;  218.125;    0.000
642.446; 2775.100;  197.125;    0.000
642.563; 2809.100;  214.125;    0.000
642.681; 2775.100;  203.125;    0.000
642.798; 2848.100;  236.125;    0.000
642.915; 2826.100;  191.125;    0.000
643.032; 2797.100;  226.125;    0.000
643.149; 2784.100;  231.125;    0.000
643.266; 2723.100;  213.125;    0.000
643.383; 2788.100;  240.125;    0.000
643.500; 2789.100;  185.125;    0.000
643.617; 2774.100;  229.125;    0.000
643.734; 2818.100;  205.125;    0.000
643.850; 2755.100;  222.125;    0.000
643.967; 2710.100;  202.125;    0.000
644.084; 2816.100;  264.125;    0.000
644.201; 2793.100;  214.125;    0.000
644.318; 2791.100;  206.125;    0.000
644.435; 2707.100;  225.125;    0.000
644.552; 2803.100;  203.125;    0.000
644.668; 2808.100;  252.125;    0.000
644.785; 2768.100;  213.125;    0.000
644.902; 2817.100;  233.125;    0.000
645.019; 2883.100;  220.125;    0.000
645.135; 2767.100;  225.125;    0.000
645.252; 2832.100;  218.125;    0.000
645.369; 2848.100;  214.125;    0.000
645.485; 2828.100;  210.125;    0.000
645.602; 2777.100;  198.125;    0.000
645.719; 2823.100;  228.125;    0.000
645.835; 2882.100;  209.125;    0.000
645.952; 2846.100;  213.125;    0.000
646.068; 2890.100;  241.125;    0.000
646.185; 2730.100;  219.125;    0.000
646.302; 2809.100;  246.125;    0.000
646.418; 2925.100;  228.125;    0.000
646.535; 2875.100;  256.125;    0.000
646.651; 2893.100;  222.125;    0.000
646.768; 2857.100;  203.125;    0.000
646.884; 2922.100;  199.125;    0.000
647.000; 2912.100;  194.125;    0.000
647.117; 2829.100;  214.125;    0.000
647.233; 2956.100;  209.125;    0.000
647.350; 2988.100;  235.125;    0.000
647.466; 2881.100;  237.125;    0.000
647.582; 2976.100;  231.125;    0.000
647.699; 3036.100;  219.125;    0.000
647.815; 2982.100;  200.125;    0.000
647.931; 2932.100;  173.125;    0.000
648.047; 2904.100;  184.125;    0.000
648.164; 3038.100;  199.125;    0.000
648.280; 2936.100;  209.125;    0.000
648.396; 2977.100;  220.125;    0.000
648.512; 2900.100;  212.125;    0.000
648.629; 2922.100;  214.125;    0.000
648.745; 2971.100;  197.125;    0.000
648.861; 2972.100;  228.125;    0.000
648.977; 2996.100;  238.125;    0.000
649.093; 2906.100;  208.125;    0.000
649.209; 2963.100;  179.125;    0.000
649.325; 2959.100;  256.125;    0.000
649.441; 2966.100;  224.125;    0.000
649.557; 3042.100;  247.125;    0.000
649.673; 2931.100;  214.125;    0.000
649.789; 3013.100;  213.125;    0.000
649.905; 2803.100;  170.125;    0.000
650.021; 3035.100;  236.125;    0.000
650.137; 2979.100;  229.125;    0.000
650.253; 3087.100;  207.125;    0.000
650.369; 2968.100;  198.125;    0.000
650.485; 2983.100;  225.125;    0.000
650.601; 3003.100;  260.125;    0.000
650.717; 2955.100;  196.125;    0.000
650.833; 3019.100;  219.125;    0.000
650.948; 3030.100;  203.125;    0.000
651.064; 3025.100;  232.125;    0.000
651.180; 2969.100;  252.125;    0.000
651.296; 2933.100;  190.125;    0.000
651.411; 2987.100;  235.125;    0.000
651.527; 2957.100;  227.125;    0.000
651.643; 3014.100;  238.125;    0.000
651.759; 3016.100;  260.125;    0.000
651.874; 3036.100;  217.125;    0.000
651.990; 3079.100;  239.125;    0.000
652.105; 2974.100;  215.125;    0.000
652.221; 3159.100;  237.125;    0.000
652.337; 3060.100;  238.125;    0.000
652.452; 3042.100;  230.125;    0.000
652.568; 3059.100;  201.125;    0.000
652.683; 3217.100;  243.125;    0.000
652.799; 3195.100;  218.125;    0.000
652.914; 3240.100;  189.125;    0.000
653.030; 3155.100;  191.125;    0.000
653.145; 3235.100;  240.125;    0.000
653.261; 3204.100;  225.125;    0.000
653.376; 3243.100;  241.125;    0.000
653.492; 3242.100;  188.125;    0.000
653.607; 3277.100;  219.125;    0.000
653.722; 3413.100;  268.125;    0.000
653.838; 3380.100;  262.125;    0.000
653.953; 3421.100;  188.125;    0.000
654.068; 3487.100;  244.125;    0.000
654.184; 3548.100;  247.125;    0.000
654.299; 3592.100;  228.125;    0.000
654.414; 3614.100;  181.125;    0.000
654.530; 3618.100;  210.125;    0.000
654.645; 3665.100;  240.125;    0.000
654.760; 3736.100;  219.125;    0.000
654.875; 3804.100;  178.125;    0.000
654.990; 3943.100;  222.125;    0.000
655.106; 3935.100;  227.125;    0.000
655.221; 3998.100;  270.125;    0.000
655.336; 4086.100;  199.125;    0.000
655.451; 4236.100;  235.125;    0.000
655.566; 4301.100;  251.125;    0.000
655.681; 4467.100;  253.125;    0.000
655.796; 4579.100;  207.125;    0.000
655.911; 4811.100;  213.125;    0.000
656.026; 5074.100;  247.125;    0.000
656.141; 5074.100;  209.125;    0.000
656.256; 5285.100;  226.125;    0.000
656.371; 5373.100;  201.125;    0.000
656.486; 5331.100;  196.125;    0.000
656.601; 5325.100;  239.125;    0.000
656.716; 5139.100;  234.125;    0.000
656.831; 4950.100;  223.125;    0.000
656.946; 4906.100;  246.125;    0.000
657.060; 4777.100;  230.125;    0.000
657.175; 4594.100;  207.125;    0.000
657.290; 4581.100;  213.125;    0.000
657.405; 4461.100;  319.125;    0.000
657.520; 4389.100;  241.125;    0.000
657.634; 4280.100;  235.125;    0.000
657.749; 4205.100;  275.125;    0.000
657.864; 4114.100;  210.125;    0.000
657.979; 3948.100;  227.125;    0.000
658.093; 3972.100;  206.125;    0.000
658.208; 3918.100;  217.125;    0.000
658.323; 3816.100;  227.125;    0.000
658.437; 3765.100;  217.125;    0.000
658.552; 3750.100;  237.125;    0.000
658.666; 3714.100;  233.125;    0.000
658.781; 3649.100;  248.125;    0.000
658.895; 3608.100;  233.125;    0.000
659.010; 3614.100;  238.125;    0.000
659.125; 3519.100;  206.125;    0.000
659.239; 3509.100;  220.125;    0.000
659.353; 3326.100;  236.125;    0.000
659.468; 3384.100;  238.125;    0.000
659.582; 3369.100;  275.125;    0.000
659.697; 3359.100;  239.125;    0.000
659.811; 3332.100;  232.125;    0.000
659.926; 3259.100;  230.125;    0.000
660.040; 3324.100;  257.125;    0.000
660.154; 3286.100;  221.125;    0.000
660.269; 3215.100;  219.125;    0.000
660.383; 3256.100;  228.125;    0.000
660.497; 3255.100;  243.125;    0.000
660.612; 3166.100;  238.125;    0.000
660.726; 3143.100;  260.125;    0.000
660.840; 3155.100;  239.125;    0.000
660.954; 3146.100;  236.125;    0.000
661.068; 3147.100;  239.125;    0.000
661.183; 3157.100;  245.125;    0.000
661.297; 2939.100;  198.125;    0.000
661.411; 3053.100;  203.125;    0.000
661.525; 2967.100;  244.125;    0.000
661.639; 3037.100;  229.125;    0.000
661.753; 2954.100;  238.125;    0.000
661.867; 2987.100;  237.125;    0.000
661.981; 2916.100;  219.125;    0.000
662.095; 2919.100;  232.125;    0.000
662.209; 2850.100;  236.125;    0.000
662.323; 2735.100;  209.125;    0.000
662.437; 2797.100;  206.125;    0.000
662.551; 2808.100;  217.125;    0.000
662.665; 2817.100;  262.125;    0.000
662.779; 2803.100;  234.125;    0.000
662.893; 2687.100;  222.125;    0.000
663.007; 2802.100;  189.125;    0.000
663.121; 2766.100;  258.125;    0.000
663.235; 2744.100;  191.125;    0.000
663.349; 2647.100;  259.125;    0.000
663.462; 2703.100;  209.125;    0.000
663.576; 2711.100;  244.125;    0.000
663.690; 2793.100;  237.125;    0.000
663.804; 2642.100;  205.125;    0.000
663.917; 2641.100;  207.125;    0.000
664.031; 2645.100;  234.125;    0.000
664.145; 2701.100;  216.125;    0.000
664.258; 2540.100;  202.125;    0.000
664.372; 2583.100;  198.125;    0.000
664.486; 2558.100;  181.125;    0.000
664.599; 2562.100;  229.125;    0.000
664.713; 2574.100;  266.125;    0.000
664.827; 2540.100;  185.125;    0.000
664.940; 2501.100;  225.125;    0.000
665.054; 2537.100;  198.125;    0.000
665.167; 2521.100;  208.125;    0.000
665.281; 2537.100;  231.125;    0.000
665.394; 2436.100;  228.125;    0.000
665.508; 2532.100;  204.125;    0.000
665.621; 2594.100;  263.125;    0.000
665.735; 2620.100;  222.125;    0.000
665.848; 2546.100;  237.125;    0.000
665.961; 2406.100;  180.125;    0.000
666.075; 2460.100;  212.125;    0.000
666.188; 2493.100;  229.125;    0.000
666.301; 2430.100;  247.125;    0.000
666.415; 2461.100;  212.125;    0.000
666.528; 2455.100;  268.125;    0.000
666.641; 2452.100;  210.125;    0.000
666.755; 2490.100;  178.125;    0.000
666.868; 2453.100;  227.125;    0.000
666.981; 2460.100;  250.125;    0.000
667.094; 2385.100;  228.125;    0.000
667.207; 2478.100;  235.125;    0.000
667.321; 2337.100;  171.125;    0.000
667.434; 2364.100;  191.125;    0.000
667.547; 2464.100;  279.125;    0.000
667.660; 2386.100;  210.125;    0.000
667.773; 2479.100;  217.125;    0.000
667.886; 2442.100;  209.125;    0.000
667.999; 2462.100;  239.125;    0.000
668.112; 2340.100;  227.125;    0.000
668.225; 2351.100;  185.125;    0.000
668.338; 2341.100;  222.125;    0.000
668.451; 2331.100;  200.125;    0.000
668.564; 2339.100;  237.125;    0.000
668.677; 2292.100;  207.125;    0.000
668.790; 2295.100;  208.125;    0.000
668.903; 2386.100;  243.125;    0.000
669.016; 2325.100;  190.125;    0.000
669.129; 2317.100;  234.125;    0.000
669.242; 2276.100;  185.125;    0.000
669.354; 2281.100;  224.125;    0.000
669.467; 2263.100;  219.125;    0.000
669.580; 2288.100;  249.125;    0.000
669.693; 2308.100;  187.125;    0.000
669.806; 2222.100;  206.125;    0.000
669.918; 2326.100;  192.125;    0.000
670.031; 2261.100;  235.125;    0.000
670.144; 2324.100;  238.125;    0.000
670.256; 2260.100;  237.125;    0.000
670.369; 2269.100;  237.125;    0.000
670.482; 2231.100;  250.125;    0.000
670.594; 2240.100;  273.125;    0.000
670.707; 2230.100;  223.125;    0.000
670.820; 2244.100;  238.125;    0.000
670.932; 2204.100;  224.125;    0.000
671.045; 2287.100;  219.125;    0.000
671.157; 2274.100;  242.125;    0.000
671.270; 2207.100;  235.125;    0.000
671.382; 2238.100;  213.125;    0.000
671.495; 2186.100;  254.125;    0.000
671.607; 2177.100;  253.125;    0.000
671.720; 2177.100;  169.125;    0.000
671.832; 2155.100;  201.125;    0.000
671.944; 2213.100;  250.125;    0.000
672.057; 2271.100;  187.125;    0.000
672.169; 2234.100;  224.125;    0.000
672.281; 2214.100;  238.125;    0.000
672.394; 2201.100;  250.125;    0.000
672.506; 2190.100;  227.125;    0.000
672.618; 2157.100;  223.125;    0.000
672.731; 2245.100;  210.125;    0.000
672.843; 2211.100;  245.125;    0.000
672.955; 2252.100;  263.125;    0.000
673.067; 2131.100;  239.125;    0.000
673.180; 2216.100;  253.125;    0.000
673.292; 2272.100;  243.125;    0.000
673.404; 2171.100;  226.125;    0.000
673.516; 2214.100;  223.125;    0.000
673.628; 2189.100;  223.125;    0.000
673.740; 2168.100;  216.125;    0.000
673.852; 2242.100;  277.125;    0.000
673.964; 2219.100;  211.125;    0.000
674.076; 2165.100;  241.125;    0.000
674.188; 2132.100;  251.125;    0.000
674.300; 2242.100;  268.125;    0.000
674.412; 2163.100;  260.125;    0.000
674.524; 2237.100;  257.125;    0.000
674.636; 2226.100;  222.125;    0.000
674.748; 2168.100;  227.125;    0.000
674.860; 2125.100;  250.125;    0.000
674.972; 2171.100;  240.125;    0.000
675.084; 2184.100;  262.125;    0.000
675.196; 2191.100;  287.125;    0.000
675.307; 2210.100;  257.125;    0.000
675.419; 2186.100;  231.125;    0.000
675.531; 2193.100;  274.125;    0.000
675.643; 2144.100;  235.125;    0.000
675.755; 2059.100;  275.125;    0.000
675.866; 2091.100;  238.125;    0.000
675.978; 2093.100;  209.125;    0.000
676.090; 2118.100;  239.125;    0.000
676.201; 2152.100;  249.125;    0.000
676.313; 2063.100;  237.125;    0.000
676.425; 2065.100;  263.125;    0.000
676.536; 2106.100;  178.125;    0.000
676.648; 2085.100;  245.125;    0.000
676.759; 2174.100;  244.125;    0.000
676.871; 2133.100;  242.125;    0.000
676.983; 2114.100;  245.125;    0.000
677.094; 2111.100;  209.125;    0.000
677.206; 2156.100;  248.125;    0.000
677.317; 2071.100;  260.125;    0.000
677.429; 2098.100;  237.125;    0.000
677.540; 2043.100;  226.125;    0.000
677.651; 2057.100;  226.125;    0.000
677.763; 2058.100;  194.125;    0.000
677.874; 2057.100;  230.125;    0.000
677.986; 2105.100;  202.125;    0.000
678.097; 1993.100;  229.125;    0.000
678.208; 2118.100;  263.125;    0.000
678.320; 2065.100;  243.125;    0.000
678.431; 2114.100;  229.125;    0.000
678.542; 2066.100;  231.125;    0.000
678.653; 2032.100;  224.125;    0.000
678.765; 2033.100;  255.125;    0.000
678.876; 2032.100;  175.125;    0.000
678.987; 1989.100;  204.125;    0.000
679.098; 2033.100;  227.125;    0.000
679.209; 2044.100;  228.125;    0.000
679.320; 2036.100;  223.125;    0.000
679.432; 1932.100;  219.125;    0.000
679.543; 1958.100;  210.125;    0.000
679.654; 2030.100;  249.125;    0.000
679.765; 1990.100;  222.125;    0.000
679.876; 2014.100;  219.125;    0.000
679.987; 1932.100;  213.125;    0.000
680.098; 1969.100;  237.125;    0.000
680.209; 1935.100;  188.125;    0.000
680.320; 1929.100;  243.125;    0.000
680.431; 2003.100;  227.125;    0.000
680.542; 2004.100;  212.125;    0.000
680.653; 2060.100;  266.125;    0.000
680.763; 1923.100;  198.125;    0.000
680.874; 1976.100;  211.125;    0.000
680.985; 1983.100;  207.125;    0.000
681.096; 1958.100;  244.125;    0.000
681.207; 1936.100;  209.125;    0.000
681.318; 1961.100;  215.125;    0.000
681.428; 1990.100;  199.125;    0.000
681.539; 1891.100;  175.125;    0.000
681.650; 1955.100;  224.125;    0.000
681.760; 2010.100;  216.125;    0.000
681.871; 2070.100;  187.125;    0.000
681.982; 1993.100;  237.125;    0.000
682.093; 2021.100;  213.125;    0.000
682.203; 1937.100;  190.125;    0.000
682.314; 2011.100;  230.125;    0.000
682.424; 1989.100;  223.125;    0.000
682.535; 1972.100;  172.125;    0.000
682.646; 1970.100;  268.125;    0.000
682.756; 1934.100;  249.125;    0.000
682.867; 1997.100;  225.125;    0.000
682.977; 1984.100;  211.125;    0.000
683.088; 1990.100;  238.125;    0.000
683.198; 1923.100;  202.125;    0.000
683.308; 1911.100;  196.125;    0.000
683.419; 1980.100;  230.125;    0.000
683.529; 1922.100;  213.125;    0.000
683.640; 2039.100;  225.125;    0.000
683.750; 1877.100;  203.125;    0.000
683.860; 1943.100;  200.125;    0.000
683.971; 2004.100;  269.125;    0.000
684.081; 1909.100;  204.125;    0.000
684.191; 1931.100;  228.125;    0.000
684.301; 1954.100;  219.125;    0.000
684.412; 1897.100;  222.125;    0.000
684.522; 2032.100;  242.125;    0.000
684.632; 1908.100;  234.125;    0.000
684.742; 1961.100;  240.125;    0.000
684.852; 1891.100;  229.125;    0.000
684.963; 1946.100;  237.125;    0.000
685.073; 1990.100;  205.125;    0.000
685.183; 1992.100;  241.125;    0.000
685.293; 1930.100;  202.125;    0.000
685.403; 1945.100;  232.125;    0.000
685.513; 1911.100;  244.125;    0.000
685.623; 1941.100;  224.125;    0.000
685.733; 1928.100;  236.125;    0.000
685.843; 1945.100;  235.125;    0.000
685.953; 1998.100;  216.125;    0.000
686.063; 1951.100;  214.125;    0.000
686.173; 1902.100;  198.125;    0.000
686.283; 1910.100;  250.125;    0.000
686.393; 1960.100;  227.125;    0.000
686.503; 1919.100;  244.125;    0.000
686.612; 1967.100;  247.125;    0.000
686.722; 1973.100;  265.125;    0.000
686.832; 1987.100;  213.125;    0.000
686.942; 1980.100;  241.125;    0.000
687.052; 1985.100;  238.125;    0.000
687.161; 2015.100;  233.125;    0.000
687.271; 1968.100;  232.125;    0.000
687.381; 1873.100;  220.125;    0.000
687.491; 1876.100;  206.125;    0.000
687.600; 2008.100;  283.125;    0.000
687.710; 1891.100;  212.125;    0.000
687.820; 1872.100;  226.125;    0.000
687.929; 2032.100;  202.125;    0.000
688.039; 1948.100;  225.125;    0.000
688.148; 1910.100;  235.125;    0.000
688.258; 1905.100;  224.125;    0.000
688.367; 1968.100;  239.125;    0.000
688.477; 1816.100;  193.125;    0.000
688.586; 1832.100;  226.125;    0.000
688.696; 1967.100;  185.125;    0.000
688.805; 1968.100;  190.125;    0.000
688.915; 1946.100;  209.125;    0.000
689.024; 1906.100;  214.125;    0.000
689.134; 1854.100;  205.125;    0.000
689.243; 1931.100;  190.125;    0.000
689.352; 1992.100;  233.125;    0.000
689.462; 1903.100;  196.125;    0.000
689.571; 1879.100;  227.125;    0.000
689.680; 1867.100;  206.125;    0.000
689.790; 1879.100;  193.125;    0.000
689.899; 1872.100;  204.125;    0.000
690.008; 1855.100;  228.125;    0.000
690.117; 1965.100;  207.125;    0.000
690.227; 1931.100;  231.125;    0.000
690.336; 1903.100;  222.125;    0.000
690.445; 1892.100;  198.125;    0.000
690.554; 1901.100;  202.125;    0.000
690.663; 1886.100;  217.125;    0.000
690.772; 1879.100;  213.125;    0.000
690.881; 1973.100;  225.125;    0.000
690.990; 1894.100;  217.125;    0.000
691.099; 1860.100;  205.125;    0.000
691.209; 1843.100;  220.125;    0.000
691.318; 1849.100;  216.125;    0.000
691.427; 1790.100;  188.125;    0.000
691.536; 1849.100;  224.125;    0.000
691.644; 1830.100;  212.125;    0.000
691.753; 1909.100;  216.125;    0.000
691.862; 1938.100;  250.125;    0.000
691.971; 1851.100;  210.125;    0.000
692.080; 1928.100;  232.125;    0.000
692.189; 1927.100;  218.125;    0.000
692.298; 1928.100;  220.125;    0.000
692.406; 1943.100;  261.125;    0.000
692.515; 1961.100;  253.125;    0.000
692.624; 1844.100;  224.125;    0.000
692.733; 1867.100;  209.125;    0.000
692.842; 1806.100;  214.125;    0.000
692.950; 1913.100;  206.125;    0.000
693.059; 1822.100;  180.125;    0.000
693.168; 1928.100;  220.125;    0.000
693.276; 1827.100;  196.125;    0.000
693.385; 1843.100;  203.125;    0.000
693.494; 1876.100;  263.125;    0.000
693.602; 1861.100;  222.125;    0.000
693.711; 1832.100;  178.125;    0.000
693.819; 1937.100;  230.125;    0.000
693.928; 1909.100;  187.125;    0.000
694.036; 1824.100;  219.125;    0.000
694.145; 1844.100;  223.125;    0.000
694.253; 1876.100;  241.125;    0.000
694.362; 1894.100;  229.125;    0.000
694.470; 1910.100;  223.125;    0.000
694.579; 1902.100;  195.125;    0.000
694.687; 1916.100;  257.125;    0.000
694.795; 1836.100;  230.125;    0.000
694.904; 1841.100;  196.125;    0.000
695.012; 1871.100;  247.125;    0.000
695.120; 1795.100;  215.125;    0.000
695.229; 1900.100;  244.125;    0.000
695.337; 1862.100;  197.125;    0.000
695.445; 1950.100;  270.125;    0.000
695.553; 1873.100;  241.125;    0.000
695.662; 1869.100;  249.125;    0.000
695.770; 1906.100;  244.125;    0.000
695.878; 1871.100;  236.125;    0.000
695.986; 1905.100;  253.125;    0.000
696.094; 1864.100;  242.125;    0.000
696.202; 1766.100;  174.125;    0.000
696.310; 1851.100;  230.125;    0.000
696.419; 1827.100;  218.125;    0.000
696.527; 1862.100;  226.125;    0.000
696.635; 1818.100;  217.125;    0.000
696.743; 1873.100;  221.125;    0.000
696.851; 1901.100;  259.125;    0.000
696.959; 1941.100;  245.125;    0.000
697.067; 1837.100;  235.125;    0.000
697.174; 1865.100;  238.125;    0.000
697.282; 1900.100;  208.125;    0.000
697.390; 1900.100;  265.125;    0.000
697.498; 1868.100;  202.125;    0.000
697.606; 1826.100;  219.125;    0.000
697.714; 1942.100;  245.125;    0.000
697.822; 1846.100;  222.125;    0.000
697.929; 1858.100;  194.125;    0.000
698.037; 1876.100;  223.125;    0.000
698.145; 1835.100;  213.125;    0.000
698.253; 1845.100;  234.125;    0.000
698.360; 1931.100;  211.125;    0.000
698.468; 1897.100;  241.125;    0.000
698.576; 1886.100;  249.125;    0.000
698.683; 1949.100;  268.125;    0.000
698.791; 1844.100;  223.125;    0.000
698.899; 1883.100;  251.125;    0.000
699.006; 1846.100;  216.125;    0.000
699.114; 1877.100;  256.125;    0.000
699.221; 1864.100;  226.125;    0.000
699.329; 1876.100;  255.125;    0.000
699.436; 1771.100;  213.125;    0.000
699.544; 1871.100;  258.125;    0.000
699.651; 1798.100;  214.125;    0.000
699.759; 1842.100;  229.125;    0.000
699.866; 1802.100;  239.125;    0.000
699.974; 1805.100;  224.125;    0.000
700.081; 1837.100;  227.125;    0.000
700.188; 1813.100;  267.125;    0.000
700.296; 1839.100;  222.125;    0.000
700.403; 1845.100;  225.125;    0.000
700.510; 1794.100;  248.125;    0.000
700.618; 1760.100;  223.125;    0.000
700.725; 1824.100;  243.125;    0.000
700.832; 1797.100;  239.125;    0.000
700.940; 1796.100;  284.125;    0.000
701.047; 1829.100;  216.125;    0.000
701.154; 1794.100;  249.125;    0.000
701.261; 1846.100;  229.125;    0.000
701.368; 1832.100;  247.125;    0.000
701.475; 1870.100;  208.125;    0.000
701.582; 1852.100;  262.125;    0.000
701.690; 1817.100;  224.125;    0.000
701.797; 1877.100;  294.125;    0.000
701.904; 1928.100;  303.125;    0.000
702.011; 1953.100;  278.125;    0.000
702.118; 1934.100;  279.125;    0.000
702.225; 1894.100;  342.125;    0.000
702.332; 1896.100;  281.125;    0.000
702.439; 1880.100;  313.125;    0.000
702.546; 1956.100;  295.125;    0.000
702.652; 1869.100;  293.125;    0.000
702.759; 1899.100;  333.125;    0.000
702.866; 1868.100;  272.125;    0.000
702.973; 1896.100;  310.125;    0.000
703.080; 1910.100;  313.125;    0.000
703.187; 1856.100;  316.125;    0.000
703.294; 1903.100;  328.125;    0.000
703.400; 1710.100;  312.125;    0.000
703.507;  468.100;  349.125;    0.000
703.614;  317.100;  298.125;    0.000
703.720;  318.100;  300.125;    0.000
703.827;  339.100;  346.125;    0.000
703.934;  293.100;  308.125;    0.000
704.040;  286.100;  300.125;    0.000
704.147;  320.100;  317.125;    0.000
704.254;  319.100;  350.125;    0.000
704.360;  323.100;  285.125;    0.000
704.467;  316.100;  334.125;    0.000
704.573;  313.100;  330.125;    0.000
704.680;  322.100;  312.125;    0.000
704.786;  305.100;  305.125;    0.000
704.893;  337.100;  330.125;    0.000
704.999;  326.100;  315.125;    0.000
705.106;  304.100;  327.125;    0.000

