
Integration time [ms]:   0.300
Averaging Nr. [scans]: 1
Smoothing Nr. [pixels]: 0
Data measured with spectrometer [name]: UV2
Wave   ;Sample   ;Dark     ;Reference
[nm]   ;[counts] ;[counts] ;[counts] 

353.533;  209.350;  178.050;    0.000
353.597;  213.350;  251.050;    0.000
353.660;  212.350;  213.050;    0.000
353.723;  228.350;  185.050;    0.000
353.786;  154.350;  191.050;    0.000
353.850;  255.350;  238.050;    0.000
353.913;  173.350;  181.050;    0.000
353.976;  182.350;  190.050;    0.000
354.039;  190.350;  184.050;    0.000
354.102;  211.350;  231.050;    0.000
354.166;  208.350;  188.050;    0.000
354.229;  205.350;  224.050;    0.000
354.292;  203.350;  186.050;    0.000
354.355;  225.350;  175.050;    0.000
354.418;  186.350;  191.050;    0.000
354.481;  226.350;  181.050;    0.000
354.545;  693.350;  193.050;    0.000
354.608;  644.350;  210.050;    0.000
354.671;  659.350;  183.050;    0.000
354.734;  699.350;  189.050;    0.000
354.797;  725.350;  168.050;    0.000
354.860;  745.350;  178.050;    0.000
354.923;  726.350;  236.050;    0.000
354.986;  770.350;  181.050;    0.000
355.050;  780.350;  168.050;    0.000
355.113;  789.350;  201.050;    0.000
355.176;  747.350;  206.050;    0.000
355.239;  803.350;  213.050;    0.000
355.302;  805.350;  198.050;    0.000
355.365;  848.350;  199.050;    0.000
355.428;  825.350;  200.050;    0.000
355.491;  878.350;  232.050;    0.000
355.554;  822.350;  184.050;    0.000
355.617;  875.350;  214.050;    0.000
355.680;  776.350;  191.050;    0.000
355.743;  817.350;  161.050;    0.000
355.806;  847.350;  153.050;    0.000
355.869;  965.350;  221.050;    0.000
355.932;  872.350;  152.050;    0.000
355.995;  962.350;  195.050;    0.000
356.058;  929.350;  172.050;    0.000
356.121;  970.350;  186.050;    0.000
356.184;  933.350;  196.050;    0.000
356.247;  886.350;  183.050;    0.000
356.310;  901.350;  159.050;    0.000
356.373;  879.350;  183.050;    0.000
356.436;  933.350;  176.050;    0.000
356.498;  963.350;  191.050;    0.000
356.561;  925.350;  145.050;    0.000
356.624;  947.350;  187.050;    0.000
356.687;  908.350;  181.050;    0.000
356.750;  907.350;  227.050;    0.000
356.813;  962.350;  147.050;    0.000
356.876; 1011.350;  184.050;    0.000
356.939;  958.350;  141.050;    0.000
357.001;  938.350;  188.050;    0.000
357.064;  946.350;  173.050;    0.000
357.127;  959.350;  159.050;    0.000
357.190;  964.350;  185.050;    0.000
357.253;  977.350;  180.050;    0.000
357.316; 1017.350;  199.050;    0.000
357.378; 1005.350;  196.050;    0.000
357.441;  964.350;  175.050;    0.000
357.504; 1078.350;  164.050;    0.000
357.567;  899.350;  145.050;    0.000
357.629; 1031.350;  205.050;    0.000
357.692;  947.350;  175.050;    0.000
357.755; 1034.350;  205.050;    0.000
357.818;  915.350;  141.050;    0.000
357.880;  986.350;  170.050;    0.000
357.943; 1038.350;  152.050;    0.000
358.006; 1010.350;  145.050;    0.000
358.069; 1011.350;  164.050;    0.000
358.131;  966.350;  148.050;    0.000
358.194;  993.350;  122.050;    0.000
358.257; 1059.350;  147.050;    0.000
358.319; 1053.350;  156.050;    0.000
358.382;  992.350;  193.050;    0.000
358.445; 1005.350;  155.050;    0.000
358.507; 1073.350;  160.050;    0.000
358.570; 1010.350;  159.050;    0.000
358.633; 1011.350;  163.050;    0.000
358.695;  950.350;  174.050;    0.000
358.758; 1041.350;  127.050;    0.000
358.821; 1049.350;  165.050;    0.000
358.883;  991.350;  145.050;    0.000
358.946; 1074.350;  127.050;    0.000
359.008; 1059.350;  180.050;    0.000
359.071; 1017.350;  173.050;    0.000
359.134; 1033.350;  150.050;    0.000
359.196;  996.350;  158.050;    0.000
359.259; 1029.350;  159.050;    0.000
359.321; 1008.350;  159.050;    0.000
359.384; 1085.350;  182.050;    0.000
359.446; 1049.350;  140.050;    0.000
359.509; 1056.350;  146.050;    0.000
359.571; 1075.350;  133.050;    0.000
359.634; 1140.350;   93.050;    0.000
359.696; 1087.350;  142.050;    0.000
359.759; 1089.350;  161.050;    0.000
359.821; 1082.350;  110.050;    0.000
359.884; 1096.350;  114.050;    0.000
359.946; 1138.350;  180.050;    0.000
360.009; 1070.350;  158.050;    0.000
360.071; 1067.350;  116.050;    0.000
360.134; 1127.350;  170.050;    0.000
360.196; 1114.350;  128.050;    0.000
360.259; 1057.350;  157.050;    0.000
360.321; 1083.350;  122.050;    0.000
360.384; 1070.350;  119.050;    0.000
360.446; 1082.350;  122.050;    0.000
360.508; 1163.350;  195.050;    0.000
360.571; 1139.350;  128.050;    0.000
360.633; 1148.350;  172.050;    0.000
360.696; 1041.350;  115.050;    0.000
360.758; 1133.350;  162.050;    0.000
360.820; 1080.350;  149.050;    0.000
360.883; 1032.350;  151.050;    0.000
360.945; 1122.350;  149.050;    0.000
361.007; 1077.350;  135.050;    0.000
361.070; 1143.350;  162.050;    0.000
361.132; 1130.350;  198.050;    0.000
361.194; 1150.350;  141.050;    0.000
361.257; 1103.350;  154.050;    0.000
361.319; 1131.350;  147.050;    0.000
361.381; 1168.350;  154.050;    0.000
361.443; 1139.350;  144.050;    0.000
361.506; 1241.350;  164.050;    0.000
361.568; 1048.350;  148.050;    0.000
361.630; 1154.350;  127.050;    0.000
361.693; 1172.350;  158.050;    0.000
361.755; 1164.350;  161.050;    0.000
361.817; 1179.350;  173.050;    0.000
361.879; 1180.350;  159.050;    0.000
361.941; 1193.350;  153.050;    0.000
362.004; 1122.350;  148.050;    0.000
362.066; 1246.350;  150.050;    0.000
362.128; 1134.350;  132.050;    0.000
362.190; 1200.350;  207.050;    0.000
362.252; 1177.350;  142.050;    0.000
362.315; 1199.350;  153.050;    0.000
362.377; 1201.350;  164.050;    0.000
362.439; 1219.350;  155.050;    0.000
362.501; 1204.350;  157.050;    0.000
362.563; 1195.350;  188.050;    0.000
362.625; 1152.350;  194.050;    0.000
362.688; 1201.350;  159.050;    0.000
362.750; 1222.350;  205.050;    0.000
362.812; 1272.350;  148.050;    0.000
362.874; 1214.350;  173.050;    0.000
362.936; 1256.350;  152.050;    0.000
362.998; 1221.350;  145.050;    0.000
363.060; 1237.350;  184.050;    0.000
363.122; 1228.350;  147.050;    0.000
363.184; 1225.350;  136.050;    0.000
363.246; 1228.350;  171.050;    0.000
363.308; 1245.350;  154.050;    0.000
363.370; 1185.350;  175.050;    0.000
363.432; 1214.350;  139.050;    0.000
363.494; 1243.350;  163.050;    0.000
363.556; 1194.350;  117.050;    0.000
363.618; 1207.350;  126.050;    0.000
363.680; 1165.350;  147.050;    0.000
363.742; 1237.350;  161.050;    0.000
363.804; 1238.350;  159.050;    0.000
363.866; 1231.350;  170.050;    0.000
363.928; 1142.350;  122.050;    0.000
363.990; 1211.350;  167.050;    0.000
364.052; 1185.350;  180.050;    0.000
364.114; 1213.350;  119.050;    0.000
364.176; 1264.350;  184.050;    0.000
364.238; 1211.350;  180.050;    0.000
364.300; 1194.350;  159.050;    0.000
364.362; 1173.350;  163.050;    0.000
364.424; 1219.350;  139.050;    0.000
364.486; 1308.350;  189.050;    0.000
364.548; 1248.350;  167.050;    0.000
364.609; 1321.350;  165.050;    0.000
364.671; 1281.350;  171.050;    0.000
364.733; 1216.350;  165.050;    0.000
364.795; 1222.350;  122.050;    0.000
364.857; 1246.350;  147.050;    0.000
364.919; 1275.350;  104.050;    0.000
364.981; 1201.350;  143.050;    0.000
365.042; 1238.350;  166.050;    0.000
365.104; 1247.350;  162.050;    0.000
365.166; 1181.350;  155.050;    0.000
365.228; 1286.350;  179.050;    0.000
365.290; 1307.350;  133.050;    0.000
365.351; 1249.350;  142.050;    0.000
365.413; 1242.350;  144.050;    0.000
365.475; 1263.350;  139.050;    0.000
365.537; 1251.350;  181.050;    0.000
365.598; 1334.350;  166.050;    0.000
365.660; 1275.350;  130.050;    0.000
365.722; 1257.350;  177.050;    0.000
365.784; 1260.350;  149.050;    0.000
365.845; 1266.350;  156.050;    0.000
365.907; 1305.350;  122.050;    0.000
365.969; 1302.350;  140.050;    0.000
366.030; 1281.350;  156.050;    0.000
366.092; 1272.350;  140.050;    0.000
366.154; 1263.350;  169.050;    0.000
366.215; 1311.350;  170.050;    0.000
366.277; 1303.350;  143.050;    0.000
366.339; 1279.350;  139.050;    0.000
366.400; 1304.350;  139.050;    0.000
366.462; 1252.350;  140.050;    0.000
366.524; 1300.350;  150.050;    0.000
366.585; 1384.350;  163.050;    0.000
366.647; 1284.350;  193.050;    0.000
366.708; 1264.350;  135.050;    0.000
366.770; 1260.350;  165.050;    0.000
366.832; 1316.350;  168.050;    0.000
366.893; 1310.350;  157.050;    0.000
366.955; 1304.350;  132.050;    0.000
367.016; 1288.350;  127.050;    0.000
367.078; 1282.350;  146.050;    0.000
367.139; 1314.350;  129.050;    0.000
367.201; 1329.350;  148.050;    0.000
367.262; 1308.350;  165.050;    0.000
367.324; 1314.350;  171.050;    0.000
367.385; 1263.350;  118.050;    0.000
367.447; 1413.350;  144.050;    0.000
367.508; 1221.350;  135.050;    0.000
367.570; 1302.350;  160.050;    0.000
367.631; 1267.350;  157.050;    0.000
367.693; 1320.350;  168.050;    0.000
367.754; 1335.350;  139.050;    0.000
367.816; 1303.350;  141.050;    0.000
367.877; 1319.350;  195.050;    0.000
367.939; 1328.350;  166.050;    0.000
368.000; 1316.350;  127.050;    0.000
368.062; 1252.350;  143.050;    0.000
368.123; 1364.350;  156.050;    0.000
368.184; 1324.350;  179.050;    0.000
368.246; 1354.350;  168.050;    0.000
368.307; 1376.350;  203.050;    0.000
368.369; 1304.350;  149.050;    0.000
368.430; 1320.350;  121.050;    0.000
368.491; 1334.350;  131.050;    0.000
368.553; 1401.350;  161.050;    0.000
368.614; 1342.350;  157.050;    0.000
368.675; 1352.350;  152.050;    0.000
368.737; 1350.350;  168.050;    0.000
368.798; 1301.350;  147.050;    0.000
368.859; 1379.350;  174.050;    0.000
368.921; 1369.350;  168.050;    0.000
368.982; 1374.350;  151.050;    0.000
369.043; 1357.350;  169.050;    0.000
369.104; 1385.350;  149.050;    0.000
369.166; 1336.350;  178.050;    0.000
369.227; 1323.350;  149.050;    0.000
369.288; 1331.350;  131.050;    0.000
369.349; 1379.350;  128.050;    0.000
369.411; 1395.350;  198.050;    0.000
369.472; 1340.350;  156.050;    0.000
369.533; 1336.350;  142.050;    0.000
369.594; 1350.350;  125.050;    0.000
369.656; 1400.350;  153.050;    0.000
369.717; 1348.350;  124.050;    0.000
369.778; 1422.350;  163.050;    0.000
369.839; 1446.350;  130.050;    0.000
369.900; 1433.350;  170.050;    0.000
369.961; 1398.350;  142.050;    0.000
370.023; 1394.350;  197.050;    0.000
370.084; 1419.350;  151.050;    0.000
370.145; 1315.350;  128.050;    0.000
370.206; 1383.350;  152.050;    0.000
370.267; 1351.350;  154.050;    0.000
370.328; 1335.350;  154.050;    0.000
370.389; 1378.350;  173.050;    0.000
370.451; 1436.350;  191.050;    0.000
370.512; 1326.350;  155.050;    0.000
370.573; 1422.350;  134.050;    0.000
370.634; 1382.350;  160.050;    0.000
370.695; 1399.350;  124.050;    0.000
370.756; 1396.350;  169.050;    0.000
370.817; 1443.350;  169.050;    0.000
370.878; 1487.350;  200.050;    0.000
370.939; 1373.350;  157.050;    0.000
371.000; 1408.350;  131.050;    0.000
371.061; 1440.350;  136.050;    0.000
371.122; 1428.350;  176.050;    0.000
371.183; 1378.350;   81.050;    0.000
371.244; 1393.350;  156.050;    0.000
371.305; 1452.350;  131.050;    0.000
371.366; 1432.350;  161.050;    0.000
371.427; 1326.350;  127.050;    0.000
371.488; 1421.350;  184.050;    0.000
371.549; 1501.350;  159.050;    0.000
371.610; 1396.350;  147.050;    0.000
371.671; 1424.350;  132.050;    0.000
371.732; 1413.350;  163.050;    0.000
371.793; 1431.350;  179.050;    0.000
371.853; 1421.350;  179.050;    0.000
371.914; 1456.350;  149.050;    0.000
371.975; 1382.350;  117.050;    0.000
372.036; 1405.350;  141.050;    0.000
372.097; 1374.350;  101.050;    0.000
372.158; 1477.350;  115.050;    0.000
372.219; 1472.350;  174.050;    0.000
372.280; 1401.350;  134.050;    0.000
372.340; 1475.350;  180.050;    0.000
372.401; 1439.350;  166.050;    0.000
372.462; 1429.350;  171.050;    0.000
372.523; 1402.350;  132.050;    0.000
372.584; 1473.350;  182.050;    0.000
372.645; 1480.350;  149.050;    0.000
372.705; 1474.350;  182.050;    0.000
372.766; 1475.350;  145.050;    0.000
372.827; 1493.350;  161.050;    0.000
372.888; 1417.350;  156.050;    0.000
372.948; 1462.350;  158.050;    0.000
373.009; 1469.350;  178.050;    0.000
373.070; 1512.350;  166.050;    0.000
373.131; 1431.350;  154.050;    0.000
373.191; 1489.350;  193.050;    0.000
373.252; 1429.350;  148.050;    0.000
373.313; 1473.350;  152.050;    0.000
373.373; 1372.350;  156.050;    0.000
373.434; 1518.350;  166.050;    0.000
373.495; 1427.350;  152.050;    0.000
373.555; 1505.350;  145.050;    0.000
373.616; 1451.350;  141.050;    0.000
373.677; 1422.350;  169.050;    0.000
373.737; 1435.350;  166.050;    0.000
373.798; 1400.350;  151.050;    0.000
373.859; 1413.350;  170.050;    0.000
373.919; 1486.350;  206.050;    0.000
373.980; 1493.350;  140.050;    0.000
374.041; 1444.350;  148.050;    0.000
374.101; 1498.350;  165.050;    0.000
374.162; 1477.350;  166.050;    0.000
374.222; 1527.350;  156.050;    0.000
374.283; 1525.350;  161.050;    0.000
374.343; 1532.350;  185.050;    0.000
374.404; 1457.350;  148.050;    0.000
374.465; 1497.350;  162.050;    0.000
374.525; 1492.350;  177.050;    0.000
374.586; 1497.350;  164.050;    0.000
374.646; 1534.350;  180.050;    0.000
374.707; 1461.350;  203.050;    0.000
374.767; 1543.350;  148.050;    0.000
374.828; 1510.350;  142.050;    0.000
374.888; 1533.350;  187.050;    0.000
374.949; 1545.350;  137.050;    0.000
375.009; 1525.350;  155.050;    0.000
375.070; 1526.350;  165.050;    0.000
375.130; 1535.350;  168.050;    0.000
375.190; 1551.350;  157.050;    0.000
375.251; 1605.350;  206.050;    0.000
375.311; 1577.350;  141.050;    0.000
375.372; 1529.350;  144.050;    0.000
375.432; 1588.350;  153.050;    0.000
375.493; 1536.350;  168.050;    0.000
375.553; 1503.350;  146.050;    0.000
375.613; 1455.350;  142.050;    0.000
375.674; 1521.350;  153.050;    0.000
375.734; 1518.350;  166.050;    0.000
375.794; 1504.350;  145.050;    0.000
375.855; 1552.350;  162.050;    0.000
375.915; 1520.350;  162.050;    0.000
375.975; 1543.350;  144.050;    0.000
376.036; 1513.350;  128.050;    0.000
376.096; 1498.350;  122.050;    0.000
376.156; 1524.350;  140.050;    0.000
376.217; 1440.350;  158.050;    0.000
376.277; 1538.350;  163.050;    0.000
376.337; 1451.350;  139.050;    0.000
376.398; 1511.350;  176.050;    0.000
376.458; 1538.350;  143.050;    0.000
376.518; 1474.350;  136.050;    0.000
376.578; 1443.350;  177.050;    0.000
376.639; 1530.350;  163.050;    0.000
376.699; 1506.350;  183.050;    0.000
376.759; 1533.350;  169.050;    0.000
376.819; 1485.350;  147.050;    0.000
376.880; 1574.350;  188.050;    0.000
376.940; 1535.350;  185.050;    0.000
377.000; 1541.350;  131.050;    0.000
377.060; 1485.350;  182.050;    0.000
377.120; 1483.350;  165.050;    0.000
377.180; 1541.350;  169.050;    0.000
377.241; 1526.350;  146.050;    0.000
377.301; 1579.350;  183.050;    0.000
377.361; 1565.350;  124.050;    0.000
377.421; 1578.350;  186.050;    0.000
377.481; 1575.350;  178.050;    0.000
377.541; 1493.350;  140.050;    0.000
377.601; 1528.350;  175.050;    0.000
377.661; 1587.350;  169.050;    0.000
377.722; 1615.350;  144.050;    0.000
377.782; 1576.350;  182.050;    0.000
377.842; 1561.350;  161.050;    0.000
377.902; 1556.350;  151.050;    0.000
377.962; 1516.350;  134.050;    0.000
378.022; 1544.350;  153.050;    0.000
378.082; 1634.350;  178.050;    0.000
378.142; 1531.350;  118.050;    0.000
378.202; 1592.350;  153.050;    0.000
378.262; 1626.350;  166.050;    0.000
378.322; 1584.350;  174.050;    0.000
378.382; 1543.350;  148.050;    0.000
378.442; 1584.350;  190.050;    0.000
378.502; 1504.350;  136.050;    0.000
378.562; 1555.350;  130.050;    0.000
378.622; 1644.350;  188.050;    0.000
378.682; 1576.350;  163.050;    0.000
378.742; 1576.350;  150.050;    0.000
378.802; 1584.350;  127.050;    0.000
378.862; 1648.350;  186.050;    0.000
378.921; 1702.350;  203.050;    0.000
378.981; 1688.350;  177.050;    0.000
379.041; 1594.350;  134.050;    0.000
379.101; 1668.350;  167.050;    0.000
379.161; 1646.350;  130.050;    0.000
379.221; 1707.350;  169.050;    0.000
379.281; 1652.350;  162.050;    0.000
379.341; 1705.350;  134.050;    0.000
379.401; 1598.350;  151.050;    0.000
379.460; 1611.350;  190.050;    0.000
379.520; 1720.350;  158.050;    0.000
379.580; 1708.350;  162.050;    0.000
379.640; 1671.350;  146.050;    0.000
379.700; 1659.350;  167.050;    0.000
379.759; 1738.350;  194.050;    0.000
379.819; 1712.350;  176.050;    0.000
379.879; 1640.350;  140.050;    0.000
379.939; 1692.350;  184.050;    0.000
379.999; 1668.350;  165.050;    0.000
380.058; 1679.350;  194.050;    0.000
380.118; 1668.350;  137.050;    0.000
380.178; 1644.350;  139.050;    0.000
380.237; 1758.350;  139.050;    0.000
380.297; 1648.350;  160.050;    0.000
380.357; 1782.350;  194.050;    0.000
380.417; 1726.350;  174.050;    0.000
380.476; 1702.350;  153.050;    0.000
380.536; 1689.350;  169.050;    0.000
380.596; 1752.350;  159.050;    0.000
380.655; 1743.350;  178.050;    0.000
380.715; 1721.350;  196.050;    0.000
380.775; 1719.350;  202.050;    0.000
380.834; 1737.350;  186.050;    0.000
380.894; 1734.350;  167.050;    0.000
380.954; 1688.350;  150.050;    0.000
381.013; 1719.350;  187.050;    0.000
381.073; 1794.350;  114.050;    0.000
381.132; 1787.350;  176.050;    0.000
381.192; 1799.350;  197.050;    0.000
381.252; 1766.350;  172.050;    0.000
381.311; 1732.350;  155.050;    0.000
381.371; 1831.350;  172.050;    0.000
381.430; 1764.350;  143.050;    0.000
381.490; 1812.350;  136.050;    0.000
381.549; 1709.350;  131.050;    0.000
381.609; 1736.350;  203.050;    0.000
381.668; 1802.350;  135.050;    0.000
381.728; 1904.350;  163.050;    0.000
381.787; 1850.350;  195.050;    0.000
381.847; 1831.350;  185.050;    0.000
381.906; 1918.350;  187.050;    0.000
381.966; 1801.350;  153.050;    0.000
382.025; 1952.350;  175.050;    0.000
382.085; 1879.350;  195.050;    0.000
382.144; 1950.350;  210.050;    0.000
382.204; 1935.350;  201.050;    0.000
382.263; 1911.350;  178.050;    0.000
382.323; 1998.350;  151.050;    0.000
382.382; 2036.350;  147.050;    0.000
382.441; 2027.350;  144.050;    0.000
382.501; 2048.350;  156.050;    0.000
382.560; 2092.350;  160.050;    0.000
382.619; 2095.350;  173.050;    0.000
382.679; 2216.350;  167.050;    0.000
382.738; 2266.350;  189.050;    0.000
382.798; 2412.350;  181.050;    0.000
382.857; 2438.350;  161.050;    0.000
382.916; 2636.350;  162.050;    0.000
382.976; 2662.350;  169.050;    0.000
383.035; 2573.350;  174.050;    0.000
383.094; 2762.350;  178.050;    0.000
383.154; 2921.350;  188.050;    0.000
383.213; 3250.350;  162.050;    0.000
383.272; 3107.350;  144.050;    0.000
383.331; 2643.350;  144.050;    0.000
383.391; 2633.350;  198.050;    0.000
383.450; 2591.350;  185.050;    0.000
383.509; 2543.350;  132.050;    0.000
383.568; 2636.350;  171.050;    0.000
383.628; 2728.350;  171.050;    0.000
383.687; 2867.350;  172.050;    0.000
383.746; 3136.350;  144.050;    0.000
383.805; 3662.350;  177.050;    0.000
383.864; 3524.350;  145.050;    0.000
383.924; 2916.350;  203.050;    0.000
383.983; 2528.350;  153.050;    0.000
384.042; 2402.350;  171.050;    0.000
384.101; 2331.350;  186.050;    0.000
384.160; 2186.350;  132.050;    0.000
384.219; 2074.350;  157.050;    0.000
384.279; 2114.350;  166.050;    0.000
384.338; 2175.350;  141.050;    0.000
384.397; 1990.350;  142.050;    0.000
384.456; 2043.350;  155.050;    0.000
384.515; 2075.350;  158.050;    0.000
384.574; 2061.350;  208.050;    0.000
384.633; 2014.350;  158.050;    0.000
384.692; 1927.350;  162.050;    0.000
384.751; 2060.350;  179.050;    0.000
384.810; 2076.350;  150.050;    0.000
384.869; 1977.350;  147.050;    0.000
384.929; 1971.350;  132.050;    0.000
384.988; 2048.350;  166.050;    0.000
385.047; 1924.350;  161.050;    0.000
385.106; 1898.350;  180.050;    0.000
385.165; 2019.350;  123.050;    0.000
385.224; 1980.350;  153.050;    0.000
385.283; 1982.350;  158.050;    0.000
385.342; 1962.350;  184.050;    0.000
385.401; 1911.350;  191.050;    0.000
385.459; 1930.350;  143.050;    0.000
385.518; 1964.350;  152.050;    0.000
385.577; 1953.350;  134.050;    0.000
385.636; 1957.350;  187.050;    0.000
385.695; 1984.350;  141.050;    0.000
385.754; 1993.350;  143.050;    0.000
385.813; 1976.350;  145.050;    0.000
385.872; 1951.350;  116.050;    0.000
385.931; 1945.350;  147.050;    0.000
385.990; 1944.350;  170.050;    0.000
386.049; 2009.350;  189.050;    0.000
386.107; 1890.350;  122.050;    0.000
386.166; 1934.350;  155.050;    0.000
386.225; 1919.350;  173.050;    0.000
386.284; 2000.350;  138.050;    0.000
386.343; 2033.350;  216.050;    0.000
386.402; 1917.350;  162.050;    0.000
386.460; 1967.350;  131.050;    0.000
386.519; 1964.350;  122.050;    0.000
386.578; 1964.350;  140.050;    0.000
386.637; 1965.350;  169.050;    0.000
386.696; 1995.350;  176.050;    0.000
386.754; 1988.350;  127.050;    0.000
386.813; 1942.350;  138.050;    0.000
386.872; 1986.350;  135.050;    0.000
386.931; 1903.350;  170.050;    0.000
386.989; 1908.350;  167.050;    0.000
387.048; 1956.350;  131.050;    0.000
387.107; 1985.350;  176.050;    0.000
387.165; 1919.350;  139.050;    0.000
387.224; 1984.350;  150.050;    0.000
387.283; 1948.350;  169.050;    0.000
387.342; 1938.350;  191.050;    0.000
387.400; 1935.350;  131.050;    0.000
387.459; 1982.350;  139.050;    0.000
387.517; 2050.350;  214.050;    0.000
387.576; 2022.350;  146.050;    0.000
387.635; 1967.350;  161.050;    0.000
387.693; 1938.350;  197.050;    0.000
387.752; 2015.350;  159.050;    0.000
387.811; 1949.350;  144.050;    0.000
387.869; 1953.350;  172.050;    0.000
387.928; 1898.350;  160.050;    0.000
387.986; 1887.350;  192.050;    0.000
388.045; 1964.350;  121.050;    0.000
388.103; 1935.350;  129.050;    0.000
388.162; 1901.350;  169.050;    0.000
388.221; 1915.350;  171.050;    0.000
388.279; 1922.350;  135.050;    0.000
388.338; 1958.350;  222.050;    0.000
388.396; 1930.350;  168.050;    0.000
388.455; 1951.350;  178.050;    0.000
388.513; 1980.350;  151.050;    0.000
388.572; 2001.350;  147.050;    0.000
388.630; 1981.350;  158.050;    0.000
388.689; 1907.350;  163.050;    0.000
388.747; 1890.350;  180.050;    0.000
388.806; 1876.350;  119.050;    0.000
388.864; 1933.350;  159.050;    0.000
388.922; 2005.350;  152.050;    0.000
388.981; 1932.350;  125.050;    0.000
389.039; 1909.350;  151.050;    0.000
389.098; 1954.350;  151.050;    0.000
389.156; 1991.350;  175.050;    0.000
389.214; 1965.350;  133.050;    0.000
389.273; 1966.350;  142.050;    0.000
389.331; 1969.350;  179.050;    0.000
389.390; 1973.350;  179.050;    0.000
389.448; 1954.350;  159.050;    0.000
389.506; 1955.350;  140.050;    0.000
389.565; 2021.350;  160.050;    0.000
389.623; 1947.350;  181.050;    0.000
389.681; 2005.350;  181.050;    0.000
389.740; 2009.350;  187.050;    0.000
389.798; 1970.350;  163.050;    0.000
389.856; 2079.350;  185.050;    0.000
389.914; 1974.350;  170.050;    0.000
389.973; 2071.350;  150.050;    0.000
390.031; 2043.350;  149.050;    0.000
390.089; 1973.350;  191.050;    0.000
390.147; 1866.350;  126.050;    0.000
390.206; 2015.350;  174.050;    0.000
390.264; 1960.350;  164.050;    0.000
390.322; 1984.350;  150.050;    0.000
390.380; 1999.350;  137.050;    0.000
390.439; 2023.350;  176.050;    0.000
390.497; 1968.350;  188.050;    0.000
390.555; 1952.350;  143.050;    0.000
390.613; 1990.350;  174.050;    0.000
390.671; 2048.350;  208.050;    0.000
390.729; 2008.350;  135.050;    0.000
390.788; 2002.350;  169.050;    0.000
390.846; 2032.350;  173.050;    0.000
390.904; 2001.350;  176.050;    0.000
390.962; 1914.350;  179.050;    0.000
391.020; 2084.350;  201.050;    0.000
391.078; 2089.350;  192.050;    0.000
391.136; 2058.350;  170.050;    0.000
391.194; 2051.350;  163.050;    0.000
391.253; 1993.350;  203.050;    0.000
391.311; 2016.350;  170.050;    0.000
391.369; 2087.350;  191.050;    0.000
391.427; 2121.350;  226.050;    0.000
391.485; 2072.350;  181.050;    0.000
391.543; 2109.350;  177.050;    0.000
391.601; 2062.350;  150.050;    0.000
391.659; 1988.350;  201.050;    0.000
391.717; 2083.350;  166.050;    0.000
391.775; 2064.350;  200.050;    0.000
391.833; 2111.350;  180.050;    0.000
391.891; 2109.350;  172.050;    0.000
391.949; 2136.350;  174.050;    0.000
392.007; 2112.350;  194.050;    0.000
392.065; 2076.350;  161.050;    0.000
392.123; 2144.350;  159.050;    0.000
392.180; 2105.350;  193.050;    0.000
392.238; 2088.350;  188.050;    0.000
392.296; 2068.350;  206.050;    0.000
392.354; 2040.350;  170.050;    0.000
392.412; 2112.350;  207.050;    0.000
392.470; 2091.350;  168.050;    0.000
392.528; 2108.350;  185.050;    0.000
392.586; 2098.350;  154.050;    0.000
392.644; 2120.350;  190.050;    0.000
392.701; 2080.350;  195.050;    0.000
392.759; 2104.350;  229.050;    0.000
392.817; 2070.350;  176.050;    0.000
392.875; 2163.350;  198.050;    0.000
392.933; 2156.350;  174.050;    0.000
392.991; 2190.350;  237.050;    0.000
393.048; 2114.350;  212.050;    0.000
393.106; 2191.350;  191.050;    0.000
393.164; 2102.350;  136.050;    0.000
393.222; 2112.350;  164.050;    0.000
393.279; 2271.350;  208.050;    0.000
393.337; 2341.350;  203.050;    0.000
393.395; 2272.350;  191.050;    0.000
393.453; 2153.350;  153.050;    0.000
393.510; 2200.350;  171.050;    0.000
393.568; 2220.350;  203.050;    0.000
393.626; 2157.350;  169.050;    0.000
393.684; 2200.350;  201.050;    0.000
393.741; 2163.350;  172.050;    0.000
393.799; 2196.350;  149.050;    0.000
393.857; 2158.350;  151.050;    0.000
393.914; 2175.350;  192.050;    0.000
393.972; 2208.350;  176.050;    0.000
394.030; 2114.350;  165.050;    0.000
394.087; 2150.350;  192.050;    0.000
394.145; 2163.350;  183.050;    0.000
394.202; 2176.350;  161.050;    0.000
394.260; 2192.350;  135.050;    0.000
394.318; 2241.350;  188.050;    0.000
394.375; 2207.350;  163.050;    0.000
394.433; 2212.350;  151.050;    0.000
394.490; 2222.350;  190.050;    0.000
394.548; 2136.350;  157.050;    0.000
394.605; 2223.350;  205.050;    0.000
394.663; 2308.350;  173.050;    0.000
394.720; 2198.350;  171.050;    0.000
394.778; 2217.350;  190.050;    0.000
394.836; 2248.350;  134.050;    0.000
394.893; 2248.350;  142.050;    0.000
394.951; 2228.350;  192.050;    0.000
395.008; 2279.350;  149.050;    0.000
395.065; 2189.350;  194.050;    0.000
395.123; 2218.350;  160.050;    0.000
395.180; 2280.350;  178.050;    0.000
395.238; 2292.350;  191.050;    0.000
395.295; 2364.350;  160.050;    0.000
395.353; 2209.350;  162.050;    0.000
395.410; 2335.350;  165.050;    0.000
395.468; 2382.350;  190.050;    0.000
395.525; 2326.350;  173.050;    0.000
395.582; 2390.350;  161.050;    0.000
395.640; 2363.350;  200.050;    0.000
395.697; 2364.350;  198.050;    0.000
395.754; 2259.350;  136.050;    0.000
395.812; 2351.350;  172.050;    0.000
395.869; 2343.350;  172.050;    0.000
395.927; 2382.350;  145.050;    0.000
395.984; 2334.350;  220.050;    0.000
396.041; 2354.350;  137.050;    0.000
396.098; 2292.350;  161.050;    0.000
396.156; 2314.350;  159.050;    0.000
396.213; 2337.350;  200.050;    0.000
396.270; 2367.350;  209.050;    0.000
396.328; 2377.350;  162.050;    0.000
396.385; 2346.350;  186.050;    0.000
396.442; 2367.350;  177.050;    0.000
396.499; 2365.350;  183.050;    0.000
396.557; 2302.350;  182.050;    0.000
396.614; 2349.350;  186.050;    0.000
396.671; 2315.350;  144.050;    0.000
396.728; 2414.350;  176.050;    0.000
396.785; 2399.350;  169.050;    0.000
396.843; 2409.350;  134.050;    0.000
396.900; 2417.350;  184.050;    0.000
396.957; 2346.350;  197.050;    0.000
397.014; 2481.350;  187.050;    0.000
397.071; 2440.350;  186.050;    0.000
397.128; 2395.350;  200.050;    0.000
397.186; 2405.350;  175.050;    0.000
397.243; 2445.350;  154.050;    0.000
397.300; 2401.350;  191.050;    0.000
397.357; 2394.350;  238.050;    0.000
397.414; 2416.350;  161.050;    0.000
397.471; 2415.350;  135.050;    0.000
397.528; 2387.350;  158.050;    0.000
397.585; 2503.350;  159.050;    0.000
397.642; 2391.350;  180.050;    0.000
397.699; 2372.350;  170.050;    0.000
397.756; 2440.350;  175.050;    0.000
397.814; 2428.350;  182.050;    0.000
397.871; 2494.350;  173.050;    0.000
397.928; 2458.350;  173.050;    0.000
397.985; 2480.350;  176.050;    0.000
398.042; 2474.350;  189.050;    0.000
398.099; 2438.350;  160.050;    0.000
398.156; 2575.350;  218.050;    0.000
398.212; 2501.350;  194.050;    0.000
398.269; 2552.350;  199.050;    0.000
398.326; 2513.350;  188.050;    0.000
398.383; 2581.350;  187.050;    0.000
398.440; 2536.350;  174.050;    0.000
398.497; 2653.350;  214.050;    0.000
398.554; 2554.350;  181.050;    0.000
398.611; 2551.350;  195.050;    0.000
398.668; 2493.350;  145.050;    0.000
398.725; 2594.350;  178.050;    0.000
398.782; 2585.350;  210.050;    0.000
398.839; 2643.350;  216.050;    0.000
398.895; 2572.350;  189.050;    0.000
398.952; 2627.350;  206.050;    0.000
399.009; 2667.350;  142.050;    0.000
399.066; 2651.350;  192.050;    0.000
399.123; 2722.350;  181.050;    0.000
399.180; 2738.350;  200.050;    0.000
399.236; 2756.350;  156.050;    0.000
399.293; 2808.350;  194.050;    0.000
399.350; 2760.350;  167.050;    0.000
399.407; 2859.350;  192.050;    0.000
399.463; 2887.350;  161.050;    0.000
399.520; 2866.350;  149.050;    0.000
399.577; 2870.350;  156.050;    0.000
399.634; 2944.350;  195.050;    0.000
399.690; 3056.350;  163.050;    0.000
399.747; 2900.350;  192.050;    0.000
399.804; 2923.350;  212.050;    0.000
399.861; 2995.350;  203.050;    0.000
399.917; 2916.350;  221.050;    0.000
399.974; 2860.350;  221.050;    0.000
400.031; 2898.350;  195.050;    0.000
400.087; 2810.350;  159.050;    0.000
400.144; 2838.350;  201.050;    0.000
400.201; 2806.350;  206.050;    0.000
400.257; 2732.350;  168.050;    0.000
400.314; 2819.350;  183.050;    0.000
400.370; 2849.350;  209.050;    0.000
400.427; 2877.350;  192.050;    0.000
400.484; 2727.350;  150.050;    0.000
400.540; 2822.350;  213.050;    0.000
400.597; 2754.350;  161.050;    0.000
400.653; 2775.350;  170.050;    0.000
400.710; 2739.350;  173.050;    0.000
400.766; 2790.350;  204.050;    0.000
400.823; 2725.350;  194.050;    0.000
400.879; 2711.350;  188.050;    0.000
400.936; 2710.350;  172.050;    0.000
400.993; 2710.350;  154.050;    0.000
401.049; 2803.350;  157.050;    0.000
401.105; 2691.350;  214.050;    0.000
401.162; 2764.350;  195.050;    0.000
401.218; 2763.350;  195.050;    0.000
401.275; 2681.350;  182.050;    0.000
401.331; 2686.350;  188.050;    0.000
401.388; 2714.350;  194.050;    0.000
401.444; 2688.350;  175.050;    0.000
401.501; 2686.350;  169.050;    0.000
401.557; 2749.350;  176.050;    0.000
401.614; 2767.350;  153.050;    0.000
401.670; 2629.350;  178.050;    0.000
401.726; 2664.350;  179.050;    0.000
401.783; 2623.350;  198.050;    0.000
401.839; 2715.350;  179.050;    0.000
401.895; 2680.350;  154.050;    0.000
401.952; 2701.350;  138.050;    0.000
402.008; 2656.350;  135.050;    0.000
402.064; 2738.350;  154.050;    0.000
402.121; 2788.350;  199.050;    0.000
402.177; 2740.350;  126.050;    0.000
402.233; 2803.350;  190.050;    0.000
402.290; 2804.350;  175.050;    0.000
402.346; 2677.350;  200.050;    0.000
402.402; 2746.350;  191.050;    0.000
402.458; 2752.350;  172.050;    0.000
402.515; 2766.350;  186.050;    0.000
402.571; 2738.350;  189.050;    0.000
402.627; 2725.350;  151.050;    0.000
402.683; 2765.350;  187.050;    0.000
402.740; 2712.350;  147.050;    0.000
402.796; 2699.350;  176.050;    0.000
402.852; 2839.350;  200.050;    0.000
402.908; 2763.350;  201.050;    0.000
402.964; 2845.350;  153.050;    0.000
403.021; 2816.350;  165.050;    0.000
403.077; 2798.350;  195.050;    0.000
403.133; 2680.350;  139.050;    0.000
403.189; 2822.350;  166.050;    0.000
403.245; 2851.350;  194.050;    0.000
403.301; 2790.350;  210.050;    0.000
403.357; 2841.350;  187.050;    0.000
403.414; 2848.350;  195.050;    0.000
403.470; 2801.350;  150.050;    0.000
403.526; 2844.350;  158.050;    0.000
403.582; 2833.350;  184.050;    0.000
403.638; 2901.350;  171.050;    0.000
403.694; 2860.350;  197.050;    0.000
403.750; 2839.350;  196.050;    0.000
403.806; 2812.350;  192.050;    0.000
403.862; 2885.350;  169.050;    0.000
403.918; 2867.350;  199.050;    0.000
403.974; 2854.350;  156.050;    0.000
404.030; 2822.350;  193.050;    0.000
404.086; 2758.350;  161.050;    0.000
404.142; 2915.350;  172.050;    0.000
404.198; 2842.350;  195.050;    0.000
404.254; 2863.350;  167.050;    0.000
404.310; 2945.350;  156.050;    0.000
404.366; 2901.350;  144.050;    0.000
404.422; 2878.350;  161.050;    0.000
404.478; 2865.350;  179.050;    0.000
404.534; 2934.350;  163.050;    0.000
404.590; 2919.350;  183.050;    0.000
404.646; 2931.350;  155.050;    0.000
404.701; 2883.350;  142.050;    0.000
404.757; 2913.350;  175.050;    0.000
404.813; 2853.350;  153.050;    0.000
404.869; 2988.350;  199.050;    0.000
404.925; 2808.350;  153.050;    0.000
404.981; 2906.350;  174.050;    0.000
405.037; 2865.350;  185.050;    0.000
405.092; 2841.350;  166.050;    0.000
405.148; 2976.350;  161.050;    0.000
405.204; 2910.350;  170.050;    0.000
405.260; 2903.350;  154.050;    0.000
405.316; 2921.350;  128.050;    0.000
405.371; 2929.350;  142.050;    0.000
405.427; 2904.350;  196.050;    0.000
405.483; 2993.350;  172.050;    0.000
405.539; 2906.350;  182.050;    0.000
405.594; 2955.350;  153.050;    0.000
405.650; 2921.350;  124.050;    0.000
405.706; 2944.350;  189.050;    0.000
405.761; 2983.350;  165.050;    0.000
405.817; 2977.350;  152.050;    0.000
405.873; 3002.350;  174.050;    0.000
405.928; 2965.350;  167.050;    0.000
405.984; 2986.350;  210.050;    0.000
406.040; 3026.350;  160.050;    0.000
406.095; 2839.350;  163.050;    0.000
406.151; 3045.350;  208.050;    0.000
406.207; 3091.350;  177.050;    0.000
406.262; 3109.350;  176.050;    0.000
406.318; 2965.350;  157.050;    0.000
406.374; 3034.350;  141.050;    0.000
406.429; 3007.350;  189.050;    0.000
406.485; 3110.350;  190.050;    0.000
406.540; 3085.350;  155.050;    0.000
406.596; 3067.350;  182.050;    0.000
406.651; 3099.350;  200.050;    0.000
406.707; 3112.350;  130.050;    0.000
406.763; 3095.350;  174.050;    0.000
406.818; 3187.350;  151.050;    0.000
406.874; 3140.350;  122.050;    0.000
406.929; 3326.350;  153.050;    0.000
406.985; 3164.350;  198.050;    0.000
407.040; 3228.350;  174.050;    0.000
407.095; 3242.350;  161.050;    0.000
407.151; 3274.350;  184.050;    0.000
407.206; 3287.350;  188.050;    0.000
407.262; 3416.350;  180.050;    0.000
407.317; 3418.350;  186.050;    0.000
407.373; 3387.350;  200.050;    0.000
407.428; 3337.350;  211.050;    0.000
407.484; 3238.350;  193.050;    0.000
407.539; 3332.350;  167.050;    0.000
407.594; 3341.350;  178.050;    0.000
407.650; 3390.350;  171.050;    0.000
407.705; 3419.350;  153.050;    0.000
407.760; 3271.350;  196.050;    0.000
407.816; 3300.350;  205.050;    0.000
407.871; 3385.350;  232.050;    0.000
407.926; 3237.350;  215.050;    0.000
407.982; 3304.350;  154.050;    0.000
408.037; 3392.350;  217.050;    0.000
408.092; 3304.350;  190.050;    0.000
408.148; 3277.350;  181.050;    0.000
408.203; 3235.350;  203.050;    0.000
408.258; 3184.350;  154.050;    0.000
408.314; 3160.350;  198.050;    0.000
408.369; 3310.350;  156.050;    0.000
408.424; 3379.350;  216.050;    0.000
408.479; 3118.350;  191.050;    0.000
408.534; 3276.350;  200.050;    0.000
408.590; 3140.350;  182.050;    0.000
408.645; 3309.350;  141.050;    0.000
408.700; 3252.350;  209.050;    0.000
408.755; 3243.350;  205.050;    0.000
408.810; 3212.350;  171.050;    0.000
408.866; 3120.350;  200.050;    0.000
408.921; 3175.350;  188.050;    0.000
408.976; 3166.350;  156.050;    0.000
409.031; 3246.350;  164.050;    0.000
409.086; 3198.350;  155.050;    0.000
409.141; 3322.350;  205.050;    0.000
409.196; 3172.350;  173.050;    0.000
409.252; 3237.350;  179.050;    0.000
409.307; 3101.350;  131.050;    0.000
409.362; 3141.350;  173.050;    0.000
409.417; 3139.350;  120.050;    0.000
409.472; 3240.350;  198.050;    0.000
409.527; 3177.350;  153.050;    0.000
409.582; 3349.350;  177.050;    0.000
409.637; 3275.350;  184.050;    0.000
409.692; 3302.350;  203.050;    0.000
409.747; 3182.350;  158.050;    0.000
409.802; 3219.350;  212.050;    0.000
409.857; 3187.350;  192.050;    0.000
409.912; 3260.350;  179.050;    0.000
409.967; 3103.350;  177.050;    0.000
410.022; 3321.350;  204.050;    0.000
410.077; 3220.350;  175.050;    0.000
410.132; 3284.350;  207.050;    0.000
410.187; 3142.350;  169.050;    0.000
410.242; 3234.350;  186.050;    0.000
410.297; 3201.350;  185.050;    0.000
410.351; 3272.350;  191.050;    0.000
410.406; 3162.350;  215.050;    0.000
410.461; 3211.350;  190.050;    0.000
410.516; 3235.350;  172.050;    0.000
410.571; 3161.350;  190.050;    0.000
410.626; 3342.350;  189.050;    0.000
410.681; 3157.350;  191.050;    0.000
410.736; 3172.350;  166.050;    0.000
410.790; 3102.350;  179.050;    0.000
410.845; 3211.350;  196.050;    0.000
410.900; 3167.350;  168.050;    0.000
410.955; 3279.350;  173.050;    0.000
411.010; 3304.350;  162.050;    0.000
411.064; 3169.350;  205.050;    0.000
411.119; 3282.350;  203.050;    0.000
411.174; 3184.350;  207.050;    0.000
411.229; 3194.350;  218.050;    0.000
411.283; 3324.350;  218.050;    0.000
411.338; 3239.350;  180.050;    0.000
411.393; 3227.350;  191.050;    0.000
411.447; 3166.350;  207.050;    0.000
411.502; 3197.350;  204.050;    0.000
411.557; 3150.350;  208.050;    0.000
411.612; 3256.350;  191.050;    0.000
411.666; 3134.350;  233.050;    0.000
411.721; 3275.350;  193.050;    0.000
411.776; 3199.350;  195.050;    0.000
411.830; 3225.350;  229.050;    0.000
411.885; 3282.350;  181.050;    0.000
411.939; 3229.350;  214.050;    0.000
411.994; 3232.350;  140.050;    0.000
412.049; 3214.350;  205.050;    0.000
412.103; 3307.350;  232.050;    0.000
412.158; 3333.350;  228.050;    0.000
412.212; 3283.350;  204.050;    0.000
412.267; 3166.350;  203.050;    0.000
412.322; 3281.350;  212.050;    0.000
412.376; 3340.350;  195.050;    0.000
412.431; 3283.350;  197.050;    0.000
412.485; 3206.350;  235.050;    0.000
412.540; 3287.350;  197.050;    0.000
412.594; 3149.350;  199.050;    0.000
412.649; 3186.350;  195.050;    0.000
412.703; 3214.350;  214.050;    0.000
412.758; 3177.350;  213.050;    0.000
412.812; 3158.350;  154.050;    0.000
412.866; 3135.350;  159.050;    0.000
412.921; 3209.350;  207.050;    0.000
412.975; 3167.350;  194.050;    0.000
413.030; 3163.350;  214.050;    0.000
413.084; 3329.350;  174.050;    0.000
413.139; 3134.350;  211.050;    0.000
413.193; 3197.350;  223.050;    0.000
413.247; 3200.350;  198.050;    0.000
413.302; 3214.350;  184.050;    0.000
413.356; 3285.350;  194.050;    0.000
413.410; 3173.350;  219.050;    0.000
413.465; 3221.350;  209.050;    0.000
413.519; 3264.350;  178.050;    0.000
413.573; 3159.350;  189.050;    0.000
413.628; 3229.350;  184.050;    0.000
413.682; 3283.350;  189.050;    0.000
413.736; 3235.350;  196.050;    0.000
413.791; 3258.350;  208.050;    0.000
413.845; 3264.350;  206.050;    0.000
413.899; 3157.350;  193.050;    0.000
413.953; 3192.350;  176.050;    0.000
414.008; 3144.350;  163.050;    0.000
414.062; 3145.350;  195.050;    0.000
414.116; 3204.350;  176.050;    0.000
414.170; 3201.350;  218.050;    0.000
414.225; 3208.350;  183.050;    0.000
414.279; 3176.350;  191.050;    0.000
414.333; 3217.350;  215.050;    0.000
414.387; 3158.350;  187.050;    0.000
414.441; 3201.350;  182.050;    0.000
414.496; 3236.350;  205.050;    0.000
414.550; 3168.350;  203.050;    0.000
414.604; 3213.350;  223.050;    0.000
414.658; 3203.350;  159.050;    0.000
414.712; 3265.350;  194.050;    0.000
414.766; 3150.350;  232.050;    0.000
414.820; 3192.350;  235.050;    0.000
414.874; 3251.350;  169.050;    0.000
414.928; 3132.350;  207.050;    0.000
414.982; 3195.350;  174.050;    0.000
415.037; 3323.350;  173.050;    0.000
415.091; 3186.350;  219.050;    0.000
415.145; 3146.350;  174.050;    0.000
415.199; 3216.350;  207.050;    0.000
415.253; 3184.350;  228.050;    0.000
415.307; 3260.350;  182.050;    0.000
415.361; 3281.350;  219.050;    0.000
415.415; 3153.350;  218.050;    0.000
415.469; 3220.350;  233.050;    0.000
415.523; 3264.350;  203.050;    0.000
415.577; 3254.350;  186.050;    0.000
415.631; 3129.350;  215.050;    0.000
415.684; 3189.350;  212.050;    0.000
415.738; 3266.350;  206.050;    0.000
415.792; 3200.350;  219.050;    0.000
415.846; 3175.350;  208.050;    0.000
415.900; 3181.350;  203.050;    0.000
415.954; 3287.350;  237.050;    0.000
416.008; 3195.350;  242.050;    0.000
416.062; 3154.350;  197.050;    0.000
416.116; 3186.350;  189.050;    0.000
416.169; 3159.350;  199.050;    0.000
416.223; 3252.350;  230.050;    0.000
416.277; 3162.350;  226.050;    0.000
416.331; 3241.350;  254.050;    0.000
416.385; 3191.350;  204.050;    0.000
416.439; 3306.350;  201.050;    0.000
416.492; 3198.350;  238.050;    0.000
416.546; 3269.350;  234.050;    0.000
416.600; 3137.350;  244.050;    0.000
416.654; 3220.350;  233.050;    0.000
416.707; 3161.350;  214.050;    0.000
416.761; 3227.350;  214.050;    0.000
416.815; 3221.350;  192.050;    0.000
416.869; 3253.350;  225.050;    0.000
416.922; 3048.350;  214.050;    0.000
416.976; 3205.350;  206.050;    0.000
417.030; 3166.350;  226.050;    0.000
417.083; 3239.350;  207.050;    0.000
417.137; 3195.350;  236.050;    0.000
417.191; 3236.350;  208.050;    0.000
417.244; 3207.350;  260.050;    0.000
417.298; 3161.350;  222.050;    0.000
417.352; 3188.350;  191.050;    0.000
417.405; 3226.350;  229.050;    0.000
417.459; 3324.350;  249.050;    0.000
417.512; 3218.350;  259.050;    0.000
417.566; 3171.350;  220.050;    0.000
417.620; 3196.350;  229.050;    0.000
417.673; 3127.350;  190.050;    0.000
417.727; 3214.350;  204.050;    0.000
417.780; 3147.350;  223.050;    0.000
417.834; 3118.350;  213.050;    0.000
417.887; 3152.350;  238.050;    0.000
417.941; 3186.350;  244.050;    0.000
417.994; 3141.350;  247.050;    0.000
418.048; 3272.350;  225.050;    0.000
418.101; 3151.350;  210.050;    0.000
418.155; 3204.350;  224.050;    0.000
418.208; 3203.350;  229.050;    0.000
418.262; 3239.350;  255.050;    0.000
418.315; 3246.350;  248.050;    0.000
418.369; 3198.350;  212.050;    0.000
418.422; 3228.350;  241.050;    0.000
418.476; 3246.350;  220.050;    0.000
418.529; 3228.350;  257.050;    0.000
418.582; 3249.350;  203.050;    0.000
418.636; 3265.350;  221.050;    0.000
418.689; 3266.350;  202.050;    0.000
418.743; 3205.350;  227.050;    0.000
418.796; 3276.350;  226.050;    0.000
418.849; 3157.350;  199.050;    0.000
418.903; 3261.350;  234.050;    0.000
418.956; 3251.350;  236.050;    0.000
419.009; 3281.350;  305.050;    0.000
419.063; 3186.350;  216.050;    0.000
419.116; 3109.350;  245.050;    0.000
419.169; 3179.350;  208.050;    0.000
419.222; 3176.350;  233.050;    0.000
419.276; 3321.350;  244.050;    0.000
419.329; 3137.350;  197.050;    0.000
419.382; 3163.350;  222.050;    0.000
419.435; 3180.350;  199.050;    0.000
419.489; 3178.350;  226.050;    0.000
419.542; 3213.350;  223.050;    0.000
419.595; 3251.350;  204.050;    0.000
419.648; 3256.350;  234.050;    0.000
419.701; 3070.350;  211.050;    0.000
419.755; 3117.350;  184.050;    0.000
419.808; 3179.350;  223.050;    0.000
419.861; 3050.350;  197.050;    0.000
419.914; 3148.350;  258.050;    0.000
419.967; 3189.350;  205.050;    0.000
420.020; 3195.350;  195.050;    0.000
420.073; 3112.350;  191.050;    0.000
420.127; 3199.350;  256.050;    0.000
420.180; 3100.350;  232.050;    0.000
420.233; 2999.350;  200.050;    0.000
420.286; 3074.350;  207.050;    0.000
420.339; 3058.350;  223.050;    0.000
420.392; 3118.350;  243.050;    0.000
420.445; 3092.350;  195.050;    0.000
420.498; 3086.350;  239.050;    0.000
420.551; 3071.350;  201.050;    0.000
420.604; 3009.350;  245.050;    0.000
420.657; 2987.350;  221.050;    0.000
420.710; 3038.350;  223.050;    0.000
420.763; 3047.350;  241.050;    0.000
420.816; 2954.350;  198.050;    0.000
420.869; 2995.350;  210.050;    0.000
420.922; 2974.350;  206.050;    0.000
420.975; 3127.350;  239.050;    0.000
421.028; 2960.350;  248.050;    0.000
421.081; 3013.350;  236.050;    0.000
421.134; 2978.350;  208.050;    0.000
421.187; 2981.350;  216.050;    0.000
421.239; 3024.350;  199.050;    0.000
421.292; 2942.350;  255.050;    0.000
421.345; 2931.350;  241.050;    0.000
421.398; 2939.350;  221.050;    0.000
421.451; 2997.350;  237.050;    0.000
421.504; 2962.350;  225.050;    0.000
421.557; 2929.350;  213.050;    0.000
421.609; 2914.350;  178.050;    0.000
421.662; 3000.350;  206.050;    0.000
421.715; 2941.350;  212.050;    0.000
421.768; 2953.350;  236.050;    0.000
421.821; 2929.350;  228.050;    0.000
421.873; 2937.350;  200.050;    0.000
421.926; 2970.350;  226.050;    0.000
421.979; 3005.350;  221.050;    0.000
422.032; 2925.350;  219.050;    0.000
422.084; 3029.350;  253.050;    0.000
422.137; 2937.350;  195.050;    0.000
422.190; 3011.350;  192.050;    0.000
422.243; 2907.350;  236.050;    0.000
422.295; 2921.350;  205.050;    0.000
422.348; 2945.350;  198.050;    0.000
422.401; 3021.350;  245.050;    0.000
422.453; 2984.350;  241.050;    0.000
422.506; 2934.350;  255.050;    0.000
422.559; 2935.350;  188.050;    0.000
422.611; 3015.350;  236.050;    0.000
422.664; 2957.350;  218.050;    0.000
422.716; 3126.350;  210.050;    0.000
422.769; 2975.350;  209.050;    0.000
422.822; 2954.350;  213.050;    0.000
422.874; 2932.350;  227.050;    0.000
422.927; 2971.350;  272.050;    0.000
422.979; 2961.350;  204.050;    0.000
423.032; 2912.350;  210.050;    0.000
423.084; 2919.350;  236.050;    0.000
423.137; 2980.350;  223.050;    0.000
423.189; 2992.350;  253.050;    0.000
423.242; 2979.350;  185.050;    0.000
423.294; 2924.350;  232.050;    0.000
423.347; 2878.350;  213.050;    0.000
423.399; 2926.350;  227.050;    0.000
423.452; 2932.350;  236.050;    0.000
423.504; 2970.350;  232.050;    0.000
423.557; 2814.350;  195.050;    0.000
423.609; 2865.350;  238.050;    0.000
423.662; 2939.350;  207.050;    0.000
423.714; 2902.350;  231.050;    0.000
423.766; 2983.350;  211.050;    0.000
423.819; 2839.350;  207.050;    0.000
423.871; 2905.350;  228.050;    0.000
423.923; 2840.350;  223.050;    0.000
423.976; 2875.350;  217.050;    0.000
424.028; 2930.350;  231.050;    0.000
424.081; 2828.350;  219.050;    0.000
424.133; 2787.350;  255.050;    0.000
424.185; 2960.350;  199.050;    0.000
424.238; 2868.350;  238.050;    0.000
424.290; 2809.350;  209.050;    0.000
424.342; 2836.350;  213.050;    0.000
424.394; 2848.350;  215.050;    0.000
424.447; 2856.350;  265.050;    0.000
424.499; 2842.350;  238.050;    0.000
424.551; 2865.350;  256.050;    0.000
424.603; 2800.350;  222.050;    0.000
424.656; 2828.350;  227.050;    0.000
424.708; 2852.350;  250.050;    0.000
424.760; 2713.350;  228.050;    0.000
424.812; 2821.350;  249.050;    0.000
424.864; 2864.350;  222.050;    0.000
424.917; 2774.350;  235.050;    0.000
424.969; 2864.350;  266.050;    0.000
425.021; 2815.350;  233.050;    0.000
425.073; 2827.350;  194.050;    0.000
425.125; 2888.350;  256.050;    0.000
425.177; 2799.350;  225.050;    0.000
425.229; 2924.350;  242.050;    0.000
425.282; 2792.350;  236.050;    0.000
425.334; 2794.350;  250.050;    0.000
425.386; 2896.350;  231.050;    0.000
425.438; 2894.350;  216.050;    0.000
425.490; 2748.350;  240.050;    0.000
425.542; 2800.350;  231.050;    0.000
425.594; 2789.350;  206.050;    0.000
425.646; 2870.350;  201.050;    0.000
425.698; 2805.350;  193.050;    0.000
425.750; 2764.350;  241.050;    0.000
425.802; 2698.350;  199.050;    0.000
425.854; 2757.350;  216.050;    0.000
425.906; 2817.350;  220.050;    0.000
425.958; 2805.350;  200.050;    0.000
426.010; 2776.350;  214.050;    0.000
426.062; 2787.350;  245.050;    0.000
426.114; 2737.350;  241.050;    0.000
426.166; 2723.350;  241.050;    0.000
426.218; 2753.350;  255.050;    0.000
426.270; 2756.350;  228.050;    0.000
426.321; 2732.350;  222.050;    0.000
426.373; 2699.350;  218.050;    0.000
426.425; 2728.350;  258.050;    0.000
426.477; 2705.350;  225.050;    0.000
426.529; 2788.350;  223.050;    0.000
426.581; 2702.350;  198.050;    0.000
426.633; 2786.350;  228.050;    0.000
426.684; 2760.350;  210.050;    0.000
426.736; 2695.350;  208.050;    0.000
426.788; 2698.350;  231.050;    0.000
426.840; 2777.350;  212.050;    0.000
426.892; 2701.350;  221.050;    0.000
426.943; 2716.350;  240.050;    0.000
426.995; 2636.350;  243.050;    0.000
427.047; 2677.350;  231.050;    0.000
427.099; 2683.350;  189.050;    0.000
427.150; 2621.350;  212.050;    0.000
427.202; 2706.350;  219.050;    0.000
427.254; 2652.350;  203.050;    0.000
427.306; 2663.350;  217.050;    0.000
427.357; 2694.350;  232.050;    0.000
427.409; 2673.350;  251.050;    0.000
427.461; 2635.350;  185.050;    0.000
427.512; 2674.350;  239.050;    0.000
427.564; 2696.350;  208.050;    0.000
427.616; 2705.350;  233.050;    0.000
427.667; 2695.350;  223.050;    0.000
427.719; 2618.350;  206.050;    0.000
427.770; 2671.350;  195.050;    0.000
427.822; 2748.350;  223.050;    0.000
427.874; 2609.350;  232.050;    0.000
427.925; 2616.350;  209.050;    0.000
427.977; 2629.350;  208.050;    0.000
428.028; 2698.350;  187.050;    0.000
428.080; 2618.350;  209.050;    0.000
428.131; 2685.350;  237.050;    0.000
428.183; 2524.350;  200.050;    0.000
428.234; 2607.350;  215.050;    0.000
428.286; 2625.350;  229.050;    0.000
428.337; 2647.350;  206.050;    0.000
428.389; 2567.350;  216.050;    0.000
428.440; 2686.350;  287.050;    0.000
428.492; 2648.350;  269.050;    0.000
428.543; 2517.350;  234.050;    0.000
428.595; 2584.350;  214.050;    0.000
428.646; 2616.350;  229.050;    0.000
428.697; 2541.350;  249.050;    0.000
428.749; 2626.350;  250.050;    0.000
428.800; 2617.350;  242.050;    0.000
428.852; 2650.350;  232.050;    0.000
428.903; 2598.350;  196.050;    0.000
428.954; 2539.350;  226.050;    0.000
429.006; 2563.350;  232.050;    0.000
429.057; 2531.350;  188.050;    0.000
429.108; 2529.350;  237.050;    0.000
429.160; 2699.350;  221.050;    0.000
429.211; 2554.350;  222.050;    0.000
429.262; 2544.350;  215.050;    0.000
429.314; 2554.350;  225.050;    0.000
429.365; 2569.350;  220.050;    0.000
429.416; 2616.350;  242.050;    0.000
429.467; 2571.350;  220.050;    0.000
429.519; 2456.350;  217.050;    0.000
429.570; 2551.350;  248.050;    0.000
429.621; 2543.350;  233.050;    0.000
429.672; 2586.350;  220.050;    0.000
429.724; 2550.350;  179.050;    0.000
429.775; 2628.350;  218.050;    0.000
429.826; 2468.350;  197.050;    0.000
429.877; 2458.350;  206.050;    0.000
429.928; 2513.350;  229.050;    0.000
429.980; 2543.350;  207.050;    0.000
430.031; 2508.350;  264.050;    0.000
430.082; 2546.350;  210.050;    0.000
430.133; 2497.350;  218.050;    0.000
430.184; 2541.350;  246.050;    0.000
430.235; 2518.350;  201.050;    0.000
430.286; 2488.350;  207.050;    0.000
430.337; 2517.350;  224.050;    0.000
430.388; 2549.350;  216.050;    0.000
430.439; 2585.350;  210.050;    0.000
430.490; 2503.350;  208.050;    0.000
430.542; 2472.350;  211.050;    0.000
430.593; 2441.350;  203.050;    0.000
430.644; 2469.350;  235.050;    0.000
430.695; 2439.350;  200.050;    0.000
430.746; 2508.350;  215.050;    0.000
430.797; 2426.350;  235.050;    0.000
430.848; 2565.350;  197.050;    0.000
430.898; 2507.350;  209.050;    0.000
430.949; 2594.350;  231.050;    0.000
431.000; 2556.350;  227.050;    0.000
431.051; 2489.350;  225.050;    0.000
431.102; 2515.350;  180.050;    0.000
431.153; 2538.350;  248.050;    0.000
431.204; 2507.350;  185.050;    0.000
431.255; 2498.350;  199.050;    0.000
431.306; 2529.350;  228.050;    0.000
431.357; 2408.350;  237.050;    0.000
431.408; 2561.350;  223.050;    0.000
431.458; 2476.350;  240.050;    0.000
431.509; 2455.350;  207.050;    0.000
431.560; 2521.350;  219.050;    0.000
431.611; 2502.350;  206.050;    0.000
431.662; 2525.350;  253.050;    0.000
431.713; 2432.350;  199.050;    0.000
431.763; 2618.350;  197.050;    0.000
431.814; 2527.350;  205.050;    0.000
431.865; 2513.350;  218.050;    0.000
431.916; 2439.350;  202.050;    0.000
431.966; 2542.350;  203.050;    0.000
432.017; 2531.350;  244.050;    0.000
432.068; 2468.350;  246.050;    0.000
432.118; 2533.350;  212.050;    0.000
432.169; 2498.350;  214.050;    0.000
432.220; 2497.350;  241.050;    0.000
432.271; 2438.350;  237.050;    0.000
432.321; 2410.350;  246.050;    0.000
432.372; 2413.350;  257.050;    0.000
432.423; 2499.350;  198.050;    0.000
432.473; 2475.350;  202.050;    0.000
432.524; 2447.350;  242.050;    0.000
432.574; 2473.350;  202.050;    0.000
432.625; 2403.350;  212.050;    0.000
432.676; 2456.350;  242.050;    0.000
432.726; 2510.350;  268.050;    0.000
432.777; 2466.350;  228.050;    0.000
432.827; 2473.350;  230.050;    0.000
432.878; 2344.350;  221.050;    0.000
432.928; 2514.350;  218.050;    0.000
432.979; 2497.350;  243.050;    0.000
433.029; 2433.350;  217.050;    0.000
433.080; 2421.350;  208.050;    0.000
433.130; 2406.350;  236.050;    0.000
433.181; 2515.350;  282.050;    0.000
433.231; 2491.350;  257.050;    0.000
433.282; 2445.350;  268.050;    0.000
433.332; 2477.350;  241.050;    0.000
433.383; 2515.350;  271.050;    0.000
433.433; 2512.350;  262.050;    0.000
433.484; 2528.350;  266.050;    0.000
433.534; 2473.350;  217.050;    0.000
433.585; 2357.350;  230.050;    0.000
433.635; 2398.350;  245.050;    0.000
433.685; 2446.350;  250.050;    0.000
433.736; 2440.350;  308.050;    0.000
433.786; 2423.350;  242.050;    0.000
433.836; 2559.350;  256.050;    0.000
433.887; 2437.350;  250.050;    0.000
433.937; 2489.350;  250.050;    0.000
433.987; 2494.350;  219.050;    0.000
434.038; 2488.350;  248.050;    0.000
434.088; 2448.350;  231.050;    0.000
434.138; 2557.350;  266.050;    0.000
434.189; 2467.350;  240.050;    0.000
434.239; 2555.350;  245.050;    0.000
434.289; 2602.350;  285.050;    0.000
434.339; 2530.350;  255.050;    0.000
434.389; 2543.350;  242.050;    0.000
434.440; 2526.350;  273.050;    0.000
434.490; 2584.350;  272.050;    0.000
434.540; 2509.350;  264.050;    0.000
434.590; 2525.350;  233.050;    0.000
434.640; 2502.350;  244.050;    0.000
434.691; 2569.350;  226.050;    0.000
434.741; 2498.350;  253.050;    0.000
434.791; 2555.350;  269.050;    0.000
434.841; 2589.350;  252.050;    0.000
434.891; 2501.350;  281.050;    0.000
434.941; 2561.350;  296.050;    0.000
434.991; 2581.350;  264.050;    0.000
435.042; 2574.350;  262.050;    0.000
435.092; 2533.350;  237.050;    0.000
435.142; 2617.350;  232.050;    0.000
435.192; 2421.350;  251.050;    0.000
435.242; 2371.350;  251.050;    0.000
435.292; 2479.350;  246.050;    0.000
435.342; 2523.350;  236.050;    0.000
435.392; 2455.350;  273.050;    0.000
435.442; 2489.350;  273.050;    0.000
435.492; 2392.350;  273.050;    0.000
435.542; 2400.350;  242.050;    0.000
435.592; 2386.350;  213.050;    0.000
435.642; 2430.350;  248.050;    0.000
435.692; 2323.350;  242.050;    0.000
435.742; 2454.350;  222.050;    0.000
435.792; 2376.350;  260.050;    0.000
435.842; 2391.350;  266.050;    0.000
435.891; 2429.350;  227.050;    0.000
435.941; 2316.350;  228.050;    0.000
435.991; 2479.350;  282.050;    0.000
436.041; 2426.350;  231.050;    0.000
436.091; 2400.350;  250.050;    0.000
436.141; 2339.350;  221.050;    0.000
436.191; 2344.350;  223.050;    0.000
436.241; 2344.350;  250.050;    0.000
436.290; 2379.350;  243.050;    0.000
436.340; 2334.350;  236.050;    0.000
436.390; 2422.350;  260.050;    0.000
436.440; 2354.350;  253.050;    0.000
436.490; 2388.350;  236.050;    0.000
436.539; 2286.350;  249.050;    0.000
436.589; 2331.350;  231.050;    0.000
436.639; 2335.350;  237.050;    0.000
436.689; 2311.350;  222.050;    0.000
436.738; 2354.350;  263.050;    0.000
436.788; 2331.350;  230.050;    0.000
436.838; 2360.350;  281.050;    0.000
436.887; 2254.350;  230.050;    0.000
436.937; 2304.350;  250.050;    0.000
436.987; 2311.350;  251.050;    0.000
437.036; 2304.350;  238.050;    0.000
437.086; 2332.350;  234.050;    0.000
437.136; 2311.350;  250.050;    0.000
437.185; 2268.350;  228.050;    0.000
437.235; 2352.350;  309.050;    0.000
437.285; 2346.350;  246.050;    0.000
437.334; 2268.350;  262.050;    0.000
437.384; 2268.350;  228.050;    0.000
437.433; 2278.350;  241.050;    0.000
437.483; 2214.350;  220.050;    0.000
437.532; 2273.350;  252.050;    0.000
437.582; 2274.350;  270.050;    0.000
437.631; 2212.350;  251.050;    0.000
437.681; 2293.350;  284.050;    0.000
437.730; 2279.350;  239.050;    0.000
437.780; 2189.350;  221.050;    0.000
437.829; 2289.350;  254.050;    0.000
437.879; 2300.350;  221.050;    0.000
437.928; 2183.350;  205.050;    0.000
437.978; 2232.350;  223.050;    0.000
438.027; 2287.350;  262.050;    0.000
438.077; 2291.350;  280.050;    0.000
438.126; 2250.350;  254.050;    0.000
438.176; 2192.350;  230.050;    0.000
438.225; 2248.350;  227.050;    0.000
438.274; 2296.350;  264.050;    0.000
438.324; 2264.350;  233.050;    0.000
438.373; 2281.350;  238.050;    0.000
438.422; 2176.350;  260.050;    0.000
438.472; 2268.350;  223.050;    0.000
438.521; 2176.350;  213.050;    0.000
438.570; 2206.350;  236.050;    0.000
438.620; 2185.350;  282.050;    0.000
438.669; 2240.350;  209.050;    0.000
438.718; 2214.350;  245.050;    0.000
438.768; 2160.350;  238.050;    0.000
438.817; 2121.350;  259.050;    0.000
438.866; 2189.350;  232.050;    0.000
438.915; 2176.350;  288.050;    0.000
438.965; 2167.350;  228.050;    0.000
439.014; 2214.350;  246.050;    0.000
439.063; 2253.350;  287.050;    0.000
439.112; 2231.350;  217.050;    0.000
439.162; 2280.350;  275.050;    0.000
439.211; 2222.350;  287.050;    0.000
439.260; 2243.350;  238.050;    0.000
439.309; 2239.350;  225.050;    0.000
439.358; 2250.350;  248.050;    0.000
439.407; 2204.350;  237.050;    0.000
439.456; 2193.350;  223.050;    0.000
439.506; 2216.350;  266.050;    0.000
439.555; 2216.350;  260.050;    0.000
439.604; 2133.350;  233.050;    0.000
439.653; 2286.350;  242.050;    0.000
439.702; 2233.350;  255.050;    0.000
439.751; 2144.350;  202.050;    0.000
439.800; 2220.350;  247.050;    0.000
439.849; 2217.350;  250.050;    0.000
439.898; 2201.350;  216.050;    0.000
439.947; 2219.350;  231.050;    0.000
439.996; 2216.350;  272.050;    0.000
440.045; 2206.350;  217.050;    0.000
440.094; 2303.350;  220.050;    0.000
440.143; 2185.350;  245.050;    0.000
440.192; 2256.350;  267.050;    0.000
440.241; 2198.350;  263.050;    0.000
440.290; 2315.350;  246.050;    0.000
440.339; 2184.350;  225.050;    0.000
440.388; 2235.350;  256.050;    0.000
440.437; 2272.350;  253.050;    0.000
440.486; 2179.350;  249.050;    0.000
440.535; 2230.350;  232.050;    0.000
440.583; 2202.350;  220.050;    0.000
440.632; 2272.350;  239.050;    0.000
440.681; 2204.350;  236.050;    0.000
440.730; 2250.350;  282.050;    0.000
440.779; 2253.350;  245.050;    0.000
440.828; 2229.350;  213.050;    0.000
440.876; 2222.350;  231.050;    0.000
440.925; 2256.350;  271.050;    0.000
440.974; 2273.350;  240.050;    0.000
441.023; 2207.350;  214.050;    0.000
441.072; 2289.350;  236.050;    0.000
441.120; 2383.350;  271.050;    0.000
441.169; 2248.350;  281.050;    0.000
441.218; 2249.350;  255.050;    0.000
441.267; 2306.350;  272.050;    0.000
441.315; 2345.350;  229.050;    0.000
441.364; 2318.350;  241.050;    0.000
441.413; 2332.350;  224.050;    0.000
441.461; 2261.350;  241.050;    0.000
441.510; 2251.350;  289.050;    0.000
441.559; 2327.350;  222.050;    0.000
441.607; 2313.350;  242.050;    0.000
441.656; 2338.350;  255.050;    0.000
441.705; 2291.350;  260.050;    0.000
441.753; 2322.350;  290.050;    0.000
441.802; 2364.350;  264.050;    0.000
441.850; 2337.350;  224.050;    0.000
441.899; 2337.350;  275.050;    0.000
441.948; 2384.350;  227.050;    0.000
441.996; 2337.350;  216.050;    0.000
442.045; 2316.350;  271.050;    0.000
442.093; 2389.350;  227.050;    0.000
442.142; 2365.350;  273.050;    0.000
442.190; 2290.350;  257.050;    0.000
442.239; 2235.350;  269.050;    0.000
442.287; 2304.350;  257.050;    0.000
442.336; 2337.350;  237.050;    0.000
442.384; 2265.350;  214.050;    0.000
442.433; 2331.350;  272.050;    0.000
442.481; 2394.350;  258.050;    0.000
442.529; 2288.350;  242.050;    0.000
442.578; 2253.350;  278.050;    0.000
442.626; 2231.350;  264.050;    0.000
442.675; 2276.350;  293.050;    0.000
442.723; 2325.350;  244.050;    0.000
442.771; 2268.350;  232.050;    0.000
442.820; 2307.350;  266.050;    0.000
442.868; 2202.350;  253.050;    0.000
442.917; 2282.350;  250.050;    0.000
442.965; 2319.350;  279.050;    0.000
443.013; 2304.350;  253.050;    0.000
443.062; 2284.350;  282.050;    0.000
443.110; 2225.350;  258.050;    0.000
443.158; 2285.350;  246.050;    0.000
443.206; 2232.350;  255.050;    0.000
443.255; 2342.350;  296.050;    0.000
443.303; 2302.350;  272.050;    0.000
443.351; 2329.350;  270.050;    0.000
443.399; 2307.350;  258.050;    0.000
443.448; 2414.350;  265.050;    0.000
443.496; 2259.350;  219.050;    0.000
443.544; 2235.350;  205.050;    0.000
443.592; 2265.350;  266.050;    0.000
443.640; 2338.350;  260.050;    0.000
443.689; 2269.350;  232.050;    0.000
443.737; 2420.350;  281.050;    0.000
443.785; 2412.350;  248.050;    0.000
443.833; 2315.350;  286.050;    0.000
443.881; 2271.350;  225.050;    0.000
443.929; 2343.350;  255.050;    0.000
443.977; 2234.350;  248.050;    0.000
444.025; 2304.350;  255.050;    0.000
444.074; 2366.350;  266.050;    0.000
444.122; 2414.350;  266.050;    0.000
444.170; 2438.350;  207.050;    0.000
444.218; 2445.350;  253.050;    0.000
444.266; 2416.350;  263.050;    0.000
444.314; 2363.350;  272.050;    0.000
444.362; 2403.350;  272.050;    0.000
444.410; 2405.350;  255.050;    0.000
444.458; 2449.350;  288.050;    0.000
444.506; 2436.350;  263.050;    0.000
444.554; 2442.350;  243.050;    0.000
444.602; 2408.350;  285.050;    0.000
444.650; 2379.350;  273.050;    0.000
444.698; 2397.350;  221.050;    0.000
444.746; 2442.350;  243.050;    0.000
444.793; 2461.350;  217.050;    0.000
444.841; 2474.350;  262.050;    0.000
444.889; 2422.350;  264.050;    0.000
444.937; 2395.350;  226.050;    0.000
444.985; 2403.350;  257.050;    0.000
445.033; 2441.350;  264.050;    0.000
445.081; 2523.350;  264.050;    0.000
445.129; 2433.350;  187.050;    0.000
445.176; 2288.350;  212.050;    0.000
445.224; 2350.350;  198.050;    0.000
445.272; 2355.350;  265.050;    0.000
445.320; 2374.350;  239.050;    0.000
445.368; 2381.350;  245.050;    0.000
445.415; 2390.350;  215.050;    0.000
445.463; 2401.350;  202.050;    0.000
445.511; 2310.350;  234.050;    0.000
445.559; 2375.350;  269.050;    0.000
445.606; 2363.350;  214.050;    0.000
445.654; 2337.350;  227.050;    0.000
445.702; 2327.350;  276.050;    0.000
445.749; 2427.350;  256.050;    0.000
445.797; 2418.350;  236.050;    0.000
445.845; 2358.350;  230.050;    0.000
445.892; 2419.350;  233.050;    0.000
445.940; 2352.350;  257.050;    0.000
445.988; 2374.350;  253.050;    0.000
446.035; 2365.350;  265.050;    0.000
446.083; 2315.350;  254.050;    0.000
446.130; 2248.350;  228.050;    0.000
446.178; 2362.350;  256.050;    0.000
446.226; 2389.350;  238.050;    0.000
446.273; 2357.350;  228.050;    0.000
446.321; 2358.350;  220.050;    0.000
446.368; 2374.350;  249.050;    0.000
446.416; 2399.350;  221.050;    0.000
446.463; 2325.350;  232.050;    0.000
446.511; 2347.350;  243.050;    0.000
446.558; 2363.350;  217.050;    0.000
446.606; 2429.350;  256.050;    0.000
446.653; 2410.350;  238.050;    0.000
446.701; 2415.350;  259.050;    0.000
446.748; 2444.350;  227.050;    0.000
446.796; 2360.350;  236.050;    0.000
446.843; 2463.350;  241.050;    0.000
446.891; 2389.350;  292.050;    0.000
446.938; 2312.350;  219.050;    0.000
446.985; 2390.350;  255.050;    0.000
447.033; 2444.350;  237.050;    0.000
447.080; 2366.350;  278.050;    0.000
447.128; 2311.350;  237.050;    0.000
447.175; 2482.350;  247.050;    0.000
447.222; 2415.350;  235.050;    0.000
447.270; 2522.350;  274.050;    0.000
447.317; 2425.350;  222.050;    0.000
447.364; 2440.350;  230.050;    0.000
447.411; 2407.350;  297.050;    0.000
447.459; 2486.350;  243.050;    0.000
447.506; 2487.350;  202.050;    0.000
447.553; 2481.350;  232.050;    0.000
447.601; 2476.350;  262.050;    0.000
447.648; 2604.350;  254.050;    0.000
447.695; 2513.350;  287.050;    0.000
447.742; 2580.350;  232.050;    0.000
447.789; 2621.350;  257.050;    0.000
447.837; 2638.350;  260.050;    0.000
447.884; 2648.350;  272.050;    0.000
447.931; 2585.350;  241.050;    0.000
447.978; 2592.350;  241.050;    0.000
448.025; 2585.350;  264.050;    0.000
448.072; 2661.350;  279.050;    0.000
448.120; 2726.350;  263.050;    0.000
448.167; 2697.350;  284.050;    0.000
448.214; 2542.350;  252.050;    0.000
448.261; 2669.350;  247.050;    0.000
448.308; 2493.350;  249.050;    0.000
448.355; 2567.350;  263.050;    0.000
448.402; 2563.350;  251.050;    0.000
448.449; 2565.350;  257.050;    0.000
448.496; 2511.350;  243.050;    0.000
448.543; 2511.350;  274.050;    0.000
448.590; 2486.350;  299.050;    0.000
448.637; 2454.350;  259.050;    0.000
448.684; 2387.350;  266.050;    0.000
448.731; 2448.350;  261.050;    0.000
448.778; 2452.350;  292.050;    0.000
448.825; 2397.350;  253.050;    0.000
448.872; 2291.350;  253.050;    0.000
448.919; 2436.350;  218.050;    0.000
448.966; 2340.350;  254.050;    0.000
449.013; 2418.350;  263.050;    0.000
449.060; 2345.350;  282.050;    0.000
449.107; 2324.350;  244.050;    0.000
449.154; 2366.350;  236.050;    0.000
449.200; 2296.350;  226.050;    0.000
449.247; 2347.350;  273.050;    0.000
449.294; 2319.350;  270.050;    0.000
449.341; 2276.350;  283.050;    0.000
449.388; 2341.350;  261.050;    0.000
449.435; 2298.350;  254.050;    0.000
449.481; 2264.350;  318.050;    0.000
449.528; 2276.350;  274.050;    0.000
449.575; 2340.350;  251.050;    0.000
449.622; 2299.350;  276.050;    0.000
449.668; 2329.350;  242.050;    0.000
449.715; 2252.350;  286.050;    0.000
449.762; 2298.350;  268.050;    0.000
449.809; 2318.350;  285.050;    0.000
449.855; 2214.350;  277.050;    0.000
449.902; 2247.350;  246.050;    0.000
449.949; 2204.350;  268.050;    0.000
449.995; 2337.350;  289.050;    0.000
450.042; 2137.350;  256.050;    0.000
450.089; 2257.350;  290.050;    0.000
450.135; 2288.350;  300.050;    0.000
450.182; 2264.350;  317.050;    0.000
450.229; 2157.350;  282.050;    0.000
450.275; 2207.350;  307.050;    0.000
450.322; 2217.350;  260.050;    0.000
450.368; 2184.350;  315.050;    0.000
450.415; 2306.350;  306.050;    0.000
450.462; 2153.350;  314.050;    0.000
450.508; 2252.350;  303.050;    0.000
450.555; 2205.350;  281.050;    0.000
450.601; 2270.350;  291.050;    0.000
450.648; 2199.350;  288.050;    0.000
450.694; 2193.350;  290.050;    0.000
450.741; 2236.350;  303.050;    0.000
450.787; 2217.350;  298.050;    0.000
450.834; 2239.350;  265.050;    0.000
450.880; 2150.350;  273.050;    0.000
450.927; 2273.350;  312.050;    0.000
450.973; 2150.350;  303.050;    0.000
451.019; 2123.350;  222.050;    0.000
451.066; 2086.350;  284.050;    0.000
451.112; 2145.350;  296.050;    0.000
451.159; 2133.350;  299.050;    0.000
451.205; 2129.350;  311.050;    0.000
451.251; 2188.350;  306.050;    0.000
451.298; 2163.350;  281.050;    0.000
451.344; 2241.350;  311.050;    0.000
451.390; 2189.350;  331.050;    0.000
451.437; 2129.350;  303.050;    0.000
451.483; 2180.350;  284.050;    0.000
451.529; 2060.350;  310.050;    0.000
451.576; 2211.350;  301.050;    0.000
451.622; 2075.350;  275.050;    0.000
451.668; 2095.350;  269.050;    0.000
451.714; 2092.350;  277.050;    0.000
451.761; 2226.350;  298.050;    0.000
451.807; 2182.350;  316.050;    0.000
451.853; 2146.350;  301.050;    0.000
451.899; 2154.350;  292.050;    0.000
451.945; 2144.350;  324.050;    0.000
451.992; 2105.350;  292.050;    0.000
452.038; 2113.350;  261.050;    0.000
452.084; 2083.350;  286.050;    0.000
452.130; 2139.350;  301.050;    0.000
452.176; 2086.350;  287.050;    0.000
452.222; 2075.350;  265.050;    0.000
452.268; 2205.350;  268.050;    0.000
452.315; 2078.350;  272.050;    0.000
452.361; 2080.350;  258.050;    0.000
452.407; 2101.350;  279.050;    0.000
452.453; 2026.350;  252.050;    0.000
452.499; 2165.350;  305.050;    0.000
452.545; 2149.350;  263.050;    0.000
452.591; 2070.350;  284.050;    0.000
452.637; 2079.350;  289.050;    0.000
452.683; 2131.350;  249.050;    0.000
452.729; 2143.350;  290.050;    0.000
452.775; 2053.350;  315.050;    0.000
452.821; 2061.350;  271.050;    0.000
452.867; 2050.350;  258.050;    0.000
452.913; 2116.350;  256.050;    0.000
452.959; 2050.350;  266.050;    0.000
453.005; 2163.350;  299.050;    0.000
453.051; 2111.350;  299.050;    0.000
453.097; 2115.350;  268.050;    0.000
453.142; 2090.350;  251.050;    0.000
453.188; 2123.350;  284.050;    0.000
453.234; 2088.350;  285.050;    0.000
453.280; 2078.350;  263.050;    0.000
453.326; 2076.350;  273.050;    0.000
453.372; 2131.350;  253.050;    0.000
453.418; 2140.350;  269.050;    0.000
453.463; 2092.350;  250.050;    0.000
453.509; 2085.350;  289.050;    0.000
453.555; 2080.350;  262.050;    0.000
453.601; 2108.350;  274.050;    0.000
453.647; 2138.350;  306.050;    0.000
453.692; 2154.350;  264.050;    0.000
453.738; 2069.350;  312.050;    0.000
453.784; 2110.350;  300.050;    0.000
453.829; 2054.350;  284.050;    0.000
453.875; 2109.350;  270.050;    0.000
453.921; 2053.350;  237.050;    0.000
453.967; 2071.350;  263.050;    0.000
454.012; 2069.350;  295.050;    0.000
454.058; 2047.350;  293.050;    0.000
454.104; 1961.350;  264.050;    0.000
454.149; 2013.350;  282.050;    0.000
454.195; 2056.350;  277.050;    0.000
454.240; 2051.350;  307.050;    0.000
454.286; 2060.350;  282.050;    0.000
454.332; 2091.350;  291.050;    0.000
454.377; 2107.350;  302.050;    0.000
454.423; 2038.350;  276.050;    0.000
454.468; 2064.350;  281.050;    0.000
454.514; 2066.350;  290.050;    0.000
454.559; 2140.350;  289.050;    0.000
454.605; 2020.350;  258.050;    0.000
454.650; 2055.350;  281.050;    0.000
454.696; 2054.350;  308.050;    0.000
454.741; 2053.350;  288.050;    0.000
454.787; 2072.350;  284.050;    0.000
454.832; 2068.350;  306.050;    0.000
454.878; 2084.350;  288.050;    0.000
454.923; 2063.350;  287.050;    0.000
454.969; 2069.350;  325.050;    0.000
455.014; 2128.350;  323.050;    0.000
455.060; 2054.350;  290.050;    0.000
455.105; 2078.350;  285.050;    0.000
455.150; 2064.350;  303.050;    0.000
455.196; 2099.350;  282.050;    0.000
455.241; 2066.350;  281.050;    0.000
455.286; 2085.350;  290.050;    0.000
455.332; 2047.350;  280.050;    0.000
455.377; 1996.350;  243.050;    0.000
455.422; 2078.350;  308.050;    0.000
455.468; 2059.350;  308.050;    0.000
455.513; 2101.350;  290.050;    0.000
455.558; 1998.350;  211.050;    0.000
455.604; 2084.350;  289.050;    0.000
455.649; 2017.350;  297.050;    0.000
455.694; 2038.350;  287.050;    0.000
455.739; 2141.350;  296.050;    0.000
455.785; 2079.350;  315.050;    0.000
455.830; 2086.350;  328.050;    0.000
455.875; 2041.350;  310.050;    0.000
455.920; 2007.350;  261.050;    0.000
455.965; 1993.350;  277.050;    0.000
456.010; 2116.350;  317.050;    0.000
456.056; 2093.350;  299.050;    0.000
456.101; 2087.350;  262.050;    0.000
456.146; 2052.350;  318.050;    0.000
456.191; 2033.350;  274.050;    0.000
456.236; 2052.350;  274.050;    0.000
456.281; 2017.350;  275.050;    0.000
456.326; 2060.350;  256.050;    0.000
456.371; 2074.350;  260.050;    0.000
456.416; 2083.350;  304.050;    0.000
456.461; 2072.350;  278.050;    0.000
456.507; 2065.350;  299.050;    0.000
456.552; 2084.350;  305.050;    0.000
456.597; 2039.350;  271.050;    0.000
456.642; 2096.350;  273.050;    0.000
456.687; 2040.350;  290.050;    0.000
456.732; 2069.350;  327.050;    0.000
456.776; 2050.350;  284.050;    0.000
456.821; 2092.350;  321.050;    0.000
456.866; 2088.350;  272.050;    0.000
456.911; 2060.350;  232.050;    0.000
456.956; 2075.350;  263.050;    0.000
457.001; 2085.350;  277.050;    0.000
457.046; 2118.350;  284.050;    0.000
457.091; 2090.350;  269.050;    0.000
457.136; 2032.350;  269.050;    0.000
457.181; 2092.350;  275.050;    0.000
457.225; 2183.350;  310.050;    0.000
457.270; 2069.350;  295.050;    0.000
457.315; 2141.350;  284.050;    0.000
457.360; 2078.350;  264.050;    0.000
457.405; 2058.350;  273.050;    0.000
457.450; 2196.350;  284.050;    0.000
457.494; 2071.350;  273.050;    0.000
457.539; 2043.350;  287.050;    0.000
457.584; 2135.350;  279.050;    0.000
457.629; 2109.350;  288.050;    0.000
457.673; 2072.350;  297.050;    0.000
457.718; 2066.350;  270.050;    0.000
457.763; 2174.350;  295.050;    0.000
457.807; 2116.350;  321.050;    0.000
457.852; 2073.350;  293.050;    0.000
457.897; 2146.350;  282.050;    0.000
457.941; 2095.350;  320.050;    0.000
457.986; 2189.350;  295.050;    0.000
458.031; 2190.350;  314.050;    0.000
458.075; 2017.350;  280.050;    0.000
458.120; 2213.350;  314.050;    0.000
458.165; 2138.350;  289.050;    0.000
458.209; 2129.350;  289.050;    0.000
458.254; 2165.350;  272.050;    0.000
458.298; 2189.350;  305.050;    0.000
458.343; 2169.350;  284.050;    0.000
458.387; 2139.350;  340.050;    0.000
458.432; 2161.350;  306.050;    0.000
458.476; 2277.350;  311.050;    0.000
458.521; 2125.350;  304.050;    0.000
458.565; 2187.350;  329.050;    0.000
458.610; 2162.350;  287.050;    0.000
458.654; 2163.350;  300.050;    0.000
458.699; 2185.350;  295.050;    0.000
458.743; 2135.350;  269.050;    0.000
458.788; 2204.350;  294.050;    0.000
458.832; 2211.350;  301.050;    0.000
458.877; 2240.350;  303.050;    0.000
458.921; 2275.350;  259.050;    0.000
458.965; 2224.350;  308.050;    0.000
459.010; 2296.350;  330.050;    0.000
459.054; 2262.350;  298.050;    0.000
459.099; 2224.350;  303.050;    0.000
459.143; 2272.350;  333.050;    0.000
459.187; 2284.350;  291.050;    0.000
459.231; 2328.350;  316.050;    0.000
459.276; 2283.350;  294.050;    0.000
459.320; 2308.350;  291.050;    0.000
459.364; 2366.350;  318.050;    0.000
459.409; 2304.350;  325.050;    0.000
459.453; 2280.350;  293.050;    0.000
459.497; 2406.350;  354.050;    0.000
459.541; 2382.350;  313.050;    0.000
459.586; 2311.350;  282.050;    0.000
459.630; 2354.350;  286.050;    0.000
459.674; 2282.350;  292.050;    0.000
459.718; 2337.350;  280.050;    0.000
459.762; 2307.350;  304.050;    0.000
459.807; 2310.350;  352.050;    0.000
459.851; 2355.350;  300.050;    0.000
459.895; 2303.350;  311.050;    0.000
459.939; 2371.350;  303.050;    0.000
459.983; 2348.350;  299.050;    0.000
460.027; 2353.350;  307.050;    0.000
460.071; 2292.350;  313.050;    0.000
460.115; 2444.350;  325.050;    0.000
460.159; 2326.350;  331.050;    0.000
460.204; 2336.350;  301.050;    0.000
460.248; 2395.350;  329.050;    0.000
460.292; 2388.350;  310.050;    0.000
460.336; 2430.350;  304.050;    0.000
460.380; 2379.350;  313.050;    0.000
460.424; 2404.350;  300.050;    0.000
460.468; 2424.350;  338.050;    0.000
460.512; 2474.350;  310.050;    0.000
460.556; 2431.350;  337.050;    0.000
460.599; 2436.350;  310.050;    0.000
460.643; 2424.350;  303.050;    0.000
460.687; 2354.350;  316.050;    0.000
460.731; 2381.350;  292.050;    0.000
460.775; 2360.350;  294.050;    0.000
460.819; 2490.350;  310.050;    0.000
460.863; 2472.350;  349.050;    0.000
460.907; 2381.350;  265.050;    0.000
460.951; 2439.350;  325.050;    0.000
460.995; 2394.350;  338.050;    0.000
461.038; 2419.350;  304.050;    0.000
461.082; 2404.350;  312.050;    0.000
461.126; 2467.350;  358.050;    0.000
461.170; 2464.350;  306.050;    0.000
461.214; 2479.350;  330.050;    0.000
461.257; 2490.350;  311.050;    0.000
461.301; 2474.350;  303.050;    0.000
461.345; 2440.350;  310.050;    0.000
461.389; 2388.350;  296.050;    0.000
461.432; 2514.350;  304.050;    0.000
461.476; 2321.350;  305.050;    0.000
461.520; 2427.350;  319.050;    0.000
461.563; 2416.350;  294.050;    0.000
461.607; 2450.350;  295.050;    0.000
461.651; 2537.350;  335.050;    0.000
461.694; 2445.350;  276.050;    0.000
461.738; 2444.350;  327.050;    0.000
461.782; 2476.350;  288.050;    0.000
461.825; 2425.350;  319.050;    0.000
461.869; 2449.350;  305.050;    0.000
461.913; 2461.350;  281.050;    0.000
461.956; 2430.350;  281.050;    0.000
462.000; 2466.350;  339.050;    0.000
462.043; 2459.350;  347.050;    0.000
462.087; 2433.350;  314.050;    0.000
462.130; 2463.350;  332.050;    0.000
462.174; 2567.350;  332.050;    0.000
462.217; 2541.350;  299.050;    0.000
462.261; 2542.350;  323.050;    0.000
462.304; 2459.350;  286.050;    0.000
462.348; 2566.350;  305.050;    0.000
462.391; 2472.350;  293.050;    0.000
462.435; 2573.350;  365.050;    0.000
462.478; 2507.350;  329.050;    0.000
462.522; 2554.350;  316.050;    0.000
462.565; 2583.350;  328.050;    0.000
462.608; 2614.350;  350.050;    0.000
462.652; 2613.350;  328.050;    0.000
462.695; 2642.350;  358.050;    0.000
462.739; 2645.350;  317.050;    0.000
462.782; 2736.350;  329.050;    0.000
462.825; 2669.350;  368.050;    0.000
462.869; 2753.350;  343.050;    0.000
462.912; 2711.350;  404.050;    0.000
462.955; 2767.350;  328.050;    0.000
462.998; 2738.350;  340.050;    0.000
463.042; 2759.350;  361.050;    0.000
463.085; 2773.350;  337.050;    0.000
463.128; 2708.350;  373.050;    0.000
463.172; 2620.350;  347.050;    0.000
463.215;  381.350;  305.050;    0.000
463.258;  332.350;  324.050;    0.000
463.301;  323.350;  296.050;    0.000
463.344;  326.350;  332.050;    0.000
463.388;  310.350;  309.050;    0.000
463.431;  305.350;  298.050;    0.000
463.474;  354.350;  351.050;    0.000
463.517;  322.350;  319.050;    0.000
463.560;  317.350;  325.050;    0.000
463.603;  367.350;  330.050;    0.000
463.646;  349.350;  332.050;    0.000
463.690;  323.350;  325.050;    0.000
463.733;  305.350;  323.050;    0.000
463.776;  299.350;  276.050;    0.000
463.819;  336.350;  320.050;    0.000
463.862;  327.350;  275.050;    0.000

