
Integration time [ms]:   1.000
Averaging Nr. [scans]: 1
Smoothing Nr. [pixels]: 0
Data measured with spectrometer [name]: VIS
Wave   ;Sample   ;Dark     ;Reference
[nm]   ;[counts] ;[counts] ;[counts] 

450.961;  166.000;  200.375;    0.000
451.100;  212.000;  241.375;    0.000
451.239;  182.000;  201.375;    0.000
451.377;  246.000;  262.375;    0.000
451.516;  222.000;  229.375;    0.000
451.655;  195.000;  211.375;    0.000
451.794;  242.000;  225.375;    0.000
451.932;  231.000;  247.375;    0.000
452.071;  211.000;  260.375;    0.000
452.210;  207.000;  235.375;    0.000
452.348;  196.000;  276.375;    0.000
452.487;  213.000;  259.375;    0.000
452.626;  220.000;  254.375;    0.000
452.764;  244.000;  233.375;    0.000
452.903;  196.000;  202.375;    0.000
453.042;  226.000;  211.375;    0.000
453.180; 1545.000;  240.375;    0.000
453.319; 1552.000;  238.375;    0.000
453.458; 1478.000;  215.375;    0.000
453.596; 1584.000;  252.375;    0.000
453.735; 1575.000;  240.375;    0.000
453.873; 1579.000;  257.375;    0.000
454.012; 1654.000;  228.375;    0.000
454.150; 1559.000;  270.375;    0.000
454.289; 1630.000;  233.375;    0.000
454.427; 1676.000;  243.375;    0.000
454.566; 1638.000;  257.375;    0.000
454.704; 1725.000;  243.375;    0.000
454.843; 1680.000;  190.375;    0.000
454.981; 1685.000;  271.375;    0.000
455.120; 1652.000;  210.375;    0.000
455.258; 1801.000;  235.375;    0.000
455.397; 1683.000;  214.375;    0.000
455.535; 1718.000;  214.375;    0.000
455.674; 1747.000;  184.375;    0.000
455.812; 1776.000;  228.375;    0.000
455.951; 1685.000;  204.375;    0.000
456.089; 1754.000;  220.375;    0.000
456.227; 1781.000;  196.375;    0.000
456.366; 1880.000;  261.375;    0.000
456.504; 1816.000;  249.375;    0.000
456.642; 1873.000;  245.375;    0.000
456.781; 1911.000;  183.375;    0.000
456.919; 1885.000;  203.375;    0.000
457.057; 1942.000;  177.375;    0.000
457.196; 2008.000;  191.375;    0.000
457.334; 1953.000;  233.375;    0.000
457.472; 1986.000;  214.375;    0.000
457.610; 2045.000;  230.375;    0.000
457.749; 2099.000;  247.375;    0.000
457.887; 2012.000;  220.375;    0.000
458.025; 2087.000;  195.375;    0.000
458.163; 2105.000;  224.375;    0.000
458.301; 2141.000;  228.375;    0.000
458.440; 2206.000;  200.375;    0.000
458.578; 2178.000;  233.375;    0.000
458.716; 2126.000;  182.375;    0.000
458.854; 2215.000;  251.375;    0.000
458.992; 2111.000;  187.375;    0.000
459.130; 2237.000;  229.375;    0.000
459.269; 2241.000;  237.375;    0.000
459.407; 2257.000;  228.375;    0.000
459.545; 2270.000;  216.375;    0.000
459.683; 2220.000;  204.375;    0.000
459.821; 2259.000;  191.375;    0.000
459.959; 2301.000;  227.375;    0.000
460.097; 2319.000;  221.375;    0.000
460.235; 2271.000;  241.375;    0.000
460.373; 2392.000;  231.375;    0.000
460.511; 2380.000;  214.375;    0.000
460.649; 2365.000;  172.375;    0.000
460.787; 2542.000;  275.375;    0.000
460.925; 2410.000;  175.375;    0.000
461.063; 2514.000;  252.375;    0.000
461.201; 2462.000;  210.375;    0.000
461.339; 2505.000;  237.375;    0.000
461.477; 2457.000;  210.375;    0.000
461.615; 2495.000;  236.375;    0.000
461.753; 2515.000;  215.375;    0.000
461.891; 2625.000;  222.375;    0.000
462.029; 2653.000;  227.375;    0.000
462.166; 2651.000;  202.375;    0.000
462.304; 2598.000;  191.375;    0.000
462.442; 2622.000;  210.375;    0.000
462.580; 2679.000;  184.375;    0.000
462.718; 2665.000;  220.375;    0.000
462.856; 2602.000;  226.375;    0.000
462.993; 2623.000;  254.375;    0.000
463.131; 2647.000;  200.375;    0.000
463.269; 2596.000;  215.375;    0.000
463.407; 2617.000;  213.375;    0.000
463.545; 2515.000;  242.375;    0.000
463.682; 2534.000;  212.375;    0.000
463.820; 2622.000;  185.375;    0.000
463.958; 2806.000;  212.375;    0.000
464.095; 2767.000;  181.375;    0.000
464.233; 2820.000;  192.375;    0.000
464.371; 2799.000;  247.375;    0.000
464.509; 2735.000;  151.375;    0.000
464.646; 2929.000;  207.375;    0.000
464.784; 2838.000;  199.375;    0.000
464.921; 2792.000;  253.375;    0.000
465.059; 2690.000;  214.375;    0.000
465.197; 2772.000;  200.375;    0.000
465.334; 2699.000;  180.375;    0.000
465.472; 2703.000;  204.375;    0.000
465.609; 2720.000;  203.375;    0.000
465.747; 2635.000;  214.375;    0.000
465.885; 2656.000;  233.375;    0.000
466.022; 2640.000;  215.375;    0.000
466.160; 2666.000;  201.375;    0.000
466.297; 2658.000;  196.375;    0.000
466.435; 2618.000;  230.375;    0.000
466.572; 2644.000;  227.375;    0.000
466.710; 2614.000;  218.375;    0.000
466.847; 2687.000;  245.375;    0.000
466.985; 2625.000;  223.375;    0.000
467.122; 2549.000;  168.375;    0.000
467.260; 2546.000;  196.375;    0.000
467.397; 2529.000;  198.375;    0.000
467.534; 2660.000;  219.375;    0.000
467.672; 2641.000;  214.375;    0.000
467.809; 2613.000;  185.375;    0.000
467.947; 2683.000;  247.375;    0.000
468.084; 2667.000;  196.375;    0.000
468.221; 2638.000;  238.375;    0.000
468.359; 2607.000;  236.375;    0.000
468.496; 2649.000;  235.375;    0.000
468.633; 2548.000;  218.375;    0.000
468.771; 2648.000;  223.375;    0.000
468.908; 2623.000;  208.375;    0.000
469.045; 2668.000;  249.375;    0.000
469.183; 2657.000;  222.375;    0.000
469.320; 2626.000;  216.375;    0.000
469.457; 2658.000;  224.375;    0.000
469.594; 2738.000;  259.375;    0.000
469.732; 2704.000;  223.375;    0.000
469.869; 2701.000;  234.375;    0.000
470.006; 2745.000;  225.375;    0.000
470.143; 2755.000;  243.375;    0.000
470.280; 2853.000;  208.375;    0.000
470.417; 2804.000;  232.375;    0.000
470.555; 2797.000;  218.375;    0.000
470.692; 2763.000;  223.375;    0.000
470.829; 2708.000;  238.375;    0.000
470.966; 2727.000;  205.375;    0.000
471.103; 2722.000;  259.375;    0.000
471.240; 2719.000;  214.375;    0.000
471.377; 2756.000;  226.375;    0.000
471.514; 2746.000;  250.375;    0.000
471.651; 2722.000;  221.375;    0.000
471.789; 2731.000;  242.375;    0.000
471.926; 2754.000;  190.375;    0.000
472.063; 2728.000;  234.375;    0.000
472.200; 2693.000;  252.375;    0.000
472.337; 2757.000;  241.375;    0.000
472.474; 2654.000;  244.375;    0.000
472.611; 2731.000;  268.375;    0.000
472.748; 2774.000;  222.375;    0.000
472.884; 2795.000;  271.375;    0.000
473.021; 2775.000;  195.375;    0.000
473.158; 2699.000;  205.375;    0.000
473.295; 2708.000;  223.375;    0.000
473.432; 2677.000;  216.375;    0.000
473.569; 2674.000;  196.375;    0.000
473.706; 2710.000;  190.375;    0.000
473.843; 2672.000;  211.375;    0.000
473.980; 2642.000;  254.375;    0.000
474.117; 2781.000;  185.375;    0.000
474.253; 2739.000;  229.375;    0.000
474.390; 2683.000;  238.375;    0.000
474.527; 2688.000;  220.375;    0.000
474.664; 2773.000;  242.375;    0.000
474.801; 2831.000;  229.375;    0.000
474.937; 2792.000;  229.375;    0.000
475.074; 2786.000;  210.375;    0.000
475.211; 2742.000;  219.375;    0.000
475.348; 2827.000;  226.375;    0.000
475.484; 2834.000;  207.375;    0.000
475.621; 2774.000;  233.375;    0.000
475.758; 2763.000;  230.375;    0.000
475.894; 2829.000;  234.375;    0.000
476.031; 2752.000;  202.375;    0.000
476.168; 2793.000;  222.375;    0.000
476.304; 2783.000;  237.375;    0.000
476.441; 2874.000;  238.375;    0.000
476.578; 2837.000;  216.375;    0.000
476.714; 2778.000;  212.375;    0.000
476.851; 2757.000;  210.375;    0.000
476.987; 2860.000;  239.375;    0.000
477.124; 2863.000;  250.375;    0.000
477.261; 2855.000;  227.375;    0.000
477.397; 2781.000;  189.375;    0.000
477.534; 2897.000;  204.375;    0.000
477.670; 2938.000;  190.375;    0.000
477.807; 2900.000;  198.375;    0.000
477.943; 2888.000;  216.375;    0.000
478.080; 2959.000;  213.375;    0.000
478.216; 2989.000;  239.375;    0.000
478.353; 3031.000;  218.375;    0.000
478.489; 2932.000;  184.375;    0.000
478.626; 2964.000;  223.375;    0.000
478.762; 2980.000;  213.375;    0.000
478.898; 3019.000;  216.375;    0.000
479.035; 3018.000;  250.375;    0.000
479.171; 3046.000;  201.375;    0.000
479.308; 3058.000;  242.375;    0.000
479.444; 2974.000;  205.375;    0.000
479.580; 3012.000;  203.375;    0.000
479.717; 3053.000;  260.375;    0.000
479.853; 2991.000;  225.375;    0.000
479.989; 3065.000;  226.375;    0.000
480.126; 2969.000;  211.375;    0.000
480.262; 3070.000;  220.375;    0.000
480.398; 3041.000;  207.375;    0.000
480.535; 3046.000;  179.375;    0.000
480.671; 3181.000;  200.375;    0.000
480.807; 3125.000;  190.375;    0.000
480.943; 3033.000;  165.375;    0.000
481.080; 3045.000;  210.375;    0.000
481.216; 3013.000;  232.375;    0.000
481.352; 3043.000;  235.375;    0.000
481.488; 2967.000;  208.375;    0.000
481.624; 3097.000;  245.375;    0.000
481.760; 3003.000;  210.375;    0.000
481.897; 2951.000;  189.375;    0.000
482.033; 3062.000;  256.375;    0.000
482.169; 3062.000;  257.375;    0.000
482.305; 2985.000;  199.375;    0.000
482.441; 2936.000;  182.375;    0.000
482.577; 3026.000;  223.375;    0.000
482.713; 3131.000;  243.375;    0.000
482.849; 3129.000;  197.375;    0.000
482.985; 3065.000;  240.375;    0.000
483.121; 3000.000;  210.375;    0.000
483.258; 2993.000;  248.375;    0.000
483.394; 3048.000;  224.375;    0.000
483.530; 3039.000;  209.375;    0.000
483.665; 3019.000;  225.375;    0.000
483.801; 2968.000;  216.375;    0.000
483.937; 3095.000;  211.375;    0.000
484.073; 3024.000;  259.375;    0.000
484.209; 2984.000;  191.375;    0.000
484.345; 3118.000;  239.375;    0.000
484.481; 3170.000;  231.375;    0.000
484.617; 3112.000;  216.375;    0.000
484.753; 3048.000;  180.375;    0.000
484.889; 3080.000;  252.375;    0.000
485.025; 3051.000;  244.375;    0.000
485.161; 3093.000;  242.375;    0.000
485.296; 3090.000;  235.375;    0.000
485.432; 3134.000;  247.375;    0.000
485.568; 3100.000;  203.375;    0.000
485.704; 3114.000;  229.375;    0.000
485.840; 3105.000;  230.375;    0.000
485.975; 3183.000;  266.375;    0.000
486.111; 3127.000;  220.375;    0.000
486.247; 3068.000;  264.375;    0.000
486.383; 3069.000;  213.375;    0.000
486.518; 3131.000;  222.375;    0.000
486.654; 3110.000;  244.375;    0.000
486.790; 3204.000;  273.375;    0.000
486.926; 3104.000;  203.375;    0.000
487.061; 3199.000;  227.375;    0.000
487.197; 3096.000;  210.375;    0.000
487.333; 3185.000;  209.375;    0.000
487.468; 3182.000;  197.375;    0.000
487.604; 3084.000;  230.375;    0.000
487.740; 3162.000;  254.375;    0.000
487.875; 3058.000;  286.375;    0.000
488.011; 3163.000;  225.375;    0.000
488.146; 3113.000;  251.375;    0.000
488.282; 3058.000;  242.375;    0.000
488.417; 3177.000;  230.375;    0.000
488.553; 3189.000;  260.375;    0.000
488.688; 3240.000;  207.375;    0.000
488.824; 3091.000;  204.375;    0.000
488.960; 3119.000;  248.375;    0.000
489.095; 3137.000;  204.375;    0.000
489.230; 3269.000;  227.375;    0.000
489.366; 3138.000;  226.375;    0.000
489.501; 3216.000;  199.375;    0.000
489.637; 3214.000;  233.375;    0.000
489.772; 3145.000;  249.375;    0.000
489.908; 3203.000;  200.375;    0.000
490.043; 3141.000;  246.375;    0.000
490.178; 3156.000;  222.375;    0.000
490.314; 3241.000;  219.375;    0.000
490.449; 3189.000;  227.375;    0.000
490.585; 3084.000;  209.375;    0.000
490.720; 3219.000;  238.375;    0.000
490.855; 3172.000;  222.375;    0.000
490.991; 3103.000;  202.375;    0.000
491.126; 3131.000;  272.375;    0.000
491.261; 3124.000;  261.375;    0.000
491.396; 3142.000;  190.375;    0.000
491.532; 3196.000;  202.375;    0.000
491.667; 3126.000;  208.375;    0.000
491.802; 3118.000;  203.375;    0.000
491.937; 3130.000;  253.375;    0.000
492.073; 3145.000;  242.375;    0.000
492.208; 3146.000;  230.375;    0.000
492.343; 3169.000;  183.375;    0.000
492.478; 3221.000;  246.375;    0.000
492.613; 3147.000;  223.375;    0.000
492.749; 3123.000;  230.375;    0.000
492.884; 3143.000;  190.375;    0.000
493.019; 3223.000;  234.375;    0.000
493.154; 3157.000;  218.375;    0.000
493.289; 3114.000;  222.375;    0.000
493.424; 3192.000;  196.375;    0.000
493.559; 3188.000;  202.375;    0.000
493.694; 3170.000;  180.375;    0.000
493.829; 3157.000;  224.375;    0.000
493.964; 3183.000;  218.375;    0.000
494.099; 3180.000;  275.375;    0.000
494.234; 3232.000;  226.375;    0.000
494.369; 3117.000;  225.375;    0.000
494.504; 3163.000;  219.375;    0.000
494.639; 3174.000;  296.375;    0.000
494.774; 3140.000;  228.375;    0.000
494.909; 3242.000;  222.375;    0.000
495.044; 3147.000;  215.375;    0.000
495.179; 3184.000;  200.375;    0.000
495.314; 3139.000;  235.375;    0.000
495.449; 3248.000;  249.375;    0.000
495.584; 3133.000;  228.375;    0.000
495.719; 3238.000;  212.375;    0.000
495.854; 3126.000;  201.375;    0.000
495.988; 3192.000;  248.375;    0.000
496.123; 3190.000;  209.375;    0.000
496.258; 3277.000;  249.375;    0.000
496.393; 3271.000;  223.375;    0.000
496.528; 3265.000;  209.375;    0.000
496.663; 3212.000;  207.375;    0.000
496.797; 3229.000;  229.375;    0.000
496.932; 3323.000;  225.375;    0.000
497.067; 3354.000;  218.375;    0.000
497.202; 3313.000;  163.375;    0.000
497.336; 3318.000;  246.375;    0.000
497.471; 3251.000;  229.375;    0.000
497.606; 3322.000;  251.375;    0.000
497.740; 3353.000;  220.375;    0.000
497.875; 3429.000;  216.375;    0.000
498.010; 3417.000;  226.375;    0.000
498.144; 3440.000;  237.375;    0.000
498.279; 3489.000;  196.375;    0.000
498.414; 3599.000;  219.375;    0.000
498.548; 3641.000;  205.375;    0.000
498.683; 3621.000;  206.375;    0.000
498.817; 3770.000;  225.375;    0.000
498.952; 3773.000;  221.375;    0.000
499.087; 3832.000;  220.375;    0.000
499.221; 3855.000;  233.375;    0.000
499.356; 3955.000;  230.375;    0.000
499.490; 3947.000;  229.375;    0.000
499.625; 3925.000;  231.375;    0.000
499.759; 4222.000;  243.375;    0.000
499.894; 4250.000;  241.375;    0.000
500.028; 4262.000;  264.375;    0.000
500.162; 4396.000;  287.375;    0.000
500.297; 4321.000;  234.375;    0.000
500.431; 4413.000;  230.375;    0.000
500.566; 4375.000;  213.375;    0.000
500.700; 4387.000;  243.375;    0.000
500.835; 4402.000;  272.375;    0.000
500.969; 4259.000;  188.375;    0.000
501.103; 4233.000;  200.375;    0.000
501.238; 4116.000;  257.375;    0.000
501.372; 4098.000;  224.375;    0.000
501.506; 3945.000;  225.375;    0.000
501.641; 3948.000;  271.375;    0.000
501.775; 3853.000;  199.375;    0.000
501.909; 3720.000;  249.375;    0.000
502.043; 3765.000;  211.375;    0.000
502.178; 3629.000;  269.375;    0.000
502.312; 3518.000;  198.375;    0.000
502.446; 3527.000;  256.375;    0.000
502.580; 3478.000;  195.375;    0.000
502.715; 3441.000;  224.375;    0.000
502.849; 3257.000;  245.375;    0.000
502.983; 3367.000;  250.375;    0.000
503.117; 3302.000;  193.375;    0.000
503.251; 3231.000;  242.375;    0.000
503.385; 3295.000;  227.375;    0.000
503.520; 3219.000;  235.375;    0.000
503.654; 3122.000;  220.375;    0.000
503.788; 3131.000;  267.375;    0.000
503.922; 3148.000;  220.375;    0.000
504.056; 3162.000;  238.375;    0.000
504.190; 3090.000;  212.375;    0.000
504.324; 3037.000;  265.375;    0.000
504.458; 3120.000;  228.375;    0.000
504.592; 3012.000;  231.375;    0.000
504.726; 3083.000;  218.375;    0.000
504.860; 2985.000;  253.375;    0.000
504.994; 3017.000;  217.375;    0.000
505.128; 2992.000;  243.375;    0.000
505.262; 2938.000;  194.375;    0.000
505.396; 2842.000;  210.375;    0.000
505.530; 2811.000;  211.375;    0.000
505.664; 2899.000;  219.375;    0.000
505.798; 2766.000;  240.375;    0.000
505.932; 2753.000;  240.375;    0.000
506.066; 2831.000;  252.375;    0.000
506.199; 2770.000;  242.375;    0.000
506.333; 2708.000;  244.375;    0.000
506.467; 2773.000;  223.375;    0.000
506.601; 2677.000;  183.375;    0.000
506.735; 2664.000;  249.375;    0.000
506.869; 2587.000;  270.375;    0.000
507.002; 2676.000;  207.375;    0.000
507.136; 2689.000;  242.375;    0.000
507.270; 2625.000;  232.375;    0.000
507.404; 2654.000;  195.375;    0.000
507.537; 2614.000;  218.375;    0.000
507.671; 2602.000;  246.375;    0.000
507.805; 2589.000;  244.375;    0.000
507.939; 2605.000;  251.375;    0.000
508.072; 2547.000;  212.375;    0.000
508.206; 2555.000;  198.375;    0.000
508.340; 2595.000;  234.375;    0.000
508.473; 2495.000;  217.375;    0.000
508.607; 2533.000;  224.375;    0.000
508.740; 2536.000;  207.375;    0.000
508.874; 2474.000;  230.375;    0.000
509.008; 2592.000;  246.375;    0.000
509.141; 2592.000;  239.375;    0.000
509.275; 2493.000;  229.375;    0.000
509.408; 2450.000;  234.375;    0.000
509.542; 2531.000;  212.375;    0.000
509.675; 2516.000;  256.375;    0.000
509.809; 2502.000;  232.375;    0.000
509.942; 2537.000;  237.375;    0.000
510.076; 2513.000;  226.375;    0.000
510.209; 2458.000;  251.375;    0.000
510.343; 2462.000;  229.375;    0.000
510.476; 2519.000;  285.375;    0.000
510.610; 2443.000;  211.375;    0.000
510.743; 2463.000;  258.375;    0.000
510.877; 2439.000;  244.375;    0.000
511.010; 2393.000;  235.375;    0.000
511.143; 2414.000;  251.375;    0.000
511.277; 2382.000;  228.375;    0.000
511.410; 2396.000;  216.375;    0.000
511.543; 2422.000;  231.375;    0.000
511.677; 2263.000;  244.375;    0.000
511.810; 2405.000;  186.375;    0.000
511.943; 2421.000;  211.375;    0.000
512.077; 2372.000;  201.375;    0.000
512.210; 2363.000;  194.375;    0.000
512.343; 2354.000;  233.375;    0.000
512.476; 2347.000;  234.375;    0.000
512.610; 2353.000;  224.375;    0.000
512.743; 2344.000;  255.375;    0.000
512.876; 2366.000;  264.375;    0.000
513.009; 2369.000;  283.375;    0.000
513.142; 2404.000;  246.375;    0.000
513.276; 2303.000;  217.375;    0.000
513.409; 2418.000;  222.375;    0.000
513.542; 2357.000;  237.375;    0.000
513.675; 2365.000;  238.375;    0.000
513.808; 2348.000;  220.375;    0.000
513.941; 2342.000;  233.375;    0.000
514.074; 2341.000;  248.375;    0.000
514.207; 2345.000;  233.375;    0.000
514.340; 2349.000;  190.375;    0.000
514.474; 2276.000;  221.375;    0.000
514.607; 2373.000;  213.375;    0.000
514.740; 2321.000;  251.375;    0.000
514.873; 2415.000;  257.375;    0.000
515.006; 2439.000;  268.375;    0.000
515.139; 2414.000;  257.375;    0.000
515.272; 2267.000;  227.375;    0.000
515.404; 2415.000;  238.375;    0.000
515.537; 2418.000;  275.375;    0.000
515.670; 2394.000;  239.375;    0.000
515.803; 2493.000;  223.375;    0.000
515.936; 2444.000;  202.375;    0.000
516.069; 2436.000;  188.375;    0.000
516.202; 2573.000;  240.375;    0.000
516.335; 2671.000;  252.375;    0.000
516.468; 2617.000;  254.375;    0.000
516.600; 3050.000;  254.375;    0.000
516.733; 3738.000;  255.375;    0.000
516.866; 3527.000;  265.375;    0.000
516.999; 3336.000;  251.375;    0.000
517.132; 4145.000;  256.375;    0.000
517.264; 5531.000;  202.375;    0.000
517.397; 5249.000;  248.375;    0.000
517.530; 4004.000;  221.375;    0.000
517.663; 3452.000;  244.375;    0.000
517.795; 3191.000;  245.375;    0.000
517.928; 3118.000;  236.375;    0.000
518.061; 3087.000;  219.375;    0.000
518.193; 4104.000;  251.375;    0.000
518.326; 6328.000;  271.375;    0.000
518.459; 6568.000;  207.375;    0.000
518.591; 4937.000;  217.375;    0.000
518.724; 3762.000;  200.375;    0.000
518.857; 3298.000;  204.375;    0.000
518.989; 3166.000;  242.375;    0.000
519.122; 2912.000;  254.375;    0.000
519.254; 2883.000;  239.375;    0.000
519.387; 2717.000;  235.375;    0.000
519.519; 2639.000;  227.375;    0.000
519.652; 2577.000;  178.375;    0.000
519.784; 2546.000;  226.375;    0.000
519.917; 2530.000;  256.375;    0.000
520.049; 2447.000;  234.375;    0.000
520.182; 2432.000;  258.375;    0.000
520.314; 2469.000;  298.375;    0.000
520.447; 2393.000;  204.375;    0.000
520.579; 2315.000;  235.375;    0.000
520.712; 2374.000;  208.375;    0.000
520.844; 2350.000;  272.375;    0.000
520.976; 2307.000;  234.375;    0.000
521.109; 2247.000;  235.375;    0.000
521.241; 2322.000;  250.375;    0.000
521.373; 2279.000;  233.375;    0.000
521.506; 2265.000;  231.375;    0.000
521.638; 2242.000;  258.375;    0.000
521.770; 2266.000;  226.375;    0.000
521.903; 2267.000;  258.375;    0.000
522.035; 2182.000;  263.375;    0.000
522.167; 2157.000;  214.375;    0.000
522.300; 2179.000;  212.375;    0.000
522.432; 2163.000;  220.375;    0.000
522.564; 2138.000;  228.375;    0.000
522.696; 2239.000;  272.375;    0.000
522.828; 2185.000;  222.375;    0.000
522.961; 2182.000;  205.375;    0.000
523.093; 2150.000;  253.375;    0.000
523.225; 2099.000;  239.375;    0.000
523.357; 2134.000;  263.375;    0.000
523.489; 2155.000;  264.375;    0.000
523.621; 2055.000;  259.375;    0.000
523.753; 2143.000;  233.375;    0.000
523.885; 2084.000;  232.375;    0.000
524.018; 2093.000;  214.375;    0.000
524.150; 2136.000;  235.375;    0.000
524.282; 2124.000;  242.375;    0.000
524.414; 2118.000;  261.375;    0.000
524.546; 2016.000;  233.375;    0.000
524.678; 2037.000;  242.375;    0.000
524.810; 2090.000;  216.375;    0.000
524.942; 2004.000;  220.375;    0.000
525.074; 2023.000;  249.375;    0.000
525.206; 2104.000;  227.375;    0.000
525.338; 1997.000;  250.375;    0.000
525.469; 1975.000;  231.375;    0.000
525.601; 1960.000;  245.375;    0.000
525.733; 1962.000;  187.375;    0.000
525.865; 1988.000;  280.375;    0.000
525.997; 2053.000;  216.375;    0.000
526.129; 2002.000;  228.375;    0.000
526.261; 2016.000;  187.375;    0.000
526.393; 2001.000;  228.375;    0.000
526.524; 1952.000;  201.375;    0.000
526.656; 1917.000;  199.375;    0.000
526.788; 1995.000;  233.375;    0.000
526.920; 1922.000;  256.375;    0.000
527.052; 1935.000;  219.375;    0.000
527.183; 1916.000;  227.375;    0.000
527.315; 2007.000;  266.375;    0.000
527.447; 2008.000;  239.375;    0.000
527.578; 1833.000;  213.375;    0.000
527.710; 2012.000;  216.375;    0.000
527.842; 1980.000;  240.375;    0.000
527.973; 1954.000;  286.375;    0.000
528.105; 1926.000;  222.375;    0.000
528.237; 2009.000;  223.375;    0.000
528.368; 1892.000;  211.375;    0.000
528.500; 1928.000;  215.375;    0.000
528.632; 2011.000;  216.375;    0.000
528.763; 1887.000;  234.375;    0.000
528.895; 1949.000;  196.375;    0.000
529.026; 1880.000;  202.375;    0.000
529.158; 1888.000;  226.375;    0.000
529.289; 1904.000;  229.375;    0.000
529.421; 1902.000;  264.375;    0.000
529.552; 1917.000;  265.375;    0.000
529.684; 1990.000;  260.375;    0.000
529.815; 1938.000;  284.375;    0.000
529.947; 1930.000;  237.375;    0.000
530.078; 1911.000;  223.375;    0.000
530.210; 1869.000;  223.375;    0.000
530.341; 1955.000;  209.375;    0.000
530.472; 1821.000;  203.375;    0.000
530.604; 1999.000;  223.375;    0.000
530.735; 1944.000;  218.375;    0.000
530.867; 1899.000;  222.375;    0.000
530.998; 1974.000;  239.375;    0.000
531.129; 1917.000;  250.375;    0.000
531.260; 1934.000;  224.375;    0.000
531.392; 1918.000;  216.375;    0.000
531.523; 1934.000;  234.375;    0.000
531.654; 1927.000;  256.375;    0.000
531.786; 1909.000;  226.375;    0.000
531.917; 1963.000;  239.375;    0.000
532.048; 1891.000;  205.375;    0.000
532.179; 1881.000;  244.375;    0.000
532.311; 1950.000;  235.375;    0.000
532.442; 1953.000;  258.375;    0.000
532.573; 1858.000;  220.375;    0.000
532.704; 1948.000;  213.375;    0.000
532.835; 1951.000;  249.375;    0.000
532.966; 1833.000;  226.375;    0.000
533.097; 1891.000;  246.375;    0.000
533.229; 1877.000;  237.375;    0.000
533.360; 1878.000;  225.375;    0.000
533.491; 1890.000;  241.375;    0.000
533.622; 1903.000;  242.375;    0.000
533.753; 1942.000;  264.375;    0.000
533.884; 1985.000;  245.375;    0.000
534.015; 1893.000;  269.375;    0.000
534.146; 1961.000;  267.375;    0.000
534.277; 1956.000;  282.375;    0.000
534.408; 1859.000;  229.375;    0.000
534.539; 1949.000;  269.375;    0.000
534.670; 1923.000;  231.375;    0.000
534.801; 1921.000;  260.375;    0.000
534.932; 1856.000;  232.375;    0.000
535.063; 1860.000;  227.375;    0.000
535.194; 1937.000;  281.375;    0.000
535.324; 1918.000;  206.375;    0.000
535.455; 1895.000;  257.375;    0.000
535.586; 1926.000;  275.375;    0.000
535.717; 1850.000;  206.375;    0.000
535.848; 1883.000;  271.375;    0.000
535.979; 1907.000;  250.375;    0.000
536.109; 1918.000;  253.375;    0.000
536.240; 1863.000;  234.375;    0.000
536.371; 1813.000;  230.375;    0.000
536.502; 1906.000;  270.375;    0.000
536.632; 1884.000;  228.375;    0.000
536.763; 1911.000;  249.375;    0.000
536.894; 1890.000;  262.375;    0.000
537.025; 1803.000;  258.375;    0.000
537.155; 1845.000;  278.375;    0.000
537.286; 1874.000;  209.375;    0.000
537.417; 1908.000;  255.375;    0.000
537.547; 1879.000;  208.375;    0.000
537.678; 1862.000;  224.375;    0.000
537.808; 1889.000;  224.375;    0.000
537.939; 1879.000;  257.375;    0.000
538.070; 1892.000;  240.375;    0.000
538.200; 1882.000;  259.375;    0.000
538.331; 1831.000;  235.375;    0.000
538.461; 1775.000;  251.375;    0.000
538.592; 1800.000;  245.375;    0.000
538.722; 1908.000;  239.375;    0.000
538.853; 1897.000;  216.375;    0.000
538.983; 1872.000;  226.375;    0.000
539.114; 1860.000;  240.375;    0.000
539.244; 1870.000;  237.375;    0.000
539.375; 1904.000;  198.375;    0.000
539.505; 1879.000;  263.375;    0.000
539.636; 1810.000;  226.375;    0.000
539.766; 1832.000;  229.375;    0.000
539.896; 1819.000;  219.375;    0.000
540.027; 1862.000;  246.375;    0.000
540.157; 1876.000;  218.375;    0.000
540.287; 1823.000;  216.375;    0.000
540.418; 1870.000;  267.375;    0.000
540.548; 1848.000;  260.375;    0.000
540.678; 1805.000;  242.375;    0.000
540.809; 1828.000;  260.375;    0.000
540.939; 1830.000;  257.375;    0.000
541.069; 1795.000;  226.375;    0.000
541.200; 1832.000;  227.375;    0.000
541.330; 1783.000;  218.375;    0.000
541.460; 1894.000;  223.375;    0.000
541.590; 1879.000;  237.375;    0.000
541.720; 1870.000;  222.375;    0.000
541.851; 1796.000;  250.375;    0.000
541.981; 1796.000;  222.375;    0.000
542.111; 1867.000;  212.375;    0.000
542.241; 1912.000;  205.375;    0.000
542.371; 1787.000;  202.375;    0.000
542.501; 1872.000;  218.375;    0.000
542.631; 1800.000;  222.375;    0.000
542.761; 1856.000;  249.375;    0.000
542.891; 1896.000;  173.375;    0.000
543.021; 1900.000;  218.375;    0.000
543.151; 1844.000;  222.375;    0.000
543.281; 1844.000;  188.375;    0.000
543.411; 1852.000;  239.375;    0.000
543.542; 1854.000;  215.375;    0.000
543.671; 1862.000;  250.375;    0.000
543.801; 1890.000;  212.375;    0.000
543.931; 1902.000;  233.375;    0.000
544.061; 1888.000;  194.375;    0.000
544.191; 1849.000;  218.375;    0.000
544.321; 1837.000;  220.375;    0.000
544.451; 1923.000;  183.375;    0.000
544.581; 1853.000;  221.375;    0.000
544.711; 1882.000;  224.375;    0.000
544.841; 1899.000;  214.375;    0.000
544.970; 1941.000;  227.375;    0.000
545.100; 1820.000;  186.375;    0.000
545.230; 1919.000;  205.375;    0.000
545.360; 1891.000;  211.375;    0.000
545.490; 1948.000;  202.375;    0.000
545.619; 1839.000;  182.375;    0.000
545.749; 1808.000;  174.375;    0.000
545.879; 1896.000;  169.375;    0.000
546.009; 1960.000;  182.375;    0.000
546.138; 1916.000;  200.375;    0.000
546.268; 1836.000;  204.375;    0.000
546.398; 1858.000;  200.375;    0.000
546.527; 1838.000;  179.375;    0.000
546.657; 1878.000;  162.375;    0.000
546.786; 1824.000;  179.375;    0.000
546.916; 1894.000;  221.375;    0.000
547.046; 1935.000;  179.375;    0.000
547.175; 1791.000;  168.375;    0.000
547.305; 1923.000;  200.375;    0.000
547.434; 1892.000;  166.375;    0.000
547.564; 1863.000;  177.375;    0.000
547.693; 1876.000;  152.375;    0.000
547.823; 1920.000;  171.375;    0.000
547.953; 1826.000;  195.375;    0.000
548.082; 1876.000;  214.375;    0.000
548.211; 1814.000;  177.375;    0.000
548.341; 1876.000;  189.375;    0.000
548.470; 1876.000;  194.375;    0.000
548.600; 1819.000;  172.375;    0.000
548.729; 1836.000;  158.375;    0.000
548.859; 1823.000;  193.375;    0.000
548.988; 1836.000;  131.375;    0.000
549.117; 1816.000;  204.375;    0.000
549.247; 1802.000;  191.375;    0.000
549.376; 1938.000;  202.375;    0.000
549.505; 1866.000;  187.375;    0.000
549.635; 1902.000;  198.375;    0.000
549.764; 1888.000;  155.375;    0.000
549.893; 1845.000;  176.375;    0.000
550.023; 1895.000;  202.375;    0.000
550.152; 1893.000;  168.375;    0.000
550.281; 1863.000;  180.375;    0.000
550.410; 1852.000;  180.375;    0.000
550.539; 1955.000;  181.375;    0.000
550.669; 1876.000;  168.375;    0.000
550.798; 1929.000;  223.375;    0.000
550.927; 1932.000;  179.375;    0.000
551.056; 1926.000;  159.375;    0.000
551.185; 1882.000;  199.375;    0.000
551.314; 1928.000;  185.375;    0.000
551.443; 1837.000;  172.375;    0.000
551.573; 1932.000;  158.375;    0.000
551.702; 1867.000;  210.375;    0.000
551.831; 1995.000;  238.375;    0.000
551.960; 1956.000;  191.375;    0.000
552.089; 1917.000;  195.375;    0.000
552.218; 1954.000;  196.375;    0.000
552.347; 1990.000;  194.375;    0.000
552.476; 1948.000;  192.375;    0.000
552.605; 1870.000;  172.375;    0.000
552.734; 2051.000;  214.375;    0.000
552.863; 2045.000;  177.375;    0.000
552.992; 2077.000;  190.375;    0.000
553.121; 2006.000;  185.375;    0.000
553.249; 1911.000;  175.375;    0.000
553.378; 2114.000;  192.375;    0.000
553.507; 1915.000;  193.375;    0.000
553.636; 1925.000;  182.375;    0.000
553.765; 1999.000;  187.375;    0.000
553.894; 1970.000;  214.375;    0.000
554.023; 1967.000;  217.375;    0.000
554.151; 1964.000;  223.375;    0.000
554.280; 1863.000;  170.375;    0.000
554.409; 1942.000;  172.375;    0.000
554.538; 1951.000;  182.375;    0.000
554.666; 1954.000;  195.375;    0.000
554.795; 1884.000;  176.375;    0.000
554.924; 1886.000;  164.375;    0.000
555.052; 1933.000;  171.375;    0.000
555.181; 1962.000;  208.375;    0.000
555.310; 1921.000;  214.375;    0.000
555.439; 1892.000;  193.375;    0.000
555.567; 1917.000;  189.375;    0.000
555.696; 1937.000;  196.375;    0.000
555.824; 1839.000;  183.375;    0.000
555.953; 1949.000;  234.375;    0.000
556.082; 1838.000;  183.375;    0.000
556.210; 1907.000;  199.375;    0.000
556.339; 1873.000;  201.375;    0.000
556.467; 1810.000;  208.375;    0.000
556.596; 1949.000;  194.375;    0.000
556.724; 1901.000;  170.375;    0.000
556.853; 1894.000;  166.375;    0.000
556.981; 1879.000;  185.375;    0.000
557.110; 1817.000;  213.375;    0.000
557.238; 1865.000;  188.375;    0.000
557.367; 1903.000;  176.375;    0.000
557.495; 1885.000;  180.375;    0.000
557.623; 1834.000;  193.375;    0.000
557.752; 1865.000;  207.375;    0.000
557.880; 1815.000;  189.375;    0.000
558.008; 1854.000;  169.375;    0.000
558.137; 1851.000;  203.375;    0.000
558.265; 1865.000;  167.375;    0.000
558.393; 1899.000;  204.375;    0.000
558.522; 1824.000;  203.375;    0.000
558.650; 1911.000;  215.375;    0.000
558.778; 1856.000;  190.375;    0.000
558.906; 1927.000;  186.375;    0.000
559.035; 1788.000;  193.375;    0.000
559.163; 1780.000;  198.375;    0.000
559.291; 1848.000;  222.375;    0.000
559.419; 1870.000;  192.375;    0.000
559.548; 1824.000;  186.375;    0.000
559.676; 1896.000;  199.375;    0.000
559.804; 1850.000;  186.375;    0.000
559.932; 1880.000;  202.375;    0.000
560.060; 1903.000;  183.375;    0.000
560.188; 1872.000;  212.375;    0.000
560.316; 1884.000;  192.375;    0.000
560.444; 1883.000;  180.375;    0.000
560.572; 1890.000;  206.375;    0.000
560.700; 1910.000;  184.375;    0.000
560.828; 1884.000;  177.375;    0.000
560.956; 1906.000;  221.375;    0.000
561.085; 1910.000;  227.375;    0.000
561.212; 1921.000;  208.375;    0.000
561.340; 1875.000;  189.375;    0.000
561.468; 1946.000;  189.375;    0.000
561.596; 1975.000;  183.375;    0.000
561.724; 1983.000;  188.375;    0.000
561.852; 1887.000;  183.375;    0.000
561.980; 1908.000;  209.375;    0.000
562.108; 1959.000;  165.375;    0.000
562.236; 1926.000;  188.375;    0.000
562.364; 2004.000;  177.375;    0.000
562.492; 1992.000;  192.375;    0.000
562.619; 1940.000;  187.375;    0.000
562.747; 1996.000;  217.375;    0.000
562.875; 2019.000;  221.375;    0.000
563.003; 1950.000;  199.375;    0.000
563.130; 1912.000;  191.375;    0.000
563.258; 2004.000;  186.375;    0.000
563.386; 1978.000;  191.375;    0.000
563.514; 2070.000;  217.375;    0.000
563.641; 2051.000;  220.375;    0.000
563.769; 2000.000;  186.375;    0.000
563.897; 1936.000;  158.375;    0.000
564.024; 2049.000;  192.375;    0.000
564.152; 2101.000;  217.375;    0.000
564.280; 2056.000;  203.375;    0.000
564.407; 2042.000;  190.375;    0.000
564.535; 2048.000;  188.375;    0.000
564.662; 2117.000;  199.375;    0.000
564.790; 2099.000;  227.375;    0.000
564.917; 2080.000;  160.375;    0.000
565.045; 2169.000;  222.375;    0.000
565.173; 2156.000;  169.375;    0.000
565.300; 2175.000;  208.375;    0.000
565.428; 2122.000;  174.375;    0.000
565.555; 2076.000;  201.375;    0.000
565.682; 2151.000;  180.375;    0.000
565.810; 2266.000;  165.375;    0.000
565.937; 2128.000;  167.375;    0.000
566.065; 2295.000;  190.375;    0.000
566.192; 2340.000;  169.375;    0.000
566.320; 2326.000;  167.375;    0.000
566.447; 2319.000;  151.375;    0.000
566.574; 2358.000;  176.375;    0.000
566.702; 2362.000;  198.375;    0.000
566.829; 2302.000;  209.375;    0.000
566.956; 2317.000;  186.375;    0.000
567.083; 2444.000;  188.375;    0.000
567.211; 2395.000;  159.375;    0.000
567.338; 2397.000;  204.375;    0.000
567.465; 2369.000;  141.375;    0.000
567.593; 2409.000;  168.375;    0.000
567.720; 2360.000;  177.375;    0.000
567.847; 2356.000;  160.375;    0.000
567.974; 2403.000;  139.375;    0.000
568.101; 2367.000;  153.375;    0.000
568.228; 2371.000;  173.375;    0.000
568.356; 2212.000;  149.375;    0.000
568.483; 2364.000;  185.375;    0.000
568.610; 2260.000;  170.375;    0.000
568.737; 2300.000;  223.375;    0.000
568.864; 2232.000;  167.375;    0.000
568.991; 2214.000;  177.375;    0.000
569.118; 2214.000;  169.375;    0.000
569.245; 2220.000;  128.375;    0.000
569.372; 2178.000;  160.375;    0.000
569.499; 2172.000;  156.375;    0.000
569.626; 2129.000;  191.375;    0.000
569.753; 2091.000;  163.375;    0.000
569.880; 2118.000;  167.375;    0.000
570.007; 2065.000;  143.375;    0.000
570.134; 2048.000;  191.375;    0.000
570.261; 2053.000;  164.375;    0.000
570.388; 2050.000;  162.375;    0.000
570.515; 2061.000;  220.375;    0.000
570.642; 2053.000;  184.375;    0.000
570.768; 2006.000;  174.375;    0.000
570.895; 2099.000;  177.375;    0.000
571.022; 2091.000;  152.375;    0.000
571.149; 2075.000;  183.375;    0.000
571.276; 1999.000;  153.375;    0.000
571.402; 2023.000;  190.375;    0.000
571.529; 2060.000;  187.375;    0.000
571.656; 2000.000;  167.375;    0.000
571.783; 2010.000;  186.375;    0.000
571.909; 1978.000;  183.375;    0.000
572.036; 1920.000;  162.375;    0.000
572.163; 1936.000;  196.375;    0.000
572.289; 1974.000;  180.375;    0.000
572.416; 2049.000;  190.375;    0.000
572.543; 1981.000;  174.375;    0.000
572.669; 1930.000;  186.375;    0.000
572.796; 1916.000;  205.375;    0.000
572.922; 1935.000;  185.375;    0.000
573.049; 1967.000;  178.375;    0.000
573.176; 1911.000;  196.375;    0.000
573.302; 1905.000;  202.375;    0.000
573.429; 1948.000;  189.375;    0.000
573.555; 1944.000;  145.375;    0.000
573.682; 1978.000;  228.375;    0.000
573.808; 1894.000;  197.375;    0.000
573.935; 1889.000;  216.375;    0.000
574.061; 1852.000;  173.375;    0.000
574.188; 1900.000;  151.375;    0.000
574.314; 1823.000;  181.375;    0.000
574.440; 1863.000;  167.375;    0.000
574.567; 1957.000;  185.375;    0.000
574.693; 1858.000;  173.375;    0.000
574.820; 1928.000;  164.375;    0.000
574.946; 1882.000;  199.375;    0.000
575.072; 1888.000;  162.375;    0.000
575.198; 1957.000;  225.375;    0.000
575.325; 1841.000;  171.375;    0.000
575.451; 1912.000;  183.375;    0.000
575.577; 1925.000;  190.375;    0.000
575.704; 1934.000;  210.375;    0.000
575.830; 1929.000;  185.375;    0.000
575.956; 1875.000;  168.375;    0.000
576.082; 1922.000;  158.375;    0.000
576.208; 1899.000;  158.375;    0.000
576.335; 1871.000;  196.375;    0.000
576.461; 1927.000;  187.375;    0.000
576.587; 1894.000;  157.375;    0.000
576.713; 1937.000;  156.375;    0.000
576.839; 1894.000;  196.375;    0.000
576.965; 1946.000;  187.375;    0.000
577.091; 1858.000;  204.375;    0.000
577.217; 1883.000;  207.375;    0.000
577.343; 1945.000;  175.375;    0.000
577.469; 1837.000;  197.375;    0.000
577.596; 1859.000;  182.375;    0.000
577.722; 1891.000;  159.375;    0.000
577.848; 1862.000;  162.375;    0.000
577.974; 1801.000;  180.375;    0.000
578.099; 1795.000;  161.375;    0.000
578.225; 1868.000;  180.375;    0.000
578.351; 1876.000;  190.375;    0.000
578.477; 1883.000;  212.375;    0.000
578.603; 1821.000;  179.375;    0.000
578.729; 1854.000;  195.375;    0.000
578.855; 1872.000;  153.375;    0.000
578.981; 1826.000;  162.375;    0.000
579.107; 1860.000;  149.375;    0.000
579.232; 1865.000;  164.375;    0.000
579.358; 1901.000;  162.375;    0.000
579.484; 1830.000;  181.375;    0.000
579.610; 1749.000;  190.375;    0.000
579.735; 1848.000;  191.375;    0.000
579.861; 1795.000;  189.375;    0.000
579.987; 1905.000;  202.375;    0.000
580.113; 1847.000;  197.375;    0.000
580.238; 1851.000;  228.375;    0.000
580.364; 1844.000;  212.375;    0.000
580.490; 1822.000;  225.375;    0.000
580.615; 1831.000;  218.375;    0.000
580.741; 1882.000;  167.375;    0.000
580.867; 1828.000;  215.375;    0.000
580.992; 1798.000;  191.375;    0.000
581.118; 1829.000;  171.375;    0.000
581.243; 1948.000;  204.375;    0.000
581.369; 1769.000;  186.375;    0.000
581.494; 1878.000;  184.375;    0.000
581.620; 1843.000;  212.375;    0.000
581.745; 1875.000;  192.375;    0.000
581.871; 1874.000;  195.375;    0.000
581.996; 1825.000;  160.375;    0.000
582.122; 1907.000;  217.375;    0.000
582.247; 1814.000;  213.375;    0.000
582.373; 1812.000;  187.375;    0.000
582.498; 1881.000;  208.375;    0.000
582.624; 1817.000;  189.375;    0.000
582.749; 1864.000;  185.375;    0.000
582.874; 1915.000;  195.375;    0.000
583.000; 1916.000;  208.375;    0.000
583.125; 1817.000;  147.375;    0.000
583.250; 1949.000;  201.375;    0.000
583.376; 1908.000;  191.375;    0.000
583.501; 1882.000;  206.375;    0.000
583.626; 1766.000;  167.375;    0.000
583.751; 1821.000;  180.375;    0.000
583.877; 1839.000;  185.375;    0.000
584.002; 1844.000;  186.375;    0.000
584.127; 1827.000;  176.375;    0.000
584.252; 1759.000;  214.375;    0.000
584.377; 1883.000;  225.375;    0.000
584.503; 1870.000;  195.375;    0.000
584.628; 1828.000;  206.375;    0.000
584.753; 1914.000;  181.375;    0.000
584.878; 1824.000;  136.375;    0.000
585.003; 1832.000;  215.375;    0.000
585.128; 1925.000;  206.375;    0.000
585.253; 1970.000;  200.375;    0.000
585.378; 1959.000;  169.375;    0.000
585.503; 1904.000;  191.375;    0.000
585.628; 1830.000;  182.375;    0.000
585.753; 1889.000;  164.375;    0.000
585.878; 1765.000;  123.375;    0.000
586.003; 1866.000;  187.375;    0.000
586.128; 1824.000;  198.375;    0.000
586.253; 1871.000;  172.375;    0.000
586.378; 1895.000;  191.375;    0.000
586.503; 1865.000;  190.375;    0.000
586.628; 1845.000;  178.375;    0.000
586.753; 1906.000;  184.375;    0.000
586.878; 1826.000;  169.375;    0.000
587.003; 1860.000;  186.375;    0.000
587.127; 1783.000;  170.375;    0.000
587.252; 1801.000;  170.375;    0.000
587.377; 1823.000;  181.375;    0.000
587.502; 1925.000;  209.375;    0.000
587.627; 1894.000;  210.375;    0.000
587.751; 1880.000;  212.375;    0.000
587.876; 1967.000;  198.375;    0.000
588.001; 1890.000;  161.375;    0.000
588.125; 1919.000;  191.375;    0.000
588.250; 1865.000;  132.375;    0.000
588.375; 1936.000;  183.375;    0.000
588.499; 1930.000;  176.375;    0.000
588.624; 2117.000;  173.375;    0.000
588.749; 2364.000;  204.375;    0.000
588.873; 3625.000;  179.375;    0.000
588.998; 4914.000;  182.375;    0.000
589.122; 4309.000;  165.375;    0.000
589.247; 2913.000;  185.375;    0.000
589.372; 2562.000;  199.375;    0.000
589.496; 3473.000;  182.375;    0.000
589.621; 4155.000;  158.375;    0.000
589.745; 3397.000;  213.375;    0.000
589.870; 2409.000;  175.375;    0.000
589.994; 2143.000;  194.375;    0.000
590.118; 2119.000;  218.375;    0.000
590.243; 2062.000;  170.375;    0.000
590.367; 1959.000;  189.375;    0.000
590.492; 1887.000;  196.375;    0.000
590.616; 1966.000;  182.375;    0.000
590.740; 1940.000;  210.375;    0.000
590.865; 1951.000;  242.375;    0.000
590.989; 1962.000;  191.375;    0.000
591.114; 1994.000;  167.375;    0.000
591.238; 1929.000;  194.375;    0.000
591.362; 1988.000;  236.375;    0.000
591.486; 1956.000;  194.375;    0.000
591.611; 1883.000;  154.375;    0.000
591.735; 1899.000;  186.375;    0.000
591.859; 1929.000;  148.375;    0.000
591.983; 1988.000;  211.375;    0.000
592.107; 1920.000;  204.375;    0.000
592.232; 1980.000;  194.375;    0.000
592.356; 1978.000;  238.375;    0.000
592.480; 1899.000;  179.375;    0.000
592.604; 1992.000;  192.375;    0.000
592.728; 2036.000;  201.375;    0.000
592.852; 2042.000;  158.375;    0.000
592.976; 1899.000;  152.375;    0.000
593.100; 1972.000;  194.375;    0.000
593.224; 2028.000;  235.375;    0.000
593.349; 2020.000;  233.375;    0.000
593.473; 1999.000;  194.375;    0.000
593.597; 1984.000;  215.375;    0.000
593.721; 2004.000;  212.375;    0.000
593.844; 1882.000;  220.375;    0.000
593.968; 2022.000;  221.375;    0.000
594.092; 1930.000;  150.375;    0.000
594.216; 2070.000;  212.375;    0.000
594.340; 2014.000;  209.375;    0.000
594.464; 1999.000;  207.375;    0.000
594.588; 1973.000;  195.375;    0.000
594.712; 1895.000;  176.375;    0.000
594.836; 1939.000;  219.375;    0.000
594.959; 2009.000;  215.375;    0.000
595.083; 1906.000;  200.375;    0.000
595.207; 1919.000;  206.375;    0.000
595.331; 1904.000;  207.375;    0.000
595.455; 1894.000;  206.375;    0.000
595.578; 1989.000;  204.375;    0.000
595.702; 1927.000;  225.375;    0.000
595.826; 1888.000;  186.375;    0.000
595.949; 1926.000;  196.375;    0.000
596.073; 1883.000;  188.375;    0.000
596.197; 1919.000;  217.375;    0.000
596.320; 1932.000;  225.375;    0.000
596.444; 1868.000;  220.375;    0.000
596.568; 1885.000;  155.375;    0.000
596.691; 1938.000;  195.375;    0.000
596.815; 1790.000;  163.375;    0.000
596.938; 1872.000;  181.375;    0.000
597.062; 1844.000;  201.375;    0.000
597.186; 1897.000;  200.375;    0.000
597.309; 1803.000;  214.375;    0.000
597.433; 1841.000;  176.375;    0.000
597.556; 1840.000;  193.375;    0.000
597.680; 1932.000;  241.375;    0.000
597.803; 1921.000;  185.375;    0.000
597.926; 1784.000;  200.375;    0.000
598.050; 1841.000;  193.375;    0.000
598.173; 1788.000;  219.375;    0.000
598.297; 1802.000;  223.375;    0.000
598.420; 1787.000;  187.375;    0.000
598.543; 1858.000;  205.375;    0.000
598.667; 1843.000;  177.375;    0.000
598.790; 1832.000;  208.375;    0.000
598.913; 1799.000;  170.375;    0.000
599.037; 1850.000;  212.375;    0.000
599.160; 1771.000;  165.375;    0.000
599.283; 1866.000;  211.375;    0.000
599.406; 1834.000;  207.375;    0.000
599.530; 1834.000;  182.375;    0.000
599.653; 1769.000;  215.375;    0.000
599.776; 1774.000;  167.375;    0.000
599.899; 1771.000;  190.375;    0.000
600.022; 1835.000;  182.375;    0.000
600.145; 1761.000;  180.375;    0.000
600.269; 1793.000;  208.375;    0.000
600.392; 1783.000;  214.375;    0.000
600.515; 1792.000;  196.375;    0.000
600.638; 1776.000;  204.375;    0.000
600.761; 1769.000;  209.375;    0.000
600.884; 1805.000;  207.375;    0.000
601.007; 1790.000;  234.375;    0.000
601.130; 1706.000;  183.375;    0.000
601.253; 1822.000;  211.375;    0.000
601.376; 1781.000;  199.375;    0.000
601.499; 1771.000;  190.375;    0.000
601.622; 1797.000;  210.375;    0.000
601.745; 1761.000;  180.375;    0.000
601.868; 1767.000;  204.375;    0.000
601.991; 1741.000;  188.375;    0.000
602.113; 1712.000;  210.375;    0.000
602.236; 1745.000;  194.375;    0.000
602.359; 1795.000;  213.375;    0.000
602.482; 1756.000;  169.375;    0.000
602.605; 1733.000;  189.375;    0.000
602.728; 1754.000;  236.375;    0.000
602.850; 1767.000;  230.375;    0.000
602.973; 1758.000;  187.375;    0.000
603.096; 1784.000;  201.375;    0.000
603.219; 1829.000;  209.375;    0.000
603.341; 1805.000;  209.375;    0.000
603.464; 1734.000;  194.375;    0.000
603.587; 1789.000;  166.375;    0.000
603.709; 1722.000;  175.375;    0.000
603.832; 1771.000;  239.375;    0.000
603.955; 1735.000;  205.375;    0.000
604.077; 1791.000;  196.375;    0.000
604.200; 1753.000;  188.375;    0.000
604.323; 1763.000;  224.375;    0.000
604.445; 1700.000;  182.375;    0.000
604.568; 1684.000;  199.375;    0.000
604.690; 1732.000;  175.375;    0.000
604.813; 1761.000;  211.375;    0.000
604.935; 1722.000;  171.375;    0.000
605.058; 1658.000;  196.375;    0.000
605.180; 1712.000;  194.375;    0.000
605.303; 1740.000;  198.375;    0.000
605.425; 1733.000;  212.375;    0.000
605.547; 1763.000;  238.375;    0.000
605.670; 1691.000;  207.375;    0.000
605.792; 1698.000;  204.375;    0.000
605.915; 1742.000;  198.375;    0.000
606.037; 1683.000;  215.375;    0.000
606.159; 1698.000;  170.375;    0.000
606.282; 1728.000;  194.375;    0.000
606.404; 1679.000;  207.375;    0.000
606.526; 1725.000;  208.375;    0.000
606.648; 1670.000;  174.375;    0.000
606.771; 1661.000;  170.375;    0.000
606.893; 1698.000;  182.375;    0.000
607.015; 1688.000;  180.375;    0.000
607.137; 1731.000;  187.375;    0.000
607.260; 1705.000;  202.375;    0.000
607.382; 1775.000;  226.375;    0.000
607.504; 1669.000;  208.375;    0.000
607.626; 1702.000;  229.375;    0.000
607.748; 1698.000;  170.375;    0.000
607.870; 1697.000;  208.375;    0.000
607.992; 1670.000;  184.375;    0.000
608.114; 1679.000;  213.375;    0.000
608.237; 1715.000;  237.375;    0.000
608.359; 1691.000;  176.375;    0.000
608.481; 1715.000;  173.375;    0.000
608.603; 1697.000;  189.375;    0.000
608.725; 1660.000;  185.375;    0.000
608.847; 1716.000;  239.375;    0.000
608.969; 1662.000;  237.375;    0.000
609.090; 1684.000;  189.375;    0.000
609.212; 1607.000;  147.375;    0.000
609.334; 1714.000;  177.375;    0.000
609.456; 1730.000;  196.375;    0.000
609.578; 1683.000;  199.375;    0.000
609.700; 1630.000;  167.375;    0.000
609.822; 1694.000;  140.375;    0.000
609.944; 1731.000;  225.375;    0.000
610.065; 1671.000;  183.375;    0.000
610.187; 1670.000;  170.375;    0.000
610.309; 1683.000;  210.375;    0.000
610.431; 1741.000;  185.375;    0.000
610.552; 1696.000;  197.375;    0.000
610.674; 1680.000;  188.375;    0.000
610.796; 1653.000;  162.375;    0.000
610.918; 1638.000;  200.375;    0.000
611.039; 1653.000;  209.375;    0.000
611.161; 1660.000;  201.375;    0.000
611.282; 1634.000;  197.375;    0.000
611.404; 1699.000;  220.375;    0.000
611.526; 1707.000;  159.375;    0.000
611.647; 1687.000;  205.375;    0.000
611.769; 1652.000;  161.375;    0.000
611.890; 1675.000;  173.375;    0.000
612.012; 1648.000;  225.375;    0.000
612.133; 1618.000;  188.375;    0.000
612.255; 1640.000;  217.375;    0.000
612.377; 1700.000;  219.375;    0.000
612.498; 1664.000;  177.375;    0.000
612.619; 1716.000;  211.375;    0.000
612.741; 1641.000;  185.375;    0.000
612.862; 1684.000;  191.375;    0.000
612.984; 1668.000;  190.375;    0.000
613.105; 1678.000;  211.375;    0.000
613.226; 1642.000;  174.375;    0.000
613.348; 1707.000;  235.375;    0.000
613.469; 1684.000;  230.375;    0.000
613.590; 1654.000;  208.375;    0.000
613.712; 1697.000;  244.375;    0.000
613.833; 1721.000;  202.375;    0.000
613.954; 1624.000;  228.375;    0.000
614.076; 1630.000;  220.375;    0.000
614.197; 1707.000;  191.375;    0.000
614.318; 1653.000;  201.375;    0.000
614.439; 1651.000;  212.375;    0.000
614.560; 1704.000;  219.375;    0.000
614.682; 1707.000;  189.375;    0.000
614.803; 1666.000;  188.375;    0.000
614.924; 1631.000;  225.375;    0.000
615.045; 1672.000;  227.375;    0.000
615.166; 1722.000;  200.375;    0.000
615.287; 1616.000;  195.375;    0.000
615.408; 1673.000;  199.375;    0.000
615.529; 1744.000;  227.375;    0.000
615.650; 1680.000;  176.375;    0.000
615.771; 1591.000;  211.375;    0.000
615.892; 1618.000;  212.375;    0.000
616.013; 1623.000;  172.375;    0.000
616.134; 1630.000;  220.375;    0.000
616.255; 1644.000;  251.375;    0.000
616.376; 1666.000;  186.375;    0.000
616.497; 1597.000;  201.375;    0.000
616.618; 1650.000;  149.375;    0.000
616.739; 1655.000;  213.375;    0.000
616.860; 1662.000;  224.375;    0.000
616.981; 1621.000;  224.375;    0.000
617.102; 1657.000;  217.375;    0.000
617.222; 1659.000;  237.375;    0.000
617.343; 1678.000;  205.375;    0.000
617.464; 1681.000;  229.375;    0.000
617.585; 1603.000;  227.375;    0.000
617.705; 1723.000;  191.375;    0.000
617.826; 1688.000;  237.375;    0.000
617.947; 1647.000;  223.375;    0.000
618.068; 1625.000;  189.375;    0.000
618.188; 1586.000;  194.375;    0.000
618.309; 1636.000;  206.375;    0.000
618.430; 1626.000;  229.375;    0.000
618.550; 1674.000;  250.375;    0.000
618.671; 1611.000;  201.375;    0.000
618.791; 1617.000;  226.375;    0.000
618.912; 1718.000;  246.375;    0.000
619.033; 1641.000;  243.375;    0.000
619.153; 1731.000;  208.375;    0.000
619.274; 1658.000;  223.375;    0.000
619.394; 1613.000;  226.375;    0.000
619.515; 1571.000;  188.375;    0.000
619.635; 1563.000;  216.375;    0.000
619.756; 1642.000;  229.375;    0.000
619.876; 1621.000;  216.375;    0.000
619.996; 1599.000;  244.375;    0.000
620.117; 1596.000;  225.375;    0.000
620.237; 1644.000;  207.375;    0.000
620.358; 1637.000;  239.375;    0.000
620.478; 1617.000;  237.375;    0.000
620.598; 1632.000;  237.375;    0.000
620.719; 1618.000;  223.375;    0.000
620.839; 1602.000;  254.375;    0.000
620.959; 1627.000;  244.375;    0.000
621.079; 1563.000;  193.375;    0.000
621.200; 1580.000;  233.375;    0.000
621.320; 1647.000;  270.375;    0.000
621.440; 1591.000;  206.375;    0.000
621.560; 1616.000;  241.375;    0.000
621.681; 1578.000;  231.375;    0.000
621.801; 1626.000;  235.375;    0.000
621.921; 1636.000;  240.375;    0.000
622.041; 1656.000;  244.375;    0.000
622.161; 1644.000;  225.375;    0.000
622.281; 1637.000;  222.375;    0.000
622.401; 1603.000;  238.375;    0.000
622.521; 1546.000;  233.375;    0.000
622.641; 1580.000;  241.375;    0.000
622.761; 1618.000;  233.375;    0.000
622.882; 1577.000;  230.375;    0.000
623.002; 1582.000;  206.375;    0.000
623.121; 1601.000;  217.375;    0.000
623.241; 1604.000;  263.375;    0.000
623.361; 1639.000;  245.375;    0.000
623.481; 1539.000;  194.375;    0.000
623.601; 1623.000;  228.375;    0.000
623.721; 1613.000;  219.375;    0.000
623.841; 1618.000;  234.375;    0.000
623.961; 1592.000;  235.375;    0.000
624.081; 1512.000;  166.375;    0.000
624.201; 1568.000;  229.375;    0.000
624.320; 1565.000;  224.375;    0.000
624.440; 1673.000;  200.375;    0.000
624.560; 1624.000;  220.375;    0.000
624.680; 1538.000;  214.375;    0.000
624.799; 1518.000;  179.375;    0.000
624.919; 1549.000;  199.375;    0.000
625.039; 1595.000;  211.375;    0.000
625.159; 1626.000;  213.375;    0.000
625.278; 1521.000;  178.375;    0.000
625.398; 1597.000;  206.375;    0.000
625.518; 1539.000;  182.375;    0.000
625.637; 1562.000;  206.375;    0.000
625.757; 1619.000;  197.375;    0.000
625.876; 1529.000;  204.375;    0.000
625.996; 1581.000;  222.375;    0.000
626.115; 1526.000;  222.375;    0.000
626.235; 1499.000;  222.375;    0.000
626.354; 1522.000;  211.375;    0.000
626.474; 1577.000;  217.375;    0.000
626.594; 1543.000;  190.375;    0.000
626.713; 1597.000;  200.375;    0.000
626.832; 1586.000;  234.375;    0.000
626.952; 1517.000;  214.375;    0.000
627.071; 1497.000;  243.375;    0.000
627.191; 1532.000;  192.375;    0.000
627.310; 1507.000;  211.375;    0.000
627.429; 1547.000;  218.375;    0.000
627.549; 1505.000;  214.375;    0.000
627.668; 1505.000;  208.375;    0.000
627.787; 1524.000;  199.375;    0.000
627.907; 1580.000;  208.375;    0.000
628.026; 1526.000;  216.375;    0.000
628.145; 1541.000;  170.375;    0.000
628.264; 1483.000;  217.375;    0.000
628.384; 1446.000;  190.375;    0.000
628.503; 1482.000;  203.375;    0.000
628.622; 1463.000;  197.375;    0.000
628.741; 1473.000;  186.375;    0.000
628.860; 1518.000;  191.375;    0.000
628.980; 1571.000;  196.375;    0.000
629.099; 1539.000;  190.375;    0.000
629.218; 1540.000;  165.375;    0.000
629.337; 1519.000;  190.375;    0.000
629.456; 1543.000;  222.375;    0.000
629.575; 1502.000;  197.375;    0.000
629.694; 1512.000;  210.375;    0.000
629.813; 1506.000;  187.375;    0.000
629.932; 1538.000;  224.375;    0.000
630.051; 1578.000;  216.375;    0.000
630.170; 1477.000;  203.375;    0.000
630.289; 1466.000;  178.375;    0.000
630.408; 1491.000;  192.375;    0.000
630.527; 1549.000;  223.375;    0.000
630.646; 1511.000;  177.375;    0.000
630.764; 1465.000;  224.375;    0.000
630.883; 1511.000;  220.375;    0.000
631.002; 1500.000;  187.375;    0.000
631.121; 1467.000;  208.375;    0.000
631.240; 1508.000;  217.375;    0.000
631.359; 1495.000;  241.375;    0.000
631.477; 1500.000;  189.375;    0.000
631.596; 1536.000;  244.375;    0.000
631.715; 1550.000;  241.375;    0.000
631.834; 1534.000;  219.375;    0.000
631.952; 1552.000;  231.375;    0.000
632.071; 1488.000;  197.375;    0.000
632.190; 1510.000;  193.375;    0.000
632.308; 1483.000;  185.375;    0.000
632.427; 1505.000;  188.375;    0.000
632.546; 1468.000;  208.375;    0.000
632.664; 1450.000;  191.375;    0.000
632.783; 1543.000;  201.375;    0.000
632.901; 1512.000;  239.375;    0.000
633.020; 1461.000;  197.375;    0.000
633.138; 1496.000;  189.375;    0.000
633.257; 1517.000;  210.375;    0.000
633.375; 1538.000;  213.375;    0.000
633.494; 1530.000;  206.375;    0.000
633.612; 1507.000;  231.375;    0.000
633.731; 1518.000;  213.375;    0.000
633.849; 1531.000;  244.375;    0.000
633.968; 1491.000;  251.375;    0.000
634.086; 1507.000;  224.375;    0.000
634.204; 1428.000;  212.375;    0.000
634.323; 1597.000;  213.375;    0.000
634.441; 1502.000;  219.375;    0.000
634.559; 1460.000;  198.375;    0.000
634.678; 1454.000;  201.375;    0.000
634.796; 1500.000;  179.375;    0.000
634.914; 1475.000;  255.375;    0.000
635.032; 1545.000;  264.375;    0.000
635.151; 1450.000;  228.375;    0.000
635.269; 1577.000;  223.375;    0.000
635.387; 1522.000;  228.375;    0.000
635.505; 1408.000;  214.375;    0.000
635.623; 1487.000;  279.375;    0.000
635.742; 1459.000;  237.375;    0.000
635.860; 1521.000;  244.375;    0.000
635.978; 1491.000;  213.375;    0.000
636.096; 1442.000;  230.375;    0.000
636.214; 1514.000;  252.375;    0.000
636.332; 1492.000;  221.375;    0.000
636.450; 1489.000;  227.375;    0.000
636.568; 1476.000;  193.375;    0.000
636.686; 1441.000;  208.375;    0.000
636.804; 1515.000;  213.375;    0.000
636.922; 1474.000;  199.375;    0.000
637.040; 1473.000;  202.375;    0.000
637.158; 1468.000;  239.375;    0.000
637.276; 1471.000;  225.375;    0.000
637.394; 1498.000;  217.375;    0.000
637.512; 1487.000;  192.375;    0.000
637.629; 1527.000;  216.375;    0.000
637.747; 1486.000;  198.375;    0.000
637.865; 1514.000;  265.375;    0.000
637.983; 1439.000;  245.375;    0.000
638.101; 1478.000;  199.375;    0.000
638.218; 1442.000;  197.375;    0.000
638.336; 1433.000;  212.375;    0.000
638.454; 1493.000;  227.375;    0.000
638.572; 1456.000;  215.375;    0.000
638.689; 1453.000;  214.375;    0.000
638.807; 1479.000;  233.375;    0.000
638.925; 1507.000;  217.375;    0.000
639.042; 1447.000;  180.375;    0.000
639.160; 1466.000;  220.375;    0.000
639.278; 1381.000;  180.375;    0.000
639.395; 1446.000;  243.375;    0.000
639.513; 1430.000;  207.375;    0.000
639.630; 1460.000;  183.375;    0.000
639.748; 1439.000;  231.375;    0.000
639.865; 1489.000;  215.375;    0.000
639.983; 1519.000;  182.375;    0.000
640.100; 1503.000;  190.375;    0.000
640.218; 1420.000;  224.375;    0.000
640.335; 1448.000;  214.375;    0.000
640.453; 1469.000;  212.375;    0.000
640.570; 1456.000;  224.375;    0.000
640.688; 1436.000;  220.375;    0.000
640.805; 1460.000;  189.375;    0.000
640.922; 1498.000;  256.375;    0.000
641.040; 1479.000;  209.375;    0.000
641.157; 1498.000;  195.375;    0.000
641.274; 1476.000;  195.375;    0.000
641.391; 1490.000;  231.375;    0.000
641.509; 1491.000;  207.375;    0.000
641.626; 1514.000;  227.375;    0.000
641.743; 1461.000;  188.375;    0.000
641.860; 1442.000;  208.375;    0.000
641.978; 1473.000;  222.375;    0.000
642.095; 1500.000;  194.375;    0.000
642.212; 1429.000;  202.375;    0.000
642.329; 1441.000;  241.375;    0.000
642.446; 1443.000;  261.375;    0.000
642.563; 1507.000;  236.375;    0.000
642.681; 1464.000;  228.375;    0.000
642.798; 1469.000;  242.375;    0.000
642.915; 1483.000;  197.375;    0.000
643.032; 1542.000;  239.375;    0.000
643.149; 1496.000;  241.375;    0.000
643.266; 1508.000;  199.375;    0.000
643.383; 1481.000;  200.375;    0.000
643.500; 1514.000;  221.375;    0.000
643.617; 1471.000;  196.375;    0.000
643.734; 1534.000;  207.375;    0.000
643.850; 1530.000;  222.375;    0.000
643.967; 1541.000;  235.375;    0.000
644.084; 1509.000;  233.375;    0.000
644.201; 1442.000;  229.375;    0.000
644.318; 1507.000;  210.375;    0.000
644.435; 1501.000;  234.375;    0.000
644.552; 1531.000;  220.375;    0.000
644.668; 1545.000;  231.375;    0.000
644.785; 1507.000;  231.375;    0.000
644.902; 1540.000;  238.375;    0.000
645.019; 1515.000;  226.375;    0.000
645.135; 1482.000;  179.375;    0.000
645.252; 1517.000;  224.375;    0.000
645.369; 1530.000;  206.375;    0.000
645.485; 1524.000;  200.375;    0.000
645.602; 1490.000;  210.375;    0.000
645.719; 1557.000;  206.375;    0.000
645.835; 1559.000;  247.375;    0.000
645.952; 1563.000;  222.375;    0.000
646.068; 1610.000;  205.375;    0.000
646.185; 1587.000;  230.375;    0.000
646.302; 1643.000;  254.375;    0.000
646.418; 1564.000;  230.375;    0.000
646.535; 1590.000;  214.375;    0.000
646.651; 1523.000;  179.375;    0.000
646.768; 1552.000;  190.375;    0.000
646.884; 1538.000;  208.375;    0.000
647.000; 1644.000;  262.375;    0.000
647.117; 1525.000;  212.375;    0.000
647.233; 1602.000;  228.375;    0.000
647.350; 1566.000;  208.375;    0.000
647.466; 1567.000;  211.375;    0.000
647.582; 1634.000;  196.375;    0.000
647.699; 1565.000;  217.375;    0.000
647.815; 1617.000;  203.375;    0.000
647.931; 1669.000;  201.375;    0.000
648.047; 1590.000;  182.375;    0.000
648.164; 1611.000;  219.375;    0.000
648.280; 1587.000;  213.375;    0.000
648.396; 1563.000;  202.375;    0.000
648.512; 1641.000;  233.375;    0.000
648.629; 1611.000;  206.375;    0.000
648.745; 1616.000;  188.375;    0.000
648.861; 1676.000;  209.375;    0.000
648.977; 1678.000;  218.375;    0.000
649.093; 1625.000;  225.375;    0.000
649.209; 1660.000;  240.375;    0.000
649.325; 1692.000;  253.375;    0.000
649.441; 1636.000;  263.375;    0.000
649.557; 1695.000;  256.375;    0.000
649.673; 1681.000;  211.375;    0.000
649.789; 1696.000;  237.375;    0.000
649.905; 1682.000;  183.375;    0.000
650.021; 1714.000;  238.375;    0.000
650.137; 1720.000;  241.375;    0.000
650.253; 1679.000;  228.375;    0.000
650.369; 1690.000;  221.375;    0.000
650.485; 1731.000;  240.375;    0.000
650.601; 1747.000;  254.375;    0.000
650.717; 1738.000;  201.375;    0.000
650.833; 1774.000;  257.375;    0.000
650.948; 1689.000;  213.375;    0.000
651.064; 1794.000;  223.375;    0.000
651.180; 1736.000;  230.375;    0.000
651.296; 1779.000;  235.375;    0.000
651.411; 1741.000;  221.375;    0.000
651.527; 1741.000;  233.375;    0.000
651.643; 1805.000;  236.375;    0.000
651.759; 1844.000;  268.375;    0.000
651.874; 1786.000;  214.375;    0.000
651.990; 1793.000;  251.375;    0.000
652.105; 1795.000;  217.375;    0.000
652.221; 1809.000;  243.375;    0.000
652.337; 1924.000;  231.375;    0.000
652.452; 1925.000;  238.375;    0.000
652.568; 1871.000;  188.375;    0.000
652.683; 1880.000;  197.375;    0.000
652.799; 1837.000;  194.375;    0.000
652.914; 1896.000;  222.375;    0.000
653.030; 1975.000;  200.375;    0.000
653.145; 1920.000;  235.375;    0.000
653.261; 1976.000;  261.375;    0.000
653.376; 1985.000;  228.375;    0.000
653.492; 2002.000;  222.375;    0.000
653.607; 2064.000;  227.375;    0.000
653.722; 2074.000;  250.375;    0.000
653.838; 2146.000;  255.375;    0.000
653.953; 2087.000;  235.375;    0.000
654.068; 2165.000;  266.375;    0.000
654.184; 2190.000;  210.375;    0.000
654.299; 2225.000;  240.375;    0.000
654.414; 2151.000;  222.375;    0.000
654.530; 2228.000;  222.375;    0.000
654.645; 2235.000;  256.375;    0.000
654.760; 2295.000;  244.375;    0.000
654.875; 2389.000;  229.375;    0.000
654.990; 2394.000;  226.375;    0.000
655.106; 2474.000;  254.375;    0.000
655.221; 2528.000;  251.375;    0.000
655.336; 2536.000;  245.375;    0.000
655.451; 2591.000;  199.375;    0.000
655.566; 2703.000;  228.375;    0.000
655.681; 2737.000;  208.375;    0.000
655.796; 2868.000;  218.375;    0.000
655.911; 2950.000;  233.375;    0.000
656.026; 2986.000;  232.375;    0.000
656.141; 3124.000;  223.375;    0.000
656.256; 3235.000;  247.375;    0.000
656.371; 3228.000;  220.375;    0.000
656.486; 3207.000;  225.375;    0.000
656.601; 3239.000;  257.375;    0.000
656.716; 3104.000;  248.375;    0.000
656.831; 3102.000;  262.375;    0.000
656.946; 3078.000;  249.375;    0.000
657.060; 2994.000;  245.375;    0.000
657.175; 2906.000;  245.375;    0.000
657.290; 2808.000;  219.375;    0.000
657.405; 2865.000;  286.375;    0.000
657.520; 2773.000;  259.375;    0.000
657.634; 2757.000;  239.375;    0.000
657.749; 2693.000;  227.375;    0.000
657.864; 2546.000;  210.375;    0.000
657.979; 2581.000;  236.375;    0.000
658.093; 2451.000;  210.375;    0.000
658.208; 2497.000;  248.375;    0.000
658.323; 2435.000;  216.375;    0.000
658.437; 2465.000;  248.375;    0.000
658.552; 2395.000;  249.375;    0.000
658.666; 2388.000;  256.375;    0.000
658.781; 2341.000;  247.375;    0.000
658.895; 2346.000;  209.375;    0.000
659.010; 2323.000;  219.375;    0.000
659.125; 2232.000;  215.375;    0.000
659.239; 2232.000;  205.375;    0.000
659.353; 2217.000;  246.375;    0.000
659.468; 2065.000;  245.375;    0.000
659.582; 2166.000;  244.375;    0.000
659.697; 2072.000;  242.375;    0.000
659.811; 2098.000;  239.375;    0.000
659.926; 2067.000;  226.375;    0.000
660.040; 2019.000;  255.375;    0.000
660.154; 2029.000;  225.375;    0.000
660.269; 2028.000;  200.375;    0.000
660.383; 2023.000;  192.375;    0.000
660.497; 1936.000;  218.375;    0.000
660.612; 1914.000;  236.375;    0.000
660.726; 1979.000;  263.375;    0.000
660.840; 1898.000;  205.375;    0.000
660.954; 1862.000;  219.375;    0.000
661.068; 1874.000;  240.375;    0.000
661.183; 1883.000;  221.375;    0.000
661.297; 1856.000;  194.375;    0.000
661.411; 1837.000;  253.375;    0.000
661.525; 1807.000;  246.375;    0.000
661.639; 1829.000;  217.375;    0.000
661.753; 1830.000;  241.375;    0.000
661.867; 1822.000;  276.375;    0.000
661.981; 1793.000;  203.375;    0.000
662.095; 1762.000;  224.375;    0.000
662.209; 1777.000;  217.375;    0.000
662.323; 1739.000;  251.375;    0.000
662.437; 1641.000;  243.375;    0.000
662.551; 1707.000;  244.375;    0.000
662.665; 1779.000;  247.375;    0.000
662.779; 1723.000;  251.375;    0.000
662.893; 1680.000;  254.375;    0.000
663.007; 1653.000;  222.375;    0.000
663.121; 1678.000;  253.375;    0.000
663.235; 1656.000;  270.375;    0.000
663.349; 1626.000;  242.375;    0.000
663.462; 1608.000;  230.375;    0.000
663.576; 1617.000;  230.375;    0.000
663.690; 1621.000;  249.375;    0.000
663.804; 1570.000;  200.375;    0.000
663.917; 1551.000;  204.375;    0.000
664.031; 1536.000;  206.375;    0.000
664.145; 1617.000;  202.375;    0.000
664.258; 1607.000;  221.375;    0.000
664.372; 1517.000;  215.375;    0.000
664.486; 1548.000;  179.375;    0.000
664.599; 1576.000;  208.375;    0.000
664.713; 1627.000;  268.375;    0.000
664.827; 1470.000;  225.375;    0.000
664.940; 1519.000;  222.375;    0.000
665.054; 1538.000;  208.375;    0.000
665.167; 1476.000;  253.375;    0.000
665.281; 1498.000;  237.375;    0.000
665.394; 1547.000;  227.375;    0.000
665.508; 1422.000;  192.375;    0.000
665.621; 1449.000;  175.375;    0.000
665.735; 1496.000;  249.375;    0.000
665.848; 1495.000;  197.375;    0.000
665.961; 1462.000;  206.375;    0.000
666.075; 1469.000;  245.375;    0.000
666.188; 1451.000;  230.375;    0.000
666.301; 1438.000;  219.375;    0.000
666.415; 1438.000;  231.375;    0.000
666.528; 1473.000;  258.375;    0.000
666.641; 1495.000;  243.375;    0.000
666.755; 1436.000;  208.375;    0.000
666.868; 1357.000;  228.375;    0.000
666.981; 1457.000;  244.375;    0.000
667.094; 1455.000;  244.375;    0.000
667.207; 1418.000;  226.375;    0.000
667.321; 1354.000;  175.375;    0.000
667.434; 1339.000;  211.375;    0.000
667.547; 1413.000;  249.375;    0.000
667.660; 1350.000;  225.375;    0.000
667.773; 1469.000;  242.375;    0.000
667.886; 1349.000;  246.375;    0.000
667.999; 1346.000;  244.375;    0.000
668.112; 1391.000;  227.375;    0.000
668.225; 1391.000;  231.375;    0.000
668.338; 1301.000;  256.375;    0.000
668.451; 1307.000;  216.375;    0.000
668.564; 1353.000;  261.375;    0.000
668.677; 1268.000;  230.375;    0.000
668.790; 1296.000;  192.375;    0.000
668.903; 1339.000;  243.375;    0.000
669.016; 1266.000;  201.375;    0.000
669.129; 1273.000;  249.375;    0.000
669.242; 1282.000;  190.375;    0.000
669.354; 1296.000;  219.375;    0.000
669.467; 1294.000;  242.375;    0.000
669.580; 1299.000;  237.375;    0.000
669.693; 1339.000;  243.375;    0.000
669.806; 1259.000;  234.375;    0.000
669.918; 1284.000;  206.375;    0.000
670.031; 1311.000;  258.375;    0.000
670.144; 1220.000;  231.375;    0.000
670.256; 1254.000;  244.375;    0.000
670.369; 1304.000;  262.375;    0.000
670.482; 1340.000;  264.375;    0.000
670.594; 1314.000;  256.375;    0.000
670.707; 1298.000;  224.375;    0.000
670.820; 1335.000;  261.375;    0.000
670.932; 1272.000;  226.375;    0.000
671.045; 1334.000;  243.375;    0.000
671.157; 1301.000;  235.375;    0.000
671.270; 1239.000;  217.375;    0.000
671.382; 1250.000;  267.375;    0.000
671.495; 1286.000;  258.375;    0.000
671.607; 1241.000;  236.375;    0.000
671.720; 1193.000;  200.375;    0.000
671.832; 1286.000;  219.375;    0.000
671.944; 1227.000;  234.375;    0.000
672.057; 1225.000;  226.375;    0.000
672.169; 1231.000;  225.375;    0.000
672.281; 1229.000;  253.375;    0.000
672.394; 1335.000;  238.375;    0.000
672.506; 1276.000;  244.375;    0.000
672.618; 1175.000;  272.375;    0.000
672.731; 1218.000;  247.375;    0.000
672.843; 1235.000;  261.375;    0.000
672.955; 1244.000;  262.375;    0.000
673.067; 1220.000;  253.375;    0.000
673.180; 1190.000;  239.375;    0.000
673.292; 1191.000;  240.375;    0.000
673.404; 1266.000;  243.375;    0.000
673.516; 1196.000;  258.375;    0.000
673.628; 1218.000;  263.375;    0.000
673.740; 1243.000;  250.375;    0.000
673.852; 1256.000;  285.375;    0.000
673.964; 1231.000;  264.375;    0.000
674.076; 1174.000;  260.375;    0.000
674.188; 1219.000;  226.375;    0.000
674.300; 1188.000;  272.375;    0.000
674.412; 1226.000;  259.375;    0.000
674.524; 1272.000;  283.375;    0.000
674.636; 1193.000;  259.375;    0.000
674.748; 1214.000;  238.375;    0.000
674.860; 1142.000;  277.375;    0.000
674.972; 1175.000;  272.375;    0.000
675.084; 1198.000;  244.375;    0.000
675.196; 1173.000;  272.375;    0.000
675.307; 1179.000;  244.375;    0.000
675.419; 1163.000;  219.375;    0.000
675.531; 1210.000;  275.375;    0.000
675.643; 1205.000;  215.375;    0.000
675.755; 1187.000;  243.375;    0.000
675.866; 1134.000;  223.375;    0.000
675.978; 1186.000;  216.375;    0.000
676.090; 1193.000;  242.375;    0.000
676.201; 1197.000;  276.375;    0.000
676.313; 1164.000;  226.375;    0.000
676.425; 1125.000;  234.375;    0.000
676.536; 1185.000;  231.375;    0.000
676.648; 1159.000;  254.375;    0.000
676.759; 1195.000;  273.375;    0.000
676.871; 1184.000;  250.375;    0.000
676.983; 1171.000;  256.375;    0.000
677.094; 1173.000;  210.375;    0.000
677.206; 1120.000;  248.375;    0.000
677.317; 1158.000;  263.375;    0.000
677.429; 1098.000;  238.375;    0.000
677.540; 1136.000;  247.375;    0.000
677.651; 1099.000;  224.375;    0.000
677.763; 1144.000;  217.375;    0.000
677.874; 1141.000;  234.375;    0.000
677.986; 1091.000;  238.375;    0.000
678.097; 1110.000;  226.375;    0.000
678.208; 1172.000;  253.375;    0.000
678.320; 1112.000;  217.375;    0.000
678.431; 1143.000;  238.375;    0.000
678.542; 1130.000;  236.375;    0.000
678.653; 1103.000;  218.375;    0.000
678.765; 1078.000;  275.375;    0.000
678.876; 1044.000;  213.375;    0.000
678.987; 1036.000;  182.375;    0.000
679.098; 1035.000;  221.375;    0.000
679.209; 1114.000;  238.375;    0.000
679.320; 1101.000;  212.375;    0.000
679.432; 1064.000;  231.375;    0.000
679.543; 1074.000;  198.375;    0.000
679.654;  988.000;  191.375;    0.000
679.765; 1097.000;  214.375;    0.000
679.876; 1043.000;  221.375;    0.000
679.987; 1064.000;  162.375;    0.000
680.098; 1077.000;  230.375;    0.000
680.209; 1114.000;  206.375;    0.000
680.320; 1125.000;  196.375;    0.000
680.431; 1056.000;  191.375;    0.000
680.542; 1026.000;  214.375;    0.000
680.653; 1101.000;  238.375;    0.000
680.763; 1031.000;  182.375;    0.000
680.874; 1053.000;  213.375;    0.000
680.985; 1050.000;  224.375;    0.000
681.096; 1087.000;  222.375;    0.000
681.207; 1021.000;  220.375;    0.000
681.318; 1122.000;  216.375;    0.000
681.428; 1087.000;  229.375;    0.000
681.539; 1009.000;  183.375;    0.000
681.650; 1046.000;  202.375;    0.000
681.760; 1041.000;  223.375;    0.000
681.871; 1027.000;  211.375;    0.000
681.982; 1040.000;  189.375;    0.000
682.093; 1025.000;  222.375;    0.000
682.203; 1045.000;  220.375;    0.000
682.314; 1049.000;  214.375;    0.000
682.424; 1024.000;  208.375;    0.000
682.535; 1000.000;  213.375;    0.000
682.646; 1065.000;  302.375;    0.000
682.756; 1113.000;  255.375;    0.000
682.867; 1085.000;  244.375;    0.000
682.977; 1040.000;  221.375;    0.000
683.088; 1004.000;  259.375;    0.000
683.198; 1031.000;  212.375;    0.000
683.308; 1103.000;  202.375;    0.000
683.419; 1119.000;  255.375;    0.000
683.529; 1008.000;  217.375;    0.000
683.640; 1036.000;  240.375;    0.000
683.750; 1012.000;  181.375;    0.000
683.860; 1072.000;  246.375;    0.000
683.971; 1040.000;  254.375;    0.000
684.081; 1000.000;  235.375;    0.000
684.191; 1014.000;  251.375;    0.000
684.301; 1010.000;  233.375;    0.000
684.412; 1026.000;  202.375;    0.000
684.522; 1072.000;  232.375;    0.000
684.632; 1062.000;  202.375;    0.000
684.742; 1061.000;  254.375;    0.000
684.852; 1005.000;  219.375;    0.000
684.963; 1093.000;  256.375;    0.000
685.073; 1064.000;  253.375;    0.000
685.183; 1057.000;  254.375;    0.000
685.293; 1081.000;  232.375;    0.000
685.403; 1057.000;  242.375;    0.000
685.513; 1057.000;  261.375;    0.000
685.623; 1090.000;  245.375;    0.000
685.733; 1047.000;  254.375;    0.000
685.843; 1087.000;  249.375;    0.000
685.953; 1091.000;  252.375;    0.000
686.063; 1015.000;  227.375;    0.000
686.173; 1051.000;  223.375;    0.000
686.283; 1056.000;  234.375;    0.000
686.393; 1020.000;  239.375;    0.000
686.503; 1108.000;  231.375;    0.000
686.612; 1026.000;  232.375;    0.000
686.722; 1086.000;  258.375;    0.000
686.832; 1074.000;  256.375;    0.000
686.942; 1066.000;  230.375;    0.000
687.052; 1024.000;  274.375;    0.000
687.161; 1083.000;  269.375;    0.000
687.271;  997.000;  218.375;    0.000
687.381;  987.000;  235.375;    0.000
687.491; 1077.000;  262.375;    0.000
687.600; 1064.000;  256.375;    0.000
687.710;  976.000;  225.375;    0.000
687.820; 1065.000;  230.375;    0.000
687.929; 1012.000;  226.375;    0.000
688.039; 1019.000;  228.375;    0.000
688.148; 1034.000;  249.375;    0.000
688.258;  946.000;  237.375;    0.000
688.367; 1013.000;  260.375;    0.000
688.477;  996.000;  200.375;    0.000
688.586; 1016.000;  223.375;    0.000
688.696;  979.000;  223.375;    0.000
688.805;  999.000;  257.375;    0.000
688.915; 1023.000;  185.375;    0.000
689.024;  938.000;  227.375;    0.000
689.134; 1014.000;  224.375;    0.000
689.243;  914.000;  206.375;    0.000
689.352; 1096.000;  275.375;    0.000
689.462;  998.000;  233.375;    0.000
689.571; 1001.000;  244.375;    0.000
689.680;  987.000;  261.375;    0.000
689.790;  963.000;  192.375;    0.000
689.899; 1014.000;  214.375;    0.000
690.008;  997.000;  255.375;    0.000
690.117;  955.000;  219.375;    0.000
690.227;  968.000;  241.375;    0.000
690.336;  928.000;  231.375;    0.000
690.445; 1007.000;  212.375;    0.000
690.554;  983.000;  234.375;    0.000
690.663;  954.000;  210.375;    0.000
690.772;  974.000;  221.375;    0.000
690.881;  978.000;  244.375;    0.000
690.990;  986.000;  247.375;    0.000
691.099; 1026.000;  222.375;    0.000
691.209;  967.000;  240.375;    0.000
691.318;  987.000;  223.375;    0.000
691.427;  953.000;  217.375;    0.000
691.536;  949.000;  216.375;    0.000
691.644;  973.000;  194.375;    0.000
691.753;  978.000;  221.375;    0.000
691.862;  960.000;  224.375;    0.000
691.971;  987.000;  191.375;    0.000
692.080; 1015.000;  247.375;    0.000
692.189;  997.000;  208.375;    0.000
692.298;  959.000;  203.375;    0.000
692.406;  974.000;  239.375;    0.000
692.515;  988.000;  250.375;    0.000
692.624;  902.000;  226.375;    0.000
692.733; 1001.000;  229.375;    0.000
692.842; 1012.000;  254.375;    0.000
692.950;  955.000;  242.375;    0.000
693.059;  982.000;  204.375;    0.000
693.168; 1021.000;  252.375;    0.000
693.276;  957.000;  195.375;    0.000
693.385;  984.000;  228.375;    0.000
693.494;  952.000;  282.375;    0.000
693.602;  981.000;  221.375;    0.000
693.711;  893.000;  225.375;    0.000
693.819;  943.000;  234.375;    0.000
693.928; 1006.000;  229.375;    0.000
694.036;  978.000;  192.375;    0.000
694.145;  991.000;  233.375;    0.000
694.253;  985.000;  277.375;    0.000
694.362;  974.000;  188.375;    0.000
694.470; 1045.000;  263.375;    0.000
694.579; 1033.000;  253.375;    0.000
694.687; 1024.000;  281.375;    0.000
694.795;  985.000;  233.375;    0.000
694.904;  957.000;  223.375;    0.000
695.012; 1005.000;  296.375;    0.000
695.120;  935.000;  227.375;    0.000
695.229;  956.000;  269.375;    0.000
695.337;  993.000;  229.375;    0.000
695.445; 1003.000;  244.375;    0.000
695.553;  981.000;  259.375;    0.000
695.662; 1058.000;  208.375;    0.000
695.770;  986.000;  241.375;    0.000
695.878; 1021.000;  239.375;    0.000
695.986; 1012.000;  247.375;    0.000
696.094;  985.000;  224.375;    0.000
696.202;  947.000;  205.375;    0.000
696.310;  995.000;  217.375;    0.000
696.419;  923.000;  228.375;    0.000
696.527;  972.000;  246.375;    0.000
696.635;  999.000;  245.375;    0.000
696.743; 1004.000;  233.375;    0.000
696.851; 1050.000;  251.375;    0.000
696.959;  948.000;  257.375;    0.000
697.067;  986.000;  260.375;    0.000
697.174;  944.000;  223.375;    0.000
697.282;  916.000;  239.375;    0.000
697.390;  969.000;  264.375;    0.000
697.498;  938.000;  227.375;    0.000
697.606;  921.000;  243.375;    0.000
697.714; 1008.000;  256.375;    0.000
697.822;  952.000;  278.375;    0.000
697.929;  965.000;  227.375;    0.000
698.037;  891.000;  232.375;    0.000
698.145;  953.000;  256.375;    0.000
698.253;  984.000;  245.375;    0.000
698.360;  966.000;  282.375;    0.000
698.468; 1011.000;  244.375;    0.000
698.576; 1026.000;  279.375;    0.000
698.683;  999.000;  259.375;    0.000
698.791;  978.000;  265.375;    0.000
698.899;  999.000;  250.375;    0.000
699.006;  968.000;  245.375;    0.000
699.114;  991.000;  280.375;    0.000
699.221;  934.000;  240.375;    0.000
699.329;  975.000;  293.375;    0.000
699.436; 1006.000;  216.375;    0.000
699.544; 1002.000;  269.375;    0.000
699.651;  952.000;  219.375;    0.000
699.759;  943.000;  245.375;    0.000
699.866;  950.000;  261.375;    0.000
699.974;  913.000;  245.375;    0.000
700.081;  937.000;  257.375;    0.000
700.188;  978.000;  268.375;    0.000
700.296;  936.000;  225.375;    0.000
700.403;  931.000;  257.375;    0.000
700.510;  957.000;  267.375;    0.000
700.618; 1001.000;  299.375;    0.000
700.725;  941.000;  223.375;    0.000
700.832;  986.000;  233.375;    0.000
700.940;  994.000;  255.375;    0.000
701.047;  961.000;  244.375;    0.000
701.154;  937.000;  248.375;    0.000
701.261;  965.000;  264.375;    0.000
701.368;  979.000;  299.375;    0.000
701.475;  953.000;  264.375;    0.000
701.582;  957.000;  275.375;    0.000
701.690;  983.000;  261.375;    0.000
701.797; 1001.000;  273.375;    0.000
701.904;  992.000;  320.375;    0.000
702.011; 1011.000;  299.375;    0.000
702.118;  989.000;  292.375;    0.000
702.225; 1020.000;  317.375;    0.000
702.332; 1053.000;  307.375;    0.000
702.439; 1030.000;  313.375;    0.000
702.546; 1032.000;  312.375;    0.000
702.652;  993.000;  297.375;    0.000
702.759; 1058.000;  345.375;    0.000
702.866; 1043.000;  330.375;    0.000
702.973; 1025.000;  303.375;    0.000
703.080;  998.000;  303.375;    0.000
703.187; 1011.000;  327.375;    0.000
703.294;  995.000;  325.375;    0.000
703.400;  968.000;  302.375;    0.000
703.507;  435.000;  344.375;    0.000
703.614;  315.000;  294.375;    0.000
703.720;  302.000;  322.375;    0.000
703.827;  356.000;  329.375;    0.000
703.934;  308.000;  318.375;    0.000
704.040;  292.000;  299.375;    0.000
704.147;  292.000;  352.375;    0.000
704.254;  341.000;  350.375;    0.000
704.360;  300.000;  347.375;    0.000
704.467;  352.000;  336.375;    0.000
704.573;  336.000;  344.375;    0.000
704.680;  346.000;  365.375;    0.000
704.786;  347.000;  332.375;    0.000
704.893;  316.000;  304.375;    0.000
704.999;  328.000;  299.375;    0.000
705.106;  348.000;  365.375;    0.000

