
Integration time [ms]:   1.000
Averaging Nr. [scans]: 1
Smoothing Nr. [pixels]: 0
Data measured with spectrometer [name]: UV2
Wave   ;Sample   ;Dark     ;Reference
[nm]   ;[counts] ;[counts] ;[counts] 

353.533;  219.550;  216.475;    0.000
353.597;  209.550;  244.475;    0.000
353.660;  196.550;  181.475;    0.000
353.723;  152.550;  203.475;    0.000
353.786;  158.550;  180.475;    0.000
353.850;  204.550;  213.475;    0.000
353.913;  187.550;  191.475;    0.000
353.976;  192.550;  195.475;    0.000
354.039;  176.550;  158.475;    0.000
354.102;  209.550;  199.475;    0.000
354.166;  230.550;  185.475;    0.000
354.229;  222.550;  188.475;    0.000
354.292;  152.550;  188.475;    0.000
354.355;  220.550;  226.475;    0.000
354.418;  159.550;  158.475;    0.000
354.481;  223.550;  185.475;    0.000
354.545;  525.550;  191.475;    0.000
354.608;  526.550;  247.475;    0.000
354.671;  490.550;  176.475;    0.000
354.734;  500.550;  198.475;    0.000
354.797;  590.550;  195.475;    0.000
354.860;  533.550;  212.475;    0.000
354.923;  495.550;  184.475;    0.000
354.986;  553.550;  169.475;    0.000
355.050;  556.550;  206.475;    0.000
355.113;  571.550;  210.475;    0.000
355.176;  571.550;  217.475;    0.000
355.239;  556.550;  201.475;    0.000
355.302;  575.550;  193.475;    0.000
355.365;  642.550;  234.475;    0.000
355.428;  568.550;  182.475;    0.000
355.491;  630.550;  233.475;    0.000
355.554;  574.550;  167.475;    0.000
355.617;  610.550;  195.475;    0.000
355.680;  601.550;  198.475;    0.000
355.743;  590.550;  186.475;    0.000
355.806;  601.550;  171.475;    0.000
355.869;  631.550;  244.475;    0.000
355.932;  613.550;  164.475;    0.000
355.995;  589.550;  220.475;    0.000
356.058;  665.550;  172.475;    0.000
356.121;  621.550;  228.475;    0.000
356.184;  704.550;  225.475;    0.000
356.247;  659.550;  161.475;    0.000
356.310;  615.550;  195.475;    0.000
356.373;  671.550;  191.475;    0.000
356.436;  665.550;  147.475;    0.000
356.498;  648.550;  183.475;    0.000
356.561;  662.550;  137.475;    0.000
356.624;  672.550;  186.475;    0.000
356.687;  680.550;  158.475;    0.000
356.750;  657.550;  194.475;    0.000
356.813;  640.550;  186.475;    0.000
356.876;  661.550;  161.475;    0.000
356.939;  720.550;  188.475;    0.000
357.001;  714.550;  200.475;    0.000
357.064;  695.550;  182.475;    0.000
357.127;  688.550;  168.475;    0.000
357.190;  599.550;  157.475;    0.000
357.253;  690.550;  199.475;    0.000
357.316;  671.550;  187.475;    0.000
357.378;  664.550;  174.475;    0.000
357.441;  690.550;  165.475;    0.000
357.504;  700.550;  189.475;    0.000
357.567;  673.550;  116.475;    0.000
357.629;  698.550;  176.475;    0.000
357.692;  634.550;  134.475;    0.000
357.755;  727.550;  175.475;    0.000
357.818;  654.550;  159.475;    0.000
357.880;  667.550;  185.475;    0.000
357.943;  693.550;  159.475;    0.000
358.006;  657.550;  176.475;    0.000
358.069;  648.550;  156.475;    0.000
358.131;  699.550;  170.475;    0.000
358.194;  644.550;  125.475;    0.000
358.257;  677.550;  186.475;    0.000
358.319;  693.550;  139.475;    0.000
358.382;  738.550;  175.475;    0.000
358.445;  678.550;  170.475;    0.000
358.507;  704.550;  129.475;    0.000
358.570;  657.550;  168.475;    0.000
358.633;  709.550;  152.475;    0.000
358.695;  647.550;  194.475;    0.000
358.758;  639.550;  154.475;    0.000
358.821;  696.550;  147.475;    0.000
358.883;  743.550;  163.475;    0.000
358.946;  657.550;  155.475;    0.000
359.008;  708.550;  208.475;    0.000
359.071;  682.550;  182.475;    0.000
359.134;  714.550;  126.475;    0.000
359.196;  688.550;  142.475;    0.000
359.259;  701.550;  138.475;    0.000
359.321;  710.550;  153.475;    0.000
359.384;  711.550;  186.475;    0.000
359.446;  739.550;  152.475;    0.000
359.509;  722.550;  144.475;    0.000
359.571;  681.550;  164.475;    0.000
359.634;  709.550;  171.475;    0.000
359.696;  666.550;  144.475;    0.000
359.759;  666.550;  171.475;    0.000
359.821;  683.550;  161.475;    0.000
359.884;  681.550;  159.475;    0.000
359.946;  771.550;  186.475;    0.000
360.009;  659.550;  171.475;    0.000
360.071;  731.550;  166.475;    0.000
360.134;  770.550;  215.475;    0.000
360.196;  757.550;  138.475;    0.000
360.259;  716.550;  196.475;    0.000
360.321;  746.550;  148.475;    0.000
360.384;  752.550;  150.475;    0.000
360.446;  781.550;  148.475;    0.000
360.508;  735.550;  172.475;    0.000
360.571;  692.550;  155.475;    0.000
360.633;  731.550;  153.475;    0.000
360.696;  668.550;  142.475;    0.000
360.758;  775.550;  165.475;    0.000
360.820;  650.550;  155.475;    0.000
360.883;  748.550;  156.475;    0.000
360.945;  722.550;  171.475;    0.000
361.007;  722.550;  138.475;    0.000
361.070;  748.550;  129.475;    0.000
361.132;  775.550;  166.475;    0.000
361.194;  754.550;  143.475;    0.000
361.257;  747.550;  154.475;    0.000
361.319;  765.550;  176.475;    0.000
361.381;  768.550;  143.475;    0.000
361.443;  766.550;  136.475;    0.000
361.506;  821.550;  160.475;    0.000
361.568;  794.550;  140.475;    0.000
361.630;  783.550;  159.475;    0.000
361.693;  796.550;  162.475;    0.000
361.755;  793.550;  185.475;    0.000
361.817;  737.550;  209.475;    0.000
361.879;  761.550;  161.475;    0.000
361.941;  764.550;  152.475;    0.000
362.004;  802.550;  132.475;    0.000
362.066;  767.550;  159.475;    0.000
362.128;  819.550;  143.475;    0.000
362.190;  793.550;  131.475;    0.000
362.252;  748.550;  131.475;    0.000
362.315;  765.550;  175.475;    0.000
362.377;  808.550;  140.475;    0.000
362.439;  768.550;  140.475;    0.000
362.501;  769.550;  140.475;    0.000
362.563;  796.550;  152.475;    0.000
362.625;  879.550;  174.475;    0.000
362.688;  794.550;  195.475;    0.000
362.750;  774.550;  221.475;    0.000
362.812;  773.550;  171.475;    0.000
362.874;  828.550;  117.475;    0.000
362.936;  810.550;  162.475;    0.000
362.998;  805.550;  142.475;    0.000
363.060;  833.550;  143.475;    0.000
363.122;  807.550;  148.475;    0.000
363.184;  838.550;  179.475;    0.000
363.246;  769.550;  186.475;    0.000
363.308;  773.550;  180.475;    0.000
363.370;  827.550;  200.475;    0.000
363.432;  854.550;  139.475;    0.000
363.494;  815.550;  138.475;    0.000
363.556;  783.550;  114.475;    0.000
363.618;  811.550;  153.475;    0.000
363.680;  846.550;  153.475;    0.000
363.742;  837.550;  178.475;    0.000
363.804;  812.550;  214.475;    0.000
363.866;  844.550;  170.475;    0.000
363.928;  764.550;  145.475;    0.000
363.990;  847.550;  215.475;    0.000
364.052;  787.550;  166.475;    0.000
364.114;  782.550;  168.475;    0.000
364.176;  838.550;  176.475;    0.000
364.238;  810.550;  203.475;    0.000
364.300;  824.550;  158.475;    0.000
364.362;  796.550;  152.475;    0.000
364.424;  785.550;  119.475;    0.000
364.486;  865.550;  187.475;    0.000
364.548;  859.550;  180.475;    0.000
364.609;  840.550;  212.475;    0.000
364.671;  842.550;  165.475;    0.000
364.733;  809.550;  190.475;    0.000
364.795;  843.550;  148.475;    0.000
364.857;  798.550;  159.475;    0.000
364.919;  820.550;  159.475;    0.000
364.981;  845.550;  191.475;    0.000
365.042;  865.550;  170.475;    0.000
365.104;  814.550;  145.475;    0.000
365.166;  799.550;  134.475;    0.000
365.228;  786.550;  150.475;    0.000
365.290;  829.550;  158.475;    0.000
365.351;  807.550;  168.475;    0.000
365.413;  807.550;  173.475;    0.000
365.475;  814.550;  172.475;    0.000
365.537;  805.550;  126.475;    0.000
365.598;  861.550;  160.475;    0.000
365.660;  794.550;  127.475;    0.000
365.722;  810.550;  189.475;    0.000
365.784;  843.550;  161.475;    0.000
365.845;  829.550;  152.475;    0.000
365.907;  791.550;  117.475;    0.000
365.969;  857.550;  146.475;    0.000
366.030;  843.550;  171.475;    0.000
366.092;  870.550;  155.475;    0.000
366.154;  851.550;  137.475;    0.000
366.215;  860.550;  147.475;    0.000
366.277;  825.550;  148.475;    0.000
366.339;  870.550;  158.475;    0.000
366.400;  791.550;  140.475;    0.000
366.462;  830.550;  159.475;    0.000
366.524;  850.550;  160.475;    0.000
366.585;  847.550;  157.475;    0.000
366.647;  883.550;  170.475;    0.000
366.708;  828.550;  123.475;    0.000
366.770;  837.550;  194.475;    0.000
366.832;  883.550;  191.475;    0.000
366.893;  830.550;  155.475;    0.000
366.955;  830.550;  132.475;    0.000
367.016;  856.550;  126.475;    0.000
367.078;  871.550;  202.475;    0.000
367.139;  850.550;  116.475;    0.000
367.201;  863.550;  134.475;    0.000
367.262;  849.550;  157.475;    0.000
367.324;  890.550;  202.475;    0.000
367.385;  790.550;  118.475;    0.000
367.447;  869.550;  155.475;    0.000
367.508;  862.550;  134.475;    0.000
367.570;  859.550;  165.475;    0.000
367.631;  851.550;  118.475;    0.000
367.693;  857.550;  170.475;    0.000
367.754;  855.550;  154.475;    0.000
367.816;  815.550;  146.475;    0.000
367.877;  848.550;  175.475;    0.000
367.939;  896.550;  200.475;    0.000
368.000;  877.550;  168.475;    0.000
368.062;  858.550;  138.475;    0.000
368.123;  862.550;  170.475;    0.000
368.184;  808.550;  188.475;    0.000
368.246;  838.550;  145.475;    0.000
368.307;  827.550;  163.475;    0.000
368.369;  863.550;  144.475;    0.000
368.430;  793.550;  140.475;    0.000
368.491;  872.550;  133.475;    0.000
368.553;  899.550;  145.475;    0.000
368.614;  842.550;  158.475;    0.000
368.675;  840.550;  147.475;    0.000
368.737;  873.550;  157.475;    0.000
368.798;  828.550;  163.475;    0.000
368.859;  864.550;  173.475;    0.000
368.921;  877.550;  122.475;    0.000
368.982;  834.550;  184.475;    0.000
369.043;  867.550;  169.475;    0.000
369.104;  904.550;  142.475;    0.000
369.166;  904.550;  169.475;    0.000
369.227;  857.550;  156.475;    0.000
369.288;  863.550;  151.475;    0.000
369.349;  878.550;  191.475;    0.000
369.411;  922.550;  168.475;    0.000
369.472;  874.550;  155.475;    0.000
369.533;  825.550;  149.475;    0.000
369.594;  852.550;  174.475;    0.000
369.656;  865.550;  188.475;    0.000
369.717;  887.550;  113.475;    0.000
369.778;  911.550;  184.475;    0.000
369.839;  911.550;  151.475;    0.000
369.900;  928.550;  180.475;    0.000
369.961;  927.550;  171.475;    0.000
370.023;  880.550;  143.475;    0.000
370.084;  854.550;  137.475;    0.000
370.145;  890.550;  152.475;    0.000
370.206;  876.550;  151.475;    0.000
370.267;  924.550;  134.475;    0.000
370.328;  910.550;  178.475;    0.000
370.389;  895.550;  181.475;    0.000
370.451;  889.550;  169.475;    0.000
370.512;  914.550;  172.475;    0.000
370.573;  878.550;  148.475;    0.000
370.634;  915.550;  156.475;    0.000
370.695;  850.550;  151.475;    0.000
370.756;  883.550;  185.475;    0.000
370.817;  897.550;  185.475;    0.000
370.878;  931.550;  191.475;    0.000
370.939;  870.550;  147.475;    0.000
371.000;  903.550;  162.475;    0.000
371.061;  878.550;  145.475;    0.000
371.122;  859.550;  179.475;    0.000
371.183;  810.550;  114.475;    0.000
371.244;  919.550;  180.475;    0.000
371.305;  916.550;  138.475;    0.000
371.366;  867.550;  157.475;    0.000
371.427;  930.550;  148.475;    0.000
371.488;  921.550;  138.475;    0.000
371.549;  904.550;  193.475;    0.000
371.610;  910.550;  158.475;    0.000
371.671;  876.550;  119.475;    0.000
371.732;  963.550;  159.475;    0.000
371.793;  909.550;  178.475;    0.000
371.853;  912.550;  155.475;    0.000
371.914;  893.550;  148.475;    0.000
371.975;  874.550;  124.475;    0.000
372.036;  892.550;  158.475;    0.000
372.097;  881.550;  136.475;    0.000
372.158;  890.550;  116.475;    0.000
372.219;  909.550;  157.475;    0.000
372.280;  881.550;  151.475;    0.000
372.340;  958.550;  190.475;    0.000
372.401;  909.550;  151.475;    0.000
372.462;  909.550;  129.475;    0.000
372.523;  885.550;  121.475;    0.000
372.584;  893.550;  152.475;    0.000
372.645;  879.550;  132.475;    0.000
372.705;  949.550;  190.475;    0.000
372.766;  869.550;  153.475;    0.000
372.827;  917.550;  133.475;    0.000
372.888;  887.550;  161.475;    0.000
372.948;  932.550;  159.475;    0.000
373.009;  949.550;  164.475;    0.000
373.070;  911.550;  139.475;    0.000
373.131;  887.550;  137.475;    0.000
373.191;  940.550;  181.475;    0.000
373.252;  942.550;  154.475;    0.000
373.313;  907.550;  179.475;    0.000
373.373;  880.550;  136.475;    0.000
373.434; 1024.550;  169.475;    0.000
373.495;  900.550;   97.475;    0.000
373.555;  917.550;  142.475;    0.000
373.616;  900.550;  178.475;    0.000
373.677;  972.550;  167.475;    0.000
373.737;  900.550;  139.475;    0.000
373.798;  912.550;  155.475;    0.000
373.859;  971.550;  162.475;    0.000
373.919;  944.550;  174.475;    0.000
373.980;  934.550;  172.475;    0.000
374.041;  944.550;  166.475;    0.000
374.101;  976.550;  172.475;    0.000
374.162;  962.550;  188.475;    0.000
374.222;  922.550;  186.475;    0.000
374.283;  957.550;  195.475;    0.000
374.343;  984.550;  204.475;    0.000
374.404;  944.550;  187.475;    0.000
374.465;  999.550;  183.475;    0.000
374.525;  897.550;  136.475;    0.000
374.586;  965.550;  140.475;    0.000
374.646;  940.550;  191.475;    0.000
374.707; 1028.550;  208.475;    0.000
374.767;  938.550;  178.475;    0.000
374.828;  879.550;  159.475;    0.000
374.888; 1033.550;  143.475;    0.000
374.949;  976.550;  202.475;    0.000
375.009;  956.550;  151.475;    0.000
375.070;  901.550;  160.475;    0.000
375.130;  968.550;  160.475;    0.000
375.190; 1035.550;  164.475;    0.000
375.251;  996.550;  196.475;    0.000
375.311;  966.550;  154.475;    0.000
375.372;  927.550;  197.475;    0.000
375.432;  992.550;  159.475;    0.000
375.493;  964.550;  197.475;    0.000
375.553;  994.550;  165.475;    0.000
375.613;  997.550;  174.475;    0.000
375.674;  986.550;  165.475;    0.000
375.734;  918.550;  128.475;    0.000
375.794;  998.550;  169.475;    0.000
375.855;  953.550;  193.475;    0.000
375.915;  969.550;  162.475;    0.000
375.975;  903.550;  181.475;    0.000
376.036; 1021.550;  161.475;    0.000
376.096;  975.550;  131.475;    0.000
376.156;  959.550;  165.475;    0.000
376.217;  969.550;  182.475;    0.000
376.277;  974.550;  185.475;    0.000
376.337; 1059.550;  177.475;    0.000
376.398; 1024.550;  162.475;    0.000
376.458;  980.550;  179.475;    0.000
376.518;  987.550;  150.475;    0.000
376.578;  945.550;  165.475;    0.000
376.639; 1010.550;  159.475;    0.000
376.699;  972.550;  180.475;    0.000
376.759;  976.550;  206.475;    0.000
376.819;  994.550;  146.475;    0.000
376.880;  997.550;  177.475;    0.000
376.940; 1025.550;  160.475;    0.000
377.000;  946.550;  149.475;    0.000
377.060; 1056.550;  180.475;    0.000
377.120;  991.550;  146.475;    0.000
377.180;  991.550;  137.475;    0.000
377.241;  959.550;  163.475;    0.000
377.301; 1101.550;  169.475;    0.000
377.361;  968.550;  137.475;    0.000
377.421; 1030.550;  184.475;    0.000
377.481;  988.550;  185.475;    0.000
377.541;  924.550;  146.475;    0.000
377.601; 1041.550;  179.475;    0.000
377.661;  996.550;  181.475;    0.000
377.722;  989.550;  185.475;    0.000
377.782;  966.550;  147.475;    0.000
377.842;  988.550;  190.475;    0.000
377.902; 1045.550;  166.475;    0.000
377.962;  974.550;  153.475;    0.000
378.022; 1031.550;  163.475;    0.000
378.082; 1045.550;  146.475;    0.000
378.142; 1016.550;  152.475;    0.000
378.202; 1069.550;  164.475;    0.000
378.262; 1093.550;  195.475;    0.000
378.322; 1032.550;  190.475;    0.000
378.382;  981.550;  152.475;    0.000
378.442; 1038.550;  175.475;    0.000
378.502; 1013.550;  153.475;    0.000
378.562; 1003.550;  142.475;    0.000
378.622; 1094.550;  166.475;    0.000
378.682; 1071.550;  173.475;    0.000
378.742; 1005.550;  182.475;    0.000
378.802;  993.550;  145.475;    0.000
378.862; 1112.550;  210.475;    0.000
378.921; 1127.550;  182.475;    0.000
378.981; 1084.550;  185.475;    0.000
379.041; 1077.550;  130.475;    0.000
379.101; 1107.550;  177.475;    0.000
379.161; 1124.550;  166.475;    0.000
379.221; 1132.550;  162.475;    0.000
379.281; 1080.550;  167.475;    0.000
379.341; 1099.550;  136.475;    0.000
379.401; 1092.550;  145.475;    0.000
379.460; 1154.550;  176.475;    0.000
379.520; 1106.550;  162.475;    0.000
379.580; 1140.550;  144.475;    0.000
379.640; 1088.550;  163.475;    0.000
379.700; 1112.550;  157.475;    0.000
379.759; 1151.550;  165.475;    0.000
379.819; 1109.550;  190.475;    0.000
379.879; 1126.550;  143.475;    0.000
379.939; 1188.550;  188.475;    0.000
379.999; 1142.550;  141.475;    0.000
380.058; 1130.550;  169.475;    0.000
380.118; 1179.550;  158.475;    0.000
380.178; 1163.550;  114.475;    0.000
380.237; 1134.550;  157.475;    0.000
380.297; 1189.550;  177.475;    0.000
380.357; 1177.550;  189.475;    0.000
380.417; 1112.550;  182.475;    0.000
380.476; 1200.550;  178.475;    0.000
380.536; 1145.550;  189.475;    0.000
380.596; 1155.550;  183.475;    0.000
380.655; 1183.550;  195.475;    0.000
380.715; 1204.550;  170.475;    0.000
380.775; 1134.550;  170.475;    0.000
380.834; 1177.550;  179.475;    0.000
380.894; 1220.550;  188.475;    0.000
380.954; 1130.550;  142.475;    0.000
381.013; 1170.550;  178.475;    0.000
381.073; 1195.550;  164.475;    0.000
381.132; 1177.550;  192.475;    0.000
381.192; 1226.550;  187.475;    0.000
381.252; 1211.550;  176.475;    0.000
381.311; 1227.550;  206.475;    0.000
381.371; 1248.550;  167.475;    0.000
381.430; 1287.550;  131.475;    0.000
381.490; 1197.550;  150.475;    0.000
381.549; 1196.550;  129.475;    0.000
381.609; 1266.550;  178.475;    0.000
381.668; 1138.550;  194.475;    0.000
381.728; 1246.550;  210.475;    0.000
381.787; 1229.550;  190.475;    0.000
381.847; 1324.550;  181.475;    0.000
381.906; 1231.550;  156.475;    0.000
381.966; 1239.550;  176.475;    0.000
382.025; 1265.550;  186.475;    0.000
382.085; 1381.550;  192.475;    0.000
382.144; 1278.550;  173.475;    0.000
382.204; 1356.550;  207.475;    0.000
382.263; 1304.550;  193.475;    0.000
382.323; 1331.550;  164.475;    0.000
382.382; 1371.550;  161.475;    0.000
382.441; 1411.550;  199.475;    0.000
382.501; 1416.550;  208.475;    0.000
382.560; 1540.550;  173.475;    0.000
382.619; 1462.550;  179.475;    0.000
382.679; 1558.550;  177.475;    0.000
382.738; 1640.550;  190.475;    0.000
382.798; 1690.550;  213.475;    0.000
382.857; 1884.550;  195.475;    0.000
382.916; 2113.550;  184.475;    0.000
382.976; 2199.550;  169.475;    0.000
383.035; 1954.550;  194.475;    0.000
383.094; 1983.550;  185.475;    0.000
383.154; 2290.550;  198.475;    0.000
383.213; 2633.550;  147.475;    0.000
383.272; 2646.550;  175.475;    0.000
383.331; 2061.550;  122.475;    0.000
383.391; 1906.550;  185.475;    0.000
383.450; 1825.550;  160.475;    0.000
383.509; 1909.550;  168.475;    0.000
383.568; 1901.550;  196.475;    0.000
383.628; 2021.550;  156.475;    0.000
383.687; 2179.550;  171.475;    0.000
383.746; 2479.550;  155.475;    0.000
383.805; 3047.550;  201.475;    0.000
383.864; 2967.550;  125.475;    0.000
383.924; 2285.550;  213.475;    0.000
383.983; 1902.550;  188.475;    0.000
384.042; 1720.550;  162.475;    0.000
384.101; 1632.550;  183.475;    0.000
384.160; 1558.550;  155.475;    0.000
384.219; 1545.550;  155.475;    0.000
384.279; 1513.550;  189.475;    0.000
384.338; 1470.550;  156.475;    0.000
384.397; 1402.550;  148.475;    0.000
384.456; 1373.550;  154.475;    0.000
384.515; 1347.550;  160.475;    0.000
384.574; 1389.550;  223.475;    0.000
384.633; 1403.550;  133.475;    0.000
384.692; 1271.550;  163.475;    0.000
384.751; 1367.550;  186.475;    0.000
384.810; 1364.550;  187.475;    0.000
384.869; 1323.550;  172.475;    0.000
384.929; 1276.550;  153.475;    0.000
384.988; 1278.550;  174.475;    0.000
385.047; 1274.550;  154.475;    0.000
385.106; 1342.550;  164.475;    0.000
385.165; 1312.550;  151.475;    0.000
385.224; 1310.550;  147.475;    0.000
385.283; 1361.550;  176.475;    0.000
385.342; 1271.550;  142.475;    0.000
385.401; 1329.550;  175.475;    0.000
385.459; 1304.550;  150.475;    0.000
385.518; 1345.550;  124.475;    0.000
385.577; 1297.550;  115.475;    0.000
385.636; 1332.550;  174.475;    0.000
385.695; 1299.550;  158.475;    0.000
385.754; 1316.550;  150.475;    0.000
385.813; 1237.550;  129.475;    0.000
385.872; 1299.550;  146.475;    0.000
385.931; 1330.550;  194.475;    0.000
385.990; 1324.550;  174.475;    0.000
386.049; 1318.550;  176.475;    0.000
386.107; 1259.550;  151.475;    0.000
386.166; 1348.550;  178.475;    0.000
386.225; 1303.550;  162.475;    0.000
386.284; 1282.550;  180.475;    0.000
386.343; 1353.550;  171.475;    0.000
386.402; 1282.550;  176.475;    0.000
386.460; 1354.550;  144.475;    0.000
386.519; 1244.550;  140.475;    0.000
386.578; 1315.550;  145.475;    0.000
386.637; 1287.550;  164.475;    0.000
386.696; 1251.550;  189.475;    0.000
386.754; 1317.550;  135.475;    0.000
386.813; 1310.550;  139.475;    0.000
386.872; 1256.550;  121.475;    0.000
386.931; 1364.550;  153.475;    0.000
386.989; 1274.550;  211.475;    0.000
387.048; 1369.550;  156.475;    0.000
387.107; 1329.550;  210.475;    0.000
387.165; 1304.550;  129.475;    0.000
387.224; 1246.550;  205.475;    0.000
387.283; 1229.550;  130.475;    0.000
387.342; 1277.550;  171.475;    0.000
387.400; 1241.550;  156.475;    0.000
387.459; 1280.550;  141.475;    0.000
387.517; 1317.550;  219.475;    0.000
387.576; 1269.550;  166.475;    0.000
387.635; 1317.550;  136.475;    0.000
387.693; 1325.550;  191.475;    0.000
387.752; 1344.550;  165.475;    0.000
387.811; 1277.550;  158.475;    0.000
387.869; 1253.550;  204.475;    0.000
387.928; 1269.550;  149.475;    0.000
387.986; 1291.550;  156.475;    0.000
388.045; 1286.550;  123.475;    0.000
388.103; 1301.550;  150.475;    0.000
388.162; 1279.550;  173.475;    0.000
388.221; 1273.550;  143.475;    0.000
388.279; 1232.550;  129.475;    0.000
388.338; 1309.550;  212.475;    0.000
388.396; 1229.550;  150.475;    0.000
388.455; 1318.550;  167.475;    0.000
388.513; 1219.550;  116.475;    0.000
388.572; 1244.550;  181.475;    0.000
388.630; 1273.550;  187.475;    0.000
388.689; 1283.550;  180.475;    0.000
388.747; 1217.550;  154.475;    0.000
388.806; 1244.550;  161.475;    0.000
388.864; 1320.550;  167.475;    0.000
388.922; 1237.550;  184.475;    0.000
388.981; 1200.550;  169.475;    0.000
389.039; 1241.550;  102.475;    0.000
389.098; 1304.550;  183.475;    0.000
389.156; 1248.550;  182.475;    0.000
389.214; 1261.550;  173.475;    0.000
389.273; 1314.550;  167.475;    0.000
389.331; 1299.550;  170.475;    0.000
389.390; 1248.550;  150.475;    0.000
389.448; 1260.550;  156.475;    0.000
389.506; 1279.550;  149.475;    0.000
389.565; 1285.550;  162.475;    0.000
389.623; 1338.550;  188.475;    0.000
389.681; 1296.550;  204.475;    0.000
389.740; 1318.550;  187.475;    0.000
389.798; 1298.550;  153.475;    0.000
389.856; 1341.550;  214.475;    0.000
389.914; 1295.550;  177.475;    0.000
389.973; 1240.550;  189.475;    0.000
390.031; 1281.550;  178.475;    0.000
390.089; 1277.550;  163.475;    0.000
390.147; 1251.550;  170.475;    0.000
390.206; 1312.550;  183.475;    0.000
390.264; 1300.550;  161.475;    0.000
390.322; 1293.550;  148.475;    0.000
390.380; 1249.550;  138.475;    0.000
390.439; 1248.550;  194.475;    0.000
390.497; 1300.550;  170.475;    0.000
390.555; 1234.550;  165.475;    0.000
390.613; 1299.550;  177.475;    0.000
390.671; 1281.550;  170.475;    0.000
390.729; 1230.550;  158.475;    0.000
390.788; 1268.550;  162.475;    0.000
390.846; 1273.550;  161.475;    0.000
390.904; 1334.550;  197.475;    0.000
390.962; 1247.550;  212.475;    0.000
391.020; 1319.550;  224.475;    0.000
391.078; 1244.550;  184.475;    0.000
391.136; 1321.550;  191.475;    0.000
391.194; 1293.550;  187.475;    0.000
391.253; 1374.550;  197.475;    0.000
391.311; 1292.550;  185.475;    0.000
391.369; 1358.550;  207.475;    0.000
391.427; 1319.550;  222.475;    0.000
391.485; 1341.550;  184.475;    0.000
391.543; 1317.550;  203.475;    0.000
391.601; 1274.550;  151.475;    0.000
391.659; 1341.550;  176.475;    0.000
391.717; 1320.550;  190.475;    0.000
391.775; 1349.550;  159.475;    0.000
391.833; 1279.550;  186.475;    0.000
391.891; 1327.550;  154.475;    0.000
391.949; 1265.550;  181.475;    0.000
392.007; 1360.550;  190.475;    0.000
392.065; 1363.550;  182.475;    0.000
392.123; 1316.550;  158.475;    0.000
392.180; 1264.550;  198.475;    0.000
392.238; 1359.550;  191.475;    0.000
392.296; 1238.550;  164.475;    0.000
392.354; 1338.550;  172.475;    0.000
392.412; 1274.550;  194.475;    0.000
392.470; 1342.550;  154.475;    0.000
392.528; 1302.550;  172.475;    0.000
392.586; 1345.550;  179.475;    0.000
392.644; 1271.550;  173.475;    0.000
392.701; 1281.550;  202.475;    0.000
392.759; 1341.550;  180.475;    0.000
392.817; 1339.550;  181.475;    0.000
392.875; 1305.550;  168.475;    0.000
392.933; 1284.550;  161.475;    0.000
392.991; 1349.550;  216.475;    0.000
393.048; 1327.550;  197.475;    0.000
393.106; 1366.550;  199.475;    0.000
393.164; 1391.550;  173.475;    0.000
393.222; 1368.550;  179.475;    0.000
393.279; 1363.550;  209.475;    0.000
393.337; 1352.550;  185.475;    0.000
393.395; 1373.550;  174.475;    0.000
393.453; 1336.550;  181.475;    0.000
393.510; 1380.550;  188.475;    0.000
393.568; 1398.550;  191.475;    0.000
393.626; 1362.550;  151.475;    0.000
393.684; 1413.550;  208.475;    0.000
393.741; 1384.550;  179.475;    0.000
393.799; 1344.550;  149.475;    0.000
393.857; 1331.550;  136.475;    0.000
393.914; 1341.550;  190.475;    0.000
393.972; 1327.550;  155.475;    0.000
394.030; 1436.550;  170.475;    0.000
394.087; 1360.550;  213.475;    0.000
394.145; 1352.550;  191.475;    0.000
394.202; 1377.550;  188.475;    0.000
394.260; 1322.550;  168.475;    0.000
394.318; 1390.550;  176.475;    0.000
394.375; 1302.550;  159.475;    0.000
394.433; 1370.550;  168.475;    0.000
394.490; 1347.550;  163.475;    0.000
394.548; 1373.550;  163.475;    0.000
394.605; 1323.550;  181.475;    0.000
394.663; 1305.550;  180.475;    0.000
394.720; 1355.550;  193.475;    0.000
394.778; 1404.550;  168.475;    0.000
394.836; 1359.550;  128.475;    0.000
394.893; 1402.550;  151.475;    0.000
394.951; 1437.550;  173.475;    0.000
395.008; 1406.550;  201.475;    0.000
395.065; 1370.550;  139.475;    0.000
395.123; 1410.550;  173.475;    0.000
395.180; 1333.550;  144.475;    0.000
395.238; 1379.550;  135.475;    0.000
395.295; 1367.550;  167.475;    0.000
395.353; 1393.550;  150.475;    0.000
395.410; 1387.550;  165.475;    0.000
395.468; 1401.550;  223.475;    0.000
395.525; 1378.550;  156.475;    0.000
395.582; 1358.550;  178.475;    0.000
395.640; 1419.550;  178.475;    0.000
395.697; 1428.550;  173.475;    0.000
395.754; 1373.550;  154.475;    0.000
395.812; 1387.550;  169.475;    0.000
395.869; 1421.550;  196.475;    0.000
395.927; 1470.550;  190.475;    0.000
395.984; 1458.550;  195.475;    0.000
396.041; 1463.550;  160.475;    0.000
396.098; 1374.550;  161.475;    0.000
396.156; 1441.550;  187.475;    0.000
396.213; 1421.550;  200.475;    0.000
396.270; 1473.550;  160.475;    0.000
396.328; 1320.550;  113.475;    0.000
396.385; 1407.550;  165.475;    0.000
396.442; 1427.550;  168.475;    0.000
396.499; 1449.550;  117.475;    0.000
396.557; 1429.550;  203.475;    0.000
396.614; 1456.550;  155.475;    0.000
396.671; 1484.550;  187.475;    0.000
396.728; 1486.550;  169.475;    0.000
396.785; 1515.550;  167.475;    0.000
396.843; 1409.550;  154.475;    0.000
396.900; 1418.550;  172.475;    0.000
396.957; 1454.550;  176.475;    0.000
397.014; 1471.550;  193.475;    0.000
397.071; 1424.550;  170.475;    0.000
397.128; 1493.550;  172.475;    0.000
397.186; 1523.550;  205.475;    0.000
397.243; 1489.550;  163.475;    0.000
397.300; 1482.550;  193.475;    0.000
397.357; 1588.550;  166.475;    0.000
397.414; 1487.550;  149.475;    0.000
397.471; 1426.550;  157.475;    0.000
397.528; 1459.550;  180.475;    0.000
397.585; 1457.550;  203.475;    0.000
397.642; 1490.550;  156.475;    0.000
397.699; 1562.550;  229.475;    0.000
397.756; 1429.550;  185.475;    0.000
397.814; 1522.550;  191.475;    0.000
397.871; 1471.550;  170.475;    0.000
397.928; 1437.550;  191.475;    0.000
397.985; 1443.550;  183.475;    0.000
398.042; 1535.550;  161.475;    0.000
398.099; 1533.550;  192.475;    0.000
398.156; 1512.550;  176.475;    0.000
398.212; 1573.550;  170.475;    0.000
398.269; 1586.550;  158.475;    0.000
398.326; 1526.550;  175.475;    0.000
398.383; 1459.550;  177.475;    0.000
398.440; 1564.550;  169.475;    0.000
398.497; 1585.550;  184.475;    0.000
398.554; 1511.550;  196.475;    0.000
398.611; 1559.550;  198.475;    0.000
398.668; 1522.550;  135.475;    0.000
398.725; 1520.550;  181.475;    0.000
398.782; 1579.550;  195.475;    0.000
398.839; 1606.550;  179.475;    0.000
398.895; 1592.550;  188.475;    0.000
398.952; 1589.550;  176.475;    0.000
399.009; 1660.550;  183.475;    0.000
399.066; 1528.550;  190.475;    0.000
399.123; 1605.550;  174.475;    0.000
399.180; 1664.550;  191.475;    0.000
399.236; 1657.550;  217.475;    0.000
399.293; 1572.550;  154.475;    0.000
399.350; 1704.550;  210.475;    0.000
399.407; 1687.550;  202.475;    0.000
399.463; 1606.550;  162.475;    0.000
399.520; 1655.550;  207.475;    0.000
399.577; 1622.550;  174.475;    0.000
399.634; 1678.550;  170.475;    0.000
399.690; 1634.550;  186.475;    0.000
399.747; 1763.550;  218.475;    0.000
399.804; 1592.550;  200.475;    0.000
399.861; 1707.550;  190.475;    0.000
399.917; 1675.550;  218.475;    0.000
399.974; 1691.550;  200.475;    0.000
400.031; 1776.550;  200.475;    0.000
400.087; 1656.550;  153.475;    0.000
400.144; 1688.550;  188.475;    0.000
400.201; 1734.550;  198.475;    0.000
400.257; 1642.550;  205.475;    0.000
400.314; 1668.550;  183.475;    0.000
400.370; 1632.550;  227.475;    0.000
400.427; 1668.550;  177.475;    0.000
400.484; 1625.550;  202.475;    0.000
400.540; 1677.550;  173.475;    0.000
400.597; 1672.550;  212.475;    0.000
400.653; 1646.550;  182.475;    0.000
400.710; 1618.550;  201.475;    0.000
400.766; 1687.550;  188.475;    0.000
400.823; 1593.550;  205.475;    0.000
400.879; 1616.550;  165.475;    0.000
400.936; 1685.550;  180.475;    0.000
400.993; 1617.550;  181.475;    0.000
401.049; 1682.550;  147.475;    0.000
401.105; 1669.550;  205.475;    0.000
401.162; 1676.550;  197.475;    0.000
401.218; 1671.550;  177.475;    0.000
401.275; 1675.550;  183.475;    0.000
401.331; 1659.550;  198.475;    0.000
401.388; 1675.550;  209.475;    0.000
401.444; 1594.550;  211.475;    0.000
401.501; 1678.550;  185.475;    0.000
401.557; 1648.550;  190.475;    0.000
401.614; 1578.550;  172.475;    0.000
401.670; 1666.550;  185.475;    0.000
401.726; 1673.550;  196.475;    0.000
401.783; 1633.550;  187.475;    0.000
401.839; 1668.550;  192.475;    0.000
401.895; 1627.550;  173.475;    0.000
401.952; 1595.550;  145.475;    0.000
402.008; 1631.550;  197.475;    0.000
402.064; 1619.550;  146.475;    0.000
402.121; 1674.550;  197.475;    0.000
402.177; 1578.550;  173.475;    0.000
402.233; 1600.550;  185.475;    0.000
402.290; 1710.550;  175.475;    0.000
402.346; 1596.550;  164.475;    0.000
402.402; 1689.550;  173.475;    0.000
402.458; 1657.550;  183.475;    0.000
402.515; 1718.550;  147.475;    0.000
402.571; 1727.550;  210.475;    0.000
402.627; 1632.550;  181.475;    0.000
402.683; 1669.550;  177.475;    0.000
402.740; 1581.550;  162.475;    0.000
402.796; 1587.550;  178.475;    0.000
402.852; 1708.550;  138.475;    0.000
402.908; 1636.550;  181.475;    0.000
402.964; 1697.550;  151.475;    0.000
403.021; 1739.550;  170.475;    0.000
403.077; 1706.550;  204.475;    0.000
403.133; 1670.550;  144.475;    0.000
403.189; 1754.550;  207.475;    0.000
403.245; 1675.550;  184.475;    0.000
403.301; 1672.550;  170.475;    0.000
403.357; 1681.550;  201.475;    0.000
403.414; 1685.550;  205.475;    0.000
403.470; 1647.550;  170.475;    0.000
403.526; 1660.550;  135.475;    0.000
403.582; 1702.550;  180.475;    0.000
403.638; 1725.550;  185.475;    0.000
403.694; 1751.550;  169.475;    0.000
403.750; 1666.550;  210.475;    0.000
403.806; 1710.550;  210.475;    0.000
403.862; 1681.550;  219.475;    0.000
403.918; 1767.550;  191.475;    0.000
403.974; 1674.550;  193.475;    0.000
404.030; 1651.550;  154.475;    0.000
404.086; 1733.550;  170.475;    0.000
404.142; 1689.550;  194.475;    0.000
404.198; 1730.550;  224.475;    0.000
404.254; 1743.550;  177.475;    0.000
404.310; 1742.550;  204.475;    0.000
404.366; 1839.550;  170.475;    0.000
404.422; 1761.550;  172.475;    0.000
404.478; 1777.550;  153.475;    0.000
404.534; 1738.550;  159.475;    0.000
404.590; 1687.550;  203.475;    0.000
404.646; 1682.550;  164.475;    0.000
404.701; 1727.550;  141.475;    0.000
404.757; 1741.550;  195.475;    0.000
404.813; 1715.550;  152.475;    0.000
404.869; 1842.550;  174.475;    0.000
404.925; 1763.550;  167.475;    0.000
404.981; 1700.550;  175.475;    0.000
405.037; 1767.550;  170.475;    0.000
405.092; 1758.550;  155.475;    0.000
405.148; 1749.550;  160.475;    0.000
405.204; 1784.550;  158.475;    0.000
405.260; 1750.550;  128.475;    0.000
405.316; 1774.550;  168.475;    0.000
405.371; 1663.550;  162.475;    0.000
405.427; 1757.550;  187.475;    0.000
405.483; 1746.550;  214.475;    0.000
405.539; 1807.550;  163.475;    0.000
405.594; 1829.550;  191.475;    0.000
405.650; 1714.550;  124.475;    0.000
405.706; 1803.550;  188.475;    0.000
405.761; 1705.550;  204.475;    0.000
405.817; 1726.550;  150.475;    0.000
405.873; 1707.550;  152.475;    0.000
405.928; 1781.550;  135.475;    0.000
405.984; 1826.550;  209.475;    0.000
406.040; 1817.550;  165.475;    0.000
406.095; 1801.550;  146.475;    0.000
406.151; 1806.550;  169.475;    0.000
406.207; 1831.550;  174.475;    0.000
406.262; 1789.550;  189.475;    0.000
406.318; 1805.550;  141.475;    0.000
406.374; 1829.550;  178.475;    0.000
406.429; 1815.550;  197.475;    0.000
406.485; 1872.550;  194.475;    0.000
406.540; 1747.550;  149.475;    0.000
406.596; 1775.550;  173.475;    0.000
406.651; 1863.550;  154.475;    0.000
406.707; 1860.550;  183.475;    0.000
406.763; 1768.550;  156.475;    0.000
406.818; 1876.550;  181.475;    0.000
406.874; 1868.550;  135.475;    0.000
406.929; 1920.550;  194.475;    0.000
406.985; 1908.550;  166.475;    0.000
407.040; 1884.550;  207.475;    0.000
407.095; 1864.550;  213.475;    0.000
407.151; 1948.550;  198.475;    0.000
407.206; 1932.550;  186.475;    0.000
407.262; 1894.550;  148.475;    0.000
407.317; 1944.550;  212.475;    0.000
407.373; 1972.550;  209.475;    0.000
407.428; 1926.550;  218.475;    0.000
407.484; 1956.550;  158.475;    0.000
407.539; 1923.550;  165.475;    0.000
407.594; 1990.550;  197.475;    0.000
407.650; 1906.550;  177.475;    0.000
407.705; 2001.550;  154.475;    0.000
407.760; 1934.550;  198.475;    0.000
407.816; 2020.550;  181.475;    0.000
407.871; 1911.550;  185.475;    0.000
407.926; 1951.550;  167.475;    0.000
407.982; 1967.550;  172.475;    0.000
408.037; 1975.550;  202.475;    0.000
408.092; 1936.550;  201.475;    0.000
408.148; 1936.550;  199.475;    0.000
408.203; 1920.550;  174.475;    0.000
408.258; 1876.550;  157.475;    0.000
408.314; 1916.550;  194.475;    0.000
408.369; 1952.550;  189.475;    0.000
408.424; 1908.550;  204.475;    0.000
408.479; 1922.550;  192.475;    0.000
408.534; 1944.550;  215.475;    0.000
408.590; 1968.550;  190.475;    0.000
408.645; 1860.550;  159.475;    0.000
408.700; 2004.550;  191.475;    0.000
408.755; 1987.550;  217.475;    0.000
408.810; 1948.550;  158.475;    0.000
408.866; 1910.550;  166.475;    0.000
408.921; 1910.550;  214.475;    0.000
408.976; 1912.550;  158.475;    0.000
409.031; 1954.550;  185.475;    0.000
409.086; 1922.550;  158.475;    0.000
409.141; 1917.550;  180.475;    0.000
409.196; 1951.550;  188.475;    0.000
409.252; 1920.550;  186.475;    0.000
409.307; 1955.550;  135.475;    0.000
409.362; 1855.550;  162.475;    0.000
409.417; 1899.550;  149.475;    0.000
409.472; 1976.550;  205.475;    0.000
409.527; 1984.550;  184.475;    0.000
409.582; 1952.550;  174.475;    0.000
409.637; 1956.550;  188.475;    0.000
409.692; 1914.550;  211.475;    0.000
409.747; 1940.550;  159.475;    0.000
409.802; 1964.550;  199.475;    0.000
409.857; 1950.550;  118.475;    0.000
409.912; 1880.550;  177.475;    0.000
409.967; 1903.550;  182.475;    0.000
410.022; 1864.550;  188.475;    0.000
410.077; 1938.550;  204.475;    0.000
410.132; 1937.550;  174.475;    0.000
410.187; 1996.550;  169.475;    0.000
410.242; 1944.550;  178.475;    0.000
410.297; 1932.550;  185.475;    0.000
410.351; 1933.550;  203.475;    0.000
410.406; 1993.550;  180.475;    0.000
410.461; 1954.550;  213.475;    0.000
410.516; 1958.550;  198.475;    0.000
410.571; 1952.550;  171.475;    0.000
410.626; 1999.550;  186.475;    0.000
410.681; 1935.550;  187.475;    0.000
410.736; 1915.550;  147.475;    0.000
410.790; 1947.550;  186.475;    0.000
410.845; 1996.550;  152.475;    0.000
410.900; 1958.550;  202.475;    0.000
410.955; 2008.550;  196.475;    0.000
411.010; 1980.550;  150.475;    0.000
411.064; 1912.550;  200.475;    0.000
411.119; 1908.550;  203.475;    0.000
411.174; 2027.550;  176.475;    0.000
411.229; 2026.550;  203.475;    0.000
411.283; 1958.550;  176.475;    0.000
411.338; 1982.550;  153.475;    0.000
411.393; 1948.550;  168.475;    0.000
411.447; 1966.550;  223.475;    0.000
411.502; 1977.550;  238.475;    0.000
411.557; 1985.550;  179.475;    0.000
411.612; 1937.550;  159.475;    0.000
411.666; 1954.550;  189.475;    0.000
411.721; 1959.550;  212.475;    0.000
411.776; 1977.550;  242.475;    0.000
411.830; 1913.550;  194.475;    0.000
411.885; 1989.550;  188.475;    0.000
411.939; 1987.550;  245.475;    0.000
411.994; 1960.550;  177.475;    0.000
412.049; 2003.550;  170.475;    0.000
412.103; 2045.550;  196.475;    0.000
412.158; 2067.550;  215.475;    0.000
412.212; 2028.550;  199.475;    0.000
412.267; 2010.550;  191.475;    0.000
412.322; 1980.550;  238.475;    0.000
412.376; 1967.550;  243.475;    0.000
412.431; 2030.550;  214.475;    0.000
412.485; 1994.550;  210.475;    0.000
412.540; 1965.550;  200.475;    0.000
412.594; 1970.550;  174.475;    0.000
412.649; 2016.550;  246.475;    0.000
412.703; 1991.550;  182.475;    0.000
412.758; 1981.550;  222.475;    0.000
412.812; 2011.550;  201.475;    0.000
412.866; 1895.550;  162.475;    0.000
412.921; 1970.550;  202.475;    0.000
412.975; 1940.550;  212.475;    0.000
413.030; 2003.550;  238.475;    0.000
413.084; 1966.550;  201.475;    0.000
413.139; 2070.550;  210.475;    0.000
413.193; 1981.550;  218.475;    0.000
413.247; 2006.550;  203.475;    0.000
413.302; 1978.550;  176.475;    0.000
413.356; 2023.550;  215.475;    0.000
413.410; 1931.550;  204.475;    0.000
413.465; 1983.550;  186.475;    0.000
413.519; 2003.550;  196.475;    0.000
413.573; 1963.550;  181.475;    0.000
413.628; 2016.550;  200.475;    0.000
413.682; 1930.550;  157.475;    0.000
413.736; 1946.550;  194.475;    0.000
413.791; 1924.550;  193.475;    0.000
413.845; 1990.550;  225.475;    0.000
413.899; 1974.550;  195.475;    0.000
413.953; 1939.550;  173.475;    0.000
414.008; 1911.550;  186.475;    0.000
414.062; 1956.550;  217.475;    0.000
414.116; 1903.550;  169.475;    0.000
414.170; 1947.550;  228.475;    0.000
414.225; 1880.550;  177.475;    0.000
414.279; 2016.550;  210.475;    0.000
414.333; 1994.550;  207.475;    0.000
414.387; 1998.550;  217.475;    0.000
414.441; 1980.550;  187.475;    0.000
414.496; 2004.550;  215.475;    0.000
414.550; 1946.550;  204.475;    0.000
414.604; 1973.550;  206.475;    0.000
414.658; 1953.550;  139.475;    0.000
414.712; 1996.550;  198.475;    0.000
414.766; 1960.550;  208.475;    0.000
414.820; 1947.550;  199.475;    0.000
414.874; 1945.550;  216.475;    0.000
414.928; 1977.550;  186.475;    0.000
414.982; 1992.550;  176.475;    0.000
415.037; 1964.550;  181.475;    0.000
415.091; 1988.550;  208.475;    0.000
415.145; 1979.550;  209.475;    0.000
415.199; 1977.550;  186.475;    0.000
415.253; 2026.550;  203.475;    0.000
415.307; 1968.550;  197.475;    0.000
415.361; 1988.550;  223.475;    0.000
415.415; 1976.550;  213.475;    0.000
415.469; 2035.550;  226.475;    0.000
415.523; 1949.550;  222.475;    0.000
415.577; 1918.550;  205.475;    0.000
415.631; 1968.550;  224.475;    0.000
415.684; 1962.550;  193.475;    0.000
415.738; 1956.550;  224.475;    0.000
415.792; 1961.550;  204.475;    0.000
415.846; 1985.550;  189.475;    0.000
415.900; 1926.550;  223.475;    0.000
415.954; 2033.550;  187.475;    0.000
416.008; 2034.550;  237.475;    0.000
416.062; 1949.550;  195.475;    0.000
416.116; 1921.550;  223.475;    0.000
416.169; 1931.550;  210.475;    0.000
416.223; 2001.550;  232.475;    0.000
416.277; 1949.550;  227.475;    0.000
416.331; 1923.550;  216.475;    0.000
416.385; 1873.550;  186.475;    0.000
416.439; 2014.550;  226.475;    0.000
416.492; 1979.550;  229.475;    0.000
416.546; 1945.550;  216.475;    0.000
416.600; 1962.550;  211.475;    0.000
416.654; 1975.550;  226.475;    0.000
416.707; 2025.550;  248.475;    0.000
416.761; 1910.550;  217.475;    0.000
416.815; 1995.550;  207.475;    0.000
416.869; 1955.550;  226.475;    0.000
416.922; 1894.550;  192.475;    0.000
416.976; 1961.550;  205.475;    0.000
417.030; 1983.550;  233.475;    0.000
417.083; 1946.550;  226.475;    0.000
417.137; 1940.550;  222.475;    0.000
417.191; 1943.550;  217.475;    0.000
417.244; 1943.550;  221.475;    0.000
417.298; 1952.550;  201.475;    0.000
417.352; 1917.550;  170.475;    0.000
417.405; 1924.550;  234.475;    0.000
417.459; 1900.550;  241.475;    0.000
417.512; 1924.550;  247.475;    0.000
417.566; 1944.550;  219.475;    0.000
417.620; 1979.550;  228.475;    0.000
417.673; 1964.550;  192.475;    0.000
417.727; 1992.550;  203.475;    0.000
417.780; 1956.550;  204.475;    0.000
417.834; 1924.550;  234.475;    0.000
417.887; 1976.550;  245.475;    0.000
417.941; 1908.550;  211.475;    0.000
417.994; 1960.550;  244.475;    0.000
418.048; 1918.550;  203.475;    0.000
418.101; 1900.550;  212.475;    0.000
418.155; 1938.550;  251.475;    0.000
418.208; 2000.550;  286.475;    0.000
418.262; 1956.550;  243.475;    0.000
418.315; 2053.550;  214.475;    0.000
418.369; 2020.550;  269.475;    0.000
418.422; 1925.550;  222.475;    0.000
418.476; 1956.550;  226.475;    0.000
418.529; 1906.550;  238.475;    0.000
418.582; 2047.550;  210.475;    0.000
418.636; 1984.550;  221.475;    0.000
418.689; 1913.550;  224.475;    0.000
418.743; 1976.550;  228.475;    0.000
418.796; 1971.550;  192.475;    0.000
418.849; 1968.550;  230.475;    0.000
418.903; 1948.550;  257.475;    0.000
418.956; 1943.550;  241.475;    0.000
419.009; 2048.550;  247.475;    0.000
419.063; 1976.550;  235.475;    0.000
419.116; 1968.550;  218.475;    0.000
419.169; 1980.550;  219.475;    0.000
419.222; 1978.550;  215.475;    0.000
419.276; 1928.550;  202.475;    0.000
419.329; 1886.550;  210.475;    0.000
419.382; 1962.550;  188.475;    0.000
419.435; 1992.550;  222.475;    0.000
419.489; 2015.550;  232.475;    0.000
419.542; 1928.550;  250.475;    0.000
419.595; 1933.550;  240.475;    0.000
419.648; 1917.550;  261.475;    0.000
419.701; 1926.550;  222.475;    0.000
419.755; 1886.550;  233.475;    0.000
419.808; 1968.550;  178.475;    0.000
419.861; 1883.550;  207.475;    0.000
419.914; 1911.550;  223.475;    0.000
419.967; 1967.550;  216.475;    0.000
420.020; 1949.550;  211.475;    0.000
420.073; 1904.550;  200.475;    0.000
420.127; 1836.550;  248.475;    0.000
420.180; 1936.550;  220.475;    0.000
420.233; 2008.550;  215.475;    0.000
420.286; 1959.550;  222.475;    0.000
420.339; 1920.550;  229.475;    0.000
420.392; 1962.550;  245.475;    0.000
420.445; 1948.550;  221.475;    0.000
420.498; 1942.550;  224.475;    0.000
420.551; 1956.550;  170.475;    0.000
420.604; 1908.550;  237.475;    0.000
420.657; 1881.550;  235.475;    0.000
420.710; 1942.550;  223.475;    0.000
420.763; 1897.550;  219.475;    0.000
420.816; 1882.550;  200.475;    0.000
420.869; 1910.550;  197.475;    0.000
420.922; 1915.550;  212.475;    0.000
420.975; 1965.550;  274.475;    0.000
421.028; 1897.550;  228.475;    0.000
421.081; 1941.550;  243.475;    0.000
421.134; 1875.550;  227.475;    0.000
421.187; 1934.550;  245.475;    0.000
421.239; 1823.550;  210.475;    0.000
421.292; 1923.550;  193.475;    0.000
421.345; 1861.550;  226.475;    0.000
421.398; 1836.550;  226.475;    0.000
421.451; 1887.550;  259.475;    0.000
421.504; 1828.550;  204.475;    0.000
421.557; 1838.550;  215.475;    0.000
421.609; 1855.550;  194.475;    0.000
421.662; 1858.550;  216.475;    0.000
421.715; 1874.550;  226.475;    0.000
421.768; 1832.550;  177.475;    0.000
421.821; 1867.550;  210.475;    0.000
421.873; 1906.550;  208.475;    0.000
421.926; 1853.550;  223.475;    0.000
421.979; 1875.550;  230.475;    0.000
422.032; 1936.550;  227.475;    0.000
422.084; 1858.550;  234.475;    0.000
422.137; 1831.550;  207.475;    0.000
422.190; 1827.550;  228.475;    0.000
422.243; 1902.550;  206.475;    0.000
422.295; 1922.550;  236.475;    0.000
422.348; 1855.550;  232.475;    0.000
422.401; 1814.550;  228.475;    0.000
422.453; 1964.550;  239.475;    0.000
422.506; 1835.550;  226.475;    0.000
422.559; 1895.550;  205.475;    0.000
422.611; 1856.550;  235.475;    0.000
422.664; 1849.550;  231.475;    0.000
422.716; 1826.550;  228.475;    0.000
422.769; 1776.550;  204.475;    0.000
422.822; 1814.550;  205.475;    0.000
422.874; 1920.550;  228.475;    0.000
422.927; 1859.550;  266.475;    0.000
422.979; 1825.550;  223.475;    0.000
423.032; 1880.550;  207.475;    0.000
423.084; 1813.550;  211.475;    0.000
423.137; 1892.550;  205.475;    0.000
423.189; 1778.550;  254.475;    0.000
423.242; 1875.550;  208.475;    0.000
423.294; 1844.550;  240.475;    0.000
423.347; 1779.550;  218.475;    0.000
423.399; 1836.550;  237.475;    0.000
423.452; 1873.550;  242.475;    0.000
423.504; 1932.550;  225.475;    0.000
423.557; 1800.550;  195.475;    0.000
423.609; 1842.550;  206.475;    0.000
423.662; 1884.550;  211.475;    0.000
423.714; 1781.550;  252.475;    0.000
423.766; 1856.550;  181.475;    0.000
423.819; 1882.550;  216.475;    0.000
423.871; 1817.550;  216.475;    0.000
423.923; 1812.550;  222.475;    0.000
423.976; 1799.550;  223.475;    0.000
424.028; 1814.550;  229.475;    0.000
424.081; 1851.550;  267.475;    0.000
424.133; 1775.550;  251.475;    0.000
424.185; 1788.550;  238.475;    0.000
424.238; 1830.550;  220.475;    0.000
424.290; 1789.550;  259.475;    0.000
424.342; 1830.550;  248.475;    0.000
424.394; 1786.550;  234.475;    0.000
424.447; 1896.550;  248.475;    0.000
424.499; 1881.550;  233.475;    0.000
424.551; 1851.550;  236.475;    0.000
424.603; 1729.550;  207.475;    0.000
424.656; 1819.550;  210.475;    0.000
424.708; 1812.550;  251.475;    0.000
424.760; 1795.550;  221.475;    0.000
424.812; 1780.550;  275.475;    0.000
424.864; 1829.550;  206.475;    0.000
424.917; 1782.550;  198.475;    0.000
424.969; 1834.550;  246.475;    0.000
425.021; 1812.550;  209.475;    0.000
425.073; 1784.550;  242.475;    0.000
425.125; 1833.550;  254.475;    0.000
425.177; 1867.550;  224.475;    0.000
425.229; 1839.550;  256.475;    0.000
425.282; 1788.550;  265.475;    0.000
425.334; 1770.550;  266.475;    0.000
425.386; 1821.550;  242.475;    0.000
425.438; 1754.550;  205.475;    0.000
425.490; 1742.550;  227.475;    0.000
425.542; 1828.550;  235.475;    0.000
425.594; 1725.550;  210.475;    0.000
425.646; 1707.550;  232.475;    0.000
425.698; 1797.550;  243.475;    0.000
425.750; 1817.550;  230.475;    0.000
425.802; 1806.550;  218.475;    0.000
425.854; 1775.550;  222.475;    0.000
425.906; 1770.550;  235.475;    0.000
425.958; 1807.550;  220.475;    0.000
426.010; 1765.550;  236.475;    0.000
426.062; 1781.550;  230.475;    0.000
426.114; 1826.550;  216.475;    0.000
426.166; 1817.550;  230.475;    0.000
426.218; 1794.550;  237.475;    0.000
426.270; 1775.550;  217.475;    0.000
426.321; 1699.550;  224.475;    0.000
426.373; 1763.550;  207.475;    0.000
426.425; 1761.550;  278.475;    0.000
426.477; 1741.550;  243.475;    0.000
426.529; 1758.550;  247.475;    0.000
426.581; 1722.550;  229.475;    0.000
426.633; 1776.550;  212.475;    0.000
426.684; 1769.550;  244.475;    0.000
426.736; 1775.550;  250.475;    0.000
426.788; 1793.550;  210.475;    0.000
426.840; 1677.550;  201.475;    0.000
426.892; 1752.550;  225.475;    0.000
426.943; 1709.550;  215.475;    0.000
426.995; 1758.550;  216.475;    0.000
427.047; 1727.550;  216.475;    0.000
427.099; 1777.550;  203.475;    0.000
427.150; 1798.550;  195.475;    0.000
427.202; 1791.550;  212.475;    0.000
427.254; 1729.550;  233.475;    0.000
427.306; 1676.550;  211.475;    0.000
427.357; 1795.550;  210.475;    0.000
427.409; 1745.550;  244.475;    0.000
427.461; 1718.550;  187.475;    0.000
427.512; 1669.550;  227.475;    0.000
427.564; 1766.550;  210.475;    0.000
427.616; 1778.550;  202.475;    0.000
427.667; 1641.550;  185.475;    0.000
427.719; 1751.550;  222.475;    0.000
427.770; 1697.550;  230.475;    0.000
427.822; 1799.550;  254.475;    0.000
427.874; 1709.550;  222.475;    0.000
427.925; 1761.550;  199.475;    0.000
427.977; 1720.550;  228.475;    0.000
428.028; 1759.550;  226.475;    0.000
428.080; 1704.550;  236.475;    0.000
428.131; 1675.550;  220.475;    0.000
428.183; 1775.550;  256.475;    0.000
428.234; 1752.550;  217.475;    0.000
428.286; 1724.550;  234.475;    0.000
428.337; 1712.550;  209.475;    0.000
428.389; 1712.550;  219.475;    0.000
428.440; 1726.550;  249.475;    0.000
428.492; 1704.550;  255.475;    0.000
428.543; 1684.550;  224.475;    0.000
428.595; 1630.550;  225.475;    0.000
428.646; 1670.550;  240.475;    0.000
428.697; 1627.550;  211.475;    0.000
428.749; 1764.550;  200.475;    0.000
428.800; 1732.550;  235.475;    0.000
428.852; 1741.550;  265.475;    0.000
428.903; 1651.550;  201.475;    0.000
428.954; 1690.550;  242.475;    0.000
429.006; 1650.550;  245.475;    0.000
429.057; 1648.550;  252.475;    0.000
429.108; 1635.550;  211.475;    0.000
429.160; 1698.550;  217.475;    0.000
429.211; 1677.550;  234.475;    0.000
429.262; 1675.550;  205.475;    0.000
429.314; 1652.550;  211.475;    0.000
429.365; 1684.550;  240.475;    0.000
429.416; 1691.550;  263.475;    0.000
429.467; 1639.550;  244.475;    0.000
429.519; 1704.550;  223.475;    0.000
429.570; 1622.550;  214.475;    0.000
429.621; 1644.550;  235.475;    0.000
429.672; 1676.550;  202.475;    0.000
429.724; 1656.550;  189.475;    0.000
429.775; 1634.550;  214.475;    0.000
429.826; 1555.550;  178.475;    0.000
429.877; 1702.550;  224.475;    0.000
429.928; 1626.550;  230.475;    0.000
429.980; 1622.550;  199.475;    0.000
430.031; 1683.550;  208.475;    0.000
430.082; 1638.550;  224.475;    0.000
430.133; 1611.550;  193.475;    0.000
430.184; 1647.550;  220.475;    0.000
430.235; 1709.550;  184.475;    0.000
430.286; 1600.550;  197.475;    0.000
430.337; 1697.550;  199.475;    0.000
430.388; 1664.550;  207.475;    0.000
430.439; 1654.550;  227.475;    0.000
430.490; 1689.550;  215.475;    0.000
430.542; 1600.550;  211.475;    0.000
430.593; 1603.550;  230.475;    0.000
430.644; 1664.550;  186.475;    0.000
430.695; 1613.550;  232.475;    0.000
430.746; 1703.550;  214.475;    0.000
430.797; 1692.550;  260.475;    0.000
430.848; 1634.550;  214.475;    0.000
430.898; 1614.550;  204.475;    0.000
430.949; 1603.550;  189.475;    0.000
431.000; 1706.550;  240.475;    0.000
431.051; 1700.550;  201.475;    0.000
431.102; 1649.550;  188.475;    0.000
431.153; 1645.550;  209.475;    0.000
431.204; 1660.550;  187.475;    0.000
431.255; 1633.550;  171.475;    0.000
431.306; 1740.550;  181.475;    0.000
431.357; 1683.550;  221.475;    0.000
431.408; 1603.550;  217.475;    0.000
431.458; 1722.550;  206.475;    0.000
431.509; 1613.550;  194.475;    0.000
431.560; 1666.550;  235.475;    0.000
431.611; 1604.550;  213.475;    0.000
431.662; 1700.550;  237.475;    0.000
431.713; 1601.550;  220.475;    0.000
431.763; 1637.550;  212.475;    0.000
431.814; 1637.550;  238.475;    0.000
431.865; 1720.550;  213.475;    0.000
431.916; 1696.550;  191.475;    0.000
431.966; 1647.550;  171.475;    0.000
432.017; 1613.550;  263.475;    0.000
432.068; 1627.550;  240.475;    0.000
432.118; 1676.550;  235.475;    0.000
432.169; 1646.550;  212.475;    0.000
432.220; 1626.550;  188.475;    0.000
432.271; 1671.550;  216.475;    0.000
432.321; 1636.550;  223.475;    0.000
432.372; 1624.550;  254.475;    0.000
432.423; 1593.550;  193.475;    0.000
432.473; 1671.550;  219.475;    0.000
432.524; 1678.550;  215.475;    0.000
432.574; 1590.550;  234.475;    0.000
432.625; 1558.550;  226.475;    0.000
432.676; 1661.550;  219.475;    0.000
432.726; 1686.550;  254.475;    0.000
432.777; 1609.550;  210.475;    0.000
432.827; 1655.550;  234.475;    0.000
432.878; 1625.550;  212.475;    0.000
432.928; 1677.550;  238.475;    0.000
432.979; 1697.550;  252.475;    0.000
433.029; 1629.550;  222.475;    0.000
433.080; 1614.550;  188.475;    0.000
433.130; 1641.550;  223.475;    0.000
433.181; 1623.550;  254.475;    0.000
433.231; 1591.550;  237.475;    0.000
433.282; 1635.550;  242.475;    0.000
433.332; 1625.550;  261.475;    0.000
433.383; 1699.550;  266.475;    0.000
433.433; 1662.550;  286.475;    0.000
433.484; 1658.550;  231.475;    0.000
433.534; 1658.550;  256.475;    0.000
433.585; 1651.550;  253.475;    0.000
433.635; 1690.550;  228.475;    0.000
433.685; 1667.550;  226.475;    0.000
433.736; 1665.550;  276.475;    0.000
433.786; 1655.550;  253.475;    0.000
433.836; 1656.550;  289.475;    0.000
433.887; 1647.550;  241.475;    0.000
433.937; 1606.550;  252.475;    0.000
433.987; 1631.550;  223.475;    0.000
434.038; 1708.550;  241.475;    0.000
434.088; 1618.550;  231.475;    0.000
434.138; 1668.550;  259.475;    0.000
434.189; 1659.550;  263.475;    0.000
434.239; 1624.550;  194.475;    0.000
434.289; 1666.550;  273.475;    0.000
434.339; 1661.550;  212.475;    0.000
434.389; 1718.550;  248.475;    0.000
434.440; 1654.550;  250.475;    0.000
434.490; 1644.550;  278.475;    0.000
434.540; 1697.550;  241.475;    0.000
434.590; 1659.550;  251.475;    0.000
434.640; 1673.550;  207.475;    0.000
434.691; 1613.550;  242.475;    0.000
434.741; 1716.550;  218.475;    0.000
434.791; 1709.550;  267.475;    0.000
434.841; 1714.550;  272.475;    0.000
434.891; 1709.550;  260.475;    0.000
434.941; 1703.550;  258.475;    0.000
434.991; 1634.550;  264.475;    0.000
435.042; 1629.550;  264.475;    0.000
435.092; 1699.550;  271.475;    0.000
435.142; 1695.550;  229.475;    0.000
435.192; 1636.550;  226.475;    0.000
435.242; 1655.550;  253.475;    0.000
435.292; 1619.550;  215.475;    0.000
435.342; 1638.550;  240.475;    0.000
435.392; 1630.550;  235.475;    0.000
435.442; 1622.550;  230.475;    0.000
435.492; 1634.550;  235.475;    0.000
435.542; 1724.550;  230.475;    0.000
435.592; 1661.550;  239.475;    0.000
435.642; 1679.550;  244.475;    0.000
435.692; 1549.550;  236.475;    0.000
435.742; 1577.550;  236.475;    0.000
435.792; 1608.550;  230.475;    0.000
435.842; 1619.550;  248.475;    0.000
435.891; 1628.550;  233.475;    0.000
435.941; 1615.550;  243.475;    0.000
435.991; 1637.550;  279.475;    0.000
436.041; 1638.550;  204.475;    0.000
436.091; 1624.550;  217.475;    0.000
436.141; 1560.550;  205.475;    0.000
436.191; 1576.550;  220.475;    0.000
436.241; 1653.550;  248.475;    0.000
436.290; 1605.550;  255.475;    0.000
436.340; 1596.550;  235.475;    0.000
436.390; 1548.550;  207.475;    0.000
436.440; 1626.550;  207.475;    0.000
436.490; 1561.550;  251.475;    0.000
436.539; 1597.550;  240.475;    0.000
436.589; 1564.550;  198.475;    0.000
436.639; 1598.550;  240.475;    0.000
436.689; 1579.550;  216.475;    0.000
436.738; 1665.550;  246.475;    0.000
436.788; 1565.550;  203.475;    0.000
436.838; 1568.550;  230.475;    0.000
436.887; 1547.550;  235.475;    0.000
436.937; 1582.550;  249.475;    0.000
436.987; 1529.550;  208.475;    0.000
437.036; 1551.550;  232.475;    0.000
437.086; 1646.550;  238.475;    0.000
437.136; 1578.550;  228.475;    0.000
437.185; 1515.550;  219.475;    0.000
437.235; 1521.550;  227.475;    0.000
437.285; 1618.550;  241.475;    0.000
437.334; 1589.550;  216.475;    0.000
437.384; 1545.550;  243.475;    0.000
437.433; 1552.550;  214.475;    0.000
437.483; 1557.550;  246.475;    0.000
437.532; 1543.550;  261.475;    0.000
437.582; 1605.550;  205.475;    0.000
437.631; 1629.550;  218.475;    0.000
437.681; 1558.550;  240.475;    0.000
437.730; 1535.550;  258.475;    0.000
437.780; 1518.550;  237.475;    0.000
437.829; 1561.550;  209.475;    0.000
437.879; 1583.550;  214.475;    0.000
437.928; 1575.550;  223.475;    0.000
437.978; 1570.550;  220.475;    0.000
438.027; 1531.550;  239.475;    0.000
438.077; 1585.550;  231.475;    0.000
438.126; 1540.550;  266.475;    0.000
438.176; 1540.550;  234.475;    0.000
438.225; 1575.550;  237.475;    0.000
438.274; 1560.550;  234.475;    0.000
438.324; 1527.550;  244.475;    0.000
438.373; 1512.550;  232.475;    0.000
438.422; 1586.550;  218.475;    0.000
438.472; 1452.550;  221.475;    0.000
438.521; 1506.550;  190.475;    0.000
438.570; 1492.550;  243.475;    0.000
438.620; 1594.550;  255.475;    0.000
438.669; 1605.550;  210.475;    0.000
438.718; 1520.550;  237.475;    0.000
438.768; 1549.550;  220.475;    0.000
438.817; 1446.550;  218.475;    0.000
438.866; 1471.550;  198.475;    0.000
438.915; 1523.550;  256.475;    0.000
438.965; 1536.550;  221.475;    0.000
439.014; 1633.550;  255.475;    0.000
439.063; 1583.550;  276.475;    0.000
439.112; 1544.550;  220.475;    0.000
439.162; 1646.550;  253.475;    0.000
439.211; 1534.550;  247.475;    0.000
439.260; 1563.550;  220.475;    0.000
439.309; 1546.550;  235.475;    0.000
439.358; 1556.550;  205.475;    0.000
439.407; 1595.550;  207.475;    0.000
439.456; 1567.550;  216.475;    0.000
439.506; 1586.550;  245.475;    0.000
439.555; 1539.550;  264.475;    0.000
439.604; 1538.550;  227.475;    0.000
439.653; 1518.550;  220.475;    0.000
439.702; 1542.550;  223.475;    0.000
439.751; 1531.550;  197.475;    0.000
439.800; 1540.550;  207.475;    0.000
439.849; 1599.550;  238.475;    0.000
439.898; 1543.550;  209.475;    0.000
439.947; 1559.550;  170.475;    0.000
439.996; 1582.550;  233.475;    0.000
440.045; 1518.550;  222.475;    0.000
440.094; 1610.550;  240.475;    0.000
440.143; 1576.550;  249.475;    0.000
440.192; 1504.550;  252.475;    0.000
440.241; 1571.550;  239.475;    0.000
440.290; 1569.550;  234.475;    0.000
440.339; 1551.550;  241.475;    0.000
440.388; 1544.550;  239.475;    0.000
440.437; 1542.550;  231.475;    0.000
440.486; 1496.550;  254.475;    0.000
440.535; 1553.550;  266.475;    0.000
440.583; 1582.550;  205.475;    0.000
440.632; 1616.550;  234.475;    0.000
440.681; 1541.550;  218.475;    0.000
440.730; 1536.550;  248.475;    0.000
440.779; 1529.550;  246.475;    0.000
440.828; 1593.550;  235.475;    0.000
440.876; 1506.550;  218.475;    0.000
440.925; 1585.550;  228.475;    0.000
440.974; 1540.550;  249.475;    0.000
441.023; 1559.550;  192.475;    0.000
441.072; 1545.550;  226.475;    0.000
441.120; 1601.550;  238.475;    0.000
441.169; 1549.550;  255.475;    0.000
441.218; 1526.550;  233.475;    0.000
441.267; 1646.550;  231.475;    0.000
441.315; 1521.550;  214.475;    0.000
441.364; 1629.550;  250.475;    0.000
441.413; 1607.550;  228.475;    0.000
441.461; 1551.550;  209.475;    0.000
441.510; 1587.550;  260.475;    0.000
441.559; 1583.550;  230.475;    0.000
441.607; 1585.550;  220.475;    0.000
441.656; 1636.550;  251.475;    0.000
441.705; 1692.550;  237.475;    0.000
441.753; 1636.550;  257.475;    0.000
441.802; 1590.550;  256.475;    0.000
441.850; 1537.550;  253.475;    0.000
441.899; 1560.550;  212.475;    0.000
441.948; 1526.550;  251.475;    0.000
441.996; 1628.550;  239.475;    0.000
442.045; 1629.550;  223.475;    0.000
442.093; 1613.550;  211.475;    0.000
442.142; 1612.550;  235.475;    0.000
442.190; 1633.550;  254.475;    0.000
442.239; 1562.550;  226.475;    0.000
442.287; 1555.550;  242.475;    0.000
442.336; 1619.550;  256.475;    0.000
442.384; 1532.550;  252.475;    0.000
442.433; 1651.550;  262.475;    0.000
442.481; 1625.550;  246.475;    0.000
442.529; 1634.550;  290.475;    0.000
442.578; 1574.550;  247.475;    0.000
442.626; 1492.550;  247.475;    0.000
442.675; 1642.550;  272.475;    0.000
442.723; 1627.550;  230.475;    0.000
442.771; 1611.550;  234.475;    0.000
442.820; 1649.550;  224.475;    0.000
442.868; 1546.550;  246.475;    0.000
442.917; 1621.550;  249.475;    0.000
442.965; 1584.550;  260.475;    0.000
443.013; 1656.550;  258.475;    0.000
443.062; 1605.550;  259.475;    0.000
443.110; 1541.550;  226.475;    0.000
443.158; 1587.550;  213.475;    0.000
443.206; 1556.550;  201.475;    0.000
443.255; 1624.550;  280.475;    0.000
443.303; 1675.550;  292.475;    0.000
443.351; 1555.550;  256.475;    0.000
443.399; 1574.550;  215.475;    0.000
443.448; 1574.550;  243.475;    0.000
443.496; 1612.550;  249.475;    0.000
443.544; 1606.550;  231.475;    0.000
443.592; 1622.550;  243.475;    0.000
443.640; 1633.550;  252.475;    0.000
443.689; 1589.550;  220.475;    0.000
443.737; 1712.550;  231.475;    0.000
443.785; 1649.550;  256.475;    0.000
443.833; 1647.550;  268.475;    0.000
443.881; 1567.550;  181.475;    0.000
443.929; 1629.550;  245.475;    0.000
443.977; 1646.550;  278.475;    0.000
444.025; 1617.550;  245.475;    0.000
444.074; 1678.550;  233.475;    0.000
444.122; 1692.550;  267.475;    0.000
444.170; 1641.550;  247.475;    0.000
444.218; 1707.550;  246.475;    0.000
444.266; 1589.550;  275.475;    0.000
444.314; 1621.550;  263.475;    0.000
444.362; 1668.550;  240.475;    0.000
444.410; 1643.550;  220.475;    0.000
444.458; 1670.550;  258.475;    0.000
444.506; 1665.550;  258.475;    0.000
444.554; 1671.550;  224.475;    0.000
444.602; 1632.550;  245.475;    0.000
444.650; 1716.550;  261.475;    0.000
444.698; 1613.550;  232.475;    0.000
444.746; 1651.550;  206.475;    0.000
444.793; 1674.550;  249.475;    0.000
444.841; 1648.550;  261.475;    0.000
444.889; 1686.550;  221.475;    0.000
444.937; 1663.550;  215.475;    0.000
444.985; 1604.550;  244.475;    0.000
445.033; 1709.550;  211.475;    0.000
445.081; 1670.550;  225.475;    0.000
445.129; 1667.550;  217.475;    0.000
445.176; 1658.550;  196.475;    0.000
445.224; 1656.550;  211.475;    0.000
445.272; 1693.550;  242.475;    0.000
445.320; 1669.550;  225.475;    0.000
445.368; 1628.550;  249.475;    0.000
445.415; 1699.550;  243.475;    0.000
445.463; 1674.550;  242.475;    0.000
445.511; 1675.550;  248.475;    0.000
445.559; 1629.550;  219.475;    0.000
445.606; 1652.550;  221.475;    0.000
445.654; 1658.550;  202.475;    0.000
445.702; 1637.550;  210.475;    0.000
445.749; 1674.550;  249.475;    0.000
445.797; 1683.550;  206.475;    0.000
445.845; 1706.550;  213.475;    0.000
445.892; 1661.550;  224.475;    0.000
445.940; 1649.550;  214.475;    0.000
445.988; 1677.550;  247.475;    0.000
446.035; 1728.550;  204.475;    0.000
446.083; 1663.550;  235.475;    0.000
446.130; 1661.550;  195.475;    0.000
446.178; 1719.550;  236.475;    0.000
446.226; 1687.550;  218.475;    0.000
446.273; 1726.550;  215.475;    0.000
446.321; 1698.550;  222.475;    0.000
446.368; 1635.550;  228.475;    0.000
446.416; 1732.550;  223.475;    0.000
446.463; 1734.550;  220.475;    0.000
446.511; 1759.550;  198.475;    0.000
446.558; 1727.550;  208.475;    0.000
446.606; 1714.550;  253.475;    0.000
446.653; 1714.550;  198.475;    0.000
446.701; 1769.550;  231.475;    0.000
446.748; 1796.550;  224.475;    0.000
446.796; 1778.550;  201.475;    0.000
446.843; 1733.550;  257.475;    0.000
446.891; 1807.550;  218.475;    0.000
446.938; 1783.550;  232.475;    0.000
446.985; 1698.550;  229.475;    0.000
447.033; 1775.550;  251.475;    0.000
447.080; 1781.550;  257.475;    0.000
447.128; 1838.550;  232.475;    0.000
447.175; 1820.550;  269.475;    0.000
447.222; 1771.550;  185.475;    0.000
447.270; 1808.550;  264.475;    0.000
447.317; 1867.550;  225.475;    0.000
447.364; 1845.550;  243.475;    0.000
447.411; 1932.550;  263.475;    0.000
447.459; 1886.550;  257.475;    0.000
447.506; 1812.550;  175.475;    0.000
447.553; 1856.550;  203.475;    0.000
447.601; 1851.550;  238.475;    0.000
447.648; 1924.550;  244.475;    0.000
447.695; 1917.550;  249.475;    0.000
447.742; 1902.550;  234.475;    0.000
447.789; 1970.550;  228.475;    0.000
447.837; 1964.550;  258.475;    0.000
447.884; 2012.550;  243.475;    0.000
447.931; 2011.550;  235.475;    0.000
447.978; 2041.550;  224.475;    0.000
448.025; 2095.550;  245.475;    0.000
448.072; 2080.550;  212.475;    0.000
448.120; 2086.550;  256.475;    0.000
448.167; 2164.550;  240.475;    0.000
448.214; 1983.550;  247.475;    0.000
448.261; 2070.550;  245.475;    0.000
448.308; 1974.550;  273.475;    0.000
448.355; 2007.550;  257.475;    0.000
448.402; 2006.550;  259.475;    0.000
448.449; 1916.550;  238.475;    0.000
448.496; 1961.550;  245.475;    0.000
448.543; 1841.550;  217.475;    0.000
448.590; 1872.550;  269.475;    0.000
448.637; 1873.550;  250.475;    0.000
448.684; 1916.550;  250.475;    0.000
448.731; 1817.550;  235.475;    0.000
448.778; 1909.550;  265.475;    0.000
448.825; 1858.550;  257.475;    0.000
448.872; 1797.550;  234.475;    0.000
448.919; 1814.550;  216.475;    0.000
448.966; 1797.550;  274.475;    0.000
449.013; 1797.550;  263.475;    0.000
449.060; 1795.550;  247.475;    0.000
449.107; 1751.550;  218.475;    0.000
449.154; 1679.550;  225.475;    0.000
449.200; 1731.550;  212.475;    0.000
449.247; 1787.550;  242.475;    0.000
449.294; 1724.550;  228.475;    0.000
449.341; 1810.550;  232.475;    0.000
449.388; 1712.550;  247.475;    0.000
449.435; 1712.550;  227.475;    0.000
449.481; 1674.550;  270.475;    0.000
449.528; 1678.550;  265.475;    0.000
449.575; 1635.550;  255.475;    0.000
449.622; 1700.550;  210.475;    0.000
449.668; 1744.550;  234.475;    0.000
449.715; 1673.550;  262.475;    0.000
449.762; 1685.550;  247.475;    0.000
449.809; 1720.550;  286.475;    0.000
449.855; 1718.550;  246.475;    0.000
449.902; 1680.550;  224.475;    0.000
449.949; 1739.550;  244.475;    0.000
449.995; 1639.550;  274.475;    0.000
450.042; 1656.550;  272.475;    0.000
450.089; 1681.550;  274.475;    0.000
450.135; 1678.550;  285.475;    0.000
450.182; 1630.550;  251.475;    0.000
450.229; 1632.550;  242.475;    0.000
450.275; 1680.550;  277.475;    0.000
450.322; 1607.550;  260.475;    0.000
450.368; 1653.550;  257.475;    0.000
450.415; 1695.550;  276.475;    0.000
450.462; 1628.550;  298.475;    0.000
450.508; 1656.550;  255.475;    0.000
450.555; 1658.550;  271.475;    0.000
450.601; 1631.550;  281.475;    0.000
450.648; 1654.550;  249.475;    0.000
450.694; 1634.550;  270.475;    0.000
450.741; 1590.550;  256.475;    0.000
450.787; 1605.550;  292.475;    0.000
450.834; 1644.550;  221.475;    0.000
450.880; 1639.550;  265.475;    0.000
450.927; 1585.550;  242.475;    0.000
450.973; 1539.550;  259.475;    0.000
451.019; 1541.550;  221.475;    0.000
451.066; 1620.550;  257.475;    0.000
451.112; 1538.550;  251.475;    0.000
451.159; 1629.550;  278.475;    0.000
451.205; 1586.550;  274.475;    0.000
451.251; 1601.550;  281.475;    0.000
451.298; 1598.550;  273.475;    0.000
451.344; 1641.550;  246.475;    0.000
451.390; 1585.550;  286.475;    0.000
451.437; 1603.550;  268.475;    0.000
451.483; 1635.550;  315.475;    0.000
451.529; 1605.550;  251.475;    0.000
451.576; 1605.550;  306.475;    0.000
451.622; 1523.550;  234.475;    0.000
451.668; 1550.550;  243.475;    0.000
451.714; 1580.550;  256.475;    0.000
451.761; 1617.550;  264.475;    0.000
451.807; 1643.550;  284.475;    0.000
451.853; 1570.550;  282.475;    0.000
451.899; 1557.550;  240.475;    0.000
451.945; 1628.550;  263.475;    0.000
451.992; 1515.550;  255.475;    0.000
452.038; 1518.550;  273.475;    0.000
452.084; 1605.550;  274.475;    0.000
452.130; 1525.550;  261.475;    0.000
452.176; 1468.550;  246.475;    0.000
452.222; 1478.550;  238.475;    0.000
452.268; 1587.550;  267.475;    0.000
452.315; 1543.550;  274.475;    0.000
452.361; 1535.550;  241.475;    0.000
452.407; 1572.550;  274.475;    0.000
452.453; 1553.550;  260.475;    0.000
452.499; 1534.550;  232.475;    0.000
452.545; 1568.550;  252.475;    0.000
452.591; 1554.550;  263.475;    0.000
452.637; 1520.550;  208.475;    0.000
452.683; 1535.550;  237.475;    0.000
452.729; 1509.550;  263.475;    0.000
452.775; 1582.550;  291.475;    0.000
452.821; 1465.550;  238.475;    0.000
452.867; 1498.550;  223.475;    0.000
452.913; 1540.550;  257.475;    0.000
452.959; 1467.550;  238.475;    0.000
453.005; 1541.550;  252.475;    0.000
453.051; 1499.550;  260.475;    0.000
453.097; 1577.550;  268.475;    0.000
453.142; 1522.550;  231.475;    0.000
453.188; 1514.550;  266.475;    0.000
453.234; 1543.550;  233.475;    0.000
453.280; 1458.550;  219.475;    0.000
453.326; 1531.550;  265.475;    0.000
453.372; 1465.550;  238.475;    0.000
453.418; 1523.550;  240.475;    0.000
453.463; 1522.550;  219.475;    0.000
453.509; 1521.550;  264.475;    0.000
453.555; 1484.550;  247.475;    0.000
453.601; 1535.550;  230.475;    0.000
453.647; 1558.550;  285.475;    0.000
453.692; 1407.550;  240.475;    0.000
453.738; 1491.550;  233.475;    0.000
453.784; 1486.550;  230.475;    0.000
453.829; 1482.550;  246.475;    0.000
453.875; 1495.550;  261.475;    0.000
453.921; 1498.550;  203.475;    0.000
453.967; 1534.550;  241.475;    0.000
454.012; 1595.550;  250.475;    0.000
454.058; 1523.550;  252.475;    0.000
454.104; 1506.550;  239.475;    0.000
454.149; 1527.550;  250.475;    0.000
454.195; 1453.550;  243.475;    0.000
454.240; 1506.550;  252.475;    0.000
454.286; 1552.550;  245.475;    0.000
454.332; 1521.550;  286.475;    0.000
454.377; 1534.550;  254.475;    0.000
454.423; 1481.550;  246.475;    0.000
454.468; 1565.550;  235.475;    0.000
454.514; 1488.550;  231.475;    0.000
454.559; 1583.550;  246.475;    0.000
454.605; 1485.550;  204.475;    0.000
454.650; 1547.550;  272.475;    0.000
454.696; 1495.550;  222.475;    0.000
454.741; 1512.550;  290.475;    0.000
454.787; 1504.550;  262.475;    0.000
454.832; 1481.550;  227.475;    0.000
454.878; 1520.550;  241.475;    0.000
454.923; 1504.550;  272.475;    0.000
454.969; 1524.550;  290.475;    0.000
455.014; 1560.550;  278.475;    0.000
455.060; 1485.550;  246.475;    0.000
455.105; 1464.550;  231.475;    0.000
455.150; 1524.550;  265.475;    0.000
455.196; 1506.550;  266.475;    0.000
455.241; 1576.550;  258.475;    0.000
455.286; 1539.550;  266.475;    0.000
455.332; 1440.550;  252.475;    0.000
455.377; 1424.550;  219.475;    0.000
455.422; 1561.550;  262.475;    0.000
455.468; 1504.550;  260.475;    0.000
455.513; 1542.550;  212.475;    0.000
455.558; 1486.550;  197.475;    0.000
455.604; 1528.550;  262.475;    0.000
455.649; 1527.550;  238.475;    0.000
455.694; 1620.550;  221.475;    0.000
455.739; 1577.550;  251.475;    0.000
455.785; 1575.550;  287.475;    0.000
455.830; 1594.550;  284.475;    0.000
455.875; 1572.550;  234.475;    0.000
455.920; 1468.550;  215.475;    0.000
455.965; 1489.550;  256.475;    0.000
456.010; 1512.550;  266.475;    0.000
456.056; 1525.550;  263.475;    0.000
456.101; 1488.550;  240.475;    0.000
456.146; 1508.550;  258.475;    0.000
456.191; 1551.550;  241.475;    0.000
456.236; 1540.550;  252.475;    0.000
456.281; 1427.550;  218.475;    0.000
456.326; 1454.550;  251.475;    0.000
456.371; 1552.550;  256.475;    0.000
456.416; 1506.550;  301.475;    0.000
456.461; 1492.550;  233.475;    0.000
456.507; 1458.550;  218.475;    0.000
456.552; 1495.550;  278.475;    0.000
456.597; 1492.550;  223.475;    0.000
456.642; 1469.550;  203.475;    0.000
456.687; 1502.550;  245.475;    0.000
456.732; 1537.550;  256.475;    0.000
456.776; 1484.550;  244.475;    0.000
456.821; 1470.550;  276.475;    0.000
456.866; 1565.550;  232.475;    0.000
456.911; 1503.550;  225.475;    0.000
456.956; 1495.550;  237.475;    0.000
457.001; 1516.550;  261.475;    0.000
457.046; 1521.550;  205.475;    0.000
457.091; 1497.550;  241.475;    0.000
457.136; 1460.550;  217.475;    0.000
457.181; 1478.550;  251.475;    0.000
457.225; 1536.550;  241.475;    0.000
457.270; 1519.550;  237.475;    0.000
457.315; 1593.550;  279.475;    0.000
457.360; 1508.550;  245.475;    0.000
457.405; 1465.550;  202.475;    0.000
457.450; 1474.550;  247.475;    0.000
457.494; 1546.550;  243.475;    0.000
457.539; 1509.550;  222.475;    0.000
457.584; 1492.550;  239.475;    0.000
457.629; 1511.550;  236.475;    0.000
457.673; 1525.550;  234.475;    0.000
457.718; 1545.550;  202.475;    0.000
457.763; 1469.550;  274.475;    0.000
457.807; 1564.550;  236.475;    0.000
457.852; 1504.550;  265.475;    0.000
457.897; 1515.550;  252.475;    0.000
457.941; 1621.550;  264.475;    0.000
457.986; 1553.550;  280.475;    0.000
458.031; 1586.550;  217.475;    0.000
458.075; 1554.550;  249.475;    0.000
458.120; 1524.550;  257.475;    0.000
458.165; 1491.550;  183.475;    0.000
458.209; 1529.550;  245.475;    0.000
458.254; 1459.550;  245.475;    0.000
458.298; 1555.550;  265.475;    0.000
458.343; 1512.550;  241.475;    0.000
458.387; 1534.550;  262.475;    0.000
458.432; 1543.550;  245.475;    0.000
458.476; 1558.550;  255.475;    0.000
458.521; 1564.550;  269.475;    0.000
458.565; 1558.550;  265.475;    0.000
458.610; 1613.550;  222.475;    0.000
458.654; 1560.550;  257.475;    0.000
458.699; 1689.550;  296.475;    0.000
458.743; 1626.550;  203.475;    0.000
458.788; 1529.550;  267.475;    0.000
458.832; 1593.550;  274.475;    0.000
458.877; 1586.550;  251.475;    0.000
458.921; 1537.550;  237.475;    0.000
458.965; 1569.550;  264.475;    0.000
459.010; 1589.550;  256.475;    0.000
459.054; 1595.550;  280.475;    0.000
459.099; 1577.550;  240.475;    0.000
459.143; 1677.550;  287.475;    0.000
459.187; 1503.550;  257.475;    0.000
459.231; 1575.550;  273.475;    0.000
459.276; 1632.550;  231.475;    0.000
459.320; 1653.550;  261.475;    0.000
459.364; 1541.550;  278.475;    0.000
459.409; 1588.550;  249.475;    0.000
459.453; 1630.550;  235.475;    0.000
459.497; 1586.550;  262.475;    0.000
459.541; 1653.550;  269.475;    0.000
459.586; 1495.550;  240.475;    0.000
459.630; 1588.550;  261.475;    0.000
459.674; 1615.550;  276.475;    0.000
459.718; 1615.550;  236.475;    0.000
459.762; 1673.550;  263.475;    0.000
459.807; 1580.550;  263.475;    0.000
459.851; 1668.550;  225.475;    0.000
459.895; 1644.550;  247.475;    0.000
459.939; 1616.550;  231.475;    0.000
459.983; 1555.550;  242.475;    0.000
460.027; 1582.550;  248.475;    0.000
460.071; 1632.550;  273.475;    0.000
460.115; 1596.550;  282.475;    0.000
460.159; 1560.550;  264.475;    0.000
460.204; 1598.550;  288.475;    0.000
460.248; 1681.550;  293.475;    0.000
460.292; 1622.550;  277.475;    0.000
460.336; 1618.550;  250.475;    0.000
460.380; 1648.550;  275.475;    0.000
460.424; 1699.550;  243.475;    0.000
460.468; 1615.550;  277.475;    0.000
460.512; 1681.550;  261.475;    0.000
460.556; 1597.550;  266.475;    0.000
460.599; 1630.550;  246.475;    0.000
460.643; 1610.550;  256.475;    0.000
460.687; 1708.550;  257.475;    0.000
460.731; 1665.550;  235.475;    0.000
460.775; 1623.550;  278.475;    0.000
460.819; 1623.550;  268.475;    0.000
460.863; 1673.550;  257.475;    0.000
460.907; 1548.550;  213.475;    0.000
460.951; 1639.550;  274.475;    0.000
460.995; 1658.550;  258.475;    0.000
461.038; 1644.550;  219.475;    0.000
461.082; 1659.550;  253.475;    0.000
461.126; 1682.550;  281.475;    0.000
461.170; 1678.550;  244.475;    0.000
461.214; 1637.550;  262.475;    0.000
461.257; 1710.550;  284.475;    0.000
461.301; 1624.550;  275.475;    0.000
461.345; 1661.550;  267.475;    0.000
461.389; 1685.550;  255.475;    0.000
461.432; 1585.550;  282.475;    0.000
461.476; 1661.550;  263.475;    0.000
461.520; 1638.550;  260.475;    0.000
461.563; 1681.550;  278.475;    0.000
461.607; 1639.550;  236.475;    0.000
461.651; 1677.550;  262.475;    0.000
461.694; 1691.550;  236.475;    0.000
461.738; 1669.550;  295.475;    0.000
461.782; 1631.550;  252.475;    0.000
461.825; 1680.550;  271.475;    0.000
461.869; 1707.550;  278.475;    0.000
461.913; 1704.550;  255.475;    0.000
461.956; 1687.550;  254.475;    0.000
462.000; 1716.550;  299.475;    0.000
462.043; 1752.550;  282.475;    0.000
462.087; 1696.550;  274.475;    0.000
462.130; 1686.550;  270.475;    0.000
462.174; 1770.550;  274.475;    0.000
462.217; 1736.550;  272.475;    0.000
462.261; 1762.550;  286.475;    0.000
462.304; 1680.550;  236.475;    0.000
462.348; 1699.550;  262.475;    0.000
462.391; 1721.550;  244.475;    0.000
462.435; 1660.550;  321.475;    0.000
462.478; 1671.550;  230.475;    0.000
462.522; 1728.550;  245.475;    0.000
462.565; 1726.550;  278.475;    0.000
462.608; 1695.550;  303.475;    0.000
462.652; 1762.550;  275.475;    0.000
462.695; 1802.550;  314.475;    0.000
462.739; 1742.550;  307.475;    0.000
462.782; 1711.550;  286.475;    0.000
462.825; 1726.550;  312.475;    0.000
462.869; 1779.550;  338.475;    0.000
462.912; 1723.550;  304.475;    0.000
462.955; 1727.550;  288.475;    0.000
462.998; 1768.550;  292.475;    0.000
463.042; 1755.550;  309.475;    0.000
463.085; 1734.550;  292.475;    0.000
463.128; 1846.550;  317.475;    0.000
463.172; 1716.550;  287.475;    0.000
463.215;  348.550;  313.475;    0.000
463.258;  294.550;  295.475;    0.000
463.301;  303.550;  275.475;    0.000
463.344;  311.550;  311.475;    0.000
463.388;  312.550;  296.475;    0.000
463.431;  304.550;  277.475;    0.000
463.474;  321.550;  364.475;    0.000
463.517;  330.550;  306.475;    0.000
463.560;  348.550;  308.475;    0.000
463.603;  330.550;  343.475;    0.000
463.646;  340.550;  309.475;    0.000
463.690;  337.550;  309.475;    0.000
463.733;  345.550;  320.475;    0.000
463.776;  280.550;  299.475;    0.000
463.819;  329.550;  320.475;    0.000
463.862;  296.550;  283.475;    0.000

