
Integration time [ms]:   1.000
Averaging Nr. [scans]: 1
Smoothing Nr. [pixels]: 0
Data measured with spectrometer [name]: UV1
Wave   ;Sample   ;Dark     ;Reference
[nm]   ;[counts] ;[counts] ;[counts] 

236.381;  154.300;  175.825;    0.000
236.451;  164.300;  220.825;    0.000
236.520;  164.300;  178.825;    0.000
236.590;  197.300;  182.825;    0.000
236.660;  156.300;  180.825;    0.000
236.730;  190.300;  201.825;    0.000
236.799;  221.300;  168.825;    0.000
236.869;  203.300;  205.825;    0.000
236.939;  157.300;  175.825;    0.000
237.009;  165.300;  186.825;    0.000
237.078;  194.300;  200.825;    0.000
237.148;  175.300;  156.825;    0.000
237.218;  206.300;  190.825;    0.000
237.287;  207.300;  167.825;    0.000
237.357;  157.300;  213.825;    0.000
237.427;  214.300;  164.825;    0.000
237.496;  608.300;  210.825;    0.000
237.566;  532.300;  193.825;    0.000
237.636;  560.300;  179.825;    0.000
237.705;  543.300;  218.825;    0.000
237.775;  574.300;  160.825;    0.000
237.845;  545.300;  207.825;    0.000
237.914;  521.300;  180.825;    0.000
237.984;  601.300;  207.825;    0.000
238.054;  546.300;  149.825;    0.000
238.123;  550.300;  190.825;    0.000
238.193;  541.300;  167.825;    0.000
238.263;  555.300;  172.825;    0.000
238.332;  525.300;  173.825;    0.000
238.402;  530.300;  214.825;    0.000
238.471;  534.300;  181.825;    0.000
238.541;  533.300;  177.825;    0.000
238.611;  500.300;  138.825;    0.000
238.680;  551.300;  168.825;    0.000
238.750;  558.300;  171.825;    0.000
238.819;  552.300;  156.825;    0.000
238.889;  547.300;  194.825;    0.000
238.958;  569.300;  185.825;    0.000
239.028;  538.300;  170.825;    0.000
239.097;  484.300;  159.825;    0.000
239.167;  583.300;  208.825;    0.000
239.237;  558.300;  167.825;    0.000
239.306;  527.300;  154.825;    0.000
239.376;  540.300;  183.825;    0.000
239.445;  551.300;  221.825;    0.000
239.515;  538.300;  208.825;    0.000
239.584;  582.300;  177.825;    0.000
239.654;  562.300;  133.825;    0.000
239.723;  569.300;  167.825;    0.000
239.793;  536.300;  190.825;    0.000
239.862;  558.300;  192.825;    0.000
239.932;  522.300;  174.825;    0.000
240.001;  500.300;  166.825;    0.000
240.070;  521.300;  179.825;    0.000
240.140;  507.300;  191.825;    0.000
240.209;  524.300;  134.825;    0.000
240.279;  502.300;  185.825;    0.000
240.348;  525.300;  193.825;    0.000
240.418;  545.300;  149.825;    0.000
240.487;  550.300;  197.825;    0.000
240.556;  535.300;  193.825;    0.000
240.626;  598.300;  178.825;    0.000
240.695;  503.300;  194.825;    0.000
240.765;  557.300;  178.825;    0.000
240.834;  554.300;  190.825;    0.000
240.903;  518.300;  212.825;    0.000
240.973;  568.300;  153.825;    0.000
241.042;  528.300;  177.825;    0.000
241.112;  531.300;  193.825;    0.000
241.181;  508.300;  171.825;    0.000
241.250;  478.300;  152.825;    0.000
241.320;  571.300;  176.825;    0.000
241.389;  485.300;  186.825;    0.000
241.458;  546.300;  182.825;    0.000
241.528;  597.300;  175.825;    0.000
241.597;  582.300;  180.825;    0.000
241.666;  512.300;  162.825;    0.000
241.736;  497.300;  187.825;    0.000
241.805;  486.300;  173.825;    0.000
241.874;  535.300;  177.825;    0.000
241.943;  516.300;  208.825;    0.000
242.013;  565.300;  183.825;    0.000
242.082;  563.300;  171.825;    0.000
242.151;  562.300;  208.825;    0.000
242.221;  544.300;  160.825;    0.000
242.290;  523.300;  200.825;    0.000
242.359;  481.300;  167.825;    0.000
242.428;  580.300;  213.825;    0.000
242.498;  508.300;  156.825;    0.000
242.567;  555.300;  200.825;    0.000
242.636;  508.300;  178.825;    0.000
242.705;  589.300;  185.825;    0.000
242.774;  531.300;  190.825;    0.000
242.844;  541.300;  194.825;    0.000
242.913;  516.300;  162.825;    0.000
242.982;  597.300;  189.825;    0.000
243.051;  543.300;  176.825;    0.000
243.120;  530.300;  213.825;    0.000
243.190;  491.300;  155.825;    0.000
243.259;  521.300;  183.825;    0.000
243.328;  529.300;  170.825;    0.000
243.397;  546.300;  224.825;    0.000
243.466;  488.300;  172.825;    0.000
243.535;  506.300;  145.825;    0.000
243.605;  489.300;  157.825;    0.000
243.674;  531.300;  199.825;    0.000
243.743;  508.300;  196.825;    0.000
243.812;  501.300;  152.825;    0.000
243.881;  486.300;  188.825;    0.000
243.950;  509.300;  154.825;    0.000
244.019;  474.300;  195.825;    0.000
244.088;  563.300;  164.825;    0.000
244.158;  561.300;  220.825;    0.000
244.227;  476.300;  150.825;    0.000
244.296;  509.300;  153.825;    0.000
244.365;  532.300;  195.825;    0.000
244.434;  460.300;  136.825;    0.000
244.503;  495.300;  172.825;    0.000
244.572;  487.300;  129.825;    0.000
244.641;  499.300;  132.825;    0.000
244.710;  507.300;  185.825;    0.000
244.779;  491.300;  164.825;    0.000
244.848;  466.300;  132.825;    0.000
244.917;  512.300;  196.825;    0.000
244.986;  512.300;  148.825;    0.000
245.055;  506.300;  192.825;    0.000
245.124;  454.300;  170.825;    0.000
245.193;  542.300;  172.825;    0.000
245.262;  463.300;  146.825;    0.000
245.331;  505.300;  178.825;    0.000
245.400;  420.300;  108.825;    0.000
245.469;  480.300;  173.825;    0.000
245.538;  474.300;  180.825;    0.000
245.607;  476.300;  171.825;    0.000
245.676;  497.300;  149.825;    0.000
245.745;  451.300;  194.825;    0.000
245.814;  447.300;  186.825;    0.000
245.883;  484.300;  192.825;    0.000
245.952;  445.300;  169.825;    0.000
246.021;  503.300;  190.825;    0.000
246.090;  498.300;  181.825;    0.000
246.159;  462.300;  179.825;    0.000
246.227;  437.300;  182.825;    0.000
246.296;  513.300;  182.825;    0.000
246.365;  464.300;  171.825;    0.000
246.434;  538.300;  218.825;    0.000
246.503;  466.300;  147.825;    0.000
246.572;  517.300;  227.825;    0.000
246.641;  471.300;  193.825;    0.000
246.710;  475.300;  207.825;    0.000
246.779;  468.300;  181.825;    0.000
246.847;  470.300;  179.825;    0.000
246.916;  471.300;  155.825;    0.000
246.985;  462.300;  168.825;    0.000
247.054;  450.300;  137.825;    0.000
247.123;  445.300;  128.825;    0.000
247.192;  504.300;  163.825;    0.000
247.260;  428.300;  173.825;    0.000
247.329;  498.300;  174.825;    0.000
247.398;  480.300;  238.825;    0.000
247.467;  475.300;  168.825;    0.000
247.536;  473.300;  203.825;    0.000
247.604;  507.300;  194.825;    0.000
247.673;  458.300;  145.825;    0.000
247.742;  447.300;  167.825;    0.000
247.811;  510.300;  180.825;    0.000
247.879;  447.300;  187.825;    0.000
247.948;  466.300;  187.825;    0.000
248.017;  450.300;  170.825;    0.000
248.086;  504.300;  223.825;    0.000
248.154;  460.300;  160.825;    0.000
248.223;  444.300;  163.825;    0.000
248.292;  476.300;  201.825;    0.000
248.361;  472.300;  205.825;    0.000
248.429;  469.300;  191.825;    0.000
248.498;  455.300;  194.825;    0.000
248.567;  465.300;  217.825;    0.000
248.635;  471.300;  224.825;    0.000
248.704;  459.300;  204.825;    0.000
248.773;  439.300;  175.825;    0.000
248.841;  426.300;  157.825;    0.000
248.910;  497.300;  206.825;    0.000
248.979;  470.300;  170.825;    0.000
249.047;  434.300;  178.825;    0.000
249.116;  466.300;  183.825;    0.000
249.185;  516.300;  202.825;    0.000
249.253;  459.300;  159.825;    0.000
249.322;  432.300;  177.825;    0.000
249.390;  456.300;  157.825;    0.000
249.459;  432.300;  211.825;    0.000
249.528;  461.300;  181.825;    0.000
249.596;  466.300;  179.825;    0.000
249.665;  415.300;  176.825;    0.000
249.733;  435.300;  186.825;    0.000
249.802;  425.300;  185.825;    0.000
249.871;  485.300;  166.825;    0.000
249.939;  436.300;  163.825;    0.000
250.008;  458.300;  212.825;    0.000
250.076;  464.300;  227.825;    0.000
250.145;  427.300;  172.825;    0.000
250.213;  421.300;  173.825;    0.000
250.282;  435.300;  189.825;    0.000
250.350;  420.300;  166.825;    0.000
250.419;  491.300;  161.825;    0.000
250.487;  500.300;  178.825;    0.000
250.556;  441.300;  208.825;    0.000
250.624;  442.300;  190.825;    0.000
250.693;  391.300;  163.825;    0.000
250.761;  432.300;  194.825;    0.000
250.830;  435.300;  225.825;    0.000
250.898;  445.300;  140.825;    0.000
250.967;  434.300;  167.825;    0.000
251.035;  428.300;  155.825;    0.000
251.104;  395.300;  189.825;    0.000
251.172;  438.300;  136.825;    0.000
251.241;  403.300;  148.825;    0.000
251.309;  426.300;  201.825;    0.000
251.378;  419.300;  169.825;    0.000
251.446;  426.300;  178.825;    0.000
251.514;  458.300;  206.825;    0.000
251.583;  464.300;  178.825;    0.000
251.651;  390.300;  168.825;    0.000
251.720;  422.300;  190.825;    0.000
251.788;  478.300;  209.825;    0.000
251.856;  386.300;  173.825;    0.000
251.925;  379.300;  171.825;    0.000
251.993;  414.300;  188.825;    0.000
252.062;  484.300;  169.825;    0.000
252.130;  404.300;  196.825;    0.000
252.198;  470.300;  210.825;    0.000
252.267;  412.300;  181.825;    0.000
252.335;  420.300;  164.825;    0.000
252.403;  395.300;  152.825;    0.000
252.472;  427.300;  166.825;    0.000
252.540;  414.300;  189.825;    0.000
252.608;  411.300;  198.825;    0.000
252.677;  413.300;  156.825;    0.000
252.745;  418.300;  184.825;    0.000
252.813;  416.300;  163.825;    0.000
252.881;  352.300;  130.825;    0.000
252.950;  388.300;  189.825;    0.000
253.018;  441.300;  164.825;    0.000
253.086;  374.300;  172.825;    0.000
253.155;  349.300;  205.825;    0.000
253.223;  377.300;  175.825;    0.000
253.291;  359.300;  176.825;    0.000
253.359;  409.300;  182.825;    0.000
253.428;  392.300;  222.825;    0.000
253.496;  345.300;  166.825;    0.000
253.564;  327.300;  135.825;    0.000
253.632;  342.300;  184.825;    0.000
253.700;  325.300;  173.825;    0.000
253.769;  361.300;  163.825;    0.000
253.837;  373.300;  179.825;    0.000
253.905;  380.300;  157.825;    0.000
253.973;  346.300;  164.825;    0.000
254.041;  315.300;  170.825;    0.000
254.110;  353.300;  169.825;    0.000
254.178;  311.300;  165.825;    0.000
254.246;  357.300;  126.825;    0.000
254.314;  358.300;  166.825;    0.000
254.382;  348.300;  169.825;    0.000
254.450;  339.300;  170.825;    0.000
254.518;  328.300;  196.825;    0.000
254.587;  303.300;  161.825;    0.000
254.655;  340.300;  187.825;    0.000
254.723;  337.300;  144.825;    0.000
254.791;  376.300;  175.825;    0.000
254.859;  345.300;  168.825;    0.000
254.927;  384.300;  198.825;    0.000
254.995;  323.300;  165.825;    0.000
255.063;  335.300;  150.825;    0.000
255.131;  287.300;  181.825;    0.000
255.199;  321.300;  160.825;    0.000
255.267;  351.300;  131.825;    0.000
255.336;  318.300;  188.825;    0.000
255.404;  340.300;  163.825;    0.000
255.472;  370.300;  192.825;    0.000
255.540;  347.300;  158.825;    0.000
255.608;  376.300;  147.825;    0.000
255.676;  300.300;  166.825;    0.000
255.744;  371.300;  159.825;    0.000
255.812;  330.300;  164.825;    0.000
255.880;  354.300;  195.825;    0.000
255.948;  335.300;  167.825;    0.000
256.016;  359.300;  185.825;    0.000
256.084;  350.300;  191.825;    0.000
256.152;  378.300;  214.825;    0.000
256.220;  332.300;  195.825;    0.000
256.288;  330.300;  185.825;    0.000
256.356;  344.300;  168.825;    0.000
256.424;  312.300;  161.825;    0.000
256.491;  342.300;  161.825;    0.000
256.559;  375.300;  157.825;    0.000
256.627;  346.300;  164.825;    0.000
256.695;  339.300;  146.825;    0.000
256.763;  413.300;  194.825;    0.000
256.831;  412.300;  182.825;    0.000
256.899;  384.300;  192.825;    0.000
256.967;  328.300;  172.825;    0.000
257.035;  388.300;  169.825;    0.000
257.103;  405.300;  223.825;    0.000
257.171;  351.300;  141.825;    0.000
257.238;  337.300;  146.825;    0.000
257.306;  395.300;  180.825;    0.000
257.374;  407.300;  138.825;    0.000
257.442;  369.300;  135.825;    0.000
257.510;  356.300;  130.825;    0.000
257.578;  377.300;  123.825;    0.000
257.646;  432.300;  162.825;    0.000
257.713;  322.300;  149.825;    0.000
257.781;  377.300;  125.825;    0.000
257.849;  443.300;  149.825;    0.000
257.917;  385.300;  177.825;    0.000
257.985;  397.300;  143.825;    0.000
258.052;  398.300;  154.825;    0.000
258.120;  379.300;  162.825;    0.000
258.188;  480.300;  172.825;    0.000
258.256;  431.300;  160.825;    0.000
258.324;  479.300;  209.825;    0.000
258.391;  454.300;  153.825;    0.000
258.459;  444.300;  133.825;    0.000
258.527;  381.300;  160.825;    0.000
258.595;  432.300;  128.825;    0.000
258.662;  418.300;  114.825;    0.000
258.730;  468.300;  192.825;    0.000
258.798;  423.300;  144.825;    0.000
258.865;  449.300;  140.825;    0.000
258.933;  453.300;  150.825;    0.000
259.001;  458.300;  149.825;    0.000
259.069;  447.300;  110.825;    0.000
259.136;  456.300;  150.825;    0.000
259.204;  455.300;  156.825;    0.000
259.272;  465.300;  185.825;    0.000
259.339;  510.300;  148.825;    0.000
259.407;  526.300;  163.825;    0.000
259.475;  433.300;  129.825;    0.000
259.542;  528.300;  144.825;    0.000
259.610;  523.300;  164.825;    0.000
259.677;  488.300;  188.825;    0.000
259.745;  476.300;  113.825;    0.000
259.813;  601.300;  188.825;    0.000
259.880;  479.300;  174.825;    0.000
259.948;  526.300;  166.825;    0.000
260.016;  467.300;  150.825;    0.000
260.083;  539.300;  178.825;    0.000
260.151;  527.300;  120.825;    0.000
260.218;  540.300;  175.825;    0.000
260.286;  550.300;  155.825;    0.000
260.353;  578.300;  165.825;    0.000
260.421;  508.300;  169.825;    0.000
260.489;  560.300;  194.825;    0.000
260.556;  543.300;  161.825;    0.000
260.624;  580.300;  179.825;    0.000
260.691;  568.300;  174.825;    0.000
260.759;  567.300;  164.825;    0.000
260.826;  575.300;  125.825;    0.000
260.894;  556.300;  164.825;    0.000
260.961;  609.300;  147.825;    0.000
261.029;  635.300;  167.825;    0.000
261.096;  604.300;  136.825;    0.000
261.164;  616.300;  146.825;    0.000
261.231;  609.300;  190.825;    0.000
261.299;  591.300;  171.825;    0.000
261.366;  586.300;  165.825;    0.000
261.434;  631.300;  160.825;    0.000
261.501;  639.300;  149.825;    0.000
261.568;  625.300;  155.825;    0.000
261.636;  652.300;  137.825;    0.000
261.703;  622.300;  186.825;    0.000
261.771;  624.300;  162.825;    0.000
261.838;  632.300;  190.825;    0.000
261.906;  621.300;  133.825;    0.000
261.973;  631.300;  202.825;    0.000
262.040;  656.300;  179.825;    0.000
262.108;  677.300;  161.825;    0.000
262.175;  601.300;  155.825;    0.000
262.243;  649.300;  158.825;    0.000
262.310;  662.300;  129.825;    0.000
262.377;  637.300;  157.825;    0.000
262.445;  715.300;  132.825;    0.000
262.512;  693.300;  161.825;    0.000
262.579;  665.300;  151.825;    0.000
262.647;  704.300;  174.825;    0.000
262.714;  679.300;  174.825;    0.000
262.781;  718.300;  164.825;    0.000
262.849;  679.300;  168.825;    0.000
262.916;  715.300;  153.825;    0.000
262.983;  733.300;  201.825;    0.000
263.051;  686.300;  117.825;    0.000
263.118;  718.300;  150.825;    0.000
263.185;  696.300;  172.825;    0.000
263.252;  700.300;  154.825;    0.000
263.320;  753.300;  152.825;    0.000
263.387;  734.300;  136.825;    0.000
263.454;  746.300;  167.825;    0.000
263.522;  761.300;  122.825;    0.000
263.589;  725.300;  147.825;    0.000
263.656;  747.300;  130.825;    0.000
263.723;  704.300;  182.825;    0.000
263.790;  750.300;  163.825;    0.000
263.858;  797.300;  161.825;    0.000
263.925;  775.300;  153.825;    0.000
263.992;  794.300;  139.825;    0.000
264.059;  813.300;  141.825;    0.000
264.126;  850.300;  153.825;    0.000
264.194;  775.300;  144.825;    0.000
264.261;  794.300;  188.825;    0.000
264.328;  742.300;  161.825;    0.000
264.395;  813.300;  184.825;    0.000
264.462;  834.300;  162.825;    0.000
264.529;  828.300;  178.825;    0.000
264.597;  772.300;  160.825;    0.000
264.664;  832.300;  158.825;    0.000
264.731;  859.300;  176.825;    0.000
264.798;  854.300;  137.825;    0.000
264.865;  867.300;  175.825;    0.000
264.932;  867.300;  162.825;    0.000
264.999;  817.300;  153.825;    0.000
265.066;  818.300;  168.825;    0.000
265.133;  816.300;  142.825;    0.000
265.201;  876.300;  163.825;    0.000
265.268;  794.300;  143.825;    0.000
265.335;  867.300;  156.825;    0.000
265.402;  862.300;  136.825;    0.000
265.469;  873.300;  127.825;    0.000
265.536;  929.300;  159.825;    0.000
265.603;  892.300;  191.825;    0.000
265.670;  900.300;  136.825;    0.000
265.737;  882.300;  186.825;    0.000
265.804;  837.300;  147.825;    0.000
265.871;  871.300;  147.825;    0.000
265.938;  861.300;  153.825;    0.000
266.005;  891.300;  172.825;    0.000
266.072;  848.300;  151.825;    0.000
266.139;  891.300;  175.825;    0.000
266.206;  914.300;  165.825;    0.000
266.273;  895.300;  162.825;    0.000
266.340;  882.300;  150.825;    0.000
266.407;  873.300;  169.825;    0.000
266.474;  882.300;  151.825;    0.000
266.541;  936.300;  164.825;    0.000
266.608;  870.300;  111.825;    0.000
266.675;  964.300;  173.825;    0.000
266.742;  925.300;  148.825;    0.000
266.808;  910.300;  185.825;    0.000
266.875;  955.300;  188.825;    0.000
266.942;  926.300;  131.825;    0.000
267.009;  987.300;  184.825;    0.000
267.076;  927.300;  200.825;    0.000
267.143;  956.300;  216.825;    0.000
267.210;  918.300;  138.825;    0.000
267.277;  956.300;  143.825;    0.000
267.344;  958.300;  172.825;    0.000
267.410;  982.300;  172.825;    0.000
267.477;  991.300;  160.825;    0.000
267.544;  942.300;  175.825;    0.000
267.611;  999.300;  189.825;    0.000
267.678;  988.300;  162.825;    0.000
267.745;  922.300;  206.825;    0.000
267.811;  920.300;  146.825;    0.000
267.878;  994.300;  147.825;    0.000
267.945;  972.300;  170.825;    0.000
268.012; 1055.300;  153.825;    0.000
268.079;  986.300;  185.825;    0.000
268.145;  919.300;  197.825;    0.000
268.212; 1052.300;  167.825;    0.000
268.279;  973.300;  145.825;    0.000
268.346;  978.300;  182.825;    0.000
268.412;  982.300;  144.825;    0.000
268.479;  952.300;  186.825;    0.000
268.546;  953.300;  147.825;    0.000
268.613;  975.300;  188.825;    0.000
268.679;  996.300;  173.825;    0.000
268.746; 1026.300;  204.825;    0.000
268.813;  931.300;  199.825;    0.000
268.879;  949.300;  157.825;    0.000
268.946;  982.300;  192.825;    0.000
269.013;  961.300;  136.825;    0.000
269.079;  936.300;  166.825;    0.000
269.146;  886.300;  129.825;    0.000
269.213; 1013.300;  178.825;    0.000
269.280; 1010.300;  148.825;    0.000
269.346;  991.300;  194.825;    0.000
269.413;  979.300;  135.825;    0.000
269.479;  970.300;  180.825;    0.000
269.546;  997.300;  169.825;    0.000
269.613;  990.300;  160.825;    0.000
269.679; 1006.300;  161.825;    0.000
269.746;  954.300;  143.825;    0.000
269.813;  984.300;  172.825;    0.000
269.879;  951.300;  152.825;    0.000
269.946;  948.300;  156.825;    0.000
270.012;  930.300;  190.825;    0.000
270.079; 1016.300;  143.825;    0.000
270.145;  985.300;  148.825;    0.000
270.212;  930.300;  176.825;    0.000
270.279; 1017.300;  168.825;    0.000
270.345; 1008.300;  143.825;    0.000
270.412;  957.300;  155.825;    0.000
270.478;  955.300;  176.825;    0.000
270.545; 1008.300;  112.825;    0.000
270.611;  977.300;  186.825;    0.000
270.678;  941.300;  141.825;    0.000
270.744;  927.300;  145.825;    0.000
270.811;  940.300;  120.825;    0.000
270.877;  963.300;  118.825;    0.000
270.944;  917.300;  135.825;    0.000
271.010;  963.300;  128.825;    0.000
271.077;  992.300;  176.825;    0.000
271.143;  949.300;  162.825;    0.000
271.210;  982.300;  133.825;    0.000
271.276;  943.300;  107.825;    0.000
271.342;  980.300;  202.825;    0.000
271.409;  943.300;  160.825;    0.000
271.475;  939.300;  165.825;    0.000
271.542;  966.300;  152.825;    0.000
271.608;  936.300;  163.825;    0.000
271.675;  961.300;  149.825;    0.000
271.741;  976.300;  164.825;    0.000
271.807;  968.300;  128.825;    0.000
271.874; 1002.300;  148.825;    0.000
271.940;  935.300;  179.825;    0.000
272.007;  933.300;  148.825;    0.000
272.073;  985.300;  146.825;    0.000
272.139;  955.300;  166.825;    0.000
272.206; 1010.300;  198.825;    0.000
272.272;  980.300;  201.825;    0.000
272.338;  923.300;  208.825;    0.000
272.405;  935.300;  181.825;    0.000
272.471;  986.300;  167.825;    0.000
272.537;  934.300;  189.825;    0.000
272.604;  909.300;  162.825;    0.000
272.670;  956.300;  194.825;    0.000
272.736; 1010.300;  176.825;    0.000
272.802;  976.300;  163.825;    0.000
272.869;  916.300;  170.825;    0.000
272.935;  969.300;  145.825;    0.000
273.001;  907.300;  149.825;    0.000
273.068;  958.300;  172.825;    0.000
273.134;  979.300;  155.825;    0.000
273.200; 1023.300;  183.825;    0.000
273.266;  969.300;  160.825;    0.000
273.333;  986.300;  190.825;    0.000
273.399;  934.300;  132.825;    0.000
273.465; 1016.300;  179.825;    0.000
273.531;  942.300;  161.825;    0.000
273.597;  985.300;  194.825;    0.000
273.664; 1078.300;  193.825;    0.000
273.730; 1016.300;  180.825;    0.000
273.796; 1029.300;  145.825;    0.000
273.862;  984.300;  176.825;    0.000
273.928; 1015.300;  169.825;    0.000
273.995; 1052.300;  202.825;    0.000
274.061; 1099.300;  176.825;    0.000
274.127; 1015.300;  178.825;    0.000
274.193;  977.300;  106.825;    0.000
274.259;  976.300;  186.825;    0.000
274.325;  985.300;  163.825;    0.000
274.391; 1010.300;  162.825;    0.000
274.457; 1054.300;  145.825;    0.000
274.524; 1039.300;  189.825;    0.000
274.590; 1071.300;  161.825;    0.000
274.656; 1069.300;  157.825;    0.000
274.722; 1118.300;  143.825;    0.000
274.788; 1068.300;  166.825;    0.000
274.854; 1056.300;  200.825;    0.000
274.920; 1056.300;  132.825;    0.000
274.986; 1037.300;  184.825;    0.000
275.052; 1138.300;  169.825;    0.000
275.118; 1055.300;  153.825;    0.000
275.184; 1103.300;  182.825;    0.000
275.250; 1125.300;  124.825;    0.000
275.316; 1063.300;  154.825;    0.000
275.382; 1062.300;  150.825;    0.000
275.448; 1108.300;  180.825;    0.000
275.514; 1066.300;  143.825;    0.000
275.580; 1169.300;  120.825;    0.000
275.646; 1120.300;  127.825;    0.000
275.712; 1138.300;  109.825;    0.000
275.778; 1151.300;  126.825;    0.000
275.844; 1126.300;  155.825;    0.000
275.910; 1147.300;  164.825;    0.000
275.976; 1211.300;  161.825;    0.000
276.042; 1292.300;  152.825;    0.000
276.108; 1270.300;  159.825;    0.000
276.174; 1268.300;  149.825;    0.000
276.240; 1210.300;  112.825;    0.000
276.306; 1280.300;  142.825;    0.000
276.372; 1351.300;  136.825;    0.000
276.437; 1320.300;  141.825;    0.000
276.503; 1383.300;  150.825;    0.000
276.569; 1378.300;  178.825;    0.000
276.635; 1287.300;  117.825;    0.000
276.701; 1406.300;  174.825;    0.000
276.767; 1433.300;  136.825;    0.000
276.833; 1504.300;  119.825;    0.000
276.899; 1524.300;  171.825;    0.000
276.964; 1456.300;  146.825;    0.000
277.030; 1586.300;  157.825;    0.000
277.096; 1613.300;  124.825;    0.000
277.162; 1625.300;  185.825;    0.000
277.228; 1679.300;  125.825;    0.000
277.293; 1683.300;  159.825;    0.000
277.359; 1792.300;  186.825;    0.000
277.425; 1965.300;  176.825;    0.000
277.491; 2007.300;  140.825;    0.000
277.557; 2316.300;  172.825;    0.000
277.622; 3170.300;  187.825;    0.000
277.688; 3091.300;  203.825;    0.000
277.754; 3183.300;  170.825;    0.000
277.820; 3542.300;  142.825;    0.000
277.885; 4199.300;  182.825;    0.000
277.951; 5218.300;  171.825;    0.000
278.017; 4488.300;  173.825;    0.000
278.083; 3794.300;  151.825;    0.000
278.148; 3824.300;  159.825;    0.000
278.214; 3798.300;  173.825;    0.000
278.280; 4202.300;  137.825;    0.000
278.345; 3567.300;  190.825;    0.000
278.411; 3412.300;  149.825;    0.000
278.477; 3555.300;  157.825;    0.000
278.542; 3804.300;  136.825;    0.000
278.608; 3912.300;  144.825;    0.000
278.674; 4584.300;  215.825;    0.000
278.739; 4819.300;  148.825;    0.000
278.805; 5848.300;  152.825;    0.000
278.871; 6603.300;  170.825;    0.000
278.936; 8609.300;  180.825;    0.000
279.002;12853.300;  177.825;    0.000
279.067;16938.301;  172.825;    0.000
279.133;15821.300;  160.825;    0.000
279.199;13554.300;  165.825;    0.000
279.264;14365.300;  130.825;    0.000
279.330;16805.301;  154.825;    0.000
279.395;21560.301;  170.825;    0.000
279.461;26831.301;  136.825;    0.000
279.527;29824.301;  174.825;    0.000
279.592;28323.301;  179.825;    0.000
279.658;23875.301;  187.825;    0.000
279.723;23741.301;  201.825;    0.000
279.789;25466.301;  194.825;    0.000
279.854;21875.301;  171.825;    0.000
279.920;18304.301;  183.825;    0.000
279.985;16414.301;  173.825;    0.000
280.051;16813.301;  194.825;    0.000
280.116;19870.301;  197.825;    0.000
280.182;25322.301;  171.825;    0.000
280.247;28561.301;  131.825;    0.000
280.313;24598.301;  166.825;    0.000
280.378;18183.301;  159.825;    0.000
280.444;13428.300;  190.825;    0.000
280.509;10664.300;  189.825;    0.000
280.574; 9001.300;  171.825;    0.000
280.640; 7754.300;  167.825;    0.000
280.705; 6806.300;  129.825;    0.000
280.771; 6157.300;  193.825;    0.000
280.836; 5551.300;  172.825;    0.000
280.902; 5199.300;  189.825;    0.000
280.967; 4972.300;  143.825;    0.000
281.032; 4714.300;  182.825;    0.000
281.098; 4317.300;  172.825;    0.000
281.163; 4212.300;  184.825;    0.000
281.229; 3948.300;  210.825;    0.000
281.294; 3673.300;  223.825;    0.000
281.359; 3552.300;  197.825;    0.000
281.425; 3505.300;  192.825;    0.000
281.490; 3383.300;  162.825;    0.000
281.555; 3219.300;  193.825;    0.000
281.621; 3125.300;  141.825;    0.000
281.686; 2857.300;  166.825;    0.000
281.751; 2901.300;  204.825;    0.000
281.816; 2660.300;  159.825;    0.000
281.882; 2692.300;  146.825;    0.000
281.947; 2535.300;  176.825;    0.000
282.012; 2555.300;  139.825;    0.000
282.078; 2467.300;  186.825;    0.000
282.143; 2371.300;  151.825;    0.000
282.208; 2385.300;  213.825;    0.000
282.273; 2296.300;  160.825;    0.000
282.339; 2240.300;  175.825;    0.000
282.404; 2160.300;  157.825;    0.000
282.469; 2184.300;  185.825;    0.000
282.534; 2075.300;  166.825;    0.000
282.600; 2105.300;  168.825;    0.000
282.665; 2015.300;  167.825;    0.000
282.730; 2065.300;  148.825;    0.000
282.795; 2017.300;  186.825;    0.000
282.860; 1984.300;  161.825;    0.000
282.926; 1983.300;  178.825;    0.000
282.991; 1910.300;  139.825;    0.000
283.056; 1881.300;  158.825;    0.000
283.121; 1983.300;  191.825;    0.000
283.186; 2019.300;  182.825;    0.000
283.251; 1836.300;  181.825;    0.000
283.316; 1960.300;  187.825;    0.000
283.382; 1815.300;  175.825;    0.000
283.447; 1914.300;  183.825;    0.000
283.512; 1774.300;  175.825;    0.000
283.577; 1865.300;  180.825;    0.000
283.642; 1707.300;  193.825;    0.000
283.707; 1726.300;  145.825;    0.000
283.772; 1702.300;  143.825;    0.000
283.837; 1788.300;  143.825;    0.000
283.902; 1729.300;  150.825;    0.000
283.967; 1746.300;  166.825;    0.000
284.032; 1784.300;  126.825;    0.000
284.097; 1710.300;  201.825;    0.000
284.163; 1739.300;  133.825;    0.000
284.228; 1813.300;  193.825;    0.000
284.293; 1738.300;  157.825;    0.000
284.358; 1695.300;  185.825;    0.000
284.423; 1742.300;  142.825;    0.000
284.488; 1764.300;  192.825;    0.000
284.553; 1805.300;  146.825;    0.000
284.618; 1884.300;  154.825;    0.000
284.683; 1876.300;  172.825;    0.000
284.748; 1994.300;  195.825;    0.000
284.812; 2113.300;  190.825;    0.000
284.877; 2243.300;  169.825;    0.000
284.942; 2711.300;  195.825;    0.000
285.007; 3299.300;  204.825;    0.000
285.072; 4520.300;  189.825;    0.000
285.137; 7601.300;  149.825;    0.000
285.202; 9994.300;  164.825;    0.000
285.267; 8298.300;  161.825;    0.000
285.332; 5426.300;  140.825;    0.000
285.397; 3713.300;  142.825;    0.000
285.462; 3205.300;  146.825;    0.000
285.527; 2674.300;  132.825;    0.000
285.591; 2524.300;  160.825;    0.000
285.656; 2176.300;  136.825;    0.000
285.721; 2145.300;  135.825;    0.000
285.786; 2001.300;  171.825;    0.000
285.851; 1950.300;  168.825;    0.000
285.916; 1923.300;  178.825;    0.000
285.981; 1771.300;  152.825;    0.000
286.045; 1767.300;  167.825;    0.000
286.110; 1701.300;  187.825;    0.000
286.175; 1630.300;  162.825;    0.000
286.240; 1652.300;  163.825;    0.000
286.305; 1686.300;  190.825;    0.000
286.369; 1628.300;  143.825;    0.000
286.434; 1639.300;  185.825;    0.000
286.499; 1590.300;  195.825;    0.000
286.564; 1655.300;  173.825;    0.000
286.628; 1632.300;  159.825;    0.000
286.693; 1603.300;  175.825;    0.000
286.758; 1534.300;  170.825;    0.000
286.823; 1558.300;  129.825;    0.000
286.887; 1554.300;  172.825;    0.000
286.952; 1513.300;  163.825;    0.000
287.017; 1576.300;  217.825;    0.000
287.082; 1524.300;  165.825;    0.000
287.146; 1530.300;  176.825;    0.000
287.211; 1540.300;  192.825;    0.000
287.276; 1503.300;  147.825;    0.000
287.340; 1483.300;  162.825;    0.000
287.405; 1483.300;  196.825;    0.000
287.470; 1428.300;  148.825;    0.000
287.534; 1515.300;  166.825;    0.000
287.599; 1452.300;  193.825;    0.000
287.663; 1478.300;  191.825;    0.000
287.728; 1402.300;  146.825;    0.000
287.793; 1531.300;  234.825;    0.000
287.857; 1506.300;  177.825;    0.000
287.922; 1413.300;  166.825;    0.000
287.987; 1454.300;  169.825;    0.000
288.051; 1422.300;  169.825;    0.000
288.116; 1524.300;  187.825;    0.000
288.180; 1568.300;  200.825;    0.000
288.245; 1483.300;  201.825;    0.000
288.309; 1448.300;  176.825;    0.000
288.374; 1486.300;  162.825;    0.000
288.439; 1483.300;  195.825;    0.000
288.503; 1443.300;  162.825;    0.000
288.568; 1482.300;  228.825;    0.000
288.632; 1465.300;  194.825;    0.000
288.697; 1458.300;  173.825;    0.000
288.761; 1508.300;  153.825;    0.000
288.826; 1470.300;  151.825;    0.000
288.890; 1526.300;  208.825;    0.000
288.955; 1449.300;  159.825;    0.000
289.019; 1502.300;  198.825;    0.000
289.084; 1363.300;  152.825;    0.000
289.148; 1464.300;  171.825;    0.000
289.212; 1390.300;  184.825;    0.000
289.277; 1389.300;  165.825;    0.000
289.341; 1378.300;  207.825;    0.000
289.406; 1496.300;  156.825;    0.000
289.470; 1465.300;  191.825;    0.000
289.535; 1472.300;  222.825;    0.000
289.599; 1463.300;  214.825;    0.000
289.663; 1392.300;  183.825;    0.000
289.728; 1433.300;  192.825;    0.000
289.792; 1519.300;  197.825;    0.000
289.857; 1461.300;  221.825;    0.000
289.921; 1398.300;  177.825;    0.000
289.985; 1477.300;  177.825;    0.000
290.050; 1463.300;  178.825;    0.000
290.114; 1444.300;  112.825;    0.000
290.178; 1455.300;  170.825;    0.000
290.243; 1450.300;  162.825;    0.000
290.307; 1397.300;  178.825;    0.000
290.371; 1348.300;  141.825;    0.000
290.436; 1465.300;  178.825;    0.000
290.500; 1500.300;  135.825;    0.000
290.564; 1436.300;  199.825;    0.000
290.629; 1453.300;  165.825;    0.000
290.693; 1451.300;  154.825;    0.000
290.757; 1463.300;  159.825;    0.000
290.821; 1415.300;  179.825;    0.000
290.886; 1441.300;  141.825;    0.000
290.950; 1503.300;  166.825;    0.000
291.014; 1522.300;  169.825;    0.000
291.078; 1408.300;  191.825;    0.000
291.143; 1460.300;  169.825;    0.000
291.207; 1585.300;  164.825;    0.000
291.271; 1456.300;  193.825;    0.000
291.335; 1490.300;  150.825;    0.000
291.399; 1523.300;  175.825;    0.000
291.464; 1575.300;  128.825;    0.000
291.528; 1699.300;  162.825;    0.000
291.592; 1663.300;  152.825;    0.000
291.656; 1640.300;  175.825;    0.000
291.720; 1520.300;  173.825;    0.000
291.784; 1622.300;  192.825;    0.000
291.849; 1542.300;  159.825;    0.000
291.913; 1516.300;  174.825;    0.000
291.977; 1589.300;  177.825;    0.000
292.041; 1589.300;  188.825;    0.000
292.105; 1578.300;  174.825;    0.000
292.169; 1490.300;  143.825;    0.000
292.233; 1707.300;  149.825;    0.000
292.297; 1755.300;  176.825;    0.000
292.361; 1641.300;  178.825;    0.000
292.425; 1708.300;  153.825;    0.000
292.490; 1724.300;  185.825;    0.000
292.554; 1922.300;  144.825;    0.000
292.618; 1974.300;  166.825;    0.000
292.682; 2093.300;  181.825;    0.000
292.746; 2491.300;  152.825;    0.000
292.810; 3411.300;  208.825;    0.000
292.874; 4378.300;  142.825;    0.000
292.938; 4260.300;  195.825;    0.000
293.002; 3729.300;  156.825;    0.000
293.066; 3162.300;  108.825;    0.000
293.130; 3022.300;  136.825;    0.000
293.194; 2828.300;  135.825;    0.000
293.258; 2743.300;  187.825;    0.000
293.322; 2593.300;  148.825;    0.000
293.386; 2806.300;  186.825;    0.000
293.450; 2970.300;  196.825;    0.000
293.514; 3467.300;  175.825;    0.000
293.577; 4622.300;  137.825;    0.000
293.641; 6643.300;  142.825;    0.000
293.705; 6948.300;  201.825;    0.000
293.769; 5874.300;  150.825;    0.000
293.833; 4958.300;  147.825;    0.000
293.897; 4150.300;  170.825;    0.000
293.961; 3710.300;  121.825;    0.000
294.025; 3319.300;  172.825;    0.000
294.089; 3056.300;  167.825;    0.000
294.152; 2996.300;  167.825;    0.000
294.216; 2652.300;  165.825;    0.000
294.280; 2654.300;  168.825;    0.000
294.344; 2410.300;  160.825;    0.000
294.408; 2363.300;  187.825;    0.000
294.472; 2145.300;  141.825;    0.000
294.536; 2019.300;  184.825;    0.000
294.599; 2068.300;  176.825;    0.000
294.663; 1992.300;  120.825;    0.000
294.727; 2010.300;  159.825;    0.000
294.791; 1887.300;  190.825;    0.000
294.855; 1828.300;  148.825;    0.000
294.918; 1935.300;  160.825;    0.000
294.982; 1825.300;  156.825;    0.000
295.046; 1876.300;  177.825;    0.000
295.110; 1766.300;  149.825;    0.000
295.173; 1721.300;  156.825;    0.000
295.237; 1696.300;  174.825;    0.000
295.301; 1607.300;  152.825;    0.000
295.364; 1649.300;  204.825;    0.000
295.428; 1684.300;  196.825;    0.000
295.492; 1551.300;  178.825;    0.000
295.556; 1531.300;  161.825;    0.000
295.619; 1634.300;  178.825;    0.000
295.683; 1619.300;  152.825;    0.000
295.747; 1499.300;  148.825;    0.000
295.810; 1598.300;  177.825;    0.000
295.874; 1530.300;  146.825;    0.000
295.938; 1484.300;  115.825;    0.000
296.001; 1454.300;  172.825;    0.000
296.065; 1416.300;  146.825;    0.000
296.128; 1432.300;  164.825;    0.000
296.192; 1458.300;  137.825;    0.000
296.256; 1393.300;  143.825;    0.000
296.319; 1344.300;  156.825;    0.000
296.383; 1475.300;  165.825;    0.000
296.447; 1429.300;  170.825;    0.000
296.510; 1424.300;  174.825;    0.000
296.574; 1437.300;  127.825;    0.000
296.637; 1473.300;  132.825;    0.000
296.701; 1464.300;  206.825;    0.000
296.764; 1481.300;  179.825;    0.000
296.828; 1425.300;  213.825;    0.000
296.891; 1461.300;  149.825;    0.000
296.955; 1419.300;  170.825;    0.000
297.018; 1411.300;  185.825;    0.000
297.082; 1345.300;  205.825;    0.000
297.145; 1393.300;  154.825;    0.000
297.209; 1309.300;  200.825;    0.000
297.272; 1344.300;  157.825;    0.000
297.336; 1298.300;  164.825;    0.000
297.399; 1353.300;  166.825;    0.000
297.463; 1347.300;  195.825;    0.000
297.526; 1373.300;  176.825;    0.000
297.590; 1313.300;  198.825;    0.000
297.653; 1364.300;  146.825;    0.000
297.717; 1329.300;  175.825;    0.000
297.780; 1284.300;  139.825;    0.000
297.843; 1329.300;  174.825;    0.000
297.907; 1305.300;  149.825;    0.000
297.970; 1327.300;  161.825;    0.000
298.034; 1305.300;  185.825;    0.000
298.097; 1353.300;  167.825;    0.000
298.160; 1329.300;  195.825;    0.000
298.224; 1317.300;  178.825;    0.000
298.287; 1320.300;  164.825;    0.000
298.350; 1319.300;  194.825;    0.000
298.414; 1359.300;  191.825;    0.000
298.477; 1257.300;  155.825;    0.000
298.540; 1239.300;  139.825;    0.000
298.604; 1235.300;  198.825;    0.000
298.667; 1320.300;  183.825;    0.000
298.730; 1282.300;  185.825;    0.000
298.794; 1273.300;  153.825;    0.000
298.857; 1310.300;  169.825;    0.000
298.920; 1242.300;  159.825;    0.000
298.984; 1233.300;  179.825;    0.000
299.047; 1254.300;  174.825;    0.000
299.110; 1265.300;  144.825;    0.000
299.173; 1228.300;  190.825;    0.000
299.237; 1344.300;  163.825;    0.000
299.300; 1257.300;  153.825;    0.000
299.363; 1294.300;  145.825;    0.000
299.426; 1189.300;  160.825;    0.000
299.489; 1253.300;  173.825;    0.000
299.553; 1171.300;  209.825;    0.000
299.616; 1273.300;  172.825;    0.000
299.679; 1288.300;  204.825;    0.000
299.742; 1199.300;  162.825;    0.000
299.805; 1235.300;  198.825;    0.000
299.868; 1268.300;  176.825;    0.000
299.932; 1193.300;  166.825;    0.000
299.995; 1205.300;  162.825;    0.000
300.058; 1232.300;  175.825;    0.000
300.121; 1216.300;  197.825;    0.000
300.184; 1195.300;  188.825;    0.000
300.247; 1231.300;  181.825;    0.000
300.310; 1205.300;  161.825;    0.000
300.374; 1209.300;  201.825;    0.000
300.437; 1197.300;  156.825;    0.000
300.500; 1246.300;  180.825;    0.000
300.563; 1124.300;  174.825;    0.000
300.626; 1303.300;  206.825;    0.000
300.689; 1221.300;  218.825;    0.000
300.752; 1151.300;  192.825;    0.000
300.815; 1244.300;  172.825;    0.000
300.878; 1181.300;  207.825;    0.000
300.941; 1248.300;  163.825;    0.000
301.004; 1245.300;  171.825;    0.000
301.067; 1184.300;  198.825;    0.000
301.130; 1173.300;  156.825;    0.000
301.193; 1223.300;  173.825;    0.000
301.256; 1221.300;  167.825;    0.000
301.319; 1223.300;  211.825;    0.000
301.382; 1179.300;  167.825;    0.000
301.445; 1277.300;  224.825;    0.000
301.508; 1160.300;  168.825;    0.000
301.571; 1151.300;  161.825;    0.000
301.634; 1234.300;  177.825;    0.000
301.697; 1184.300;  203.825;    0.000
301.760; 1219.300;  190.825;    0.000
301.823; 1215.300;  182.825;    0.000
301.885; 1202.300;  202.825;    0.000
301.948; 1172.300;  200.825;    0.000
302.011; 1219.300;  157.825;    0.000
302.074; 1154.300;  205.825;    0.000
302.137; 1198.300;  149.825;    0.000
302.200; 1174.300;  201.825;    0.000
302.263; 1173.300;  178.825;    0.000
302.326; 1182.300;  184.825;    0.000
302.388; 1224.300;  176.825;    0.000
302.451; 1188.300;  146.825;    0.000
302.514; 1152.300;  192.825;    0.000
302.577; 1195.300;  181.825;    0.000
302.640; 1244.300;  186.825;    0.000
302.703; 1203.300;  164.825;    0.000
302.765; 1173.300;  197.825;    0.000
302.828; 1209.300;  208.825;    0.000
302.891; 1178.300;  168.825;    0.000
302.954; 1169.300;  177.825;    0.000
303.016; 1182.300;  190.825;    0.000
303.079; 1241.300;  216.825;    0.000
303.142; 1261.300;  228.825;    0.000
303.205; 1164.300;  192.825;    0.000
303.267; 1151.300;  182.825;    0.000
303.330; 1202.300;  201.825;    0.000
303.393; 1169.300;  196.825;    0.000
303.456; 1149.300;  184.825;    0.000
303.518; 1127.300;  194.825;    0.000
303.581; 1112.300;  195.825;    0.000
303.644; 1154.300;  184.825;    0.000
303.706; 1177.300;  150.825;    0.000
303.769; 1135.300;  182.825;    0.000
303.832; 1164.300;  143.825;    0.000
303.894; 1187.300;  207.825;    0.000
303.957; 1218.300;  178.825;    0.000
304.020; 1141.300;  203.825;    0.000
304.082; 1218.300;  175.825;    0.000
304.145; 1123.300;  171.825;    0.000
304.207; 1204.300;  157.825;    0.000
304.270; 1160.300;  195.825;    0.000
304.333; 1177.300;  195.825;    0.000
304.395; 1142.300;  197.825;    0.000
304.458; 1158.300;  231.825;    0.000
304.520; 1217.300;  218.825;    0.000
304.583; 1151.300;  177.825;    0.000
304.646; 1219.300;  177.825;    0.000
304.708; 1162.300;  178.825;    0.000
304.771; 1112.300;  143.825;    0.000
304.833; 1163.300;  241.825;    0.000
304.896; 1176.300;  200.825;    0.000
304.958; 1160.300;  176.825;    0.000
305.021; 1186.300;  159.825;    0.000
305.083; 1191.300;  159.825;    0.000
305.146; 1238.300;  190.825;    0.000
305.208; 1179.300;  152.825;    0.000
305.271; 1131.300;  162.825;    0.000
305.333; 1304.300;  219.825;    0.000
305.396; 1176.300;  163.825;    0.000
305.458; 1184.300;  215.825;    0.000
305.520; 1176.300;  174.825;    0.000
305.583; 1132.300;  161.825;    0.000
305.645; 1179.300;  203.825;    0.000
305.708; 1163.300;  163.825;    0.000
305.770; 1179.300;  215.825;    0.000
305.833; 1199.300;  207.825;    0.000
305.895; 1225.300;  166.825;    0.000
305.957; 1168.300;  175.825;    0.000
306.020; 1196.300;  169.825;    0.000
306.082; 1190.300;  203.825;    0.000
306.144; 1198.300;  181.825;    0.000
306.207; 1105.300;  199.825;    0.000
306.269; 1203.300;  177.825;    0.000
306.331; 1197.300;  160.825;    0.000
306.394; 1200.300;  193.825;    0.000
306.456; 1158.300;  136.825;    0.000
306.518; 1235.300;  189.825;    0.000
306.581; 1188.300;  156.825;    0.000
306.643; 1209.300;  190.825;    0.000
306.705; 1079.300;  190.825;    0.000
306.768; 1150.300;  172.825;    0.000
306.830; 1230.300;  214.825;    0.000
306.892; 1225.300;  198.825;    0.000
306.954; 1149.300;  177.825;    0.000
307.017; 1190.300;  183.825;    0.000
307.079; 1194.300;  170.825;    0.000
307.141; 1254.300;  173.825;    0.000
307.203; 1189.300;  171.825;    0.000
307.266; 1183.300;  166.825;    0.000
307.328; 1282.300;  207.825;    0.000
307.390; 1282.300;  201.825;    0.000
307.452; 1278.300;  182.825;    0.000
307.514; 1239.300;  213.825;    0.000
307.577; 1180.300;  213.825;    0.000
307.639; 1236.300;  197.825;    0.000
307.701; 1270.300;  174.825;    0.000
307.763; 1248.300;  181.825;    0.000
307.825; 1228.300;  186.825;    0.000
307.887; 1307.300;  198.825;    0.000
307.949; 1253.300;  158.825;    0.000
308.012; 1146.300;  209.825;    0.000
308.074; 1229.300;  176.825;    0.000
308.136; 1239.300;  227.825;    0.000
308.198; 1254.300;  187.825;    0.000
308.260; 1291.300;  211.825;    0.000
308.322; 1282.300;  206.825;    0.000
308.384; 1277.300;  186.825;    0.000
308.446; 1298.300;  175.825;    0.000
308.508; 1326.300;  211.825;    0.000
308.570; 1242.300;  191.825;    0.000
308.632; 1284.300;  195.825;    0.000
308.694; 1329.300;  173.825;    0.000
308.756; 1318.300;  185.825;    0.000
308.818; 1304.300;  195.825;    0.000
308.880; 1376.300;  189.825;    0.000
308.942; 1335.300;  231.825;    0.000
309.004; 1343.300;  188.825;    0.000
309.066; 1392.300;  196.825;    0.000
309.128; 1469.300;  155.825;    0.000
309.190; 1441.300;  176.825;    0.000
309.252; 1556.300;  191.825;    0.000
309.314; 1600.300;  236.825;    0.000
309.376; 1455.300;  212.825;    0.000
309.438; 1491.300;  201.825;    0.000
309.500; 1463.300;  206.825;    0.000
309.562; 1521.300;  213.825;    0.000
309.624; 1583.300;  196.825;    0.000
309.686; 1704.300;  198.825;    0.000
309.747; 1662.300;  186.825;    0.000
309.809; 1540.300;  215.825;    0.000
309.871; 1437.300;  242.825;    0.000
309.933; 1354.300;  162.825;    0.000
309.995; 1415.300;  163.825;    0.000
310.057; 1490.300;  145.825;    0.000
310.119; 1401.300;  205.825;    0.000
310.180; 1445.300;  195.825;    0.000
310.242; 1392.300;  167.825;    0.000
310.304; 1376.300;  213.825;    0.000
310.366; 1398.300;  224.825;    0.000
310.428; 1357.300;  170.825;    0.000
310.489; 1395.300;  195.825;    0.000
310.551; 1399.300;  207.825;    0.000
310.613; 1325.300;  168.825;    0.000
310.675; 1380.300;  188.825;    0.000
310.737; 1331.300;  211.825;    0.000
310.798; 1338.300;  221.825;    0.000
310.860; 1394.300;  201.825;    0.000
310.922; 1363.300;  206.825;    0.000
310.983; 1277.300;  222.825;    0.000
311.045; 1398.300;  235.825;    0.000
311.107; 1390.300;  184.825;    0.000
311.169; 1294.300;  148.825;    0.000
311.230; 1328.300;  211.825;    0.000
311.292; 1353.300;  235.825;    0.000
311.354; 1338.300;  183.825;    0.000
311.415; 1370.300;  196.825;    0.000
311.477; 1354.300;  200.825;    0.000
311.539; 1191.300;  171.825;    0.000
311.600; 1343.300;  169.825;    0.000
311.662; 1368.300;  231.825;    0.000
311.724; 1366.300;  204.825;    0.000
311.785; 1320.300;  214.825;    0.000
311.847; 1314.300;  193.825;    0.000
311.908; 1348.300;  180.825;    0.000
311.970; 1373.300;  233.825;    0.000
312.032; 1306.300;  192.825;    0.000
312.093; 1385.300;  195.825;    0.000
312.155; 1366.300;  194.825;    0.000
312.216; 1343.300;  238.825;    0.000
312.278; 1341.300;  146.825;    0.000
312.339; 1266.300;  184.825;    0.000
312.401; 1381.300;  201.825;    0.000
312.462; 1328.300;  173.825;    0.000
312.524; 1338.300;  205.825;    0.000
312.585; 1375.300;  199.825;    0.000
312.647; 1306.300;  168.825;    0.000
312.708; 1285.300;  180.825;    0.000
312.770; 1367.300;  180.825;    0.000
312.831; 1326.300;  176.825;    0.000
312.893; 1304.300;  211.825;    0.000
312.954; 1360.300;  178.825;    0.000
313.016; 1319.300;  204.825;    0.000
313.077; 1356.300;  216.825;    0.000
313.139; 1298.300;  172.825;    0.000
313.200; 1383.300;  197.825;    0.000
313.261; 1383.300;  227.825;    0.000
313.323; 1356.300;  204.825;    0.000
313.384; 1273.300;  182.825;    0.000
313.446; 1308.300;  204.825;    0.000
313.507; 1282.300;  164.825;    0.000
313.568; 1328.300;  197.825;    0.000
313.630; 1285.300;  190.825;    0.000
313.691; 1317.300;  185.825;    0.000
313.752; 1339.300;  192.825;    0.000
313.814; 1324.300;  176.825;    0.000
313.875; 1385.300;  210.825;    0.000
313.936; 1339.300;  165.825;    0.000
313.998; 1339.300;  162.825;    0.000
314.059; 1378.300;  178.825;    0.000
314.120; 1337.300;  176.825;    0.000
314.182; 1325.300;  167.825;    0.000
314.243; 1424.300;  204.825;    0.000
314.304; 1334.300;  197.825;    0.000
314.365; 1376.300;  183.825;    0.000
314.427; 1329.300;  176.825;    0.000
314.488; 1331.300;  149.825;    0.000
314.549; 1373.300;  218.825;    0.000
314.610; 1358.300;  160.825;    0.000
314.672; 1287.300;  187.825;    0.000
314.733; 1279.300;  184.825;    0.000
314.794; 1274.300;  164.825;    0.000
314.855; 1415.300;  191.825;    0.000
314.917; 1348.300;  172.825;    0.000
314.978; 1388.300;  185.825;    0.000
315.039; 1370.300;  194.825;    0.000
315.100; 1386.300;  190.825;    0.000
315.161; 1356.300;  185.825;    0.000
315.222; 1385.300;  204.825;    0.000
315.283; 1369.300;  166.825;    0.000
315.345; 1346.300;  133.825;    0.000
315.406; 1302.300;  191.825;    0.000
315.467; 1347.300;  166.825;    0.000
315.528; 1395.300;  194.825;    0.000
315.589; 1291.300;  193.825;    0.000
315.650; 1362.300;  190.825;    0.000
315.711; 1320.300;  219.825;    0.000
315.772; 1372.300;  159.825;    0.000
315.833; 1284.300;  191.825;    0.000
315.894; 1360.300;  202.825;    0.000
315.955; 1394.300;  167.825;    0.000
316.016; 1301.300;  177.825;    0.000
316.078; 1363.300;  185.825;    0.000
316.139; 1385.300;  219.825;    0.000
316.200; 1329.300;  163.825;    0.000
316.261; 1310.300;  183.825;    0.000
316.322; 1347.300;  230.825;    0.000
316.383; 1308.300;  198.825;    0.000
316.444; 1383.300;  209.825;    0.000
316.504; 1361.300;  179.825;    0.000
316.565; 1422.300;  185.825;    0.000
316.626; 1302.300;  155.825;    0.000
316.687; 1383.300;  211.825;    0.000
316.748; 1282.300;  192.825;    0.000
316.809; 1359.300;  183.825;    0.000
316.870; 1352.300;  196.825;    0.000
316.931; 1332.300;  173.825;    0.000
316.992; 1324.300;  179.825;    0.000
317.053; 1290.300;  186.825;    0.000
317.114; 1330.300;  189.825;    0.000
317.175; 1367.300;  226.825;    0.000
317.235; 1341.300;  206.825;    0.000
317.296; 1375.300;  191.825;    0.000
317.357; 1236.300;  173.825;    0.000
317.418; 1342.300;  212.825;    0.000
317.479; 1390.300;  247.825;    0.000
317.540; 1361.300;  205.825;    0.000
317.601; 1348.300;  205.825;    0.000
317.661; 1291.300;  150.825;    0.000
317.722; 1324.300;  198.825;    0.000
317.783; 1340.300;  153.825;    0.000
317.844; 1367.300;  202.825;    0.000
317.904; 1379.300;  180.825;    0.000
317.965; 1332.300;  205.825;    0.000
318.026; 1371.300;  223.825;    0.000
318.087; 1357.300;  218.825;    0.000
318.148; 1368.300;  207.825;    0.000
318.208; 1322.300;  212.825;    0.000
318.269; 1351.300;  174.825;    0.000
318.330; 1306.300;  191.825;    0.000
318.390; 1299.300;  197.825;    0.000
318.451; 1323.300;  167.825;    0.000
318.512; 1302.300;  174.825;    0.000
318.572; 1386.300;  199.825;    0.000
318.633; 1312.300;  233.825;    0.000
318.694; 1358.300;  232.825;    0.000
318.754; 1278.300;  181.825;    0.000
318.815; 1372.300;  199.825;    0.000
318.876; 1336.300;  207.825;    0.000
318.936; 1387.300;  202.825;    0.000
318.997; 1268.300;  182.825;    0.000
319.058; 1300.300;  180.825;    0.000
319.118; 1333.300;  199.825;    0.000
319.179; 1317.300;  199.825;    0.000
319.239; 1290.300;  229.825;    0.000
319.300; 1325.300;  223.825;    0.000
319.361; 1309.300;  210.825;    0.000
319.421; 1287.300;  205.825;    0.000
319.482; 1349.300;  205.825;    0.000
319.542; 1368.300;  176.825;    0.000
319.603; 1351.300;  191.825;    0.000
319.663; 1331.300;  183.825;    0.000
319.724; 1244.300;  174.825;    0.000
319.784; 1281.300;  198.825;    0.000
319.845; 1317.300;  218.825;    0.000
319.905; 1328.300;  217.825;    0.000
319.966; 1330.300;  197.825;    0.000
320.026; 1377.300;  209.825;    0.000
320.087; 1301.300;  225.825;    0.000
320.147; 1349.300;  201.825;    0.000
320.208; 1267.300;  176.825;    0.000
320.268; 1264.300;  168.825;    0.000
320.329; 1277.300;  238.825;    0.000
320.389; 1297.300;  220.825;    0.000
320.449; 1319.300;  230.825;    0.000
320.510; 1412.300;  234.825;    0.000
320.570; 1335.300;  210.825;    0.000
320.631; 1337.300;  207.825;    0.000
320.691; 1333.300;  222.825;    0.000
320.751; 1284.300;  195.825;    0.000
320.812; 1317.300;  193.825;    0.000
320.872; 1400.300;  237.825;    0.000
320.932; 1393.300;  213.825;    0.000
320.993; 1307.300;  185.825;    0.000
321.053; 1357.300;  245.825;    0.000
321.113; 1367.300;  206.825;    0.000
321.174; 1319.300;  202.825;    0.000
321.234; 1333.300;  244.825;    0.000
321.294; 1334.300;  228.825;    0.000
321.355; 1253.300;  208.825;    0.000
321.415; 1280.300;  223.825;    0.000
321.475; 1334.300;  203.825;    0.000
321.535; 1251.300;  230.825;    0.000
321.596; 1324.300;  186.825;    0.000
321.656; 1345.300;  216.825;    0.000
321.716; 1367.300;  207.825;    0.000
321.776; 1342.300;  181.825;    0.000
321.837; 1328.300;  207.825;    0.000
321.897; 1323.300;  225.825;    0.000
321.957; 1391.300;  222.825;    0.000
322.017; 1268.300;  215.825;    0.000
322.077; 1354.300;  250.825;    0.000
322.138; 1293.300;  189.825;    0.000
322.198; 1356.300;  200.825;    0.000
322.258; 1352.300;  217.825;    0.000
322.318; 1327.300;  183.825;    0.000
322.378; 1344.300;  231.825;    0.000
322.438; 1415.300;  228.825;    0.000
322.499; 1377.300;  248.825;    0.000
322.559; 1257.300;  198.825;    0.000
322.619; 1320.300;  221.825;    0.000
322.679; 1259.300;  217.825;    0.000
322.739; 1256.300;  204.825;    0.000
322.799; 1337.300;  236.825;    0.000
322.859; 1387.300;  213.825;    0.000
322.919; 1357.300;  210.825;    0.000
322.979; 1378.300;  244.825;    0.000
323.039; 1305.300;  218.825;    0.000
323.099; 1255.300;  232.825;    0.000
323.159; 1296.300;  216.825;    0.000
323.219; 1313.300;  169.825;    0.000
323.279; 1256.300;  236.825;    0.000
323.339; 1269.300;  243.825;    0.000
323.399; 1368.300;  208.825;    0.000
323.459; 1311.300;  220.825;    0.000
323.519; 1309.300;  228.825;    0.000
323.579; 1407.300;  164.825;    0.000
323.639; 1379.300;  209.825;    0.000
323.699; 1285.300;  188.825;    0.000
323.759; 1278.300;  206.825;    0.000
323.819; 1331.300;  204.825;    0.000
323.879; 1324.300;  222.825;    0.000
323.939; 1302.300;  206.825;    0.000
323.999; 1335.300;  202.825;    0.000
324.059; 1328.300;  245.825;    0.000
324.119; 1348.300;  214.825;    0.000
324.178; 1345.300;  183.825;    0.000
324.238; 1348.300;  193.825;    0.000
324.298; 1294.300;  207.825;    0.000
324.358; 1339.300;  196.825;    0.000
324.418; 1323.300;  193.825;    0.000
324.478; 1339.300;  191.825;    0.000
324.538; 1345.300;  224.825;    0.000
324.597; 1298.300;  187.825;    0.000
324.657; 1316.300;  208.825;    0.000
324.717; 1308.300;  198.825;    0.000
324.777; 1270.300;  159.825;    0.000
324.837; 1329.300;  180.825;    0.000
324.896; 1370.300;  215.825;    0.000
324.956; 1305.300;  210.825;    0.000
325.016; 1349.300;  187.825;    0.000
325.076; 1380.300;  197.825;    0.000
325.135; 1309.300;  226.825;    0.000
325.195; 1352.300;  201.825;    0.000
325.255; 1277.300;  167.825;    0.000
325.315; 1417.300;  217.825;    0.000
325.374; 1321.300;  196.825;    0.000
325.434; 1335.300;  167.825;    0.000
325.494; 1367.300;  214.825;    0.000
325.553; 1313.300;  203.825;    0.000
325.613; 1375.300;  206.825;    0.000
325.673; 1291.300;  148.825;    0.000
325.732; 1326.300;  207.825;    0.000
325.792; 1276.300;  151.825;    0.000
325.852; 1299.300;  195.825;    0.000
325.911; 1384.300;  201.825;    0.000
325.971; 1366.300;  224.825;    0.000
326.031; 1356.300;  201.825;    0.000
326.090; 1361.300;  203.825;    0.000
326.150; 1368.300;  183.825;    0.000
326.209; 1351.300;  226.825;    0.000
326.269; 1374.300;  194.825;    0.000
326.328; 1329.300;  200.825;    0.000
326.388; 1283.300;  177.825;    0.000
326.448; 1373.300;  239.825;    0.000
326.507; 1316.300;  197.825;    0.000
326.567; 1308.300;  161.825;    0.000
326.626; 1333.300;  220.825;    0.000
326.686; 1288.300;  178.825;    0.000
326.745; 1283.300;  167.825;    0.000
326.805; 1283.300;  176.825;    0.000
326.864; 1341.300;  204.825;    0.000
326.924; 1333.300;  218.825;    0.000
326.983; 1309.300;  201.825;    0.000
327.043; 1342.300;  219.825;    0.000
327.102; 1334.300;  202.825;    0.000
327.161; 1333.300;  228.825;    0.000
327.221; 1291.300;  217.825;    0.000
327.280; 1339.300;  188.825;    0.000
327.340; 1318.300;  209.825;    0.000
327.399; 1436.300;  189.825;    0.000
327.459; 1375.300;  216.825;    0.000
327.518; 1294.300;  200.825;    0.000
327.577; 1210.300;  194.825;    0.000
327.637; 1356.300;  180.825;    0.000
327.696; 1317.300;  208.825;    0.000
327.755; 1306.300;  218.825;    0.000
327.815; 1308.300;  234.825;    0.000
327.874; 1334.300;  259.825;    0.000
327.933; 1301.300;  192.825;    0.000
327.993; 1313.300;  208.825;    0.000
328.052; 1230.300;  221.825;    0.000
328.111; 1347.300;  203.825;    0.000
328.171; 1316.300;  221.825;    0.000
328.230; 1275.300;  222.825;    0.000
328.289; 1299.300;  254.825;    0.000
328.349; 1350.300;  232.825;    0.000
328.408; 1310.300;  223.825;    0.000
328.467; 1261.300;  198.825;    0.000
328.526; 1296.300;  217.825;    0.000
328.586; 1344.300;  185.825;    0.000
328.645; 1302.300;  210.825;    0.000
328.704; 1294.300;  211.825;    0.000
328.763; 1229.300;  231.825;    0.000
328.822; 1257.300;  254.825;    0.000
328.882; 1319.300;  216.825;    0.000
328.941; 1326.300;  239.825;    0.000
329.000; 1374.300;  251.825;    0.000
329.059; 1313.300;  227.825;    0.000
329.118; 1325.300;  233.825;    0.000
329.177; 1342.300;  188.825;    0.000
329.237; 1326.300;  257.825;    0.000
329.296; 1340.300;  265.825;    0.000
329.355; 1325.300;  245.825;    0.000
329.414; 1311.300;  236.825;    0.000
329.473; 1252.300;  242.825;    0.000
329.532; 1316.300;  228.825;    0.000
329.591; 1317.300;  206.825;    0.000
329.650; 1315.300;  250.825;    0.000
329.709; 1324.300;  278.825;    0.000
329.768; 1291.300;  219.825;    0.000
329.827; 1335.300;  254.825;    0.000
329.886; 1331.300;  221.825;    0.000
329.945; 1302.300;  239.825;    0.000
330.004; 1351.300;  245.825;    0.000
330.063; 1272.300;  201.825;    0.000
330.122; 1290.300;  227.825;    0.000
330.181; 1344.300;  196.825;    0.000
330.240; 1274.300;  203.825;    0.000
330.299; 1242.300;  214.825;    0.000
330.358; 1239.300;  196.825;    0.000
330.417; 1334.300;  201.825;    0.000
330.476; 1317.300;  248.825;    0.000
330.535; 1278.300;  253.825;    0.000
330.594; 1320.300;  231.825;    0.000
330.653; 1282.300;  210.825;    0.000
330.712; 1264.300;  242.825;    0.000
330.771; 1309.300;  240.825;    0.000
330.830; 1244.300;  230.825;    0.000
330.889; 1267.300;  217.825;    0.000
330.948; 1282.300;  211.825;    0.000
331.006; 1237.300;  217.825;    0.000
331.065; 1207.300;  170.825;    0.000
331.124; 1269.300;  211.825;    0.000
331.183; 1242.300;  192.825;    0.000
331.242; 1320.300;  227.825;    0.000
331.301; 1249.300;  240.825;    0.000
331.359; 1266.300;  223.825;    0.000
331.418; 1289.300;  215.825;    0.000
331.477; 1258.300;  230.825;    0.000
331.536; 1283.300;  221.825;    0.000
331.595; 1225.300;  198.825;    0.000
331.653; 1294.300;  207.825;    0.000
331.712; 1221.300;  217.825;    0.000
331.771; 1278.300;  221.825;    0.000
331.830; 1216.300;  222.825;    0.000
331.888; 1279.300;  213.825;    0.000
331.947; 1286.300;  233.825;    0.000
332.006; 1243.300;  212.825;    0.000
332.065; 1292.300;  200.825;    0.000
332.123; 1307.300;  223.825;    0.000
332.182; 1246.300;  180.825;    0.000
332.241; 1214.300;  192.825;    0.000
332.299; 1352.300;  172.825;    0.000
332.358; 1381.300;  216.825;    0.000
332.417; 1274.300;  211.825;    0.000
332.475; 1318.300;  222.825;    0.000
332.534; 1326.300;  238.825;    0.000
332.592; 1245.300;  216.825;    0.000
332.651; 1253.300;  196.825;    0.000
332.710; 1352.300;  215.825;    0.000
332.768; 1310.300;  193.825;    0.000
332.827; 1252.300;  201.825;    0.000
332.885; 1301.300;  226.825;    0.000
332.944; 1245.300;  174.825;    0.000
333.003; 1351.300;  187.825;    0.000
333.061; 1314.300;  208.825;    0.000
333.120; 1343.300;  202.825;    0.000
333.178; 1319.300;  227.825;    0.000
333.237; 1397.300;  215.825;    0.000
333.295; 1454.300;  245.825;    0.000
333.354; 1394.300;  194.825;    0.000
333.412; 1360.300;  165.825;    0.000
333.471; 1376.300;  219.825;    0.000
333.529; 1427.300;  255.825;    0.000
333.588; 1454.300;  264.825;    0.000
333.646; 1470.300;  231.825;    0.000
333.705; 1417.300;  232.825;    0.000
333.763; 1447.300;  233.825;    0.000
333.822; 1318.300;  221.825;    0.000
333.880; 1342.300;  180.825;    0.000
333.938; 1370.300;  229.825;    0.000
333.997; 1379.300;  194.825;    0.000
334.055; 1374.300;  230.825;    0.000
334.114; 1400.300;  230.825;    0.000
334.172; 1248.300;  170.825;    0.000
334.230; 1414.300;  192.825;    0.000
334.289; 1382.300;  225.825;    0.000
334.347; 1314.300;  233.825;    0.000
334.405; 1387.300;  207.825;    0.000
334.464; 1337.300;  175.825;    0.000
334.522; 1354.300;  180.825;    0.000
334.580; 1300.300;  172.825;    0.000
334.639; 1328.300;  230.825;    0.000
334.697; 1372.300;  217.825;    0.000
334.755; 1303.300;  217.825;    0.000
334.814; 1340.300;  210.825;    0.000
334.872; 1303.300;  170.825;    0.000
334.930; 1303.300;  167.825;    0.000
334.988; 1431.300;  244.825;    0.000
335.047; 1420.300;  202.825;    0.000
335.105; 1397.300;  181.825;    0.000
335.163; 1438.300;  195.825;    0.000
335.221; 1352.300;  203.825;    0.000
335.280; 1320.300;  216.825;    0.000
335.338; 1365.300;  197.825;    0.000
335.396; 1383.300;  232.825;    0.000
335.454; 1442.300;  211.825;    0.000
335.512; 1353.300;  221.825;    0.000
335.570; 1391.300;  216.825;    0.000
335.629; 1367.300;  244.825;    0.000
335.687; 1388.300;  244.825;    0.000
335.745; 1454.300;  189.825;    0.000
335.803; 1437.300;  198.825;    0.000
335.861; 1406.300;  236.825;    0.000
335.919; 1400.300;  234.825;    0.000
335.977; 1395.300;  214.825;    0.000
336.035; 1390.300;  242.825;    0.000
336.094; 1325.300;  219.825;    0.000
336.152; 1338.300;  196.825;    0.000
336.210; 1445.300;  221.825;    0.000
336.268; 1358.300;  257.825;    0.000
336.326; 1378.300;  211.825;    0.000
336.384; 1371.300;  217.825;    0.000
336.442; 1348.300;  176.825;    0.000
336.500; 1325.300;  242.825;    0.000
336.558; 1376.300;  238.825;    0.000
336.616; 1446.300;  261.825;    0.000
336.674; 1278.300;  200.825;    0.000
336.732; 1371.300;  208.825;    0.000
336.790; 1361.300;  183.825;    0.000
336.848; 1397.300;  199.825;    0.000
336.906; 1404.300;  240.825;    0.000
336.964; 1348.300;  234.825;    0.000
337.022; 1344.300;  282.825;    0.000
337.080; 1371.300;  265.825;    0.000
337.138; 1307.300;  255.825;    0.000
337.195; 1371.300;  200.825;    0.000
337.253; 1255.300;  199.825;    0.000
337.311; 1325.300;  233.825;    0.000
337.369; 1280.300;  250.825;    0.000
337.427; 1304.300;  201.825;    0.000
337.485; 1390.300;  228.825;    0.000
337.543; 1378.300;  221.825;    0.000
337.601; 1373.300;  232.825;    0.000
337.658; 1267.300;  215.825;    0.000
337.716; 1255.300;  198.825;    0.000
337.774; 1326.300;  262.825;    0.000
337.832; 1254.300;  220.825;    0.000
337.890; 1283.300;  194.825;    0.000
337.947; 1286.300;  205.825;    0.000
338.005; 1258.300;  229.825;    0.000
338.063; 1214.300;  237.825;    0.000
338.121; 1314.300;  220.825;    0.000
338.178; 1306.300;  227.825;    0.000
338.236; 1348.300;  238.825;    0.000
338.294; 1316.300;  242.825;    0.000
338.352; 1222.300;  230.825;    0.000
338.409; 1306.300;  222.825;    0.000
338.467; 1286.300;  233.825;    0.000
338.525; 1325.300;  253.825;    0.000
338.583; 1295.300;  221.825;    0.000
338.640; 1258.300;  225.825;    0.000
338.698; 1274.300;  229.825;    0.000
338.756; 1322.300;  238.825;    0.000
338.813; 1319.300;  260.825;    0.000
338.871; 1392.300;  246.825;    0.000
338.928; 1308.300;  240.825;    0.000
338.986; 1304.300;  228.825;    0.000
339.044; 1414.300;  265.825;    0.000
339.101; 1248.300;  224.825;    0.000
339.159; 1293.300;  235.825;    0.000
339.216; 1265.300;  244.825;    0.000
339.274; 1321.300;  266.825;    0.000
339.332; 1284.300;  248.825;    0.000
339.389; 1297.300;  246.825;    0.000
339.447; 1273.300;  237.825;    0.000
339.504; 1283.300;  244.825;    0.000
339.562; 1275.300;  249.825;    0.000
339.619; 1353.300;  266.825;    0.000
339.677; 1431.300;  263.825;    0.000
339.734; 1263.300;  216.825;    0.000
339.792; 1290.300;  276.825;    0.000
339.849; 1292.300;  240.825;    0.000
339.907; 1273.300;  275.825;    0.000
339.964; 1250.300;  243.825;    0.000
340.022; 1304.300;  224.825;    0.000
340.079; 1332.300;  230.825;    0.000
340.137; 1307.300;  232.825;    0.000
340.194; 1315.300;  261.825;    0.000
340.252; 1322.300;  219.825;    0.000
340.309; 1275.300;  212.825;    0.000
340.366; 1257.300;  231.825;    0.000
340.424; 1312.300;  244.825;    0.000
340.481; 1290.300;  238.825;    0.000
340.538; 1268.300;  217.825;    0.000
340.596; 1236.300;  224.825;    0.000
340.653; 1273.300;  225.825;    0.000
340.711; 1353.300;  276.825;    0.000
340.768; 1422.300;  239.825;    0.000
340.825; 1363.300;  216.825;    0.000
340.883; 1333.300;  264.825;    0.000
340.940; 1305.300;  256.825;    0.000
340.997; 1325.300;  230.825;    0.000
341.054; 1306.300;  229.825;    0.000
341.112; 1326.300;  220.825;    0.000
341.169; 1411.300;  276.825;    0.000
341.226; 1265.300;  224.825;    0.000
341.284; 1297.300;  235.825;    0.000
341.341; 1304.300;  226.825;    0.000
341.398; 1260.300;  200.825;    0.000
341.455; 1326.300;  242.825;    0.000
341.512; 1315.300;  226.825;    0.000
341.570; 1325.300;  299.825;    0.000
341.627; 1379.300;  221.825;    0.000
341.684; 1327.300;  204.825;    0.000
341.741; 1376.300;  285.825;    0.000
341.798; 1340.300;  237.825;    0.000
341.856; 1313.300;  223.825;    0.000
341.913; 1378.300;  232.825;    0.000
341.970; 1348.300;  250.825;    0.000
342.027; 1367.300;  272.825;    0.000
342.084; 1343.300;  242.825;    0.000
342.141; 1401.300;  207.825;    0.000
342.198; 1382.300;  252.825;    0.000
342.255; 1331.300;  189.825;    0.000
342.313; 1254.300;  222.825;    0.000
342.370; 1354.300;  203.825;    0.000
342.427; 1291.300;  261.825;    0.000
342.484; 1282.300;  230.825;    0.000
342.541; 1302.300;  224.825;    0.000
342.598; 1358.300;  245.825;    0.000
342.655; 1344.300;  235.825;    0.000
342.712; 1270.300;  238.825;    0.000
342.769; 1322.300;  235.825;    0.000
342.826; 1296.300;  232.825;    0.000
342.883; 1328.300;  212.825;    0.000
342.940; 1281.300;  189.825;    0.000
342.997; 1312.300;  241.825;    0.000
343.054; 1294.300;  235.825;    0.000
343.111; 1231.300;  216.825;    0.000
343.168; 1331.300;  202.825;    0.000
343.225; 1345.300;  228.825;    0.000
343.282; 1379.300;  208.825;    0.000
343.339; 1352.300;  241.825;    0.000
343.395; 1308.300;  206.825;    0.000
343.452; 1456.300;  227.825;    0.000
343.509; 1317.300;  212.825;    0.000
343.566; 1378.300;  266.825;    0.000
343.623; 1289.300;  240.825;    0.000
343.680; 1337.300;  215.825;    0.000
343.737; 1369.300;  231.825;    0.000
343.794; 1385.300;  256.825;    0.000
343.850; 1420.300;  235.825;    0.000
343.907; 1419.300;  246.825;    0.000
343.964; 1425.300;  241.825;    0.000
344.021; 1341.300;  237.825;    0.000
344.078; 1409.300;  248.825;    0.000
344.134; 1431.300;  225.825;    0.000
344.191; 1430.300;  209.825;    0.000
344.248; 1469.300;  234.825;    0.000
344.305; 1375.300;  224.825;    0.000
344.361; 1435.300;  194.825;    0.000
344.418; 1394.300;  240.825;    0.000
344.475; 1330.300;  252.825;    0.000
344.532; 1389.300;  251.825;    0.000
344.588; 1322.300;  240.825;    0.000
344.645; 1396.300;  253.825;    0.000
344.702; 1390.300;  216.825;    0.000
344.758; 1412.300;  258.825;    0.000
344.815; 1439.300;  239.825;    0.000
344.872; 1328.300;  216.825;    0.000
344.928; 1465.300;  236.825;    0.000
344.985; 1462.300;  238.825;    0.000
345.042; 1385.300;  211.825;    0.000
345.098; 1312.300;  223.825;    0.000
345.155; 1403.300;  266.825;    0.000
345.212; 1413.300;  266.825;    0.000
345.268; 1476.300;  245.825;    0.000
345.325; 1371.300;  225.825;    0.000
345.381; 1375.300;  223.825;    0.000
345.438; 1430.300;  259.825;    0.000
345.495; 1437.300;  233.825;    0.000
345.551; 1381.300;  254.825;    0.000
345.608; 1320.300;  212.825;    0.000
345.664; 1274.300;  225.825;    0.000
345.721; 1388.300;  223.825;    0.000
345.777; 1303.300;  226.825;    0.000
345.834; 1269.300;  215.825;    0.000
345.890; 1299.300;  230.825;    0.000
345.947; 1322.300;  232.825;    0.000
346.003; 1359.300;  241.825;    0.000
346.060; 1354.300;  241.825;    0.000
346.116; 1411.300;  231.825;    0.000
346.173; 1392.300;  229.825;    0.000
346.229; 1484.300;  262.825;    0.000
346.285; 1456.300;  232.825;    0.000
346.342; 1468.300;  228.825;    0.000
346.398; 1444.300;  203.825;    0.000
346.455; 1433.300;  214.825;    0.000
346.511; 1477.300;  245.825;    0.000
346.567; 1473.300;  192.825;    0.000
346.624; 1455.300;  206.825;    0.000
346.680; 1427.300;  209.825;    0.000
346.737; 1395.300;  239.825;    0.000
346.793; 1431.300;  234.825;    0.000
346.849; 1375.300;  252.825;    0.000
346.906; 1414.300;  247.825;    0.000
346.962; 1460.300;  274.825;    0.000
347.018; 1442.300;  225.825;    0.000
347.074; 1418.300;  261.825;    0.000
347.131; 1414.300;  230.825;    0.000
347.187; 1488.300;  269.825;    0.000
347.243; 1567.300;  261.825;    0.000
347.300; 1448.300;  236.825;    0.000
347.356; 1492.300;  284.825;    0.000
347.412; 1458.300;  243.825;    0.000
347.468; 1447.300;  276.825;    0.000
347.524; 1422.300;  232.825;    0.000
347.581; 1385.300;  242.825;    0.000
347.637; 1449.300;  270.825;    0.000
347.693; 1364.300;  269.825;    0.000
347.749; 1332.300;  278.825;    0.000
347.805; 1332.300;  224.825;    0.000
347.862; 1367.300;  207.825;    0.000
347.918; 1355.300;  259.825;    0.000
347.974; 1475.300;  244.825;    0.000
348.030; 1433.300;  219.825;    0.000
348.086; 1361.300;  250.825;    0.000
348.142; 1408.300;  251.825;    0.000
348.198; 1390.300;  267.825;    0.000
348.254; 1436.300;  230.825;    0.000
348.311; 1377.300;  261.825;    0.000
348.367; 1367.300;  259.825;    0.000
348.423; 1379.300;  251.825;    0.000
348.479; 1460.300;  251.825;    0.000
348.535; 1435.300;  269.825;    0.000
348.591; 1373.300;  238.825;    0.000
348.647; 1384.300;  273.825;    0.000
348.703; 1370.300;  291.825;    0.000
348.759; 1371.300;  231.825;    0.000
348.815; 1386.300;  286.825;    0.000
348.871; 1327.300;  265.825;    0.000
348.927; 1331.300;  234.825;    0.000
348.983; 1388.300;  267.825;    0.000
349.039; 1360.300;  233.825;    0.000
349.095; 1334.300;  225.825;    0.000
349.151; 1350.300;  242.825;    0.000
349.207; 1414.300;  223.825;    0.000
349.263; 1391.300;  219.825;    0.000
349.319; 1323.300;  226.825;    0.000
349.374; 1382.300;  232.825;    0.000
349.430; 1346.300;  235.825;    0.000
349.486; 1376.300;  227.825;    0.000
349.542; 1392.300;  253.825;    0.000
349.598; 1404.300;  227.825;    0.000
349.654; 1402.300;  270.825;    0.000
349.710; 1408.300;  233.825;    0.000
349.766; 1329.300;  245.825;    0.000
349.821; 1435.300;  242.825;    0.000
349.877; 1401.300;  229.825;    0.000
349.933; 1444.300;  229.825;    0.000
349.989; 1487.300;  230.825;    0.000
350.045; 1435.300;  236.825;    0.000
350.100; 1404.300;  237.825;    0.000
350.156; 1417.300;  230.825;    0.000
350.212; 1315.300;  254.825;    0.000
350.268; 1310.300;  239.825;    0.000
350.323; 1348.300;  204.825;    0.000
350.379; 1383.300;  246.825;    0.000
350.435; 1427.300;  249.825;    0.000
350.491; 1344.300;  217.825;    0.000
350.546; 1484.300;  231.825;    0.000
350.602; 1421.300;  240.825;    0.000
350.658; 1456.300;  235.825;    0.000
350.713; 1414.300;  234.825;    0.000
350.769; 1339.300;  218.825;    0.000
350.825; 1423.300;  227.825;    0.000
350.880; 1467.300;  226.825;    0.000
350.936; 1453.300;  247.825;    0.000
350.992; 1352.300;  213.825;    0.000
351.047; 1436.300;  207.825;    0.000
351.103; 1432.300;  271.825;    0.000
351.158; 1380.300;  251.825;    0.000
351.214; 1449.300;  199.825;    0.000
351.270; 1287.300;  214.825;    0.000
351.325; 1333.300;  235.825;    0.000
351.381; 1387.300;  223.825;    0.000
351.436; 1477.300;  237.825;    0.000
351.492; 1447.300;  221.825;    0.000
351.547; 1496.300;  237.825;    0.000
351.603; 1453.300;  239.825;    0.000
351.658; 1400.300;  209.825;    0.000
351.714; 1409.300;  226.825;    0.000
351.769; 1494.300;  238.825;    0.000
351.825; 1427.300;  226.825;    0.000
351.880; 1377.300;  217.825;    0.000
351.936; 1403.300;  246.825;    0.000
351.991; 1455.300;  233.825;    0.000
352.047; 1378.300;  215.825;    0.000
352.102; 1404.300;  243.825;    0.000
352.158; 1419.300;  234.825;    0.000
352.213; 1378.300;  201.825;    0.000
352.268; 1378.300;  234.825;    0.000
352.324; 1412.300;  211.825;    0.000
352.379; 1393.300;  221.825;    0.000
352.434; 1460.300;  259.825;    0.000
352.490; 1358.300;  250.825;    0.000
352.545; 1412.300;  251.825;    0.000
352.601; 1443.300;  283.825;    0.000
352.656; 1395.300;  236.825;    0.000
352.711; 1415.300;  237.825;    0.000
352.767; 1374.300;  201.825;    0.000
352.822; 1385.300;  209.825;    0.000
352.877; 1434.300;  239.825;    0.000
352.932; 1412.300;  228.825;    0.000
352.988; 1374.300;  202.825;    0.000
353.043; 1422.300;  268.825;    0.000
353.098; 1353.300;  208.825;    0.000
353.153; 1460.300;  219.825;    0.000
353.209; 1353.300;  252.825;    0.000
353.264; 1430.300;  225.825;    0.000
353.319; 1370.300;  234.825;    0.000
353.374; 1341.300;  236.825;    0.000
353.430; 1429.300;  245.825;    0.000
353.485; 1427.300;  238.825;    0.000
353.540; 1450.300;  238.825;    0.000
353.595; 1394.300;  215.825;    0.000
353.650; 1407.300;  238.825;    0.000
353.705; 1395.300;  274.825;    0.000
353.761; 1352.300;  229.825;    0.000
353.816; 1430.300;  275.825;    0.000
353.871; 1352.300;  245.825;    0.000
353.926; 1422.300;  253.825;    0.000
353.981; 1368.300;  269.825;    0.000
354.036; 1351.300;  246.825;    0.000
354.091; 1372.300;  257.825;    0.000
354.146; 1399.300;  278.825;    0.000
354.201; 1374.300;  276.825;    0.000
354.256; 1361.300;  224.825;    0.000
354.311; 1408.300;  287.825;    0.000
354.367; 1363.300;  210.825;    0.000
354.422; 1418.300;  231.825;    0.000
354.477; 1374.300;  226.825;    0.000
354.532; 1451.300;  262.825;    0.000
354.587; 1425.300;  275.825;    0.000
354.642; 1426.300;  247.825;    0.000
354.697; 1468.300;  251.825;    0.000
354.751; 1410.300;  249.825;    0.000
354.806; 1406.300;  217.825;    0.000
354.861; 1393.300;  247.825;    0.000
354.916; 1424.300;  259.825;    0.000
354.971; 1387.300;  241.825;    0.000
355.026; 1428.300;  250.825;    0.000
355.081; 1410.300;  244.825;    0.000
355.136; 1431.300;  203.825;    0.000
355.191; 1403.300;  241.825;    0.000
355.246; 1466.300;  248.825;    0.000
355.301; 1411.300;  259.825;    0.000
355.355; 1430.300;  236.825;    0.000
355.410; 1408.300;  221.825;    0.000
355.465; 1408.300;  206.825;    0.000
355.520; 1398.300;  258.825;    0.000
355.575; 1460.300;  273.825;    0.000
355.630; 1478.300;  252.825;    0.000
355.684; 1311.300;  246.825;    0.000
355.739; 1373.300;  251.825;    0.000
355.794; 1462.300;  247.825;    0.000
355.849; 1329.300;  246.825;    0.000
355.904; 1386.300;  262.825;    0.000
355.958; 1418.300;  249.825;    0.000
356.013; 1377.300;  213.825;    0.000
356.068; 1416.300;  255.825;    0.000
356.123; 1427.300;  205.825;    0.000
356.177; 1416.300;  239.825;    0.000
356.232; 1412.300;  258.825;    0.000
356.287; 1487.300;  248.825;    0.000
356.341; 1405.300;  221.825;    0.000
356.396; 1374.300;  220.825;    0.000
356.451; 1473.300;  231.825;    0.000
356.505; 1381.300;  231.825;    0.000
356.560; 1384.300;  254.825;    0.000
356.615; 1375.300;  234.825;    0.000
356.669; 1422.300;  250.825;    0.000
356.724; 1421.300;  261.825;    0.000
356.778; 1369.300;  207.825;    0.000
356.833; 1323.300;  205.825;    0.000
356.888; 1440.300;  235.825;    0.000
356.942; 1412.300;  205.825;    0.000
356.997; 1413.300;  276.825;    0.000
357.051; 1347.300;  243.825;    0.000
357.106; 1490.300;  242.825;    0.000
357.160; 1397.300;  241.825;    0.000
357.215; 1329.300;  212.825;    0.000
357.269; 1399.300;  238.825;    0.000
357.324; 1412.300;  223.825;    0.000
357.378; 1364.300;  221.825;    0.000
357.433; 1357.300;  262.825;    0.000
357.487; 1453.300;  246.825;    0.000
357.542; 1432.300;  221.825;    0.000
357.596; 1363.300;  225.825;    0.000
357.651; 1411.300;  244.825;    0.000
357.705; 1397.300;  269.825;    0.000
357.760; 1367.300;  209.825;    0.000
357.814; 1391.300;  250.825;    0.000
357.868; 1430.300;  266.825;    0.000
357.923; 1312.300;  248.825;    0.000
357.977; 1359.300;  262.825;    0.000
358.032; 1268.300;  228.825;    0.000
358.086; 1388.300;  257.825;    0.000
358.140; 1396.300;  217.825;    0.000
358.195; 1359.300;  246.825;    0.000
358.249; 1402.300;  255.825;    0.000
358.303; 1419.300;  252.825;    0.000
358.358; 1381.300;  278.825;    0.000
358.412; 1343.300;  276.825;    0.000
358.466; 1444.300;  275.825;    0.000
358.521; 1348.300;  229.825;    0.000
358.575; 1388.300;  270.825;    0.000
358.629; 1291.300;  239.825;    0.000
358.683; 1404.300;  254.825;    0.000
358.738; 1409.300;  239.825;    0.000
358.792; 1335.300;  272.825;    0.000
358.846; 1407.300;  289.825;    0.000
358.900; 1348.300;  299.825;    0.000
358.954; 1373.300;  247.825;    0.000
359.009; 1341.300;  245.825;    0.000
359.063; 1330.300;  272.825;    0.000
359.117; 1374.300;  242.825;    0.000
359.171; 1401.300;  279.825;    0.000
359.225; 1403.300;  221.825;    0.000
359.280; 1397.300;  238.825;    0.000
359.334; 1378.300;  264.825;    0.000
359.388; 1386.300;  273.825;    0.000
359.442; 1327.300;  233.825;    0.000
359.496; 1370.300;  226.825;    0.000
359.550; 1279.300;  271.825;    0.000
359.604; 1424.300;  296.825;    0.000
359.658; 1346.300;  252.825;    0.000
359.712; 1368.300;  256.825;    0.000
359.766; 1254.300;  257.825;    0.000
359.820; 1338.300;  239.825;    0.000
359.875; 1345.300;  252.825;    0.000
359.929; 1456.300;  258.825;    0.000
359.983; 1377.300;  232.825;    0.000
360.037; 1366.300;  268.825;    0.000
360.091; 1404.300;  303.825;    0.000
360.145; 1343.300;  232.825;    0.000
360.199; 1367.300;  255.825;    0.000
360.253; 1323.300;  252.825;    0.000
360.306; 1406.300;  278.825;    0.000
360.360; 1373.300;  249.825;    0.000
360.414; 1404.300;  274.825;    0.000
360.468; 1374.300;  247.825;    0.000
360.522; 1326.300;  268.825;    0.000
360.576; 1324.300;  263.825;    0.000
360.630; 1403.300;  296.825;    0.000
360.684; 1425.300;  253.825;    0.000
360.738; 1400.300;  301.825;    0.000
360.792; 1318.300;  282.825;    0.000
360.846; 1425.300;  277.825;    0.000
360.899; 1382.300;  292.825;    0.000
360.953; 1415.300;  266.825;    0.000
361.007; 1349.300;  240.825;    0.000
361.061; 1376.300;  247.825;    0.000
361.115; 1363.300;  276.825;    0.000
361.168; 1442.300;  288.825;    0.000
361.222; 1286.300;  271.825;    0.000
361.276; 1385.300;  270.825;    0.000
361.330; 1399.300;  295.825;    0.000
361.384; 1368.300;  276.825;    0.000
361.437; 1382.300;  280.825;    0.000
361.491; 1352.300;  261.825;    0.000
361.545; 1411.300;  273.825;    0.000
361.599; 1366.300;  269.825;    0.000
361.652; 1381.300;  258.825;    0.000
361.706; 1378.300;  270.825;    0.000
361.760; 1353.300;  294.825;    0.000
361.813; 1376.300;  244.825;    0.000
361.867; 1370.300;  294.825;    0.000
361.921; 1325.300;  285.825;    0.000
361.974; 1360.300;  269.825;    0.000
362.028; 1337.300;  275.825;    0.000
362.082; 1387.300;  270.825;    0.000
362.135; 1376.300;  259.825;    0.000
362.189; 1377.300;  302.825;    0.000
362.242; 1351.300;  296.825;    0.000
362.296; 1329.300;  285.825;    0.000
362.350; 1322.300;  303.825;    0.000
362.403; 1319.300;  271.825;    0.000
362.457; 1351.300;  285.825;    0.000
362.510; 1412.300;  288.825;    0.000
362.564; 1347.300;  268.825;    0.000
362.617; 1386.300;  285.825;    0.000
362.671; 1370.300;  277.825;    0.000
362.724; 1334.300;  242.825;    0.000
362.778; 1305.300;  274.825;    0.000
362.831; 1324.300;  280.825;    0.000
362.885; 1344.300;  284.825;    0.000
362.938; 1346.300;  276.825;    0.000
362.992;  312.300;  289.825;    0.000
363.045;  273.300;  247.825;    0.000
363.099;  261.300;  260.825;    0.000
363.152;  293.300;  258.825;    0.000
363.205;  262.300;  286.825;    0.000
363.259;  275.300;  236.825;    0.000
363.312;  289.300;  297.825;    0.000
363.366;  285.300;  266.825;    0.000
363.419;  301.300;  309.825;    0.000
363.472;  280.300;  293.825;    0.000
363.526;  290.300;  270.825;    0.000
363.579;  269.300;  276.825;    0.000
363.632;  303.300;  279.825;    0.000
363.686;  267.300;  292.825;    0.000
363.739;  313.300;  248.825;    0.000
363.792;  300.300;  287.825;    0.000

