
Integration time [ms]:   1.000
Averaging Nr. [scans]: 1
Smoothing Nr. [pixels]: 0
Data measured with spectrometer [name]: NIR
Wave   ;Sample   ;Dark     ;Reference
[nm]   ;[counts] ;[counts] ;[counts] 

691.496; -118.625;  163.125;    0.000
691.696;  -85.625;  208.125;    0.000
691.896; -125.625;  111.125;    0.000
692.096;  -87.625;  178.125;    0.000
692.296; -155.625;   93.125;    0.000
692.496;  -38.625;  161.125;    0.000
692.695; -112.625;  135.125;    0.000
692.895; -104.625;  179.125;    0.000
693.095; -113.625;  158.125;    0.000
693.295;  -93.625;  168.125;    0.000
693.495; -104.625;  170.125;    0.000
693.695; -101.625;  155.125;    0.000
693.894;  -99.625;  151.125;    0.000
694.094;  -88.625;  164.125;    0.000
694.294; -126.625;  129.125;    0.000
694.494;   34.375;  170.125;    0.000
694.693; 1293.375;  137.125;    0.000
694.893; 1430.375;  163.125;    0.000
695.093; 1392.375;  121.125;    0.000
695.293; 1483.375;  144.125;    0.000
695.492; 1477.375;   88.125;    0.000
695.692; 1487.375;  148.125;    0.000
695.891; 1473.375;  125.125;    0.000
696.091; 1570.375;  184.125;    0.000
696.291; 1498.375;  153.125;    0.000
696.490; 1505.375;  131.125;    0.000
696.690; 1550.375;  123.125;    0.000
696.889; 1543.375;  180.125;    0.000
697.089; 1531.375;  147.125;    0.000
697.288; 1519.375;  164.125;    0.000
697.488; 1523.375;  133.125;    0.000
697.687; 1537.375;  153.125;    0.000
697.887; 1540.375;  119.125;    0.000
698.086; 1536.375;  143.125;    0.000
698.286; 1514.375;  125.125;    0.000
698.485; 1524.375;  120.125;    0.000
698.684; 1535.375;  116.125;    0.000
698.884; 1534.375;  131.125;    0.000
699.083; 1578.375;  115.125;    0.000
699.282; 1487.375;  144.125;    0.000
699.482; 1554.375;  109.125;    0.000
699.681; 1514.375;  115.125;    0.000
699.880; 1567.375;  125.125;    0.000
700.080; 1603.375;  139.125;    0.000
700.279; 1502.375;  111.125;    0.000
700.478; 1543.375;  146.125;    0.000
700.677; 1557.375;  131.125;    0.000
700.877; 1592.375;  156.125;    0.000
701.076; 1600.375;  153.125;    0.000
701.275; 1553.375;  123.125;    0.000
701.474; 1538.375;  150.125;    0.000
701.673; 1581.375;   97.125;    0.000
701.872; 1616.375;  139.125;    0.000
702.071; 1498.375;  108.125;    0.000
702.271; 1591.375;  125.125;    0.000
702.470; 1639.375;  108.125;    0.000
702.669; 1579.375;  102.125;    0.000
702.868; 1584.375;  153.125;    0.000
703.067; 1679.375;  145.125;    0.000
703.266; 1648.375;   96.125;    0.000
703.465; 1630.375;  165.125;    0.000
703.664; 1632.375;  106.125;    0.000
703.863; 1572.375;  144.125;    0.000
704.062; 1700.375;   86.125;    0.000
704.260; 1612.375;   99.125;    0.000
704.459; 1585.375;  112.125;    0.000
704.658; 1564.375;  106.125;    0.000
704.857; 1596.375;  129.125;    0.000
705.056; 1566.375;   98.125;    0.000
705.255; 1518.375;   97.125;    0.000
705.454; 1595.375;  101.125;    0.000
705.652; 1592.375;  142.125;    0.000
705.851; 1642.375;  100.125;    0.000
706.050; 1613.375;  162.125;    0.000
706.249; 1621.375;  146.125;    0.000
706.447; 1640.375;  120.125;    0.000
706.646; 1642.375;  114.125;    0.000
706.845; 1607.375;  117.125;    0.000
707.043; 1649.375;  136.125;    0.000
707.242; 1619.375;   90.125;    0.000
707.441; 1720.375;  131.125;    0.000
707.639; 1603.375;  120.125;    0.000
707.838; 1582.375;  122.125;    0.000
708.037; 1643.375;  109.125;    0.000
708.235; 1632.375;  122.125;    0.000
708.434; 1670.375;  109.125;    0.000
708.632; 1540.375;   47.125;    0.000
708.831; 1665.375;  122.125;    0.000
709.029; 1600.375;  130.125;    0.000
709.228; 1596.375;  112.125;    0.000
709.426; 1711.375;  128.125;    0.000
709.625; 1694.375;  129.125;    0.000
709.823; 1711.375;  130.125;    0.000
710.022; 1658.375;   90.125;    0.000
710.220; 1712.375;  131.125;    0.000
710.418; 1686.375;  133.125;    0.000
710.617; 1741.375;   82.125;    0.000
710.815; 1734.375;   90.125;    0.000
711.013; 1715.375;   86.125;    0.000
711.212; 1706.375;  117.125;    0.000
711.410; 1617.375;  106.125;    0.000
711.608; 1689.375;  138.125;    0.000
711.807; 1711.375;  116.125;    0.000
712.005; 1762.375;   82.125;    0.000
712.203; 1657.375;   90.125;    0.000
712.401; 1747.375;  124.125;    0.000
712.599; 1727.375;   64.125;    0.000
712.798; 1708.375;  113.125;    0.000
712.996; 1619.375;  100.125;    0.000
713.194; 1649.375;  130.125;    0.000
713.392; 1778.375;   89.125;    0.000
713.590; 1700.375;  105.125;    0.000
713.788; 1794.375;  100.125;    0.000
713.986; 1762.375;  117.125;    0.000
714.184; 1775.375;   72.125;    0.000
714.382; 1773.375;   88.125;    0.000
714.580; 1786.375;   88.125;    0.000
714.778; 1793.375;  129.125;    0.000
714.976; 1811.375;   90.125;    0.000
715.174; 1850.375;  119.125;    0.000
715.372; 1913.375;  117.125;    0.000
715.570; 1883.375;  101.125;    0.000
715.768; 2031.375;  122.125;    0.000
715.966; 2046.375;  114.125;    0.000
716.164; 1985.375;  135.125;    0.000
716.362; 2011.375;  126.125;    0.000
716.560; 1888.375;  126.125;    0.000
716.758; 1968.375;   98.125;    0.000
716.955; 1857.375;   76.125;    0.000
717.153; 1841.375;   45.125;    0.000
717.351; 1980.375;  106.125;    0.000
717.549; 1866.375;  108.125;    0.000
717.746; 1874.375;   66.125;    0.000
717.944; 1899.375;  127.125;    0.000
718.142; 1915.375;  148.125;    0.000
718.340; 1812.375;   94.125;    0.000
718.537; 1963.375;  107.125;    0.000
718.735; 1967.375;  130.125;    0.000
718.933; 1936.375;  111.125;    0.000
719.130; 1942.375;  107.125;    0.000
719.328; 1962.375;  128.125;    0.000
719.525; 1856.375;  141.125;    0.000
719.723; 1872.375;  122.125;    0.000
719.920; 1892.375;   85.125;    0.000
720.118; 1945.375;  115.125;    0.000
720.316; 1971.375;  153.125;    0.000
720.513; 1922.375;  120.125;    0.000
720.711; 1884.375;  134.125;    0.000
720.908; 1914.375;  126.125;    0.000
721.105; 1901.375;  119.125;    0.000
721.303; 1970.375;  112.125;    0.000
721.500; 1849.375;  125.125;    0.000
721.698; 1884.375;   94.125;    0.000
721.895; 1919.375;  118.125;    0.000
722.092; 1947.375;   77.125;    0.000
722.290; 2043.375;  135.125;    0.000
722.487; 1905.375;  154.125;    0.000
722.684; 1890.375;  122.125;    0.000
722.882; 1892.375;   90.125;    0.000
723.079; 1920.375;  132.125;    0.000
723.276; 1892.375;   95.125;    0.000
723.473; 1917.375;  106.125;    0.000
723.671; 1885.375;   80.125;    0.000
723.868; 1984.375;  112.125;    0.000
724.065; 1950.375;  107.125;    0.000
724.262; 1942.375;  119.125;    0.000
724.459; 1881.375;   80.125;    0.000
724.656; 1959.375;  109.125;    0.000
724.854; 2006.375;  107.125;    0.000
725.051; 1933.375;  103.125;    0.000
725.248; 1997.375;  101.125;    0.000
725.445; 1959.375;   93.125;    0.000
725.642; 1898.375;   92.125;    0.000
725.839; 1943.375;  157.125;    0.000
726.036; 1981.375;   71.125;    0.000
726.233; 1893.375;   80.125;    0.000
726.430; 2002.375;  146.125;    0.000
726.627; 1947.375;  103.125;    0.000
726.824; 1914.375;   46.125;    0.000
727.021; 1985.375;  149.125;    0.000
727.218; 1979.375;   87.125;    0.000
727.414; 2053.375;  112.125;    0.000
727.611; 1958.375;  111.125;    0.000
727.808; 1977.375;  122.125;    0.000
728.005; 2001.375;   58.125;    0.000
728.202; 2000.375;  129.125;    0.000
728.399; 1963.375;  111.125;    0.000
728.595; 1911.375;   93.125;    0.000
728.792; 1965.375;   78.125;    0.000
728.989; 2025.375;  104.125;    0.000
729.186; 1960.375;  110.125;    0.000
729.382; 1964.375;   93.125;    0.000
729.579; 2070.375;  102.125;    0.000
729.776; 1969.375;  112.125;    0.000
729.972; 1991.375;  101.125;    0.000
730.169; 2086.375;  150.125;    0.000
730.366; 2034.375;   92.125;    0.000
730.562; 2003.375;   74.125;    0.000
730.759; 1977.375;   97.125;    0.000
730.955; 1962.375;   86.125;    0.000
731.152; 1963.375;   88.125;    0.000
731.348; 2003.375;  117.125;    0.000
731.545; 1928.375;   62.125;    0.000
731.741; 2039.375;   84.125;    0.000
731.938; 1999.375;  108.125;    0.000
732.134; 2006.375;  115.125;    0.000
732.331; 1956.375;   88.125;    0.000
732.527; 2066.375;   96.125;    0.000
732.724; 2094.375;  103.125;    0.000
732.920; 2082.375;   93.125;    0.000
733.116; 2057.375;  109.125;    0.000
733.313; 1990.375;   77.125;    0.000
733.509; 2119.375;   81.125;    0.000
733.705; 2029.375;  141.125;    0.000
733.902; 1943.375;   88.125;    0.000
734.098; 1989.375;   56.125;    0.000
734.294; 2063.375;  122.125;    0.000
734.490; 2052.375;  102.125;    0.000
734.687; 2007.375;   70.125;    0.000
734.883; 2112.375;   73.125;    0.000
735.079; 2075.375;   65.125;    0.000
735.275; 2088.375;  112.125;    0.000
735.471; 2040.375;  124.125;    0.000
735.667; 2126.375;   94.125;    0.000
735.863; 2050.375;  106.125;    0.000
736.060; 2076.375;  106.125;    0.000
736.256; 2128.375;   95.125;    0.000
736.452; 2066.375;  103.125;    0.000
736.648; 2115.375;  106.125;    0.000
736.844; 2165.375;   98.125;    0.000
737.040; 2020.375;  118.125;    0.000
737.236; 2082.375;   95.125;    0.000
737.432; 2055.375;   59.125;    0.000
737.628; 2060.375;  120.125;    0.000
737.824; 2033.375;   78.125;    0.000
738.019; 2028.375;   98.125;    0.000
738.215; 2149.375;  127.125;    0.000
738.411; 2118.375;  111.125;    0.000
738.607; 2106.375;   69.125;    0.000
738.803; 2107.375;   40.125;    0.000
738.999; 2094.375;  128.125;    0.000
739.195; 2111.375;   81.125;    0.000
739.390; 2107.375;   97.125;    0.000
739.586; 2191.375;  100.125;    0.000
739.782; 2220.375;  135.125;    0.000
739.978; 2121.375;  121.125;    0.000
740.173; 2106.375;   92.125;    0.000
740.369; 2212.375;   92.125;    0.000
740.565; 2242.375;  119.125;    0.000
740.760; 2188.375;  139.125;    0.000
740.956; 2219.375;  134.125;    0.000
741.152; 2177.375;  107.125;    0.000
741.347; 2214.375;   63.125;    0.000
741.543; 2225.375;   99.125;    0.000
741.738; 2294.375;  119.125;    0.000
741.934; 2280.375;  156.125;    0.000
742.129; 2399.375;   87.125;    0.000
742.325; 2435.375;  143.125;    0.000
742.520; 2677.375;  109.125;    0.000
742.716; 2619.375;  135.125;    0.000
742.911; 2582.375;   77.125;    0.000
743.107; 2646.375;  117.125;    0.000
743.302; 2552.375;   93.125;    0.000
743.498; 2501.375;  118.125;    0.000
743.693; 2488.375;   95.125;    0.000
743.888; 2653.375;  122.125;    0.000
744.084; 2751.375;  104.125;    0.000
744.279; 3182.375;   94.125;    0.000
744.474; 3285.375;  138.125;    0.000
744.670; 3096.375;  113.125;    0.000
744.865; 2895.375;  116.125;    0.000
745.060; 2890.375;   89.125;    0.000
745.255; 2859.375;  144.125;    0.000
745.451; 2775.375;   98.125;    0.000
745.646; 2654.375;  110.125;    0.000
745.841; 2598.375;   87.125;    0.000
746.036; 2703.375;   98.125;    0.000
746.231; 2766.375;  153.125;    0.000
746.426; 2766.375;   90.125;    0.000
746.622; 3145.375;  154.125;    0.000
746.817; 3569.375;  111.125;    0.000
747.012; 3872.375;  110.125;    0.000
747.207; 3701.375;   76.125;    0.000
747.402; 3395.375;   94.125;    0.000
747.597; 3291.375;   68.125;    0.000
747.792; 3243.375;  125.125;    0.000
747.987; 3102.375;   92.125;    0.000
748.182; 2981.375;  113.125;    0.000
748.377; 2918.375;   72.125;    0.000
748.572; 2874.375;  135.125;    0.000
748.767; 2796.375;   98.125;    0.000
748.961; 2787.375;  123.125;    0.000
749.156; 2741.375;   96.125;    0.000
749.351; 2699.375;  121.125;    0.000
749.546; 2671.375;   95.125;    0.000
749.741; 2572.375;  144.125;    0.000
749.936; 2564.375;  105.125;    0.000
750.130; 2509.375;  101.125;    0.000
750.325; 2532.375;  126.125;    0.000
750.520; 2556.375;  113.125;    0.000
750.715; 2508.375;  135.125;    0.000
750.909; 2494.375;  138.125;    0.000
751.104; 2375.375;   96.125;    0.000
751.299; 2466.375;  118.125;    0.000
751.493; 2472.375;  124.125;    0.000
751.688; 2458.375;  131.125;    0.000
751.882; 2359.375;   96.125;    0.000
752.077; 2394.375;  123.125;    0.000
752.272; 2429.375;  112.125;    0.000
752.466; 2394.375;  143.125;    0.000
752.661; 2273.375;  107.125;    0.000
752.855; 2312.375;   97.125;    0.000
753.050; 2429.375;  125.125;    0.000
753.244; 2365.375;  161.125;    0.000
753.439; 2315.375;  101.125;    0.000
753.633; 2323.375;  129.125;    0.000
753.828; 2324.375;  114.125;    0.000
754.022; 2349.375;  118.125;    0.000
754.216; 2311.375;  126.125;    0.000
754.411; 2314.375;  148.125;    0.000
754.605; 2292.375;  100.125;    0.000
754.799; 2380.375;  146.125;    0.000
754.994; 2341.375;  116.125;    0.000
755.188; 2374.375;  146.125;    0.000
755.382; 2335.375;  103.125;    0.000
755.576; 2346.375;  119.125;    0.000
755.771; 2290.375;  100.125;    0.000
755.965; 2285.375;  129.125;    0.000
756.159; 2253.375;  100.125;    0.000
756.353; 2330.375;  153.125;    0.000
756.547; 2227.375;  113.125;    0.000
756.742; 2293.375;  129.125;    0.000
756.936; 2279.375;   70.125;    0.000
757.130; 2257.375;   91.125;    0.000
757.324; 2219.375;   92.125;    0.000
757.518; 2308.375;  128.125;    0.000
757.712; 2323.375;  146.125;    0.000
757.906; 2202.375;  114.125;    0.000
758.100; 2341.375;  153.125;    0.000
758.294; 2362.375;  133.125;    0.000
758.488; 2348.375;  149.125;    0.000
758.682; 2286.375;  132.125;    0.000
758.876; 2317.375;  128.125;    0.000
759.070; 2355.375;  178.125;    0.000
759.264; 2323.375;   98.125;    0.000
759.458; 2210.375;  168.125;    0.000
759.651; 2191.375;  131.125;    0.000
759.845; 2239.375;  133.125;    0.000
760.039; 2348.375;  120.125;    0.000
760.233; 2266.375;  116.125;    0.000
760.427; 2235.375;  121.125;    0.000
760.620; 2372.375;  163.125;    0.000
760.814; 2262.375;  106.125;    0.000
761.008; 2384.375;  119.125;    0.000
761.202; 2285.375;  121.125;    0.000
761.395; 2286.375;  136.125;    0.000
761.589; 2346.375;  111.125;    0.000
761.783; 2339.375;  116.125;    0.000
761.976; 2286.375;  139.125;    0.000
762.170; 2349.375;  140.125;    0.000
762.363; 2353.375;  115.125;    0.000
762.557; 2381.375;  129.125;    0.000
762.750; 2254.375;   85.125;    0.000
762.944; 2271.375;  107.125;    0.000
763.138; 2295.375;   99.125;    0.000
763.331; 2243.375;   97.125;    0.000
763.524; 2301.375;  100.125;    0.000
763.718; 2371.375;  130.125;    0.000
763.911; 2276.375;  127.125;    0.000
764.105; 2252.375;   69.125;    0.000
764.298; 2326.375;   94.125;    0.000
764.492; 2253.375;  129.125;    0.000
764.685; 2328.375;  114.125;    0.000
764.878; 2300.375;  145.125;    0.000
765.072; 2272.375;  124.125;    0.000
765.265; 2387.375;  124.125;    0.000
765.458; 2297.375;  108.125;    0.000
765.651; 2312.375;  132.125;    0.000
765.845; 2354.375;  106.125;    0.000
766.038; 2354.375;  155.125;    0.000
766.231; 2568.375;  153.125;    0.000
766.424; 3467.375;  165.125;    0.000
766.617; 3466.375;   85.125;    0.000
766.811; 2527.375;  140.125;    0.000
767.004; 2347.375;  151.125;    0.000
767.197; 2454.375;  178.125;    0.000
767.390; 2350.375;  112.125;    0.000
767.583; 2381.375;  134.125;    0.000
767.776; 2402.375;  101.125;    0.000
767.969; 2436.375;   99.125;    0.000
768.162; 2375.375;  152.125;    0.000
768.355; 2349.375;  115.125;    0.000
768.548; 2545.375;  154.125;    0.000
768.741; 2465.375;  124.125;    0.000
768.934; 2476.375;  129.125;    0.000
769.127; 2398.375;  137.125;    0.000
769.320; 2497.375;  115.125;    0.000
769.513; 2527.375;  144.125;    0.000
769.706; 2741.375;  107.125;    0.000
769.898; 3420.375;  134.125;    0.000
770.091; 3017.375;  128.125;    0.000
770.284; 2523.375;   97.125;    0.000
770.477; 2512.375;  135.125;    0.000
770.670; 2549.375;  137.125;    0.000
770.862; 2572.375;  112.125;    0.000
771.055; 2643.375;  127.125;    0.000
771.248; 2540.375;  116.125;    0.000
771.441; 2556.375;  101.125;    0.000
771.633; 2573.375;  130.125;    0.000
771.826; 2574.375;  147.125;    0.000
772.018; 2612.375;  117.125;    0.000
772.211; 2614.375;  141.125;    0.000
772.404; 2590.375;  104.125;    0.000
772.596; 2707.375;  128.125;    0.000
772.789; 2709.375;  131.125;    0.000
772.981; 2838.375;  134.125;    0.000
773.174; 2793.375;  108.125;    0.000
773.366; 2783.375;  153.125;    0.000
773.559; 2760.375;  137.125;    0.000
773.751; 2795.375;  119.125;    0.000
773.944; 2887.375;  148.125;    0.000
774.136; 2969.375;  155.125;    0.000
774.329; 2994.375;  126.125;    0.000
774.521; 3082.375;  116.125;    0.000
774.713; 3124.375;  119.125;    0.000
774.906; 3232.375;  179.125;    0.000
775.098; 3331.375;  127.125;    0.000
775.290; 3455.375;  146.125;    0.000
775.483; 3473.375;  123.125;    0.000
775.675; 3688.375;  119.125;    0.000
775.867; 3954.375;  119.125;    0.000
776.059; 4210.375;  137.125;    0.000
776.251; 4500.375;  154.125;    0.000
776.444; 4971.375;  101.125;    0.000
776.636; 5664.375;  153.125;    0.000
776.828; 6599.375;  127.125;    0.000
777.020; 8579.375;  140.125;    0.000
777.212;12376.375;  160.125;    0.000
777.404;13642.375;  170.125;    0.000
777.596;12814.375;  136.125;    0.000
777.788; 9938.375;  137.125;    0.000
777.980; 8142.375;  129.125;    0.000
778.172; 6912.375;  139.125;    0.000
778.364; 6045.375;  124.125;    0.000
778.556; 5513.375;  163.125;    0.000
778.748; 5049.375;  142.125;    0.000
778.940; 4633.375;  178.125;    0.000
779.132; 4274.375;  159.125;    0.000
779.324; 4109.375;  109.125;    0.000
779.516; 3963.375;  143.125;    0.000
779.708; 3765.375;  158.125;    0.000
779.900; 3519.375;  142.125;    0.000
780.091; 3409.375;  131.125;    0.000
780.283; 3423.375;  176.125;    0.000
780.475; 3332.375;  151.125;    0.000
780.667; 3289.375;  120.125;    0.000
780.859; 3146.375;  134.125;    0.000
781.050; 3015.375;  183.125;    0.000
781.242; 2920.375;   95.125;    0.000
781.434; 2896.375;  127.125;    0.000
781.625; 2857.375;  163.125;    0.000
781.817; 2885.375;  170.125;    0.000
782.008; 2774.375;  123.125;    0.000
782.200; 2836.375;  141.125;    0.000
782.392; 2674.375;  149.125;    0.000
782.583; 2691.375;  155.125;    0.000
782.775; 2659.375;  140.125;    0.000
782.966; 2589.375;  167.125;    0.000
783.158; 2664.375;  164.125;    0.000
783.349; 2595.375;  174.125;    0.000
783.541; 2524.375;  141.125;    0.000
783.732; 2602.375;  115.125;    0.000
783.924; 2515.375;  135.125;    0.000
784.115; 2622.375;  157.125;    0.000
784.306; 2514.375;  102.125;    0.000
784.498; 2510.375;  124.125;    0.000
784.689; 2559.375;  171.125;    0.000
784.880; 2480.375;  165.125;    0.000
785.072; 2449.375;  152.125;    0.000
785.263; 2467.375;  146.125;    0.000
785.454; 2517.375;  145.125;    0.000
785.645; 2378.375;  127.125;    0.000
785.837; 2426.375;  138.125;    0.000
786.028; 2377.375;  151.125;    0.000
786.219; 2430.375;  142.125;    0.000
786.410; 2397.375;  140.125;    0.000
786.601; 2391.375;  137.125;    0.000
786.792; 2421.375;  158.125;    0.000
786.984; 2391.375;  139.125;    0.000
787.175; 2355.375;  140.125;    0.000
787.366; 2383.375;  145.125;    0.000
787.557; 2356.375;  156.125;    0.000
787.748; 2361.375;  148.125;    0.000
787.939; 2390.375;  157.125;    0.000
788.130; 2296.375;  179.125;    0.000
788.321; 2350.375;  142.125;    0.000
788.512; 2368.375;  167.125;    0.000
788.703; 2385.375;  145.125;    0.000
788.894; 2317.375;  132.125;    0.000
789.084; 2362.375;  113.125;    0.000
789.275; 2471.375;  134.125;    0.000
789.466; 2464.375;  151.125;    0.000
789.657; 2337.375;  138.125;    0.000
789.848; 2563.375;  145.125;    0.000
790.039; 2461.375;  130.125;    0.000
790.229; 2412.375;  140.125;    0.000
790.420; 2424.375;  135.125;    0.000
790.611; 2419.375;  156.125;    0.000
790.801; 2350.375;   64.125;    0.000
790.992; 2359.375;  150.125;    0.000
791.183; 2358.375;  177.125;    0.000
791.373; 2432.375;   91.125;    0.000
791.564; 2458.375;   85.125;    0.000
791.755; 2295.375;  125.125;    0.000
791.945; 2434.375;   94.125;    0.000
792.136; 2345.375;   98.125;    0.000
792.326; 2392.375;  105.125;    0.000
792.517; 2447.375;  136.125;    0.000
792.707; 2434.375;  140.125;    0.000
792.898; 2421.375;  164.125;    0.000
793.088; 2403.375;  116.125;    0.000
793.279; 2446.375;  112.125;    0.000
793.469; 2374.375;  105.125;    0.000
793.660; 2473.375;  161.125;    0.000
793.850; 2551.375;  133.125;    0.000
794.040; 2536.375;  121.125;    0.000
794.231; 2633.375;  115.125;    0.000
794.421; 2677.375;  152.125;    0.000
794.611; 2943.375;  132.125;    0.000
794.802; 3186.375;  144.125;    0.000
794.992; 3382.375;  142.125;    0.000
795.182; 3423.375;  179.125;    0.000
795.372; 3237.375;  167.125;    0.000
795.563; 3058.375;  149.125;    0.000
795.753; 2905.375;  117.125;    0.000
795.943; 2785.375;  146.125;    0.000
796.133; 2594.375;  119.125;    0.000
796.323; 2755.375;  141.125;    0.000
796.513; 2603.375;  134.125;    0.000
796.703; 2517.375;  116.125;    0.000
796.893; 2515.375;  120.125;    0.000
797.083; 2417.375;  131.125;    0.000
797.273; 2456.375;  118.125;    0.000
797.463; 2444.375;  130.125;    0.000
797.653; 2367.375;   87.125;    0.000
797.843; 2322.375;  123.125;    0.000
798.033; 2297.375;  115.125;    0.000
798.223; 2338.375;  142.125;    0.000
798.413; 2328.375;  148.125;    0.000
798.603; 2206.375;  147.125;    0.000
798.793; 2127.375;  107.125;    0.000
798.983; 2215.375;  121.125;    0.000
799.172; 2151.375;  120.125;    0.000
799.362; 2100.375;  145.125;    0.000
799.552; 2123.375;  101.125;    0.000
799.742; 2248.375;  149.125;    0.000
799.932; 2078.375;  104.125;    0.000
800.121; 2076.375;  175.125;    0.000
800.311; 2164.375;  132.125;    0.000
800.501; 2114.375;  118.125;    0.000
800.690; 2070.375;  162.125;    0.000
800.880; 1995.375;  141.125;    0.000
801.070; 2064.375;  151.125;    0.000
801.259; 2134.375;  167.125;    0.000
801.449; 2069.375;  108.125;    0.000
801.638; 2067.375;  176.125;    0.000
801.828; 1982.375;  118.125;    0.000
802.017; 2106.375;  179.125;    0.000
802.207; 1973.375;  127.125;    0.000
802.396; 2081.375;  167.125;    0.000
802.586; 1954.375;  129.125;    0.000
802.775; 2023.375;  142.125;    0.000
802.965; 1981.375;  147.125;    0.000
803.154; 1935.375;  179.125;    0.000
803.343; 1965.375;  117.125;    0.000
803.533; 1975.375;  120.125;    0.000
803.722; 1948.375;  122.125;    0.000
803.911; 1939.375;  155.125;    0.000
804.101; 1942.375;  147.125;    0.000
804.290; 1923.375;  160.125;    0.000
804.479; 1908.375;  139.125;    0.000
804.668; 2016.375;  180.125;    0.000
804.857; 1946.375;  131.125;    0.000
805.047; 1883.375;  119.125;    0.000
805.236; 1942.375;  139.125;    0.000
805.425; 2020.375;  163.125;    0.000
805.614; 1878.375;  103.125;    0.000
805.803; 1911.375;  133.125;    0.000
805.992; 1940.375;  147.125;    0.000
806.181; 1907.375;  109.125;    0.000
806.370; 1890.375;  133.125;    0.000
806.559; 1839.375;  119.125;    0.000
806.748; 1944.375;  144.125;    0.000
806.937; 1954.375;  147.125;    0.000
807.126; 1876.375;  134.125;    0.000
807.315; 1909.375;  132.125;    0.000
807.504; 1962.375;  141.125;    0.000
807.693; 1918.375;  145.125;    0.000
807.882; 1887.375;   91.125;    0.000
808.071; 1834.375;  116.125;    0.000
808.260; 1845.375;  105.125;    0.000
808.448; 2003.375;  184.125;    0.000
808.637; 1931.375;  146.125;    0.000
808.826; 1870.375;  153.125;    0.000
809.015; 1849.375;  113.125;    0.000
809.203; 1863.375;  166.125;    0.000
809.392; 1874.375;  117.125;    0.000
809.581; 1870.375;  186.125;    0.000
809.770; 1805.375;  122.125;    0.000
809.958; 1945.375;  140.125;    0.000
810.147; 1860.375;  130.125;    0.000
810.335; 1841.375;  112.125;    0.000
810.524; 1877.375;  106.125;    0.000
810.713; 1851.375;  154.125;    0.000
810.901; 1859.375;  131.125;    0.000
811.090; 1856.375;  164.125;    0.000
811.278; 1823.375;  159.125;    0.000
811.467; 1957.375;  194.125;    0.000
811.655; 2004.375;  164.125;    0.000
811.844; 1930.375;  149.125;    0.000
812.032; 1870.375;  169.125;    0.000
812.220; 1988.375;  163.125;    0.000
812.409; 1911.375;  134.125;    0.000
812.597; 1888.375;  165.125;    0.000
812.785; 1917.375;  180.125;    0.000
812.974; 1875.375;  166.125;    0.000
813.162; 1902.375;  171.125;    0.000
813.350; 1952.375;  142.125;    0.000
813.539; 1900.375;  126.125;    0.000
813.727; 1927.375;  153.125;    0.000
813.915; 1870.375;  138.125;    0.000
814.103; 1923.375;  191.125;    0.000
814.291; 1950.375;  142.125;    0.000
814.479; 1892.375;  156.125;    0.000
814.668; 1924.375;  152.125;    0.000
814.856; 1955.375;  150.125;    0.000
815.044; 1834.375;  165.125;    0.000
815.232; 1957.375;  172.125;    0.000
815.420; 1932.375;  147.125;    0.000
815.608; 1922.375;  143.125;    0.000
815.796; 1964.375;  126.125;    0.000
815.984; 1937.375;  152.125;    0.000
816.172; 1971.375;  129.125;    0.000
816.360; 1956.375;  177.125;    0.000
816.548; 1969.375;  141.125;    0.000
816.736; 2046.375;  142.125;    0.000
816.924; 2045.375;  161.125;    0.000
817.111; 2008.375;  138.125;    0.000
817.299; 2086.375;  112.125;    0.000
817.487; 2145.375;  180.125;    0.000
817.675; 2187.375;  138.125;    0.000
817.863; 2289.375;  172.125;    0.000
818.050; 2426.375;  142.125;    0.000
818.238; 2771.375;  151.125;    0.000
818.426; 3121.375;  129.125;    0.000
818.613; 3322.375;  124.125;    0.000
818.801; 3511.375;  209.125;    0.000
818.989; 3525.375;  178.125;    0.000
819.176; 3186.375;  155.125;    0.000
819.364; 3141.375;  174.125;    0.000
819.552; 3559.375;  131.125;    0.000
819.739; 3024.375;  184.125;    0.000
819.927; 2785.375;  132.125;    0.000
820.114; 2745.375;  173.125;    0.000
820.302; 2749.375;  140.125;    0.000
820.489; 2612.375;  133.125;    0.000
820.677; 2756.375;  167.125;    0.000
820.864; 2817.375;  161.125;    0.000
821.052; 3025.375;  134.125;    0.000
821.239; 3273.375;  149.125;    0.000
821.426; 3480.375;  160.125;    0.000
821.614; 4312.375;  143.125;    0.000
821.801; 4671.375;  118.125;    0.000
821.988; 4283.375;  154.125;    0.000
822.176; 4211.375;  112.125;    0.000
822.363; 4228.375;  131.125;    0.000
822.550; 4004.375;  131.125;    0.000
822.737; 3768.375;  104.125;    0.000
822.924; 3452.375;  160.125;    0.000
823.112; 3300.375;  161.125;    0.000
823.299; 3180.375;  169.125;    0.000
823.486; 3098.375;  129.125;    0.000
823.673; 2970.375;  135.125;    0.000
823.860; 2858.375;  169.125;    0.000
824.047; 2864.375;  124.125;    0.000
824.234; 3106.375;  160.125;    0.000
824.421; 3113.375;  114.125;    0.000
824.608; 2937.375;  191.125;    0.000
824.795; 2661.375;  160.125;    0.000
824.982; 2636.375;  139.125;    0.000
825.169; 2497.375;  121.125;    0.000
825.356; 2497.375;  148.125;    0.000
825.543; 2317.375;  167.125;    0.000
825.730; 2257.375;  103.125;    0.000
825.917; 2242.375;  113.125;    0.000
826.104; 2143.375;  188.125;    0.000
826.290; 2151.375;  193.125;    0.000
826.477; 2019.375;  175.125;    0.000
826.664; 2003.375;  151.125;    0.000
826.851; 2035.375;  122.125;    0.000
827.038; 1992.375;  121.125;    0.000
827.224; 1900.375;  124.125;    0.000
827.411; 1960.375;  155.125;    0.000
827.598; 1942.375;  127.125;    0.000
827.784; 1934.375;  140.125;    0.000
827.971; 1882.375;  114.125;    0.000
828.157; 1822.375;  135.125;    0.000
828.344; 1804.375;  173.125;    0.000
828.531; 1731.375;  113.125;    0.000
828.717; 1869.375;  137.125;    0.000
828.904; 1823.375;  158.125;    0.000
829.090; 1873.375;  199.125;    0.000
829.277; 1816.375;  156.125;    0.000
829.463; 1720.375;  154.125;    0.000
829.650; 1801.375;  174.125;    0.000
829.836; 1668.375;  136.125;    0.000
830.022; 1767.375;  143.125;    0.000
830.209; 1770.375;  157.125;    0.000
830.395; 1734.375;  156.125;    0.000
830.581; 1641.375;  148.125;    0.000
830.768; 1748.375;  169.125;    0.000
830.954; 1792.375;  169.125;    0.000
831.140; 1759.375;  124.125;    0.000
831.327; 1659.375;  157.125;    0.000
831.513; 1731.375;  163.125;    0.000
831.699; 1666.375;  176.125;    0.000
831.885; 1646.375;  154.125;    0.000
832.071; 1666.375;  159.125;    0.000
832.257; 1636.375;  142.125;    0.000
832.444; 1678.375;  159.125;    0.000
832.630; 1585.375;  129.125;    0.000
832.816; 1635.375;  132.125;    0.000
833.002; 1583.375;  125.125;    0.000
833.188; 1626.375;  144.125;    0.000
833.374; 1613.375;  131.125;    0.000
833.560; 1603.375;  154.125;    0.000
833.746; 1688.375;  171.125;    0.000
833.932; 1596.375;  162.125;    0.000
834.118; 1611.375;  131.125;    0.000
834.303; 1627.375;  113.125;    0.000
834.489; 1570.375;  170.125;    0.000
834.675; 1538.375;  177.125;    0.000
834.861; 1650.375;  154.125;    0.000
835.047; 1666.375;  171.125;    0.000
835.233; 1638.375;   98.125;    0.000
835.418; 1663.375;  138.125;    0.000
835.604; 1495.375;  140.125;    0.000
835.790; 1569.375;  130.125;    0.000
835.976; 1605.375;  129.125;    0.000
836.161; 1533.375;  142.125;    0.000
836.347; 1502.375;  128.125;    0.000
836.533; 1536.375;  143.125;    0.000
836.718; 1583.375;  164.125;    0.000
836.904; 1607.375;  172.125;    0.000
837.089; 1525.375;  152.125;    0.000
837.275; 1667.375;  143.125;    0.000
837.460; 1502.375;  125.125;    0.000
837.646; 1608.375;  137.125;    0.000
837.831; 1546.375;  153.125;    0.000
838.017; 1673.375;  171.125;    0.000
838.202; 1632.375;  111.125;    0.000
838.388; 1587.375;  140.125;    0.000
838.573; 1550.375;  158.125;    0.000
838.759; 1621.375;  188.125;    0.000
838.944; 1621.375;  125.125;    0.000
839.129; 1532.375;  123.125;    0.000
839.315; 1576.375;  181.125;    0.000
839.500; 1549.375;  150.125;    0.000
839.685; 1581.375;  109.125;    0.000
839.870; 1615.375;  202.125;    0.000
840.056; 1582.375;  101.125;    0.000
840.241; 1614.375;  184.125;    0.000
840.426; 1671.375;  192.125;    0.000
840.611; 1617.375;  180.125;    0.000
840.796; 1618.375;  156.125;    0.000
840.981; 1601.375;  142.125;    0.000
841.166; 1605.375;  161.125;    0.000
841.352; 1640.375;  185.125;    0.000
841.537; 1653.375;  139.125;    0.000
841.722; 1697.375;  143.125;    0.000
841.907; 1669.375;  140.125;    0.000
842.092; 1707.375;  176.125;    0.000
842.277; 1712.375;  136.125;    0.000
842.461; 1693.375;  155.125;    0.000
842.646; 1831.375;  163.125;    0.000
842.831; 1845.375;  153.125;    0.000
843.016; 1854.375;  187.125;    0.000
843.201; 1890.375;  179.125;    0.000
843.386; 1953.375;  167.125;    0.000
843.571; 1972.375;  129.125;    0.000
843.755; 2025.375;  136.125;    0.000
843.940; 2083.375;  121.125;    0.000
844.125; 2299.375;  157.125;    0.000
844.310; 2711.375;  175.125;    0.000
844.494; 3056.375;  164.125;    0.000
844.679; 3871.375;  167.125;    0.000
844.864; 3844.375;  166.125;    0.000
845.048; 3390.375;  132.125;    0.000
845.233; 2968.375;  175.125;    0.000
845.418; 2694.375;  159.125;    0.000
845.602; 2468.375;  147.125;    0.000
845.787; 2360.375;  132.125;    0.000
845.971; 2169.375;  187.125;    0.000
846.156; 2062.375;  141.125;    0.000
846.340; 2097.375;  153.125;    0.000
846.525; 1980.375;  157.125;    0.000
846.709; 1884.375;  117.125;    0.000
846.893; 1837.375;  147.125;    0.000
847.078; 1803.375;  170.125;    0.000
847.262; 1765.375;  150.125;    0.000
847.447; 1740.375;  132.125;    0.000
847.631; 1674.375;  144.125;    0.000
847.815; 1695.375;  157.125;    0.000
848.000; 1646.375;  164.125;    0.000
848.184; 1659.375;  174.125;    0.000
848.368; 1598.375;  149.125;    0.000
848.552; 1579.375;  143.125;    0.000
848.736; 1616.375;  132.125;    0.000
848.921; 1555.375;  147.125;    0.000
849.105; 1622.375;  150.125;    0.000
849.289; 1587.375;  146.125;    0.000
849.473; 1590.375;  167.125;    0.000
849.657; 1498.375;  149.125;    0.000
849.841; 1536.375;  181.125;    0.000
850.025; 1539.375;  154.125;    0.000
850.209; 1506.375;  152.125;    0.000
850.393; 1513.375;  139.125;    0.000
850.577; 1501.375;  128.125;    0.000
850.761; 1514.375;  194.125;    0.000
850.945; 1520.375;  152.125;    0.000
851.129; 1491.375;  157.125;    0.000
851.313; 1509.375;  181.125;    0.000
851.497; 1533.375;  145.125;    0.000
851.680; 1517.375;  168.125;    0.000
851.864; 1454.375;  185.125;    0.000
852.048; 1462.375;  170.125;    0.000
852.232; 1461.375;  192.125;    0.000
852.416; 1513.375;  182.125;    0.000
852.599; 1437.375;  169.125;    0.000
852.783; 1495.375;  168.125;    0.000
852.967; 1549.375;  184.125;    0.000
853.150; 1521.375;  163.125;    0.000
853.334; 1515.375;  164.125;    0.000
853.518; 1529.375;  190.125;    0.000
853.701; 1492.375;  137.125;    0.000
853.885; 1467.375;  177.125;    0.000
854.068; 1481.375;  163.125;    0.000
854.252; 1480.375;  139.125;    0.000
854.435; 1485.375;  152.125;    0.000
854.619; 1426.375;  148.125;    0.000
854.802; 1500.375;  168.125;    0.000
854.986; 1373.375;  157.125;    0.000
855.169; 1434.375;  147.125;    0.000
855.353; 1487.375;  173.125;    0.000
855.536; 1493.375;  127.125;    0.000
855.719; 1482.375;  191.125;    0.000
855.903; 1495.375;  186.125;    0.000
856.086; 1451.375;  145.125;    0.000
856.269; 1484.375;  130.125;    0.000
856.452; 1507.375;  153.125;    0.000
856.636; 1431.375;  129.125;    0.000
856.819; 1554.375;  134.125;    0.000
857.002; 1528.375;  152.125;    0.000
857.185; 1568.375;  140.125;    0.000
857.368; 1484.375;  170.125;    0.000
857.552; 1476.375;  132.125;    0.000
857.735; 1549.375;  160.125;    0.000
857.918; 1512.375;  139.125;    0.000
858.101; 1480.375;  159.125;    0.000
858.284; 1496.375;  136.125;    0.000
858.467; 1546.375;  147.125;    0.000
858.650; 1547.375;  153.125;    0.000
858.833; 1472.375;  113.125;    0.000
859.016; 1544.375;  167.125;    0.000
859.199; 1604.375;  141.125;    0.000
859.382; 1667.375;  155.125;    0.000
859.564; 1744.375;  136.125;    0.000
859.747; 1740.375;  142.125;    0.000
859.930; 1600.375;  141.125;    0.000
860.113; 1698.375;  156.125;    0.000
860.296; 1670.375;  167.125;    0.000
860.478; 1644.375;  121.125;    0.000
860.661; 1656.375;  230.125;    0.000
860.844; 1686.375;  186.125;    0.000
861.027; 1619.375;  155.125;    0.000
861.209; 1611.375;  151.125;    0.000
861.392; 1614.375;  162.125;    0.000
861.575; 1592.375;  150.125;    0.000
861.757; 1689.375;  162.125;    0.000
861.940; 1608.375;  207.125;    0.000
862.122; 1616.375;  113.125;    0.000
862.305; 1653.375;  114.125;    0.000
862.487; 1730.375;  162.125;    0.000
862.670; 1755.375;  148.125;    0.000
862.852; 1912.375;  131.125;    0.000
863.035; 2142.375;  174.125;    0.000
863.217; 2163.375;  170.125;    0.000
863.400; 2071.375;  148.125;    0.000
863.582; 1956.375;  129.125;    0.000
863.764; 1884.375;  181.125;    0.000
863.947; 1855.375;  152.125;    0.000
864.129; 1890.375;  178.125;    0.000
864.311; 1918.375;  139.125;    0.000
864.493; 1788.375;  166.125;    0.000
864.676; 1834.375;  148.125;    0.000
864.858; 1796.375;  123.125;    0.000
865.040; 1847.375;  180.125;    0.000
865.222; 1839.375;  131.125;    0.000
865.404; 1780.375;  146.125;    0.000
865.587; 1943.375;  175.125;    0.000
865.769; 1902.375;  183.125;    0.000
865.951; 1870.375;  171.125;    0.000
866.133; 1932.375;  165.125;    0.000
866.315; 1900.375;  138.125;    0.000
866.497; 1930.375;  139.125;    0.000
866.679; 2015.375;  167.125;    0.000
866.861; 2001.375;  151.125;    0.000
867.043; 2148.375;  190.125;    0.000
867.225; 2296.375;  140.125;    0.000
867.407; 2323.375;  125.125;    0.000
867.589; 2594.375;  141.125;    0.000
867.770; 2927.375;  149.125;    0.000
867.952; 3536.375;  138.125;    0.000
868.134; 4222.375;  153.125;    0.000
868.316; 4362.375;  148.125;    0.000
868.498; 4299.375;  180.125;    0.000
868.679; 3824.375;  152.125;    0.000
868.861; 3426.375;  174.125;    0.000
869.043; 3095.375;  152.125;    0.000
869.224; 2849.375;  177.125;    0.000
869.406; 2604.375;  171.125;    0.000
869.588; 2548.375;  177.125;    0.000
869.769; 2373.375;  174.125;    0.000
869.951; 2410.375;  167.125;    0.000
870.132; 2247.375;  144.125;    0.000
870.314; 2442.375;  143.125;    0.000
870.495; 2564.375;  162.125;    0.000
870.677; 2407.375;  136.125;    0.000
870.858; 2293.375;  155.125;    0.000
871.040; 2414.375;  179.125;    0.000
871.221; 2511.375;  177.125;    0.000
871.403; 2386.375;  180.125;    0.000
871.584; 2414.375;  157.125;    0.000
871.765; 2595.375;  183.125;    0.000
871.947; 2643.375;  169.125;    0.000
872.128; 2324.375;  162.125;    0.000
872.309; 2185.375;  159.125;    0.000
872.491; 2071.375;  148.125;    0.000
872.672; 1990.375;  163.125;    0.000
872.853; 1884.375;  152.125;    0.000
873.034; 1892.375;  166.125;    0.000
873.215; 1857.375;  155.125;    0.000
873.396; 1722.375;  147.125;    0.000
873.578; 1695.375;  147.125;    0.000
873.759; 1676.375;  153.125;    0.000
873.940; 1678.375;  194.125;    0.000
874.121; 1611.375;  179.125;    0.000
874.302; 1631.375;  155.125;    0.000
874.483; 1590.375;  131.125;    0.000
874.664; 1564.375;  106.125;    0.000
874.845; 1587.375;  122.125;    0.000
875.026; 1602.375;  127.125;    0.000
875.207; 1608.375;  151.125;    0.000
875.388; 1567.375;  149.125;    0.000
875.568; 1572.375;  164.125;    0.000
875.749; 1536.375;  176.125;    0.000
875.930; 1521.375;  207.125;    0.000
876.111; 1518.375;  177.125;    0.000
876.292; 1530.375;  178.125;    0.000
876.472; 1544.375;  163.125;    0.000
876.653; 1486.375;  159.125;    0.000
876.834; 1509.375;  177.125;    0.000
877.015; 1535.375;  212.125;    0.000
877.195; 1523.375;  166.125;    0.000
877.376; 1478.375;  157.125;    0.000
877.556; 1483.375;  175.125;    0.000
877.737; 1537.375;  220.125;    0.000
877.918; 1400.375;  163.125;    0.000
878.098; 1468.375;  166.125;    0.000
878.279; 1459.375;  136.125;    0.000
878.459; 1444.375;  167.125;    0.000
878.640; 1491.375;  167.125;    0.000
878.820; 1400.375;  155.125;    0.000
879.000; 1436.375;  158.125;    0.000
879.181; 1416.375;  155.125;    0.000
879.361; 1384.375;  181.125;    0.000
879.542; 1386.375;  181.125;    0.000
879.722; 1456.375;  117.125;    0.000
879.902; 1434.375;  180.125;    0.000
880.083; 1450.375;  139.125;    0.000
880.263; 1478.375;  168.125;    0.000
880.443; 1585.375;  206.125;    0.000
880.623; 1684.375;  132.125;    0.000
880.803; 1895.375;  149.125;    0.000
880.984; 1631.375;  189.125;    0.000
881.164; 1541.375;  171.125;    0.000
881.344; 1487.375;  150.125;    0.000
881.524; 1512.375;  185.125;    0.000
881.704; 1546.375;  152.125;    0.000
881.884; 1542.375;  188.125;    0.000
882.064; 1551.375;  155.125;    0.000
882.244; 1642.375;  182.125;    0.000
882.424; 1600.375;  154.125;    0.000
882.604; 1443.375;  175.125;    0.000
882.784; 1535.375;  137.125;    0.000
882.964; 1528.375;  135.125;    0.000
883.144; 1471.375;  142.125;    0.000
883.324; 1496.375;  192.125;    0.000
883.504; 1486.375;  193.125;    0.000
883.683; 1444.375;  208.125;    0.000
883.863; 1402.375;  127.125;    0.000
884.043; 1432.375;  140.125;    0.000
884.223; 1422.375;  167.125;    0.000
884.402; 1475.375;  156.125;    0.000
884.582; 1330.375;  185.125;    0.000
884.762; 1421.375;  187.125;    0.000
884.941; 1370.375;  201.125;    0.000
885.121; 1401.375;  157.125;    0.000
885.301; 1500.375;  173.125;    0.000
885.480; 1355.375;  158.125;    0.000
885.660; 1391.375;  153.125;    0.000
885.839; 1453.375;  144.125;    0.000
886.019; 1447.375;  184.125;    0.000
886.198; 1368.375;  132.125;    0.000
886.378; 1350.375;  124.125;    0.000
886.557; 1424.375;  146.125;    0.000
886.737; 1441.375;  157.125;    0.000
886.916; 1396.375;  203.125;    0.000
887.095; 1336.375;  151.125;    0.000
887.275; 1423.375;  143.125;    0.000
887.454; 1374.375;  140.125;    0.000
887.633; 1399.375;  196.125;    0.000
887.813; 1354.375;  161.125;    0.000
887.992; 1370.375;  183.125;    0.000
888.171; 1290.375;  153.125;    0.000
888.350; 1381.375;  185.125;    0.000
888.530; 1362.375;  163.125;    0.000
888.709; 1307.375;  174.125;    0.000
888.888; 1325.375;  179.125;    0.000
889.067; 1367.375;  178.125;    0.000
889.246; 1425.375;  184.125;    0.000
889.425; 1441.375;  169.125;    0.000
889.604; 1422.375;  210.125;    0.000
889.783; 1389.375;  183.125;    0.000
889.962; 1348.375;  116.125;    0.000
890.141; 1431.375;  179.125;    0.000
890.320; 1327.375;  182.125;    0.000
890.499; 1363.375;  188.125;    0.000
890.678; 1289.375;  167.125;    0.000
890.857; 1338.375;  141.125;    0.000
891.036; 1364.375;  179.125;    0.000
891.214; 1322.375;  156.125;    0.000
891.393; 1362.375;  209.125;    0.000
891.572; 1327.375;  181.125;    0.000
891.751; 1377.375;  172.125;    0.000
891.930; 1336.375;  169.125;    0.000
892.108; 1377.375;  131.125;    0.000
892.287; 1379.375;  162.125;    0.000
892.466; 1404.375;  178.125;    0.000
892.644; 1337.375;  161.125;    0.000
892.823; 1396.375;  180.125;    0.000
893.001; 1337.375;  179.125;    0.000
893.180; 1370.375;  152.125;    0.000
893.359; 1424.375;  184.125;    0.000
893.537; 1353.375;  178.125;    0.000
893.716; 1372.375;  169.125;    0.000
893.894; 1373.375;  159.125;    0.000
894.073; 1417.375;  179.125;    0.000
894.251; 1378.375;  167.125;    0.000
894.429; 1387.375;  142.125;    0.000
894.608; 1382.375;  166.125;    0.000
894.786; 1409.375;  153.125;    0.000
894.964; 1355.375;  181.125;    0.000
895.143; 1363.375;  161.125;    0.000
895.321; 1376.375;  198.125;    0.000
895.499; 1327.375;  184.125;    0.000
895.677; 1399.375;  178.125;    0.000
895.856; 1442.375;  226.125;    0.000
896.034; 1450.375;  180.125;    0.000
896.212; 1482.375;  200.125;    0.000
896.390; 1328.375;  161.125;    0.000
896.568; 1480.375;  204.125;    0.000
896.746; 1367.375;  136.125;    0.000
896.924; 1381.375;  171.125;    0.000
897.102; 1443.375;  203.125;    0.000
897.280; 1380.375;  142.125;    0.000
897.458; 1364.375;  159.125;    0.000
897.636; 1402.375;  163.125;    0.000
897.814; 1457.375;  137.125;    0.000
897.992; 1492.375;  199.125;    0.000
898.170; 1394.375;  176.125;    0.000
898.348; 1470.375;  195.125;    0.000
898.526; 1391.375;  199.125;    0.000
898.704; 1467.375;  260.125;    0.000
898.882; 1440.375;  185.125;    0.000
899.059; 1401.375;  169.125;    0.000
899.237; 1369.375;  197.125;    0.000
899.415; 1472.375;  207.125;    0.000
899.593; 1416.375;  169.125;    0.000
899.770; 1374.375;  182.125;    0.000
899.948; 1429.375;  198.125;    0.000
900.125; 1445.375;  200.125;    0.000
900.303; 1414.375;  165.125;    0.000
900.481; 1422.375;  182.125;    0.000
900.658; 1521.375;  206.125;    0.000
900.836; 1441.375;  188.125;    0.000
901.013; 1483.375;  169.125;    0.000
901.191; 1455.375;  172.125;    0.000
901.368; 1481.375;  170.125;    0.000
901.546; 1501.375;  234.125;    0.000
901.723; 1517.375;  173.125;    0.000
901.901; 1484.375;  190.125;    0.000
902.078; 1476.375;  145.125;    0.000
902.255; 1551.375;  204.125;    0.000
902.433; 1515.375;  198.125;    0.000
902.610; 1577.375;  190.125;    0.000
902.787; 1510.375;  204.125;    0.000
902.964; 1562.375;  208.125;    0.000
903.142; 1550.375;  187.125;    0.000
903.319; 1632.375;  216.125;    0.000
903.496; 1529.375;  186.125;    0.000
903.673; 1611.375;  201.125;    0.000
903.850; 1629.375;  195.125;    0.000
904.027; 1633.375;  211.125;    0.000
904.204; 1656.375;  197.125;    0.000
904.381; 1711.375;  198.125;    0.000
904.558; 1796.375;  188.125;    0.000
904.735; 1963.375;  207.125;    0.000
904.912; 1905.375;  217.125;    0.000
905.089; 1962.375;  188.125;    0.000
905.266; 1836.375;  160.125;    0.000
905.443; 1862.375;  221.125;    0.000
905.620; 1806.375;  163.125;    0.000
905.797; 1741.375;  186.125;    0.000
905.974; 1721.375;  205.125;    0.000
906.151; 1714.375;  159.125;    0.000
906.327; 1791.375;  206.125;    0.000
906.504; 1761.375;  201.125;    0.000
906.681; 1693.375;  202.125;    0.000
906.858; 1625.375;  188.125;    0.000
907.034; 1643.375;  207.125;    0.000
907.211; 1658.375;  182.125;    0.000
907.388; 1619.375;  184.125;    0.000
907.564; 1573.375;  148.125;    0.000
907.741; 1537.375;  181.125;    0.000
907.917; 1600.375;  191.125;    0.000
908.094; 1591.375;  210.125;    0.000
908.271; 1490.375;  171.125;    0.000
908.447; 1569.375;  241.125;    0.000
908.623; 1583.375;  188.125;    0.000
908.800; 1522.375;  205.125;    0.000
908.976; 1562.375;  210.125;    0.000
909.153; 1551.375;  193.125;    0.000
909.329; 1503.375;  206.125;    0.000
909.505; 1532.375;  181.125;    0.000
909.682; 1481.375;  192.125;    0.000
909.858; 1483.375;  134.125;    0.000
910.034; 1524.375;  214.125;    0.000
910.211; 1514.375;  182.125;    0.000
910.387; 1576.375;  194.125;    0.000
910.563; 1483.375;  199.125;    0.000
910.739; 1510.375;  188.125;    0.000
910.915; 1534.375;  192.125;    0.000
911.091; 1615.375;  198.125;    0.000
911.268; 1526.375;  178.125;    0.000
911.444; 1466.375;  201.125;    0.000
911.620; 1451.375;  181.125;    0.000
911.796; 1567.375;  185.125;    0.000
911.972; 1506.375;  176.125;    0.000
912.148; 1563.375;  196.125;    0.000
912.324; 1457.375;  192.125;    0.000
912.500; 1504.375;  204.125;    0.000
912.676; 1448.375;  164.125;    0.000
912.851; 1503.375;  193.125;    0.000
913.027; 1508.375;  175.125;    0.000
913.203; 1521.375;  193.125;    0.000
913.379; 1454.375;  213.125;    0.000
913.555; 1466.375;  211.125;    0.000
913.730; 1496.375;  194.125;    0.000
913.906; 1500.375;  153.125;    0.000
914.082; 1483.375;  212.125;    0.000
914.258; 1503.375;  194.125;    0.000
914.433; 1467.375;  191.125;    0.000
914.609; 1404.375;  208.125;    0.000
914.784; 1454.375;  176.125;    0.000
914.960; 1484.375;  227.125;    0.000
915.136; 1408.375;  152.125;    0.000
915.311; 1472.375;  171.125;    0.000
915.487; 1432.375;  173.125;    0.000
915.662; 1537.375;  189.125;    0.000
915.838; 1452.375;  179.125;    0.000
916.013; 1492.375;  191.125;    0.000
916.189; 1554.375;  207.125;    0.000
916.364; 1486.375;  194.125;    0.000
916.539; 1527.375;  174.125;    0.000
916.715; 1514.375;  207.125;    0.000
916.890; 1568.375;  193.125;    0.000
917.065; 1461.375;  199.125;    0.000
917.240; 1509.375;  214.125;    0.000
917.416; 1490.375;  194.125;    0.000
917.591; 1509.375;  213.125;    0.000
917.766; 1546.375;  194.125;    0.000
917.941; 1529.375;  201.125;    0.000
918.116; 1435.375;  198.125;    0.000
918.292; 1503.375;  176.125;    0.000
918.467; 1567.375;  190.125;    0.000
918.642; 1497.375;  200.125;    0.000
918.817; 1591.375;  186.125;    0.000
918.992; 1488.375;  174.125;    0.000
919.167; 1550.375;  197.125;    0.000
919.342; 1488.375;  188.125;    0.000
919.517; 1521.375;  179.125;    0.000
919.692; 1560.375;  182.125;    0.000
919.867; 1536.375;  216.125;    0.000
920.041; 1527.375;  208.125;    0.000
920.216; 1534.375;  223.125;    0.000
920.391; 1627.375;  203.125;    0.000
920.566; 1580.375;  202.125;    0.000
920.741; 1614.375;  197.125;    0.000
920.915; 1618.375;  223.125;    0.000
921.090; 1631.375;  183.125;    0.000
921.265; 1718.375;  169.125;    0.000
921.439; 1844.375;  212.125;    0.000
921.614; 1727.375;  190.125;    0.000
921.789; 1707.375;  177.125;    0.000
921.963; 1694.375;  233.125;    0.000
922.138; 1633.375;  156.125;    0.000
922.312; 1650.375;  193.125;    0.000
922.487; 1650.375;  208.125;    0.000
922.661; 1688.375;  212.125;    0.000
922.836; 1687.375;  210.125;    0.000
923.010; 1703.375;  183.125;    0.000
923.185; 1667.375;  228.125;    0.000
923.359; 1677.375;  227.125;    0.000
923.534; 1678.375;  189.125;    0.000
923.708; 1752.375;  210.125;    0.000
923.882; 1754.375;  217.125;    0.000
924.057; 1678.375;  195.125;    0.000
924.231; 1723.375;  201.125;    0.000
924.405; 1771.375;  188.125;    0.000
924.579; 1692.375;  188.125;    0.000
924.753; 1713.375;  174.125;    0.000
924.928; 1671.375;  179.125;    0.000
925.102; 1624.375;  186.125;    0.000
925.276; 1654.375;  201.125;    0.000
925.450; 1664.375;  211.125;    0.000
925.624; 1593.375;  238.125;    0.000
925.798; 1706.375;  191.125;    0.000
925.972; 1654.375;  192.125;    0.000
926.146; 1757.375;  198.125;    0.000
926.320; 1808.375;  151.125;    0.000
926.494; 1841.375;  202.125;    0.000
926.668; 1921.375;  197.125;    0.000
926.842; 1885.375;  177.125;    0.000
927.016; 1927.375;  202.125;    0.000
927.190; 1950.375;  207.125;    0.000
927.363; 1861.375;  180.125;    0.000
927.537; 1863.375;  212.125;    0.000
927.711; 1767.375;  148.125;    0.000
927.885; 1800.375;  196.125;    0.000
928.058; 1763.375;  173.125;    0.000
928.232; 1797.375;  219.125;    0.000
928.406; 1714.375;  141.125;    0.000
928.579; 1798.375;  157.125;    0.000
928.753; 1768.375;  205.125;    0.000
928.927; 1760.375;  196.125;    0.000
929.100; 1759.375;  237.125;    0.000
929.274; 1719.375;  166.125;    0.000
929.447; 1653.375;  150.125;    0.000
929.621; 1624.375;  188.125;    0.000
929.794; 1694.375;  169.125;    0.000
929.968; 1752.375;  194.125;    0.000
930.141; 1698.375;  226.125;    0.000
930.315; 1699.375;  196.125;    0.000
930.488; 1684.375;  233.125;    0.000
930.661; 1661.375;  188.125;    0.000
930.835; 1674.375;  170.125;    0.000
931.008; 1647.375;  176.125;    0.000
931.181; 1620.375;  175.125;    0.000
931.354; 1648.375;  212.125;    0.000
931.528; 1641.375;  177.125;    0.000
931.701; 1625.375;  218.125;    0.000
931.874; 1576.375;  175.125;    0.000
932.047; 1534.375;  157.125;    0.000
932.220; 1526.375;  187.125;    0.000
932.393; 1561.375;  166.125;    0.000
932.566; 1501.375;  168.125;    0.000
932.739; 1578.375;  203.125;    0.000
932.912; 1537.375;  202.125;    0.000
933.085; 1499.375;  209.125;    0.000
933.258; 1461.375;  196.125;    0.000
933.431; 1591.375;  207.125;    0.000
933.604; 1557.375;  201.125;    0.000
933.777; 1537.375;  202.125;    0.000
933.950; 1566.375;  184.125;    0.000
934.123; 1565.375;  167.125;    0.000
934.296; 1596.375;  209.125;    0.000
934.468; 1615.375;  216.125;    0.000
934.641; 1561.375;  156.125;    0.000
934.814; 1603.375;  215.125;    0.000
934.987; 1593.375;  201.125;    0.000
935.159; 1590.375;  176.125;    0.000
935.332; 1666.375;  203.125;    0.000
935.505; 1645.375;  163.125;    0.000
935.677; 1556.375;  169.125;    0.000
935.850; 1639.375;  178.125;    0.000
936.022; 1511.375;  187.125;    0.000
936.195; 1613.375;  207.125;    0.000
936.367; 1567.375;  191.125;    0.000
936.540; 1640.375;  214.125;    0.000
936.712; 1588.375;  202.125;    0.000
936.885; 1570.375;  195.125;    0.000
937.057; 1595.375;  173.125;    0.000
937.229; 1558.375;  179.125;    0.000
937.402; 1602.375;  174.125;    0.000
937.574; 1596.375;  140.125;    0.000
937.746; 1641.375;  153.125;    0.000
937.919; 1656.375;  196.125;    0.000
938.091; 1677.375;  173.125;    0.000
938.263; 1653.375;  206.125;    0.000
938.435; 1744.375;  213.125;    0.000
938.608; 1903.375;  204.125;    0.000
938.780; 1942.375;  199.125;    0.000
938.952; 2091.375;  190.125;    0.000
939.124; 2017.375;  182.125;    0.000
939.296; 2188.375;  188.125;    0.000
939.468; 2194.375;  119.125;    0.000
939.640; 2009.375;  171.125;    0.000
939.812; 2150.375;  222.125;    0.000
939.984; 1893.375;  172.125;    0.000
940.156; 1908.375;  171.125;    0.000
940.328; 1859.375;  215.125;    0.000
940.500; 1785.375;  179.125;    0.000
940.672; 1825.375;  178.125;    0.000
940.843; 1747.375;  193.125;    0.000
941.015; 1710.375;  207.125;    0.000
941.187; 1676.375;  179.125;    0.000
941.359; 1771.375;  191.125;    0.000
941.531; 1659.375;  160.125;    0.000
941.702; 1714.375;  208.125;    0.000
941.874; 1673.375;  143.125;    0.000
942.046; 1704.375;  189.125;    0.000
942.217; 1596.375;  167.125;    0.000
942.389; 1622.375;  199.125;    0.000
942.560; 1543.375;  179.125;    0.000
942.732; 1611.375;  209.125;    0.000
942.904; 1626.375;  180.125;    0.000
943.075; 1542.375;  197.125;    0.000
943.247; 1577.375;  207.125;    0.000
943.418; 1556.375;  183.125;    0.000
943.589; 1502.375;  176.125;    0.000
943.761; 1587.375;  165.125;    0.000
943.932; 1585.375;  170.125;    0.000
944.104; 1593.375;  147.125;    0.000
944.275; 1516.375;  149.125;    0.000
944.446; 1617.375;  191.125;    0.000
944.617; 1500.375;  128.125;    0.000
944.789; 1507.375;  166.125;    0.000
944.960; 1577.375;  195.125;    0.000
945.131; 1532.375;  164.125;    0.000
945.302; 1581.375;  229.125;    0.000
945.473; 1534.375;  153.125;    0.000
945.645; 1542.375;  166.125;    0.000
945.816; 1611.375;  187.125;    0.000
945.987; 1602.375;  193.125;    0.000
946.158; 1635.375;  166.125;    0.000
946.329; 1675.375;  196.125;    0.000
946.500; 1571.375;  152.125;    0.000
946.671; 1644.375;  161.125;    0.000
946.842; 1553.375;  176.125;    0.000
947.013; 1566.375;  188.125;    0.000
947.183; 1554.375;  213.125;    0.000
947.354; 1500.375;  163.125;    0.000
947.525; 1526.375;  204.125;    0.000
947.696; 1477.375;  159.125;    0.000
947.867; 1563.375;  197.125;    0.000
948.037; 1523.375;  174.125;    0.000
948.208; 1532.375;  163.125;    0.000
948.379; 1521.375;  189.125;    0.000
948.550; 1535.375;  173.125;    0.000
948.720; 1580.375;  186.125;    0.000
948.891; 1524.375;  166.125;    0.000
949.061; 1522.375;  197.125;    0.000
949.232; 1471.375;  168.125;    0.000
949.403; 1478.375;  188.125;    0.000
949.573; 1490.375;  164.125;    0.000
949.744; 1524.375;  194.125;    0.000
949.914; 1489.375;  154.125;    0.000
950.085; 1528.375;  197.125;    0.000
950.255; 1533.375;  187.125;    0.000
950.425; 1507.375;  193.125;    0.000
950.596; 1518.375;  182.125;    0.000
950.766; 1593.375;  202.125;    0.000
950.936; 1550.375;  230.125;    0.000
951.107; 1441.375;  133.125;    0.000
951.277; 1516.375;  234.125;    0.000
951.447; 1579.375;  200.125;    0.000
951.617; 1547.375;  212.125;    0.000
951.788; 1553.375;  176.125;    0.000
951.958; 1573.375;  218.125;    0.000
952.128; 1558.375;  198.125;    0.000
952.298; 1524.375;  185.125;    0.000
952.468; 1556.375;  231.125;    0.000
952.638; 1473.375;  213.125;    0.000
952.808; 1521.375;  218.125;    0.000
952.978; 1519.375;  252.125;    0.000
953.148; 1526.375;  200.125;    0.000
953.318; 1496.375;  243.125;    0.000
953.488; 1471.375;  140.125;    0.000
953.658; 1547.375;  208.125;    0.000
953.828; 1462.375;  179.125;    0.000
953.998; 1537.375;  211.125;    0.000
954.167; 1522.375;  197.125;    0.000
954.337; 1454.375;  217.125;    0.000
954.507; 1472.375;  219.125;    0.000
954.677; 1513.375;  201.125;    0.000
954.846; 1543.375;  241.125;    0.000
955.016; 1549.375;  222.125;    0.000
955.186; 1553.375;  200.125;    0.000
955.355; 1550.375;  247.125;    0.000
955.525; 1517.375;  212.125;    0.000
955.695; 1530.375;  200.125;    0.000
955.864; 1545.375;  196.125;    0.000
956.034; 1485.375;  195.125;    0.000
956.203; 1613.375;  243.125;    0.000
956.373; 1495.375;  197.125;    0.000
956.542; 1501.375;  237.125;    0.000
956.711; 1503.375;  249.125;    0.000
956.881; 1587.375;  235.125;    0.000
957.050; 1597.375;  259.125;    0.000
957.220; 1448.375;  234.125;    0.000
957.389; 1485.375;  250.125;    0.000
957.558; 1474.375;  214.125;    0.000
957.727; 1530.375;  225.125;    0.000
957.897; 1585.375;  211.125;    0.000
958.066; 1520.375;  200.125;    0.000
958.235; 1485.375;  202.125;    0.000
958.404; 1443.375;  242.125;    0.000
958.573; 1585.375;  222.125;    0.000
958.743; 1505.375;  191.125;    0.000
958.912; 1492.375;  183.125;    0.000
959.081; 1469.375;  212.125;    0.000
959.250; 1432.375;  192.125;    0.000
959.419; 1555.375;  238.125;    0.000
959.588; 1511.375;  205.125;    0.000
959.757; 1496.375;  213.125;    0.000
959.926; 1483.375;  217.125;    0.000
960.094; 1466.375;  215.125;    0.000
960.263; 1544.375;  220.125;    0.000
960.432; 1442.375;  164.125;    0.000
960.601; 1400.375;  228.125;    0.000
960.770; 1412.375;  176.125;    0.000
960.939; 1451.375;  201.125;    0.000
961.107; 1554.375;  183.125;    0.000
961.276; 1439.375;  199.125;    0.000
961.445; 1490.375;  205.125;    0.000
961.613; 1384.375;  183.125;    0.000
961.782; 1470.375;  216.125;    0.000
961.951; 1423.375;  169.125;    0.000
962.119; 1446.375;  211.125;    0.000
962.288; 1473.375;  204.125;    0.000
962.456; 1536.375;  187.125;    0.000
962.625; 1443.375;  223.125;    0.000
962.793; 1444.375;  200.125;    0.000
962.962; 1517.375;  185.125;    0.000
963.130; 1451.375;  195.125;    0.000
963.298; 1566.375;  187.125;    0.000
963.467; 1528.375;  247.125;    0.000
963.635; 1556.375;  165.125;    0.000
963.803; 1569.375;  192.125;    0.000
963.972; 1524.375;  191.125;    0.000
964.140; 1481.375;  163.125;    0.000
964.308; 1462.375;  161.125;    0.000
964.477; 1500.375;  182.125;    0.000
964.645; 1457.375;  195.125;    0.000
964.813; 1506.375;  165.125;    0.000
964.981; 1499.375;  193.125;    0.000
965.149; 1545.375;  174.125;    0.000
965.317; 1466.375;  194.125;    0.000
965.485; 1529.375;  209.125;    0.000
965.653; 1569.375;  210.125;    0.000
965.821; 1406.375;  194.125;    0.000
965.989; 1495.375;  182.125;    0.000
966.157; 1523.375;  180.125;    0.000
966.325; 1477.375;  198.125;    0.000
966.493; 1461.375;  182.125;    0.000
966.661; 1453.375;  200.125;    0.000
966.829; 1456.375;  190.125;    0.000
966.996; 1510.375;  221.125;    0.000
967.164; 1505.375;  176.125;    0.000
967.332; 1531.375;  228.125;    0.000
967.500; 1411.375;  177.125;    0.000
967.667; 1480.375;  202.125;    0.000
967.835; 1513.375;  220.125;    0.000
968.003; 1511.375;  183.125;    0.000
968.170; 1524.375;  163.125;    0.000
968.338; 1484.375;  162.125;    0.000
968.505; 1524.375;  198.125;    0.000
968.673; 1543.375;  213.125;    0.000
968.841; 1424.375;  131.125;    0.000
969.008; 1512.375;  225.125;    0.000
969.175; 1550.375;  202.125;    0.000
969.343; 1516.375;  222.125;    0.000
969.510; 1528.375;  230.125;    0.000
969.678; 1554.375;  161.125;    0.000
969.845; 1482.375;  208.125;    0.000
970.012; 1475.375;  186.125;    0.000
970.180; 1558.375;  226.125;    0.000
970.347; 1562.375;  222.125;    0.000
970.514; 1493.375;  206.125;    0.000
970.681; 1543.375;  173.125;    0.000
970.849; 1564.375;  190.125;    0.000
971.016; 1547.375;  220.125;    0.000
971.183; 1597.375;  202.125;    0.000
971.350; 1645.375;  196.125;    0.000
971.517; 1602.375;  218.125;    0.000
971.684; 1600.375;  228.125;    0.000
971.851; 1516.375;  235.125;    0.000
972.018; 1557.375;  200.125;    0.000
972.185; 1459.375;  183.125;    0.000
972.352; 1551.375;  216.125;    0.000
972.519; 1548.375;  227.125;    0.000
972.686; 1612.375;  209.125;    0.000
972.853; 1561.375;  157.125;    0.000
973.020; 1496.375;  179.125;    0.000
973.186; 1536.375;  173.125;    0.000
973.353; 1548.375;  189.125;    0.000
973.520; 1562.375;  228.125;    0.000
973.687; 1583.375;  190.125;    0.000
973.853; 1580.375;  197.125;    0.000
974.020; 1588.375;  208.125;    0.000
974.187; 1602.375;  158.125;    0.000
974.353; 1561.375;  201.125;    0.000
974.520; 1598.375;  158.125;    0.000
974.687; 1618.375;  192.125;    0.000
974.853; 1522.375;  177.125;    0.000
975.020; 1525.375;  212.125;    0.000
975.186; 1473.375;  200.125;    0.000
975.353; 1549.375;  208.125;    0.000
975.519; 1609.375;  169.125;    0.000
975.685; 1547.375;  176.125;    0.000
975.852; 1555.375;  201.125;    0.000
976.018; 1591.375;  209.125;    0.000
976.184; 1541.375;  197.125;    0.000
976.351; 1599.375;  196.125;    0.000
976.517; 1590.375;  243.125;    0.000
976.683; 1524.375;  210.125;    0.000
976.849; 1496.375;  226.125;    0.000
977.016; 1537.375;  218.125;    0.000
977.182; 1470.375;  213.125;    0.000
977.348; 1479.375;  205.125;    0.000
977.514; 1492.375;  210.125;    0.000
977.680; 1578.375;  226.125;    0.000
977.846; 1477.375;  206.125;    0.000
978.012; 1525.375;  222.125;    0.000
978.178; 1486.375;  216.125;    0.000
978.344; 1516.375;  172.125;    0.000
978.510; 1551.375;  210.125;    0.000
978.676; 1459.375;  184.125;    0.000
978.842; 1507.375;  190.125;    0.000
979.008; 1555.375;  203.125;    0.000
979.174; 1600.375;  211.125;    0.000
979.340; 1550.375;  190.125;    0.000
979.505; 1574.375;  235.125;    0.000
979.671; 1498.375;  182.125;    0.000
979.837; 1554.375;  235.125;    0.000
980.003; 1512.375;  183.125;    0.000
980.168; 1521.375;  220.125;    0.000
980.334; 1513.375;  161.125;    0.000
980.499; 1599.375;  212.125;    0.000
980.665; 1531.375;  219.125;    0.000
980.831; 1534.375;  201.125;    0.000
980.996; 1507.375;  189.125;    0.000
981.162; 1481.375;  222.125;    0.000
981.327; 1492.375;  173.125;    0.000
981.493; 1546.375;  197.125;    0.000
981.658; 1509.375;  178.125;    0.000
981.823; 1520.375;  196.125;    0.000
981.989; 1637.375;  248.125;    0.000
982.154; 1570.375;  222.125;    0.000
982.319; 1517.375;  226.125;    0.000
982.485; 1563.375;  188.125;    0.000
982.650; 1588.375;  203.125;    0.000
982.815; 1627.375;  237.125;    0.000
982.980; 1613.375;  210.125;    0.000
983.146; 1593.375;  202.125;    0.000
983.311; 1622.375;  195.125;    0.000
983.476; 1572.375;  207.125;    0.000
983.641; 1602.375;  198.125;    0.000
983.806; 1579.375;  136.125;    0.000
983.971; 1595.375;  248.125;    0.000
984.136; 1571.375;  213.125;    0.000
984.301; 1566.375;  181.125;    0.000
984.466; 1507.375;  210.125;    0.000
984.631; 1572.375;  219.125;    0.000
984.796; 1462.375;  207.125;    0.000
984.961; 1574.375;  214.125;    0.000
985.126; 1545.375;  218.125;    0.000
985.291; 1600.375;  214.125;    0.000
985.455; 1544.375;  187.125;    0.000
985.620; 1555.375;  191.125;    0.000
985.785; 1547.375;  190.125;    0.000
985.950; 1417.375;  184.125;    0.000
986.114; 1566.375;  242.125;    0.000
986.279; 1598.375;  251.125;    0.000
986.444; 1598.375;  177.125;    0.000
986.608; 1630.375;  216.125;    0.000
986.773; 1581.375;  211.125;    0.000
986.937; 1557.375;  244.125;    0.000
987.102; 1581.375;  187.125;    0.000
987.266; 1587.375;  178.125;    0.000
987.431; 1589.375;  205.125;    0.000
987.595; 1551.375;  221.125;    0.000
987.760; 1629.375;  205.125;    0.000
987.924; 1637.375;  195.125;    0.000
988.088; 1608.375;  184.125;    0.000
988.253; 1611.375;  188.125;    0.000
988.417; 1584.375;  196.125;    0.000
988.581; 1557.375;  218.125;    0.000
988.746; 1633.375;  203.125;    0.000
988.910; 1558.375;  195.125;    0.000
989.074; 1578.375;  187.125;    0.000
989.238; 1618.375;  243.125;    0.000
989.402; 1615.375;  242.125;    0.000
989.566; 1573.375;  205.125;    0.000
989.731; 1565.375;  195.125;    0.000
989.895; 1657.375;  211.125;    0.000
990.059; 1607.375;  175.125;    0.000
990.223; 1496.375;  176.125;    0.000
990.387; 1651.375;  234.125;    0.000
990.551; 1635.375;  231.125;    0.000
990.714; 1591.375;  209.125;    0.000
990.878; 1590.375;  187.125;    0.000
991.042; 1588.375;  183.125;    0.000
991.206; 1594.375;  216.125;    0.000
991.370; 1562.375;  257.125;    0.000
991.534; 1572.375;  188.125;    0.000
991.697; 1635.375;  203.125;    0.000
991.861; 1630.375;  219.125;    0.000
992.025; 1593.375;  221.125;    0.000
992.188; 1565.375;  188.125;    0.000
992.352; 1582.375;  205.125;    0.000
992.516; 1586.375;  189.125;    0.000
992.679; 1655.375;  207.125;    0.000
992.843; 1635.375;  210.125;    0.000
993.006; 1569.375;  191.125;    0.000
993.170; 1699.375;  228.125;    0.000
993.333; 1587.375;  142.125;    0.000
993.497; 1586.375;  175.125;    0.000
993.660; 1622.375;  220.125;    0.000
993.824; 1621.375;  193.125;    0.000
993.987; 1598.375;  219.125;    0.000
994.150; 1560.375;  166.125;    0.000
994.314; 1563.375;  207.125;    0.000
994.477; 1589.375;  227.125;    0.000
994.640; 1595.375;  210.125;    0.000
994.803; 1653.375;  219.125;    0.000
994.967; 1628.375;  192.125;    0.000
995.130; 1672.375;  197.125;    0.000
995.293; 1549.375;  189.125;    0.000
995.456; 1588.375;  180.125;    0.000
995.619; 1645.375;  239.125;    0.000
995.782; 1566.375;  209.125;    0.000
995.945; 1684.375;  216.125;    0.000
996.108; 1591.375;  198.125;    0.000
996.271; 1650.375;  205.125;    0.000
996.434; 1653.375;  205.125;    0.000
996.597; 1571.375;  208.125;    0.000
996.760; 1580.375;  205.125;    0.000
996.923; 1620.375;  174.125;    0.000
997.086; 1587.375;  198.125;    0.000
997.248; 1625.375;  214.125;    0.000
997.411; 1570.375;  237.125;    0.000
997.574; 1580.375;  182.125;    0.000
997.737; 1570.375;  188.125;    0.000
997.899; 1630.375;  216.125;    0.000
998.062; 1695.375;  210.125;    0.000
998.225; 1619.375;  202.125;    0.000
998.387; 1638.375;  202.125;    0.000
998.550; 1537.375;  193.125;    0.000
998.712; 1599.375;  225.125;    0.000
998.875; 1624.375;  228.125;    0.000
999.037; 1600.375;  186.125;    0.000
999.200; 1601.375;  212.125;    0.000
999.362; 1615.375;  234.125;    0.000
999.525; 1608.375;  170.125;    0.000
999.687; 1654.375;  191.125;    0.000
999.849; 1680.375;  218.125;    0.000
1000.012; 1637.375;  187.125;    0.000
1000.174; 1600.375;  216.125;    0.000
1000.336; 1594.375;  194.125;    0.000
1000.499; 1673.375;  209.125;    0.000
1000.661; 1696.375;  208.125;    0.000
1000.823; 1717.375;  197.125;    0.000
1000.985; 1710.375;  201.125;    0.000
1001.147; 1795.375;  234.125;    0.000
1001.309; 1803.375;  180.125;    0.000
1001.471; 1712.375;  223.125;    0.000
1001.633; 1855.375;  198.125;    0.000
1001.796; 1773.375;  200.125;    0.000
1001.958; 1680.375;  204.125;    0.000
1002.119; 1750.375;  193.125;    0.000
1002.281; 1884.375;  205.125;    0.000
1002.443; 1910.375;  236.125;    0.000
1002.605; 2029.375;  197.125;    0.000
1002.767; 2202.375;  223.125;    0.000
1002.929; 2255.375;  220.125;    0.000
1003.091; 2456.375;  214.125;    0.000
1003.252; 2503.375;  233.125;    0.000
1003.414; 2619.375;  230.125;    0.000
1003.576; 2797.375;  203.125;    0.000
1003.738; 2910.375;  201.125;    0.000
1003.899; 3050.375;  222.125;    0.000
1004.061; 3208.375;  208.125;    0.000
1004.222; 3300.375;  194.125;    0.000
1004.384; 3611.375;  205.125;    0.000
1004.546; 3575.375;  162.125;    0.000
1004.707; 3731.375;  232.125;    0.000
1004.869; 3682.375;  223.125;    0.000
1005.030; 3646.375;  204.125;    0.000
1005.191; 3648.375;  214.125;    0.000
1005.353; 3470.375;  226.125;    0.000
1005.514; 3408.375;  201.125;    0.000
1005.675; 3197.375;  205.125;    0.000
1005.837; 3129.375;  235.125;    0.000
1005.998; 2950.375;  210.125;    0.000
1006.159; 2867.375;  214.125;    0.000
1006.321; 2918.375;  236.125;    0.000
1006.482; 3001.375;  214.125;    0.000
1006.643; 3085.375;  213.125;    0.000
1006.804; 3077.375;  204.125;    0.000
1006.965; 3336.375;  212.125;    0.000
1007.126; 3401.375;  251.125;    0.000
1007.287; 3525.375;  238.125;    0.000
1007.448; 3409.375;  198.125;    0.000
1007.609; 3337.375;  241.125;    0.000
1007.770; 3126.375;  213.125;    0.000
1007.931; 3261.375;  225.125;    0.000
1008.092; 3267.375;  204.125;    0.000
1008.253; 3311.375;  220.125;    0.000
1008.414; 3349.375;  180.125;    0.000
1008.575; 3517.375;  224.125;    0.000
1008.736; 3379.375;  164.125;    0.000
1008.896; 3428.375;  247.125;    0.000
1009.057; 3502.375;  263.125;    0.000
1009.218; 3329.375;  233.125;    0.000
1009.379; 3211.375;  207.125;    0.000
1009.539; 3402.375;  221.125;    0.000
1009.700; 3490.375;  209.125;    0.000
1009.860; 3511.375;  217.125;    0.000
1010.021; 3527.375;  182.125;    0.000
1010.182; 3398.375;  233.125;    0.000
1010.342; 3239.375;  210.125;    0.000
1010.503; 3425.375;  232.125;    0.000
1010.663; 3476.375;  228.125;    0.000
1010.823; 3500.375;  212.125;    0.000
1010.984; 3453.375;  244.125;    0.000
1011.144; 3492.375;  200.125;    0.000
1011.305; 3455.375;  237.125;    0.000
1011.465; 3620.375;  225.125;    0.000
1011.625; 3666.375;  215.125;    0.000
1011.785; 3697.375;  235.125;    0.000
1011.946; 3732.375;  231.125;    0.000
1012.106; 3650.375;  206.125;    0.000
1012.266; 3732.375;  218.125;    0.000
1012.426; 3769.375;  249.125;    0.000
1012.586; 3811.375;  217.125;    0.000
1012.746; 3678.375;  231.125;    0.000
1012.906; 3795.375;  230.125;    0.000
1013.066; 3772.375;  260.125;    0.000
1013.226; 3739.375;  206.125;    0.000
1013.386; 3812.375;  220.125;    0.000
1013.546; 3761.375;  233.125;    0.000
1013.706; 3676.375;  194.125;    0.000
1013.866; 3784.375;  209.125;    0.000
1014.026; 3850.375;  204.125;    0.000
1014.186; 3806.375;  203.125;    0.000
1014.346; 3743.375;  244.125;    0.000
1014.505; 3952.375;  206.125;    0.000
1014.665; 4084.375;  210.125;    0.000
1014.825; 3999.375;  235.125;    0.000
1014.985; 3889.375;  227.125;    0.000
1015.144; 4286.375;  237.125;    0.000
1015.304; 4446.375;  196.125;    0.000
1015.464; 4336.375;  228.125;    0.000
1015.623; 4240.375;  235.125;    0.000
1015.783; 4921.375;  187.125;    0.000
1015.942; 5337.375;  184.125;    0.000
1016.102; 5101.375;  245.125;    0.000
1016.261; 4966.375;  203.125;    0.000
1016.420; 5490.375;  209.125;    0.000
1016.580; 6411.375;  235.125;    0.000
1016.739; 6093.375;  175.125;    0.000
1016.899; 5807.375;  220.125;    0.000
1017.058; 6129.375;  219.125;    0.000
1017.217; 6743.375;  238.125;    0.000
1017.376; 6304.375;  235.125;    0.000
1017.536; 5543.375;  195.125;    0.000
1017.695; 5754.375;  215.125;    0.000
1017.854; 5983.375;  231.125;    0.000
1018.013; 5838.375;  184.125;    0.000
1018.172; 5378.375;  179.125;    0.000
1018.331; 5136.375;  205.125;    0.000
1018.490; 5617.375;  203.125;    0.000
1018.649; 6086.375;  261.125;    0.000
1018.808; 6373.375;  253.125;    0.000
1018.967; 6181.375;  201.125;    0.000
1019.126; 6306.375;  216.125;    0.000
1019.285; 6687.375;  169.125;    0.000
1019.444; 6453.375;  226.125;    0.000
1019.603; 6173.375;  252.125;    0.000
1019.762; 5819.375;  206.125;    0.000
1019.921; 6035.375;  235.125;    0.000
1020.079; 6482.375;  192.125;    0.000
1020.238; 6879.375;  226.125;    0.000
1020.397; 6461.375;  231.125;    0.000
1020.555; 5946.375;  218.125;    0.000
1020.714; 6286.375;  235.125;    0.000
1020.873; 6807.375;  229.125;    0.000
1021.031; 6882.375;  234.125;    0.000
1021.190; 6441.375;  223.125;    0.000
1021.348; 6223.375;  186.125;    0.000
1021.507; 6901.375;  201.125;    0.000
1021.665; 7592.375;  222.125;    0.000
1021.824; 6947.375;  208.125;    0.000
1021.982; 6251.375;  209.125;    0.000
1022.141; 6340.375;  224.125;    0.000
1022.299; 7241.375;  214.125;    0.000
1022.457; 7748.375;  176.125;    0.000
1022.616; 7040.375;  211.125;    0.000
1022.774; 6162.375;  218.125;    0.000
1022.932; 6484.375;  205.125;    0.000
1023.090; 7911.375;  246.125;    0.000
1023.249; 8164.375;  249.125;    0.000
1023.407; 7302.375;  235.125;    0.000
1023.565; 6319.375;  202.125;    0.000
1023.723; 6716.375;  210.125;    0.000
1023.881; 7882.375;  206.125;    0.000
1024.039; 8232.375;  240.125;    0.000
1024.197; 7365.375;  275.125;    0.000
1024.355; 6694.375;  228.125;    0.000
1024.513; 6636.375;  234.125;    0.000
1024.671; 7975.375;  222.125;    0.000
1024.829; 8292.375;  241.125;    0.000
1024.987; 7763.375;  209.125;    0.000
1025.145; 6517.375;  227.125;    0.000
1025.302; 6704.375;  208.125;    0.000
1025.460; 7542.375;  210.125;    0.000
1025.618; 8520.375;  192.125;    0.000
1025.776; 7938.375;  220.125;    0.000
1025.933; 6855.375;  223.125;    0.000
1026.091; 6860.375;  189.125;    0.000
1026.249; 7675.375;  210.125;    0.000
1026.406; 8524.375;  231.125;    0.000
1026.564; 8507.375;  247.125;    0.000
1026.721; 7806.375;  213.125;    0.000
1026.879; 7054.375;  208.125;    0.000
1027.036; 7760.375;  222.125;    0.000
1027.194; 8332.375;  253.125;    0.000
1027.351; 8932.375;  239.125;    0.000
1027.509; 8163.375;  232.125;    0.000
1027.666; 7465.375;  251.125;    0.000
1027.823; 7776.375;  212.125;    0.000
1027.981; 8248.375;  260.125;    0.000
1028.138; 8870.375;  263.125;    0.000
1028.295; 8418.375;  251.125;    0.000
1028.452; 7979.375;  249.125;    0.000
1028.609; 7846.375;  259.125;    0.000
1028.767; 8132.375;  255.125;    0.000
1028.924; 8753.375;  201.125;    0.000
1029.081; 8509.375;  217.125;    0.000
1029.238; 8446.375;  230.125;    0.000
1029.395; 8213.375;  263.125;    0.000
1029.552; 8188.375;  207.125;    0.000
1029.709; 8873.375;  220.125;    0.000
1029.866; 8795.375;  214.125;    0.000
1030.023; 8763.375;  224.125;    0.000
1030.180; 7849.375;  209.125;    0.000
1030.337; 8134.375;  269.125;    0.000
1030.494; 8515.375;  207.125;    0.000
1030.650; 9018.375;  230.125;    0.000
1030.807; 9326.375;  217.125;    0.000
1030.964; 8539.375;  212.125;    0.000
1031.121; 8213.375;  220.125;    0.000
1031.277; 7956.375;  233.125;    0.000
1031.434; 8431.375;  266.125;    0.000
1031.591; 9267.375;  270.125;    0.000
1031.747; 9570.375;  229.125;    0.000
1031.904; 9199.375;  227.125;    0.000
1032.060; 8884.375;  210.125;    0.000
1032.217; 8350.375;  218.125;    0.000
1032.373; 9498.375;  190.125;    0.000
1032.530; 9743.375;  236.125;    0.000
1032.686;10774.375;  199.125;    0.000
1032.843;10980.375;  216.125;    0.000
1032.999; 9873.375;  204.125;    0.000
1033.155;10355.375;  208.125;    0.000
1033.312;10238.375;  231.125;    0.000
1033.468;12255.375;  213.125;    0.000
1033.624;13260.375;  235.125;    0.000
1033.780;13813.375;  233.125;    0.000
1033.937;13924.375;  201.125;    0.000
1034.093;12387.375;  233.125;    0.000
1034.249;12756.375;  214.125;    0.000
1034.405;12480.375;  245.125;    0.000
1034.561;13891.375;  228.125;    0.000
1034.717;15206.375;  234.125;    0.000
1034.873;14796.375;  248.125;    0.000
1035.029;14802.375;  220.125;    0.000
1035.185;13638.375;  294.125;    0.000
1035.341;12704.375;  231.125;    0.000
1035.497;14151.375;  254.125;    0.000
1035.653;14564.375;  225.125;    0.000
1035.809;16293.375;  243.125;    0.000
1035.964;17679.375;  216.125;    0.000
1036.120;16852.375;  199.125;    0.000
1036.276;16326.375;  220.125;    0.000
1036.432;16274.375;  210.125;    0.000
1036.587;14521.375;  225.125;    0.000
1036.743;15774.375;  245.125;    0.000
1036.899;17366.375;  219.125;    0.000
1037.054;17619.375;  157.125;    0.000
1037.210;19755.375;  208.125;    0.000
1037.365;20731.375;  230.125;    0.000
1037.521;18559.375;  236.125;    0.000
1037.676;18605.375;  193.125;    0.000
1037.832;16264.375;  246.125;    0.000
1037.987;16028.375;  231.125;    0.000
1038.143;16878.375;  234.125;    0.000
1038.298;20020.375;  219.125;    0.000
1038.453;20129.375;  230.125;    0.000
1038.609;21600.375;  254.125;    0.000
1038.764;22972.375;  249.125;    0.000
1038.919;19949.375;  224.125;    0.000
1039.074;19622.375;  209.125;    0.000
1039.229;18257.375;  214.125;    0.000
1039.385;17880.375;  268.125;    0.000
1039.540;19120.375;  268.125;    0.000
1039.695;21579.375;  229.125;    0.000
1039.850;22613.375;  252.125;    0.000
1040.005;24589.375;  248.125;    0.000
1040.160;26288.375;  215.125;    0.000
1040.315;24768.375;  239.125;    0.000
1040.470;23418.375;  210.125;    0.000
1040.625;22077.375;  239.125;    0.000
1040.780;20857.375;  251.125;    0.000
1040.935;21312.375;  247.125;    0.000
1041.089;22654.375;  215.125;    0.000
1041.244;26987.375;  210.125;    0.000
1041.399;26999.375;  237.125;    0.000
1041.554;29635.375;  253.125;    0.000
1041.708;32264.375;  227.125;    0.000
1041.863;31081.375;  219.125;    0.000
1042.018;29226.375;  246.125;    0.000
1042.172;28992.375;  236.125;    0.000
1042.327;27668.375;  272.125;    0.000
1042.481;27046.375;  197.125;    0.000
1042.636;27757.375;  213.125;    0.000
1042.791;28981.375;  250.125;    0.000
1042.945;34686.375;  267.125;    0.000
1043.099;37450.375;  257.125;    0.000
1043.254;35633.375;  206.125;    0.000
1043.408;40281.375;  266.125;    0.000
1043.563;39955.375;  232.125;    0.000
1043.717;39753.375;  241.125;    0.000
1043.871;37087.375;  248.125;    0.000
1044.025;34961.375;  234.125;    0.000
1044.180;33309.375;  222.125;    0.000
1044.334;34374.375;  235.125;    0.000
1044.488;34691.375;  270.125;    0.000
1044.642;38182.375;  215.125;    0.000
1044.796;40375.375;  212.125;    0.000
1044.950;45661.375;  228.125;    0.000
1045.104;49679.375;  223.125;    0.000
1045.258;50010.375;  236.125;    0.000
1045.412;48637.375;  225.125;    0.000
1045.566;47292.375;  245.125;    0.000
1045.720;45901.375;  201.125;    0.000
1045.874;43540.375;  229.125;    0.000
1046.028;41641.375;  243.125;    0.000
1046.182;39465.375;  212.125;    0.000
1046.336;40360.375;  256.125;    0.000
1046.489;42619.375;  234.125;    0.000
1046.643;44560.375;  246.125;    0.000
1046.797;47931.375;  219.125;    0.000
1046.951;47833.375;  231.125;    0.000
1047.104;47864.375;  285.125;    0.000
1047.258;50910.375;  256.125;    0.000
1047.411;55778.375;  232.125;    0.000
1047.565;55408.375;  269.125;    0.000
1047.719;53301.375;  213.125;    0.000
1047.872;52746.375;  210.125;    0.000
1048.026;50851.375;  251.125;    0.000
1048.179;49161.375;  213.125;    0.000
1048.332;47014.375;  212.125;    0.000
1048.486;48837.375;  218.125;    0.000
1048.639;48213.375;  218.125;    0.000
1048.792;45868.375;  247.125;    0.000
1048.946;50291.375;  208.125;    0.000
1049.099;58979.375;  247.125;    0.000
1049.252;60201.375;  274.125;    0.000
1049.406;54325.375;  232.125;    0.000
1049.559;56328.375;  251.125;    0.000
1049.712;61984.375;  243.125;    0.000
1049.865;65040.375;  219.125;    0.000
1050.018;64625.375;  216.125;    0.000
1050.171;57891.375;  237.125;    0.000
1050.324;55570.375;  291.125;    0.000
1050.477;59744.375;  241.125;    0.000
1050.630;63357.375;  245.125;    0.000
1050.783;64195.375;  213.125;    0.000
1050.936;60492.375;  246.125;    0.000
1051.089;56471.375;  255.125;    0.000
1051.242;58108.375;  228.125;    0.000
1051.394;65040.375;  276.125;    0.000
1051.547;65040.375;  246.125;    0.000
1051.700;64380.375;  252.125;    0.000
1051.853;60874.375;  267.125;    0.000
1052.005;63784.375;  261.125;    0.000
1052.158;65040.375;  313.125;    0.000
1052.311;65040.375;  264.125;    0.000
1052.463;65040.375;  271.125;    0.000
1052.616;65040.375;  291.125;    0.000
1052.768;61378.375;  298.125;    0.000
1052.921;59051.375;  262.125;    0.000
1053.073;62973.375;  307.125;    0.000
1053.226;65040.375;  301.125;    0.000
1053.378;65040.375;  309.125;    0.000
1053.531;65040.375;  280.125;    0.000
1053.683;65040.375;  258.125;    0.000
1053.835;65040.375;  267.125;    0.000
1053.988;54658.375;  294.125;    0.000
1054.140; 9801.375;  292.125;    0.000
1054.292; 2284.375;  249.125;    0.000
1054.444; 1862.375;  288.125;    0.000
1054.596; 1643.375;  275.125;    0.000
1054.749; 1495.375;  284.125;    0.000
1054.901; 1367.375;  291.125;    0.000
1055.053; 1316.375;  274.125;    0.000
1055.205; 1225.375;  313.125;    0.000
1055.357; 1212.375;  309.125;    0.000
1055.509; 1058.375;  283.125;    0.000
1055.661; 1084.375;  341.125;    0.000
1055.813;  962.375;  288.125;    0.000
1055.965; 1067.375;  300.125;    0.000
1056.116;  968.375;  296.125;    0.000
1056.268;  997.375;  319.125;    0.000
1056.420; 1036.375;  298.125;    0.000

