
Integration time [ms]:   1.000
Averaging Nr. [scans]: 1
Smoothing Nr. [pixels]: 0
Data measured with spectrometer [name]: UV2
Wave   ;Sample   ;Dark     ;Reference
[nm]   ;[counts] ;[counts] ;[counts] 

353.533;  195.125;  216.475;    0.000
353.597;  192.125;  244.475;    0.000
353.660;  183.125;  181.475;    0.000
353.723;  193.125;  203.475;    0.000
353.786;  193.125;  180.475;    0.000
353.850;  247.125;  213.475;    0.000
353.913;  175.125;  191.475;    0.000
353.976;  187.125;  195.475;    0.000
354.039;  204.125;  158.475;    0.000
354.102;  194.125;  199.475;    0.000
354.166;  229.125;  185.475;    0.000
354.229;  227.125;  188.475;    0.000
354.292;  215.125;  188.475;    0.000
354.355;  209.125;  226.475;    0.000
354.418;  180.125;  158.475;    0.000
354.481;  224.125;  185.475;    0.000
354.545;  589.125;  191.475;    0.000
354.608;  653.125;  247.475;    0.000
354.671;  570.125;  176.475;    0.000
354.734;  633.125;  198.475;    0.000
354.797;  597.125;  195.475;    0.000
354.860;  628.125;  212.475;    0.000
354.923;  638.125;  184.475;    0.000
354.986;  634.125;  169.475;    0.000
355.050;  642.125;  206.475;    0.000
355.113;  688.125;  210.475;    0.000
355.176;  659.125;  217.475;    0.000
355.239;  662.125;  201.475;    0.000
355.302;  696.125;  193.475;    0.000
355.365;  716.125;  234.475;    0.000
355.428;  721.125;  182.475;    0.000
355.491;  747.125;  233.475;    0.000
355.554;  700.125;  167.475;    0.000
355.617;  693.125;  195.475;    0.000
355.680;  755.125;  198.475;    0.000
355.743;  718.125;  186.475;    0.000
355.806;  745.125;  171.475;    0.000
355.869;  753.125;  244.475;    0.000
355.932;  790.125;  164.475;    0.000
355.995;  791.125;  220.475;    0.000
356.058;  784.125;  172.475;    0.000
356.121;  806.125;  228.475;    0.000
356.184;  774.125;  225.475;    0.000
356.247;  780.125;  161.475;    0.000
356.310;  753.125;  195.475;    0.000
356.373;  785.125;  191.475;    0.000
356.436;  844.125;  147.475;    0.000
356.498;  800.125;  183.475;    0.000
356.561;  727.125;  137.475;    0.000
356.624;  810.125;  186.475;    0.000
356.687;  838.125;  158.475;    0.000
356.750;  805.125;  194.475;    0.000
356.813;  757.125;  186.475;    0.000
356.876;  837.125;  161.475;    0.000
356.939;  774.125;  188.475;    0.000
357.001;  838.125;  200.475;    0.000
357.064;  838.125;  182.475;    0.000
357.127;  828.125;  168.475;    0.000
357.190;  810.125;  157.475;    0.000
357.253;  852.125;  199.475;    0.000
357.316;  798.125;  187.475;    0.000
357.378;  800.125;  174.475;    0.000
357.441;  855.125;  165.475;    0.000
357.504;  838.125;  189.475;    0.000
357.567;  775.125;  116.475;    0.000
357.629;  870.125;  176.475;    0.000
357.692;  801.125;  134.475;    0.000
357.755;  833.125;  175.475;    0.000
357.818;  826.125;  159.475;    0.000
357.880;  843.125;  185.475;    0.000
357.943;  928.125;  159.475;    0.000
358.006;  872.125;  176.475;    0.000
358.069;  884.125;  156.475;    0.000
358.131;  884.125;  170.475;    0.000
358.194;  849.125;  125.475;    0.000
358.257;  841.125;  186.475;    0.000
358.319;  801.125;  139.475;    0.000
358.382;  901.125;  175.475;    0.000
358.445;  857.125;  170.475;    0.000
358.507;  880.125;  129.475;    0.000
358.570;  878.125;  168.475;    0.000
358.633;  892.125;  152.475;    0.000
358.695;  900.125;  194.475;    0.000
358.758;  876.125;  154.475;    0.000
358.821;  849.125;  147.475;    0.000
358.883;  898.125;  163.475;    0.000
358.946;  865.125;  155.475;    0.000
359.008;  931.125;  208.475;    0.000
359.071;  893.125;  182.475;    0.000
359.134;  824.125;  126.475;    0.000
359.196;  914.125;  142.475;    0.000
359.259;  880.125;  138.475;    0.000
359.321;  911.125;  153.475;    0.000
359.384;  948.125;  186.475;    0.000
359.446;  929.125;  152.475;    0.000
359.509;  862.125;  144.475;    0.000
359.571;  923.125;  164.475;    0.000
359.634;  859.125;  171.475;    0.000
359.696;  923.125;  144.475;    0.000
359.759;  950.125;  171.475;    0.000
359.821;  854.125;  161.475;    0.000
359.884;  899.125;  159.475;    0.000
359.946;  993.125;  186.475;    0.000
360.009;  919.125;  171.475;    0.000
360.071;  910.125;  166.475;    0.000
360.134;  956.125;  215.475;    0.000
360.196;  851.125;  138.475;    0.000
360.259;  944.125;  196.475;    0.000
360.321;  911.125;  148.475;    0.000
360.384;  952.125;  150.475;    0.000
360.446;  913.125;  148.475;    0.000
360.508;  947.125;  172.475;    0.000
360.571;  967.125;  155.475;    0.000
360.633;  927.125;  153.475;    0.000
360.696;  905.125;  142.475;    0.000
360.758;  960.125;  165.475;    0.000
360.820;  935.125;  155.475;    0.000
360.883;  955.125;  156.475;    0.000
360.945;  965.125;  171.475;    0.000
361.007;  904.125;  138.475;    0.000
361.070;  931.125;  129.475;    0.000
361.132;  987.125;  166.475;    0.000
361.194;  927.125;  143.475;    0.000
361.257;  910.125;  154.475;    0.000
361.319;  997.125;  176.475;    0.000
361.381; 1015.125;  143.475;    0.000
361.443;  879.125;  136.475;    0.000
361.506;  963.125;  160.475;    0.000
361.568;  930.125;  140.475;    0.000
361.630;  972.125;  159.475;    0.000
361.693;  981.125;  162.475;    0.000
361.755;  973.125;  185.475;    0.000
361.817;  955.125;  209.475;    0.000
361.879; 1106.125;  161.475;    0.000
361.941;  925.125;  152.475;    0.000
362.004;  980.125;  132.475;    0.000
362.066;  976.125;  159.475;    0.000
362.128;  981.125;  143.475;    0.000
362.190;  998.125;  131.475;    0.000
362.252;  984.125;  131.475;    0.000
362.315;  971.125;  175.475;    0.000
362.377;  993.125;  140.475;    0.000
362.439;  962.125;  140.475;    0.000
362.501;  972.125;  140.475;    0.000
362.563;  985.125;  152.475;    0.000
362.625;  983.125;  174.475;    0.000
362.688; 1008.125;  195.475;    0.000
362.750; 1042.125;  221.475;    0.000
362.812;  951.125;  171.475;    0.000
362.874; 1008.125;  117.475;    0.000
362.936; 1003.125;  162.475;    0.000
362.998; 1041.125;  142.475;    0.000
363.060;  988.125;  143.475;    0.000
363.122; 1009.125;  148.475;    0.000
363.184; 1037.125;  179.475;    0.000
363.246; 1041.125;  186.475;    0.000
363.308;  990.125;  180.475;    0.000
363.370; 1037.125;  200.475;    0.000
363.432;  984.125;  139.475;    0.000
363.494; 1030.125;  138.475;    0.000
363.556; 1036.125;  114.475;    0.000
363.618; 1026.125;  153.475;    0.000
363.680; 1004.125;  153.475;    0.000
363.742; 1085.125;  178.475;    0.000
363.804; 1020.125;  214.475;    0.000
363.866; 1021.125;  170.475;    0.000
363.928; 1002.125;  145.475;    0.000
363.990;  999.125;  215.475;    0.000
364.052; 1050.125;  166.475;    0.000
364.114; 1077.125;  168.475;    0.000
364.176; 1062.125;  176.475;    0.000
364.238; 1106.125;  203.475;    0.000
364.300; 1063.125;  158.475;    0.000
364.362; 1032.125;  152.475;    0.000
364.424; 1006.125;  119.475;    0.000
364.486; 1004.125;  187.475;    0.000
364.548; 1050.125;  180.475;    0.000
364.609; 1067.125;  212.475;    0.000
364.671; 1085.125;  165.475;    0.000
364.733;  982.125;  190.475;    0.000
364.795; 1031.125;  148.475;    0.000
364.857; 1074.125;  159.475;    0.000
364.919;  955.125;  159.475;    0.000
364.981; 1016.125;  191.475;    0.000
365.042; 1036.125;  170.475;    0.000
365.104; 1019.125;  145.475;    0.000
365.166; 1028.125;  134.475;    0.000
365.228; 1059.125;  150.475;    0.000
365.290; 1025.125;  158.475;    0.000
365.351; 1009.125;  168.475;    0.000
365.413; 1033.125;  173.475;    0.000
365.475; 1109.125;  172.475;    0.000
365.537; 1095.125;  126.475;    0.000
365.598; 1026.125;  160.475;    0.000
365.660; 1048.125;  127.475;    0.000
365.722; 1092.125;  189.475;    0.000
365.784;  998.125;  161.475;    0.000
365.845; 1033.125;  152.475;    0.000
365.907; 1008.125;  117.475;    0.000
365.969; 1059.125;  146.475;    0.000
366.030; 1119.125;  171.475;    0.000
366.092; 1058.125;  155.475;    0.000
366.154; 1034.125;  137.475;    0.000
366.215; 1101.125;  147.475;    0.000
366.277; 1047.125;  148.475;    0.000
366.339; 1077.125;  158.475;    0.000
366.400; 1024.125;  140.475;    0.000
366.462; 1034.125;  159.475;    0.000
366.524; 1114.125;  160.475;    0.000
366.585; 1073.125;  157.475;    0.000
366.647; 1028.125;  170.475;    0.000
366.708;  995.125;  123.475;    0.000
366.770; 1032.125;  194.475;    0.000
366.832; 1082.125;  191.475;    0.000
366.893; 1052.125;  155.475;    0.000
366.955; 1045.125;  132.475;    0.000
367.016; 1083.125;  126.475;    0.000
367.078; 1069.125;  202.475;    0.000
367.139; 1098.125;  116.475;    0.000
367.201; 1075.125;  134.475;    0.000
367.262; 1090.125;  157.475;    0.000
367.324; 1119.125;  202.475;    0.000
367.385; 1020.125;  118.475;    0.000
367.447; 1076.125;  155.475;    0.000
367.508; 1027.125;  134.475;    0.000
367.570; 1048.125;  165.475;    0.000
367.631; 1015.125;  118.475;    0.000
367.693; 1037.125;  170.475;    0.000
367.754; 1143.125;  154.475;    0.000
367.816; 1119.125;  146.475;    0.000
367.877; 1149.125;  175.475;    0.000
367.939; 1099.125;  200.475;    0.000
368.000; 1036.125;  168.475;    0.000
368.062; 1067.125;  138.475;    0.000
368.123; 1071.125;  170.475;    0.000
368.184; 1048.125;  188.475;    0.000
368.246; 1129.125;  145.475;    0.000
368.307; 1127.125;  163.475;    0.000
368.369; 1023.125;  144.475;    0.000
368.430; 1055.125;  140.475;    0.000
368.491; 1137.125;  133.475;    0.000
368.553; 1114.125;  145.475;    0.000
368.614; 1105.125;  158.475;    0.000
368.675; 1051.125;  147.475;    0.000
368.737; 1101.125;  157.475;    0.000
368.798; 1156.125;  163.475;    0.000
368.859; 1126.125;  173.475;    0.000
368.921; 1086.125;  122.475;    0.000
368.982; 1097.125;  184.475;    0.000
369.043; 1104.125;  169.475;    0.000
369.104; 1109.125;  142.475;    0.000
369.166; 1178.125;  169.475;    0.000
369.227; 1066.125;  156.475;    0.000
369.288; 1070.125;  151.475;    0.000
369.349; 1057.125;  191.475;    0.000
369.411; 1096.125;  168.475;    0.000
369.472; 1154.125;  155.475;    0.000
369.533; 1070.125;  149.475;    0.000
369.594; 1128.125;  174.475;    0.000
369.656; 1118.125;  188.475;    0.000
369.717; 1065.125;  113.475;    0.000
369.778; 1132.125;  184.475;    0.000
369.839; 1140.125;  151.475;    0.000
369.900; 1151.125;  180.475;    0.000
369.961; 1116.125;  171.475;    0.000
370.023; 1132.125;  143.475;    0.000
370.084; 1137.125;  137.475;    0.000
370.145; 1099.125;  152.475;    0.000
370.206; 1151.125;  151.475;    0.000
370.267; 1097.125;  134.475;    0.000
370.328; 1135.125;  178.475;    0.000
370.389; 1124.125;  181.475;    0.000
370.451; 1129.125;  169.475;    0.000
370.512; 1141.125;  172.475;    0.000
370.573; 1208.125;  148.475;    0.000
370.634; 1169.125;  156.475;    0.000
370.695; 1145.125;  151.475;    0.000
370.756; 1164.125;  185.475;    0.000
370.817; 1166.125;  185.475;    0.000
370.878; 1169.125;  191.475;    0.000
370.939; 1162.125;  147.475;    0.000
371.000; 1154.125;  162.475;    0.000
371.061; 1229.125;  145.475;    0.000
371.122; 1150.125;  179.475;    0.000
371.183; 1152.125;  114.475;    0.000
371.244; 1180.125;  180.475;    0.000
371.305; 1146.125;  138.475;    0.000
371.366; 1138.125;  157.475;    0.000
371.427; 1156.125;  148.475;    0.000
371.488; 1185.125;  138.475;    0.000
371.549; 1157.125;  193.475;    0.000
371.610; 1218.125;  158.475;    0.000
371.671; 1134.125;  119.475;    0.000
371.732; 1185.125;  159.475;    0.000
371.793; 1118.125;  178.475;    0.000
371.853; 1116.125;  155.475;    0.000
371.914; 1118.125;  148.475;    0.000
371.975; 1178.125;  124.475;    0.000
372.036; 1190.125;  158.475;    0.000
372.097; 1154.125;  136.475;    0.000
372.158; 1109.125;  116.475;    0.000
372.219; 1190.125;  157.475;    0.000
372.280; 1140.125;  151.475;    0.000
372.340; 1182.125;  190.475;    0.000
372.401; 1138.125;  151.475;    0.000
372.462; 1210.125;  129.475;    0.000
372.523; 1152.125;  121.475;    0.000
372.584; 1139.125;  152.475;    0.000
372.645; 1186.125;  132.475;    0.000
372.705; 1284.125;  190.475;    0.000
372.766; 1214.125;  153.475;    0.000
372.827; 1129.125;  133.475;    0.000
372.888; 1209.125;  161.475;    0.000
372.948; 1204.125;  159.475;    0.000
373.009; 1197.125;  164.475;    0.000
373.070; 1166.125;  139.475;    0.000
373.131; 1158.125;  137.475;    0.000
373.191; 1248.125;  181.475;    0.000
373.252; 1137.125;  154.475;    0.000
373.313; 1178.125;  179.475;    0.000
373.373; 1176.125;  136.475;    0.000
373.434; 1230.125;  169.475;    0.000
373.495; 1181.125;   97.475;    0.000
373.555; 1210.125;  142.475;    0.000
373.616; 1216.125;  178.475;    0.000
373.677; 1205.125;  167.475;    0.000
373.737; 1250.125;  139.475;    0.000
373.798; 1212.125;  155.475;    0.000
373.859; 1232.125;  162.475;    0.000
373.919; 1215.125;  174.475;    0.000
373.980; 1218.125;  172.475;    0.000
374.041; 1234.125;  166.475;    0.000
374.101; 1259.125;  172.475;    0.000
374.162; 1225.125;  188.475;    0.000
374.222; 1243.125;  186.475;    0.000
374.283; 1292.125;  195.475;    0.000
374.343; 1238.125;  204.475;    0.000
374.404; 1233.125;  187.475;    0.000
374.465; 1224.125;  183.475;    0.000
374.525; 1319.125;  136.475;    0.000
374.586; 1257.125;  140.475;    0.000
374.646; 1286.125;  191.475;    0.000
374.707; 1294.125;  208.475;    0.000
374.767; 1229.125;  178.475;    0.000
374.828; 1213.125;  159.475;    0.000
374.888; 1260.125;  143.475;    0.000
374.949; 1268.125;  202.475;    0.000
375.009; 1294.125;  151.475;    0.000
375.070; 1250.125;  160.475;    0.000
375.130; 1258.125;  160.475;    0.000
375.190; 1287.125;  164.475;    0.000
375.251; 1307.125;  196.475;    0.000
375.311; 1244.125;  154.475;    0.000
375.372; 1272.125;  197.475;    0.000
375.432; 1298.125;  159.475;    0.000
375.493; 1297.125;  197.475;    0.000
375.553; 1215.125;  165.475;    0.000
375.613; 1273.125;  174.475;    0.000
375.674; 1277.125;  165.475;    0.000
375.734; 1240.125;  128.475;    0.000
375.794; 1250.125;  169.475;    0.000
375.855; 1191.125;  193.475;    0.000
375.915; 1270.125;  162.475;    0.000
375.975; 1228.125;  181.475;    0.000
376.036; 1243.125;  161.475;    0.000
376.096; 1254.125;  131.475;    0.000
376.156; 1245.125;  165.475;    0.000
376.217; 1288.125;  182.475;    0.000
376.277; 1295.125;  185.475;    0.000
376.337; 1189.125;  177.475;    0.000
376.398; 1248.125;  162.475;    0.000
376.458; 1256.125;  179.475;    0.000
376.518; 1247.125;  150.475;    0.000
376.578; 1203.125;  165.475;    0.000
376.639; 1180.125;  159.475;    0.000
376.699; 1169.125;  180.475;    0.000
376.759; 1219.125;  206.475;    0.000
376.819; 1263.125;  146.475;    0.000
376.880; 1289.125;  177.475;    0.000
376.940; 1313.125;  160.475;    0.000
377.000; 1258.125;  149.475;    0.000
377.060; 1265.125;  180.475;    0.000
377.120; 1273.125;  146.475;    0.000
377.180; 1284.125;  137.475;    0.000
377.241; 1276.125;  163.475;    0.000
377.301; 1316.125;  169.475;    0.000
377.361; 1290.125;  137.475;    0.000
377.421; 1322.125;  184.475;    0.000
377.481; 1287.125;  185.475;    0.000
377.541; 1237.125;  146.475;    0.000
377.601; 1319.125;  179.475;    0.000
377.661; 1258.125;  181.475;    0.000
377.722; 1210.125;  185.475;    0.000
377.782; 1273.125;  147.475;    0.000
377.842; 1212.125;  190.475;    0.000
377.902; 1293.125;  166.475;    0.000
377.962; 1266.125;  153.475;    0.000
378.022; 1316.125;  163.475;    0.000
378.082; 1326.125;  146.475;    0.000
378.142; 1317.125;  152.475;    0.000
378.202; 1302.125;  164.475;    0.000
378.262; 1288.125;  195.475;    0.000
378.322; 1335.125;  190.475;    0.000
378.382; 1314.125;  152.475;    0.000
378.442; 1330.125;  175.475;    0.000
378.502; 1256.125;  153.475;    0.000
378.562; 1291.125;  142.475;    0.000
378.622; 1379.125;  166.475;    0.000
378.682; 1380.125;  173.475;    0.000
378.742; 1324.125;  182.475;    0.000
378.802; 1297.125;  145.475;    0.000
378.862; 1389.125;  210.475;    0.000
378.921; 1351.125;  182.475;    0.000
378.981; 1391.125;  185.475;    0.000
379.041; 1381.125;  130.475;    0.000
379.101; 1344.125;  177.475;    0.000
379.161; 1312.125;  166.475;    0.000
379.221; 1313.125;  162.475;    0.000
379.281; 1333.125;  167.475;    0.000
379.341; 1334.125;  136.475;    0.000
379.401; 1333.125;  145.475;    0.000
379.460; 1373.125;  176.475;    0.000
379.520; 1324.125;  162.475;    0.000
379.580; 1396.125;  144.475;    0.000
379.640; 1380.125;  163.475;    0.000
379.700; 1374.125;  157.475;    0.000
379.759; 1348.125;  165.475;    0.000
379.819; 1389.125;  190.475;    0.000
379.879; 1439.125;  143.475;    0.000
379.939; 1427.125;  188.475;    0.000
379.999; 1394.125;  141.475;    0.000
380.058; 1429.125;  169.475;    0.000
380.118; 1420.125;  158.475;    0.000
380.178; 1391.125;  114.475;    0.000
380.237; 1453.125;  157.475;    0.000
380.297; 1436.125;  177.475;    0.000
380.357; 1394.125;  189.475;    0.000
380.417; 1425.125;  182.475;    0.000
380.476; 1381.125;  178.475;    0.000
380.536; 1358.125;  189.475;    0.000
380.596; 1367.125;  183.475;    0.000
380.655; 1432.125;  195.475;    0.000
380.715; 1438.125;  170.475;    0.000
380.775; 1550.125;  170.475;    0.000
380.834; 1440.125;  179.475;    0.000
380.894; 1459.125;  188.475;    0.000
380.954; 1411.125;  142.475;    0.000
381.013; 1468.125;  178.475;    0.000
381.073; 1386.125;  164.475;    0.000
381.132; 1451.125;  192.475;    0.000
381.192; 1523.125;  187.475;    0.000
381.252; 1421.125;  176.475;    0.000
381.311; 1525.125;  206.475;    0.000
381.371; 1500.125;  167.475;    0.000
381.430; 1537.125;  131.475;    0.000
381.490; 1563.125;  150.475;    0.000
381.549; 1418.125;  129.475;    0.000
381.609; 1510.125;  178.475;    0.000
381.668; 1507.125;  194.475;    0.000
381.728; 1486.125;  210.475;    0.000
381.787; 1523.125;  190.475;    0.000
381.847; 1478.125;  181.475;    0.000
381.906; 1548.125;  156.475;    0.000
381.966; 1563.125;  176.475;    0.000
382.025; 1586.125;  186.475;    0.000
382.085; 1599.125;  192.475;    0.000
382.144; 1630.125;  173.475;    0.000
382.204; 1575.125;  207.475;    0.000
382.263; 1575.125;  193.475;    0.000
382.323; 1622.125;  164.475;    0.000
382.382; 1623.125;  161.475;    0.000
382.441; 1650.125;  199.475;    0.000
382.501; 1701.125;  208.475;    0.000
382.560; 1717.125;  173.475;    0.000
382.619; 1800.125;  179.475;    0.000
382.679; 1841.125;  177.475;    0.000
382.738; 1878.125;  190.475;    0.000
382.798; 1952.125;  213.475;    0.000
382.857; 2112.125;  195.475;    0.000
382.916; 2357.125;  184.475;    0.000
382.976; 2450.125;  169.475;    0.000
383.035; 2218.125;  194.475;    0.000
383.094; 2339.125;  185.475;    0.000
383.154; 2679.125;  198.475;    0.000
383.213; 3132.125;  147.475;    0.000
383.272; 2998.125;  175.475;    0.000
383.331; 2298.125;  122.475;    0.000
383.391; 2129.125;  185.475;    0.000
383.450; 2195.125;  160.475;    0.000
383.509; 2119.125;  168.475;    0.000
383.568; 2170.125;  196.475;    0.000
383.628; 2254.125;  156.475;    0.000
383.687; 2486.125;  171.475;    0.000
383.746; 2887.125;  155.475;    0.000
383.805; 3605.125;  201.475;    0.000
383.864; 3568.125;  125.475;    0.000
383.924; 2712.125;  213.475;    0.000
383.983; 2154.125;  188.475;    0.000
384.042; 2057.125;  162.475;    0.000
384.101; 1958.125;  183.475;    0.000
384.160; 1867.125;  155.475;    0.000
384.219; 1817.125;  155.475;    0.000
384.279; 1796.125;  189.475;    0.000
384.338; 1692.125;  156.475;    0.000
384.397; 1684.125;  148.475;    0.000
384.456; 1723.125;  154.475;    0.000
384.515; 1624.125;  160.475;    0.000
384.574; 1619.125;  223.475;    0.000
384.633; 1619.125;  133.475;    0.000
384.692; 1643.125;  163.475;    0.000
384.751; 1691.125;  186.475;    0.000
384.810; 1671.125;  187.475;    0.000
384.869; 1669.125;  172.475;    0.000
384.929; 1603.125;  153.475;    0.000
384.988; 1683.125;  174.475;    0.000
385.047; 1651.125;  154.475;    0.000
385.106; 1613.125;  164.475;    0.000
385.165; 1524.125;  151.475;    0.000
385.224; 1621.125;  147.475;    0.000
385.283; 1565.125;  176.475;    0.000
385.342; 1587.125;  142.475;    0.000
385.401; 1560.125;  175.475;    0.000
385.459; 1587.125;  150.475;    0.000
385.518; 1618.125;  124.475;    0.000
385.577; 1600.125;  115.475;    0.000
385.636; 1613.125;  174.475;    0.000
385.695; 1651.125;  158.475;    0.000
385.754; 1609.125;  150.475;    0.000
385.813; 1666.125;  129.475;    0.000
385.872; 1669.125;  146.475;    0.000
385.931; 1658.125;  194.475;    0.000
385.990; 1601.125;  174.475;    0.000
386.049; 1710.125;  176.475;    0.000
386.107; 1678.125;  151.475;    0.000
386.166; 1656.125;  178.475;    0.000
386.225; 1630.125;  162.475;    0.000
386.284; 1614.125;  180.475;    0.000
386.343; 1668.125;  171.475;    0.000
386.402; 1616.125;  176.475;    0.000
386.460; 1673.125;  144.475;    0.000
386.519; 1608.125;  140.475;    0.000
386.578; 1586.125;  145.475;    0.000
386.637; 1629.125;  164.475;    0.000
386.696; 1687.125;  189.475;    0.000
386.754; 1596.125;  135.475;    0.000
386.813; 1735.125;  139.475;    0.000
386.872; 1586.125;  121.475;    0.000
386.931; 1652.125;  153.475;    0.000
386.989; 1643.125;  211.475;    0.000
387.048; 1663.125;  156.475;    0.000
387.107; 1701.125;  210.475;    0.000
387.165; 1616.125;  129.475;    0.000
387.224; 1681.125;  205.475;    0.000
387.283; 1569.125;  130.475;    0.000
387.342; 1669.125;  171.475;    0.000
387.400; 1614.125;  156.475;    0.000
387.459; 1567.125;  141.475;    0.000
387.517; 1626.125;  219.475;    0.000
387.576; 1670.125;  166.475;    0.000
387.635; 1638.125;  136.475;    0.000
387.693; 1664.125;  191.475;    0.000
387.752; 1673.125;  165.475;    0.000
387.811; 1626.125;  158.475;    0.000
387.869; 1640.125;  204.475;    0.000
387.928; 1630.125;  149.475;    0.000
387.986; 1677.125;  156.475;    0.000
388.045; 1620.125;  123.475;    0.000
388.103; 1652.125;  150.475;    0.000
388.162; 1611.125;  173.475;    0.000
388.221; 1570.125;  143.475;    0.000
388.279; 1662.125;  129.475;    0.000
388.338; 1655.125;  212.475;    0.000
388.396; 1607.125;  150.475;    0.000
388.455; 1625.125;  167.475;    0.000
388.513; 1608.125;  116.475;    0.000
388.572; 1678.125;  181.475;    0.000
388.630; 1647.125;  187.475;    0.000
388.689; 1685.125;  180.475;    0.000
388.747; 1592.125;  154.475;    0.000
388.806; 1597.125;  161.475;    0.000
388.864; 1682.125;  167.475;    0.000
388.922; 1691.125;  184.475;    0.000
388.981; 1608.125;  169.475;    0.000
389.039; 1673.125;  102.475;    0.000
389.098; 1650.125;  183.475;    0.000
389.156; 1638.125;  182.475;    0.000
389.214; 1677.125;  173.475;    0.000
389.273; 1641.125;  167.475;    0.000
389.331; 1658.125;  170.475;    0.000
389.390; 1648.125;  150.475;    0.000
389.448; 1672.125;  156.475;    0.000
389.506; 1624.125;  149.475;    0.000
389.565; 1736.125;  162.475;    0.000
389.623; 1678.125;  188.475;    0.000
389.681; 1631.125;  204.475;    0.000
389.740; 1713.125;  187.475;    0.000
389.798; 1701.125;  153.475;    0.000
389.856; 1755.125;  214.475;    0.000
389.914; 1684.125;  177.475;    0.000
389.973; 1663.125;  189.475;    0.000
390.031; 1632.125;  178.475;    0.000
390.089; 1668.125;  163.475;    0.000
390.147; 1653.125;  170.475;    0.000
390.206; 1669.125;  183.475;    0.000
390.264; 1603.125;  161.475;    0.000
390.322; 1665.125;  148.475;    0.000
390.380; 1691.125;  138.475;    0.000
390.439; 1756.125;  194.475;    0.000
390.497; 1718.125;  170.475;    0.000
390.555; 1641.125;  165.475;    0.000
390.613; 1634.125;  177.475;    0.000
390.671; 1723.125;  170.475;    0.000
390.729; 1695.125;  158.475;    0.000
390.788; 1652.125;  162.475;    0.000
390.846; 1714.125;  161.475;    0.000
390.904; 1728.125;  197.475;    0.000
390.962; 1701.125;  212.475;    0.000
391.020; 1695.125;  224.475;    0.000
391.078; 1741.125;  184.475;    0.000
391.136; 1738.125;  191.475;    0.000
391.194; 1743.125;  187.475;    0.000
391.253; 1800.125;  197.475;    0.000
391.311; 1757.125;  185.475;    0.000
391.369; 1730.125;  207.475;    0.000
391.427; 1764.125;  222.475;    0.000
391.485; 1755.125;  184.475;    0.000
391.543; 1809.125;  203.475;    0.000
391.601; 1830.125;  151.475;    0.000
391.659; 1788.125;  176.475;    0.000
391.717; 1749.125;  190.475;    0.000
391.775; 1745.125;  159.475;    0.000
391.833; 1788.125;  186.475;    0.000
391.891; 1772.125;  154.475;    0.000
391.949; 1839.125;  181.475;    0.000
392.007; 1916.125;  190.475;    0.000
392.065; 1764.125;  182.475;    0.000
392.123; 1811.125;  158.475;    0.000
392.180; 1805.125;  198.475;    0.000
392.238; 1895.125;  191.475;    0.000
392.296; 1867.125;  164.475;    0.000
392.354; 1815.125;  172.475;    0.000
392.412; 1913.125;  194.475;    0.000
392.470; 1826.125;  154.475;    0.000
392.528; 1867.125;  172.475;    0.000
392.586; 1873.125;  179.475;    0.000
392.644; 1795.125;  173.475;    0.000
392.701; 1822.125;  202.475;    0.000
392.759; 1880.125;  180.475;    0.000
392.817; 1825.125;  181.475;    0.000
392.875; 1844.125;  168.475;    0.000
392.933; 1877.125;  161.475;    0.000
392.991; 1986.125;  216.475;    0.000
393.048; 1961.125;  197.475;    0.000
393.106; 2030.125;  199.475;    0.000
393.164; 2079.125;  173.475;    0.000
393.222; 2176.125;  179.475;    0.000
393.279; 2706.125;  209.475;    0.000
393.337; 3506.125;  185.475;    0.000
393.395; 3706.125;  174.475;    0.000
393.453; 2675.125;  181.475;    0.000
393.510; 2153.125;  188.475;    0.000
393.568; 2106.125;  191.475;    0.000
393.626; 1992.125;  151.475;    0.000
393.684; 1996.125;  208.475;    0.000
393.741; 1963.125;  179.475;    0.000
393.799; 1878.125;  149.475;    0.000
393.857; 1878.125;  136.475;    0.000
393.914; 1899.125;  190.475;    0.000
393.972; 1907.125;  155.475;    0.000
394.030; 1843.125;  170.475;    0.000
394.087; 1972.125;  213.475;    0.000
394.145; 1848.125;  191.475;    0.000
394.202; 1883.125;  188.475;    0.000
394.260; 1841.125;  168.475;    0.000
394.318; 1871.125;  176.475;    0.000
394.375; 1857.125;  159.475;    0.000
394.433; 1923.125;  168.475;    0.000
394.490; 1923.125;  163.475;    0.000
394.548; 1914.125;  163.475;    0.000
394.605; 1971.125;  181.475;    0.000
394.663; 1892.125;  180.475;    0.000
394.720; 1963.125;  193.475;    0.000
394.778; 1949.125;  168.475;    0.000
394.836; 1934.125;  128.475;    0.000
394.893; 1865.125;  151.475;    0.000
394.951; 1927.125;  173.475;    0.000
395.008; 1951.125;  201.475;    0.000
395.065; 1976.125;  139.475;    0.000
395.123; 1936.125;  173.475;    0.000
395.180; 1922.125;  144.475;    0.000
395.238; 1931.125;  135.475;    0.000
395.295; 2079.125;  167.475;    0.000
395.353; 1957.125;  150.475;    0.000
395.410; 1925.125;  165.475;    0.000
395.468; 1982.125;  223.475;    0.000
395.525; 1991.125;  156.475;    0.000
395.582; 1953.125;  178.475;    0.000
395.640; 1972.125;  178.475;    0.000
395.697; 2016.125;  173.475;    0.000
395.754; 1938.125;  154.475;    0.000
395.812; 2057.125;  169.475;    0.000
395.869; 2026.125;  196.475;    0.000
395.927; 2093.125;  190.475;    0.000
395.984; 2071.125;  195.475;    0.000
396.041; 2012.125;  160.475;    0.000
396.098; 2028.125;  161.475;    0.000
396.156; 2084.125;  187.475;    0.000
396.213; 2084.125;  200.475;    0.000
396.270; 2043.125;  160.475;    0.000
396.328; 2003.125;  113.475;    0.000
396.385; 2069.125;  165.475;    0.000
396.442; 2011.125;  168.475;    0.000
396.499; 2049.125;  117.475;    0.000
396.557; 2077.125;  203.475;    0.000
396.614; 2157.125;  155.475;    0.000
396.671; 2180.125;  187.475;    0.000
396.728; 2331.125;  169.475;    0.000
396.785; 2720.125;  167.475;    0.000
396.843; 3330.125;  154.475;    0.000
396.900; 2916.125;  172.475;    0.000
396.957; 2289.125;  176.475;    0.000
397.014; 2173.125;  193.475;    0.000
397.071; 2179.125;  170.475;    0.000
397.128; 2108.125;  172.475;    0.000
397.186; 2137.125;  205.475;    0.000
397.243; 2044.125;  163.475;    0.000
397.300; 2104.125;  193.475;    0.000
397.357; 2159.125;  166.475;    0.000
397.414; 2161.125;  149.475;    0.000
397.471; 2098.125;  157.475;    0.000
397.528; 2149.125;  180.475;    0.000
397.585; 2165.125;  203.475;    0.000
397.642; 2107.125;  156.475;    0.000
397.699; 2074.125;  229.475;    0.000
397.756; 2140.125;  185.475;    0.000
397.814; 2170.125;  191.475;    0.000
397.871; 2096.125;  170.475;    0.000
397.928; 2175.125;  191.475;    0.000
397.985; 2080.125;  183.475;    0.000
398.042; 2119.125;  161.475;    0.000
398.099; 2056.125;  192.475;    0.000
398.156; 2177.125;  176.475;    0.000
398.212; 2151.125;  170.475;    0.000
398.269; 2213.125;  158.475;    0.000
398.326; 2101.125;  175.475;    0.000
398.383; 2147.125;  177.475;    0.000
398.440; 2198.125;  169.475;    0.000
398.497; 2205.125;  184.475;    0.000
398.554; 2178.125;  196.475;    0.000
398.611; 2276.125;  198.475;    0.000
398.668; 2179.125;  135.475;    0.000
398.725; 2252.125;  181.475;    0.000
398.782; 2240.125;  195.475;    0.000
398.839; 2278.125;  179.475;    0.000
398.895; 2219.125;  188.475;    0.000
398.952; 2245.125;  176.475;    0.000
399.009; 2315.125;  183.475;    0.000
399.066; 2299.125;  190.475;    0.000
399.123; 2364.125;  174.475;    0.000
399.180; 2313.125;  191.475;    0.000
399.236; 2428.125;  217.475;    0.000
399.293; 2485.125;  154.475;    0.000
399.350; 2481.125;  210.475;    0.000
399.407; 2595.125;  202.475;    0.000
399.463; 2550.125;  162.475;    0.000
399.520; 2523.125;  207.475;    0.000
399.577; 2582.125;  174.475;    0.000
399.634; 2622.125;  170.475;    0.000
399.690; 2593.125;  186.475;    0.000
399.747; 2594.125;  218.475;    0.000
399.804; 2559.125;  200.475;    0.000
399.861; 2660.125;  190.475;    0.000
399.917; 2528.125;  218.475;    0.000
399.974; 2592.125;  200.475;    0.000
400.031; 2542.125;  200.475;    0.000
400.087; 2427.125;  153.475;    0.000
400.144; 2489.125;  188.475;    0.000
400.201; 2535.125;  198.475;    0.000
400.257; 2391.125;  205.475;    0.000
400.314; 2386.125;  183.475;    0.000
400.370; 2451.125;  227.475;    0.000
400.427; 2488.125;  177.475;    0.000
400.484; 2321.125;  202.475;    0.000
400.540; 2387.125;  173.475;    0.000
400.597; 2290.125;  212.475;    0.000
400.653; 2385.125;  182.475;    0.000
400.710; 2373.125;  201.475;    0.000
400.766; 2368.125;  188.475;    0.000
400.823; 2303.125;  205.475;    0.000
400.879; 2302.125;  165.475;    0.000
400.936; 2364.125;  180.475;    0.000
400.993; 2382.125;  181.475;    0.000
401.049; 2351.125;  147.475;    0.000
401.105; 2419.125;  205.475;    0.000
401.162; 2384.125;  197.475;    0.000
401.218; 2317.125;  177.475;    0.000
401.275; 2344.125;  183.475;    0.000
401.331; 2361.125;  198.475;    0.000
401.388; 2311.125;  209.475;    0.000
401.444; 2383.125;  211.475;    0.000
401.501; 2398.125;  185.475;    0.000
401.557; 2281.125;  190.475;    0.000
401.614; 2334.125;  172.475;    0.000
401.670; 2253.125;  185.475;    0.000
401.726; 2389.125;  196.475;    0.000
401.783; 2450.125;  187.475;    0.000
401.839; 2308.125;  192.475;    0.000
401.895; 2350.125;  173.475;    0.000
401.952; 2364.125;  145.475;    0.000
402.008; 2348.125;  197.475;    0.000
402.064; 2244.125;  146.475;    0.000
402.121; 2285.125;  197.475;    0.000
402.177; 2326.125;  173.475;    0.000
402.233; 2331.125;  185.475;    0.000
402.290; 2439.125;  175.475;    0.000
402.346; 2441.125;  164.475;    0.000
402.402; 2372.125;  173.475;    0.000
402.458; 2384.125;  183.475;    0.000
402.515; 2333.125;  147.475;    0.000
402.571; 2411.125;  210.475;    0.000
402.627; 2364.125;  181.475;    0.000
402.683; 2385.125;  177.475;    0.000
402.740; 2349.125;  162.475;    0.000
402.796; 2488.125;  178.475;    0.000
402.852; 2407.125;  138.475;    0.000
402.908; 2401.125;  181.475;    0.000
402.964; 2374.125;  151.475;    0.000
403.021; 2438.125;  170.475;    0.000
403.077; 2423.125;  204.475;    0.000
403.133; 2425.125;  144.475;    0.000
403.189; 2488.125;  207.475;    0.000
403.245; 2390.125;  184.475;    0.000
403.301; 2420.125;  170.475;    0.000
403.357; 2459.125;  201.475;    0.000
403.414; 2476.125;  205.475;    0.000
403.470; 2485.125;  170.475;    0.000
403.526; 2472.125;  135.475;    0.000
403.582; 2489.125;  180.475;    0.000
403.638; 2389.125;  185.475;    0.000
403.694; 2485.125;  169.475;    0.000
403.750; 2474.125;  210.475;    0.000
403.806; 2481.125;  210.475;    0.000
403.862; 2538.125;  219.475;    0.000
403.918; 2478.125;  191.475;    0.000
403.974; 2512.125;  193.475;    0.000
404.030; 2490.125;  154.475;    0.000
404.086; 2484.125;  170.475;    0.000
404.142; 2482.125;  194.475;    0.000
404.198; 2524.125;  224.475;    0.000
404.254; 2547.125;  177.475;    0.000
404.310; 2464.125;  204.475;    0.000
404.366; 2549.125;  170.475;    0.000
404.422; 2544.125;  172.475;    0.000
404.478; 2579.125;  153.475;    0.000
404.534; 2595.125;  159.475;    0.000
404.590; 2593.125;  203.475;    0.000
404.646; 2492.125;  164.475;    0.000
404.701; 2515.125;  141.475;    0.000
404.757; 2589.125;  195.475;    0.000
404.813; 2519.125;  152.475;    0.000
404.869; 2442.125;  174.475;    0.000
404.925; 2487.125;  167.475;    0.000
404.981; 2529.125;  175.475;    0.000
405.037; 2466.125;  170.475;    0.000
405.092; 2545.125;  155.475;    0.000
405.148; 2498.125;  160.475;    0.000
405.204; 2515.125;  158.475;    0.000
405.260; 2490.125;  128.475;    0.000
405.316; 2480.125;  168.475;    0.000
405.371; 2468.125;  162.475;    0.000
405.427; 2632.125;  187.475;    0.000
405.483; 2589.125;  214.475;    0.000
405.539; 2564.125;  163.475;    0.000
405.594; 2579.125;  191.475;    0.000
405.650; 2529.125;  124.475;    0.000
405.706; 2505.125;  188.475;    0.000
405.761; 2540.125;  204.475;    0.000
405.817; 2443.125;  150.475;    0.000
405.873; 2533.125;  152.475;    0.000
405.928; 2546.125;  135.475;    0.000
405.984; 2566.125;  209.475;    0.000
406.040; 2625.125;  165.475;    0.000
406.095; 2507.125;  146.475;    0.000
406.151; 2612.125;  169.475;    0.000
406.207; 2620.125;  174.475;    0.000
406.262; 2582.125;  189.475;    0.000
406.318; 2656.125;  141.475;    0.000
406.374; 2645.125;  178.475;    0.000
406.429; 2671.125;  197.475;    0.000
406.485; 2661.125;  194.475;    0.000
406.540; 2576.125;  149.475;    0.000
406.596; 2701.125;  173.475;    0.000
406.651; 2704.125;  154.475;    0.000
406.707; 2767.125;  183.475;    0.000
406.763; 2662.125;  156.475;    0.000
406.818; 2657.125;  181.475;    0.000
406.874; 2654.125;  135.475;    0.000
406.929; 2763.125;  194.475;    0.000
406.985; 2761.125;  166.475;    0.000
407.040; 2792.125;  207.475;    0.000
407.095; 2874.125;  213.475;    0.000
407.151; 2792.125;  198.475;    0.000
407.206; 2707.125;  186.475;    0.000
407.262; 2850.125;  148.475;    0.000
407.317; 2867.125;  212.475;    0.000
407.373; 2892.125;  209.475;    0.000
407.428; 2875.125;  218.475;    0.000
407.484; 2939.125;  158.475;    0.000
407.539; 2862.125;  165.475;    0.000
407.594; 2891.125;  197.475;    0.000
407.650; 2987.125;  177.475;    0.000
407.705; 2875.125;  154.475;    0.000
407.760; 2919.125;  198.475;    0.000
407.816; 2912.125;  181.475;    0.000
407.871; 2919.125;  185.475;    0.000
407.926; 2961.125;  167.475;    0.000
407.982; 2925.125;  172.475;    0.000
408.037; 2851.125;  202.475;    0.000
408.092; 2935.125;  201.475;    0.000
408.148; 2819.125;  199.475;    0.000
408.203; 2818.125;  174.475;    0.000
408.258; 2844.125;  157.475;    0.000
408.314; 2803.125;  194.475;    0.000
408.369; 2763.125;  189.475;    0.000
408.424; 2865.125;  204.475;    0.000
408.479; 2762.125;  192.475;    0.000
408.534; 2713.125;  215.475;    0.000
408.590; 2789.125;  190.475;    0.000
408.645; 2779.125;  159.475;    0.000
408.700; 2794.125;  191.475;    0.000
408.755; 2856.125;  217.475;    0.000
408.810; 2874.125;  158.475;    0.000
408.866; 2742.125;  166.475;    0.000
408.921; 2847.125;  214.475;    0.000
408.976; 2806.125;  158.475;    0.000
409.031; 2721.125;  185.475;    0.000
409.086; 2762.125;  158.475;    0.000
409.141; 2796.125;  180.475;    0.000
409.196; 2707.125;  188.475;    0.000
409.252; 2766.125;  186.475;    0.000
409.307; 2728.125;  135.475;    0.000
409.362; 2784.125;  162.475;    0.000
409.417; 2767.125;  149.475;    0.000
409.472; 2769.125;  205.475;    0.000
409.527; 2798.125;  184.475;    0.000
409.582; 2723.125;  174.475;    0.000
409.637; 2743.125;  188.475;    0.000
409.692; 2783.125;  211.475;    0.000
409.747; 2712.125;  159.475;    0.000
409.802; 2754.125;  199.475;    0.000
409.857; 2803.125;  118.475;    0.000
409.912; 2833.125;  177.475;    0.000
409.967; 2755.125;  182.475;    0.000
410.022; 2771.125;  188.475;    0.000
410.077; 2734.125;  204.475;    0.000
410.132; 2789.125;  174.475;    0.000
410.187; 2782.125;  169.475;    0.000
410.242; 2785.125;  178.475;    0.000
410.297; 2819.125;  185.475;    0.000
410.351; 2760.125;  203.475;    0.000
410.406; 2756.125;  180.475;    0.000
410.461; 2778.125;  213.475;    0.000
410.516; 2838.125;  198.475;    0.000
410.571; 2785.125;  171.475;    0.000
410.626; 2779.125;  186.475;    0.000
410.681; 2723.125;  187.475;    0.000
410.736; 2688.125;  147.475;    0.000
410.790; 2750.125;  186.475;    0.000
410.845; 2800.125;  152.475;    0.000
410.900; 2811.125;  202.475;    0.000
410.955; 2737.125;  196.475;    0.000
411.010; 2819.125;  150.475;    0.000
411.064; 2770.125;  200.475;    0.000
411.119; 2715.125;  203.475;    0.000
411.174; 2731.125;  176.475;    0.000
411.229; 2798.125;  203.475;    0.000
411.283; 2733.125;  176.475;    0.000
411.338; 2752.125;  153.475;    0.000
411.393; 2759.125;  168.475;    0.000
411.447; 2789.125;  223.475;    0.000
411.502; 2764.125;  238.475;    0.000
411.557; 2804.125;  179.475;    0.000
411.612; 2679.125;  159.475;    0.000
411.666; 2743.125;  189.475;    0.000
411.721; 2776.125;  212.475;    0.000
411.776; 2783.125;  242.475;    0.000
411.830; 2823.125;  194.475;    0.000
411.885; 2739.125;  188.475;    0.000
411.939; 2863.125;  245.475;    0.000
411.994; 2847.125;  177.475;    0.000
412.049; 2725.125;  170.475;    0.000
412.103; 2793.125;  196.475;    0.000
412.158; 2861.125;  215.475;    0.000
412.212; 2869.125;  199.475;    0.000
412.267; 2791.125;  191.475;    0.000
412.322; 2756.125;  238.475;    0.000
412.376; 2834.125;  243.475;    0.000
412.431; 2814.125;  214.475;    0.000
412.485; 2772.125;  210.475;    0.000
412.540; 2781.125;  200.475;    0.000
412.594; 2815.125;  174.475;    0.000
412.649; 2786.125;  246.475;    0.000
412.703; 2734.125;  182.475;    0.000
412.758; 2757.125;  222.475;    0.000
412.812; 2748.125;  201.475;    0.000
412.866; 2649.125;  162.475;    0.000
412.921; 2670.125;  202.475;    0.000
412.975; 2730.125;  212.475;    0.000
413.030; 2758.125;  238.475;    0.000
413.084; 2781.125;  201.475;    0.000
413.139; 2790.125;  210.475;    0.000
413.193; 2710.125;  218.475;    0.000
413.247; 2740.125;  203.475;    0.000
413.302; 2736.125;  176.475;    0.000
413.356; 2708.125;  215.475;    0.000
413.410; 2738.125;  204.475;    0.000
413.465; 2792.125;  186.475;    0.000
413.519; 2651.125;  196.475;    0.000
413.573; 2733.125;  181.475;    0.000
413.628; 2719.125;  200.475;    0.000
413.682; 2674.125;  157.475;    0.000
413.736; 2753.125;  194.475;    0.000
413.791; 2671.125;  193.475;    0.000
413.845; 2728.125;  225.475;    0.000
413.899; 2677.125;  195.475;    0.000
413.953; 2704.125;  173.475;    0.000
414.008; 2724.125;  186.475;    0.000
414.062; 2733.125;  217.475;    0.000
414.116; 2721.125;  169.475;    0.000
414.170; 2772.125;  228.475;    0.000
414.225; 2685.125;  177.475;    0.000
414.279; 2713.125;  210.475;    0.000
414.333; 2742.125;  207.475;    0.000
414.387; 2818.125;  217.475;    0.000
414.441; 2759.125;  187.475;    0.000
414.496; 2828.125;  215.475;    0.000
414.550; 2700.125;  204.475;    0.000
414.604; 2756.125;  206.475;    0.000
414.658; 2742.125;  139.475;    0.000
414.712; 2765.125;  198.475;    0.000
414.766; 2709.125;  208.475;    0.000
414.820; 2761.125;  199.475;    0.000
414.874; 2763.125;  216.475;    0.000
414.928; 2714.125;  186.475;    0.000
414.982; 2690.125;  176.475;    0.000
415.037; 2768.125;  181.475;    0.000
415.091; 2774.125;  208.475;    0.000
415.145; 2717.125;  209.475;    0.000
415.199; 2710.125;  186.475;    0.000
415.253; 2730.125;  203.475;    0.000
415.307; 2687.125;  197.475;    0.000
415.361; 2750.125;  223.475;    0.000
415.415; 2766.125;  213.475;    0.000
415.469; 2786.125;  226.475;    0.000
415.523; 2760.125;  222.475;    0.000
415.577; 2701.125;  205.475;    0.000
415.631; 2724.125;  224.475;    0.000
415.684; 2656.125;  193.475;    0.000
415.738; 2724.125;  224.475;    0.000
415.792; 2673.125;  204.475;    0.000
415.846; 2764.125;  189.475;    0.000
415.900; 2711.125;  223.475;    0.000
415.954; 2711.125;  187.475;    0.000
416.008; 2693.125;  237.475;    0.000
416.062; 2688.125;  195.475;    0.000
416.116; 2657.125;  223.475;    0.000
416.169; 2693.125;  210.475;    0.000
416.223; 2677.125;  232.475;    0.000
416.277; 2674.125;  227.475;    0.000
416.331; 2741.125;  216.475;    0.000
416.385; 2592.125;  186.475;    0.000
416.439; 2626.125;  226.475;    0.000
416.492; 2732.125;  229.475;    0.000
416.546; 2794.125;  216.475;    0.000
416.600; 2630.125;  211.475;    0.000
416.654; 2739.125;  226.475;    0.000
416.707; 2652.125;  248.475;    0.000
416.761; 2669.125;  217.475;    0.000
416.815; 2752.125;  207.475;    0.000
416.869; 2666.125;  226.475;    0.000
416.922; 2707.125;  192.475;    0.000
416.976; 2739.125;  205.475;    0.000
417.030; 2754.125;  233.475;    0.000
417.083; 2701.125;  226.475;    0.000
417.137; 2664.125;  222.475;    0.000
417.191; 2691.125;  217.475;    0.000
417.244; 2689.125;  221.475;    0.000
417.298; 2684.125;  201.475;    0.000
417.352; 2654.125;  170.475;    0.000
417.405; 2719.125;  234.475;    0.000
417.459; 2709.125;  241.475;    0.000
417.512; 2686.125;  247.475;    0.000
417.566; 2707.125;  219.475;    0.000
417.620; 2618.125;  228.475;    0.000
417.673; 2743.125;  192.475;    0.000
417.727; 2732.125;  203.475;    0.000
417.780; 2682.125;  204.475;    0.000
417.834; 2653.125;  234.475;    0.000
417.887; 2744.125;  245.475;    0.000
417.941; 2725.125;  211.475;    0.000
417.994; 2677.125;  244.475;    0.000
418.048; 2616.125;  203.475;    0.000
418.101; 2672.125;  212.475;    0.000
418.155; 2693.125;  251.475;    0.000
418.208; 2742.125;  286.475;    0.000
418.262; 2732.125;  243.475;    0.000
418.315; 2697.125;  214.475;    0.000
418.369; 2719.125;  269.475;    0.000
418.422; 2706.125;  222.475;    0.000
418.476; 2794.125;  226.475;    0.000
418.529; 2771.125;  238.475;    0.000
418.582; 2620.125;  210.475;    0.000
418.636; 2703.125;  221.475;    0.000
418.689; 2642.125;  224.475;    0.000
418.743; 2686.125;  228.475;    0.000
418.796; 2705.125;  192.475;    0.000
418.849; 2791.125;  230.475;    0.000
418.903; 2701.125;  257.475;    0.000
418.956; 2754.125;  241.475;    0.000
419.009; 2744.125;  247.475;    0.000
419.063; 2706.125;  235.475;    0.000
419.116; 2785.125;  218.475;    0.000
419.169; 2698.125;  219.475;    0.000
419.222; 2778.125;  215.475;    0.000
419.276; 2775.125;  202.475;    0.000
419.329; 2786.125;  210.475;    0.000
419.382; 2700.125;  188.475;    0.000
419.435; 2582.125;  222.475;    0.000
419.489; 2786.125;  232.475;    0.000
419.542; 2691.125;  250.475;    0.000
419.595; 2740.125;  240.475;    0.000
419.648; 2737.125;  261.475;    0.000
419.701; 2654.125;  222.475;    0.000
419.755; 2520.125;  233.475;    0.000
419.808; 2691.125;  178.475;    0.000
419.861; 2671.125;  207.475;    0.000
419.914; 2720.125;  223.475;    0.000
419.967; 2696.125;  216.475;    0.000
420.020; 2575.125;  211.475;    0.000
420.073; 2637.125;  200.475;    0.000
420.127; 2725.125;  248.475;    0.000
420.180; 2637.125;  220.475;    0.000
420.233; 2537.125;  215.475;    0.000
420.286; 2701.125;  222.475;    0.000
420.339; 2692.125;  229.475;    0.000
420.392; 2546.125;  245.475;    0.000
420.445; 2560.125;  221.475;    0.000
420.498; 2614.125;  224.475;    0.000
420.551; 2612.125;  170.475;    0.000
420.604; 2703.125;  237.475;    0.000
420.657; 2642.125;  235.475;    0.000
420.710; 2617.125;  223.475;    0.000
420.763; 2656.125;  219.475;    0.000
420.816; 2605.125;  200.475;    0.000
420.869; 2587.125;  197.475;    0.000
420.922; 2550.125;  212.475;    0.000
420.975; 2680.125;  274.475;    0.000
421.028; 2543.125;  228.475;    0.000
421.081; 2514.125;  243.475;    0.000
421.134; 2569.125;  227.475;    0.000
421.187; 2598.125;  245.475;    0.000
421.239; 2599.125;  210.475;    0.000
421.292; 2707.125;  193.475;    0.000
421.345; 2540.125;  226.475;    0.000
421.398; 2570.125;  226.475;    0.000
421.451; 2602.125;  259.475;    0.000
421.504; 2547.125;  204.475;    0.000
421.557; 2545.125;  215.475;    0.000
421.609; 2539.125;  194.475;    0.000
421.662; 2568.125;  216.475;    0.000
421.715; 2564.125;  226.475;    0.000
421.768; 2581.125;  177.475;    0.000
421.821; 2554.125;  210.475;    0.000
421.873; 2595.125;  208.475;    0.000
421.926; 2577.125;  223.475;    0.000
421.979; 2617.125;  230.475;    0.000
422.032; 2532.125;  227.475;    0.000
422.084; 2552.125;  234.475;    0.000
422.137; 2519.125;  207.475;    0.000
422.190; 2554.125;  228.475;    0.000
422.243; 2586.125;  206.475;    0.000
422.295; 2523.125;  236.475;    0.000
422.348; 2611.125;  232.475;    0.000
422.401; 2623.125;  228.475;    0.000
422.453; 2488.125;  239.475;    0.000
422.506; 2532.125;  226.475;    0.000
422.559; 2631.125;  205.475;    0.000
422.611; 2715.125;  235.475;    0.000
422.664; 2833.125;  231.475;    0.000
422.716; 2953.125;  228.475;    0.000
422.769; 2631.125;  204.475;    0.000
422.822; 2505.125;  205.475;    0.000
422.874; 2391.125;  228.475;    0.000
422.927; 2556.125;  266.475;    0.000
422.979; 2520.125;  223.475;    0.000
423.032; 2533.125;  207.475;    0.000
423.084; 2570.125;  211.475;    0.000
423.137; 2557.125;  205.475;    0.000
423.189; 2505.125;  254.475;    0.000
423.242; 2503.125;  208.475;    0.000
423.294; 2572.125;  240.475;    0.000
423.347; 2460.125;  218.475;    0.000
423.399; 2556.125;  237.475;    0.000
423.452; 2582.125;  242.475;    0.000
423.504; 2559.125;  225.475;    0.000
423.557; 2523.125;  195.475;    0.000
423.609; 2573.125;  206.475;    0.000
423.662; 2573.125;  211.475;    0.000
423.714; 2510.125;  252.475;    0.000
423.766; 2501.125;  181.475;    0.000
423.819; 2515.125;  216.475;    0.000
423.871; 2388.125;  216.475;    0.000
423.923; 2438.125;  222.475;    0.000
423.976; 2526.125;  223.475;    0.000
424.028; 2512.125;  229.475;    0.000
424.081; 2521.125;  267.475;    0.000
424.133; 2483.125;  251.475;    0.000
424.185; 2588.125;  238.475;    0.000
424.238; 2532.125;  220.475;    0.000
424.290; 2475.125;  259.475;    0.000
424.342; 2454.125;  248.475;    0.000
424.394; 2463.125;  234.475;    0.000
424.447; 2523.125;  248.475;    0.000
424.499; 2491.125;  233.475;    0.000
424.551; 2549.125;  236.475;    0.000
424.603; 2408.125;  207.475;    0.000
424.656; 2349.125;  210.475;    0.000
424.708; 2393.125;  251.475;    0.000
424.760; 2513.125;  221.475;    0.000
424.812; 2432.125;  275.475;    0.000
424.864; 2511.125;  206.475;    0.000
424.917; 2390.125;  198.475;    0.000
424.969; 2568.125;  246.475;    0.000
425.021; 2496.125;  209.475;    0.000
425.073; 2401.125;  242.475;    0.000
425.125; 2483.125;  254.475;    0.000
425.177; 2482.125;  224.475;    0.000
425.229; 2425.125;  256.475;    0.000
425.282; 2347.125;  265.475;    0.000
425.334; 2454.125;  266.475;    0.000
425.386; 2399.125;  242.475;    0.000
425.438; 2462.125;  205.475;    0.000
425.490; 2476.125;  227.475;    0.000
425.542; 2369.125;  235.475;    0.000
425.594; 2422.125;  210.475;    0.000
425.646; 2391.125;  232.475;    0.000
425.698; 2400.125;  243.475;    0.000
425.750; 2385.125;  230.475;    0.000
425.802; 2344.125;  218.475;    0.000
425.854; 2434.125;  222.475;    0.000
425.906; 2363.125;  235.475;    0.000
425.958; 2399.125;  220.475;    0.000
426.010; 2376.125;  236.475;    0.000
426.062; 2393.125;  230.475;    0.000
426.114; 2382.125;  216.475;    0.000
426.166; 2305.125;  230.475;    0.000
426.218; 2385.125;  237.475;    0.000
426.270; 2485.125;  217.475;    0.000
426.321; 2308.125;  224.475;    0.000
426.373; 2402.125;  207.475;    0.000
426.425; 2386.125;  278.475;    0.000
426.477; 2354.125;  243.475;    0.000
426.529; 2328.125;  247.475;    0.000
426.581; 2291.125;  229.475;    0.000
426.633; 2296.125;  212.475;    0.000
426.684; 2348.125;  244.475;    0.000
426.736; 2326.125;  250.475;    0.000
426.788; 2289.125;  210.475;    0.000
426.840; 2379.125;  201.475;    0.000
426.892; 2421.125;  225.475;    0.000
426.943; 2349.125;  215.475;    0.000
426.995; 2376.125;  216.475;    0.000
427.047; 2360.125;  216.475;    0.000
427.099; 2301.125;  203.475;    0.000
427.150; 2396.125;  195.475;    0.000
427.202; 2296.125;  212.475;    0.000
427.254; 2279.125;  233.475;    0.000
427.306; 2291.125;  211.475;    0.000
427.357; 2330.125;  210.475;    0.000
427.409; 2309.125;  244.475;    0.000
427.461; 2335.125;  187.475;    0.000
427.512; 2305.125;  227.475;    0.000
427.564; 2321.125;  210.475;    0.000
427.616; 2292.125;  202.475;    0.000
427.667; 2152.125;  185.475;    0.000
427.719; 2315.125;  222.475;    0.000
427.770; 2260.125;  230.475;    0.000
427.822; 2298.125;  254.475;    0.000
427.874; 2259.125;  222.475;    0.000
427.925; 2299.125;  199.475;    0.000
427.977; 2245.125;  228.475;    0.000
428.028; 2289.125;  226.475;    0.000
428.080; 2342.125;  236.475;    0.000
428.131; 2325.125;  220.475;    0.000
428.183; 2231.125;  256.475;    0.000
428.234; 2326.125;  217.475;    0.000
428.286; 2198.125;  234.475;    0.000
428.337; 2262.125;  209.475;    0.000
428.389; 2300.125;  219.475;    0.000
428.440; 2285.125;  249.475;    0.000
428.492; 2184.125;  255.475;    0.000
428.543; 2336.125;  224.475;    0.000
428.595; 2262.125;  225.475;    0.000
428.646; 2301.125;  240.475;    0.000
428.697; 2230.125;  211.475;    0.000
428.749; 2297.125;  200.475;    0.000
428.800; 2295.125;  235.475;    0.000
428.852; 2220.125;  265.475;    0.000
428.903; 2258.125;  201.475;    0.000
428.954; 2232.125;  242.475;    0.000
429.006; 2266.125;  245.475;    0.000
429.057; 2225.125;  252.475;    0.000
429.108; 2265.125;  211.475;    0.000
429.160; 2224.125;  217.475;    0.000
429.211; 2235.125;  234.475;    0.000
429.262; 2254.125;  205.475;    0.000
429.314; 2240.125;  211.475;    0.000
429.365; 2294.125;  240.475;    0.000
429.416; 2317.125;  263.475;    0.000
429.467; 2163.125;  244.475;    0.000
429.519; 2212.125;  223.475;    0.000
429.570; 2197.125;  214.475;    0.000
429.621; 2228.125;  235.475;    0.000
429.672; 2194.125;  202.475;    0.000
429.724; 2213.125;  189.475;    0.000
429.775; 2203.125;  214.475;    0.000
429.826; 2164.125;  178.475;    0.000
429.877; 2149.125;  224.475;    0.000
429.928; 2120.125;  230.475;    0.000
429.980; 2144.125;  199.475;    0.000
430.031; 2181.125;  208.475;    0.000
430.082; 2205.125;  224.475;    0.000
430.133; 2160.125;  193.475;    0.000
430.184; 2177.125;  220.475;    0.000
430.235; 2207.125;  184.475;    0.000
430.286; 2124.125;  197.475;    0.000
430.337; 2184.125;  199.475;    0.000
430.388; 2221.125;  207.475;    0.000
430.439; 2182.125;  227.475;    0.000
430.490; 2175.125;  215.475;    0.000
430.542; 2133.125;  211.475;    0.000
430.593; 2109.125;  230.475;    0.000
430.644; 2112.125;  186.475;    0.000
430.695; 2158.125;  232.475;    0.000
430.746; 2177.125;  214.475;    0.000
430.797; 2148.125;  260.475;    0.000
430.848; 2206.125;  214.475;    0.000
430.898; 2209.125;  204.475;    0.000
430.949; 2168.125;  189.475;    0.000
431.000; 2182.125;  240.475;    0.000
431.051; 2153.125;  201.475;    0.000
431.102; 2034.125;  188.475;    0.000
431.153; 2182.125;  209.475;    0.000
431.204; 2111.125;  187.475;    0.000
431.255; 2126.125;  171.475;    0.000
431.306; 2150.125;  181.475;    0.000
431.357; 2256.125;  221.475;    0.000
431.408; 2102.125;  217.475;    0.000
431.458; 2203.125;  206.475;    0.000
431.509; 2220.125;  194.475;    0.000
431.560; 2268.125;  235.475;    0.000
431.611; 2177.125;  213.475;    0.000
431.662; 2186.125;  237.475;    0.000
431.713; 2201.125;  220.475;    0.000
431.763; 2257.125;  212.475;    0.000
431.814; 2225.125;  238.475;    0.000
431.865; 2166.125;  213.475;    0.000
431.916; 2122.125;  191.475;    0.000
431.966; 2166.125;  171.475;    0.000
432.017; 2158.125;  263.475;    0.000
432.068; 2158.125;  240.475;    0.000
432.118; 2142.125;  235.475;    0.000
432.169; 2158.125;  212.475;    0.000
432.220; 2224.125;  188.475;    0.000
432.271; 2190.125;  216.475;    0.000
432.321; 2144.125;  223.475;    0.000
432.372; 2202.125;  254.475;    0.000
432.423; 2138.125;  193.475;    0.000
432.473; 2213.125;  219.475;    0.000
432.524; 2098.125;  215.475;    0.000
432.574; 2211.125;  234.475;    0.000
432.625; 2194.125;  226.475;    0.000
432.676; 2188.125;  219.475;    0.000
432.726; 2140.125;  254.475;    0.000
432.777; 2124.125;  210.475;    0.000
432.827; 2167.125;  234.475;    0.000
432.878; 2166.125;  212.475;    0.000
432.928; 2133.125;  238.475;    0.000
432.979; 2113.125;  252.475;    0.000
433.029; 2149.125;  222.475;    0.000
433.080; 2117.125;  188.475;    0.000
433.130; 2098.125;  223.475;    0.000
433.181; 2126.125;  254.475;    0.000
433.231; 2206.125;  237.475;    0.000
433.282; 2198.125;  242.475;    0.000
433.332; 2156.125;  261.475;    0.000
433.383; 2118.125;  266.475;    0.000
433.433; 2132.125;  286.475;    0.000
433.484; 2192.125;  231.475;    0.000
433.534; 2158.125;  256.475;    0.000
433.585; 2143.125;  253.475;    0.000
433.635; 2134.125;  228.475;    0.000
433.685; 2159.125;  226.475;    0.000
433.736; 2101.125;  276.475;    0.000
433.786; 2212.125;  253.475;    0.000
433.836; 2145.125;  289.475;    0.000
433.887; 2096.125;  241.475;    0.000
433.937; 2117.125;  252.475;    0.000
433.987; 2132.125;  223.475;    0.000
434.038; 2259.125;  241.475;    0.000
434.088; 2160.125;  231.475;    0.000
434.138; 2217.125;  259.475;    0.000
434.189; 2206.125;  263.475;    0.000
434.239; 2161.125;  194.475;    0.000
434.289; 2205.125;  273.475;    0.000
434.339; 2161.125;  212.475;    0.000
434.389; 2110.125;  248.475;    0.000
434.440; 2308.125;  250.475;    0.000
434.490; 2214.125;  278.475;    0.000
434.540; 2260.125;  241.475;    0.000
434.590; 2158.125;  251.475;    0.000
434.640; 2250.125;  207.475;    0.000
434.691; 2177.125;  242.475;    0.000
434.741; 2176.125;  218.475;    0.000
434.791; 2271.125;  267.475;    0.000
434.841; 2280.125;  272.475;    0.000
434.891; 2288.125;  260.475;    0.000
434.941; 2292.125;  258.475;    0.000
434.991; 2211.125;  264.475;    0.000
435.042; 2187.125;  264.475;    0.000
435.092; 2199.125;  271.475;    0.000
435.142; 2153.125;  229.475;    0.000
435.192; 2227.125;  226.475;    0.000
435.242; 2251.125;  253.475;    0.000
435.292; 2175.125;  215.475;    0.000
435.342; 2203.125;  240.475;    0.000
435.392; 2190.125;  235.475;    0.000
435.442; 2221.125;  230.475;    0.000
435.492; 2133.125;  235.475;    0.000
435.542; 2111.125;  230.475;    0.000
435.592; 2141.125;  239.475;    0.000
435.642; 2096.125;  244.475;    0.000
435.692; 2088.125;  236.475;    0.000
435.742; 2054.125;  236.475;    0.000
435.792; 2115.125;  230.475;    0.000
435.842; 2080.125;  248.475;    0.000
435.891; 2099.125;  233.475;    0.000
435.941; 2083.125;  243.475;    0.000
435.991; 2130.125;  279.475;    0.000
436.041; 2049.125;  204.475;    0.000
436.091; 2089.125;  217.475;    0.000
436.141; 2069.125;  205.475;    0.000
436.191; 2053.125;  220.475;    0.000
436.241; 2008.125;  248.475;    0.000
436.290; 2062.125;  255.475;    0.000
436.340; 2050.125;  235.475;    0.000
436.390; 2080.125;  207.475;    0.000
436.440; 2022.125;  207.475;    0.000
436.490; 1995.125;  251.475;    0.000
436.539; 2088.125;  240.475;    0.000
436.589; 2076.125;  198.475;    0.000
436.639; 2011.125;  240.475;    0.000
436.689; 2018.125;  216.475;    0.000
436.738; 2003.125;  246.475;    0.000
436.788; 2093.125;  203.475;    0.000
436.838; 2057.125;  230.475;    0.000
436.887; 2065.125;  235.475;    0.000
436.937; 2026.125;  249.475;    0.000
436.987; 2059.125;  208.475;    0.000
437.036; 2006.125;  232.475;    0.000
437.086; 2084.125;  238.475;    0.000
437.136; 1980.125;  228.475;    0.000
437.185; 1964.125;  219.475;    0.000
437.235; 2041.125;  227.475;    0.000
437.285; 2102.125;  241.475;    0.000
437.334; 2063.125;  216.475;    0.000
437.384; 2041.125;  243.475;    0.000
437.433; 2017.125;  214.475;    0.000
437.483; 2026.125;  246.475;    0.000
437.532; 2106.125;  261.475;    0.000
437.582; 2039.125;  205.475;    0.000
437.631; 1998.125;  218.475;    0.000
437.681; 2108.125;  240.475;    0.000
437.730; 2002.125;  258.475;    0.000
437.780; 1996.125;  237.475;    0.000
437.829; 1989.125;  209.475;    0.000
437.879; 1960.125;  214.475;    0.000
437.928; 2001.125;  223.475;    0.000
437.978; 2004.125;  220.475;    0.000
438.027; 2013.125;  239.475;    0.000
438.077; 1988.125;  231.475;    0.000
438.126; 1901.125;  266.475;    0.000
438.176; 2008.125;  234.475;    0.000
438.225; 1957.125;  237.475;    0.000
438.274; 2004.125;  234.475;    0.000
438.324; 1911.125;  244.475;    0.000
438.373; 1988.125;  232.475;    0.000
438.422; 2045.125;  218.475;    0.000
438.472; 1970.125;  221.475;    0.000
438.521; 1949.125;  190.475;    0.000
438.570; 1959.125;  243.475;    0.000
438.620; 1993.125;  255.475;    0.000
438.669; 1896.125;  210.475;    0.000
438.718; 1986.125;  237.475;    0.000
438.768; 1952.125;  220.475;    0.000
438.817; 2007.125;  218.475;    0.000
438.866; 1932.125;  198.475;    0.000
438.915; 2055.125;  256.475;    0.000
438.965; 1956.125;  221.475;    0.000
439.014; 1927.125;  255.475;    0.000
439.063; 1959.125;  276.475;    0.000
439.112; 1959.125;  220.475;    0.000
439.162; 1963.125;  253.475;    0.000
439.211; 2007.125;  247.475;    0.000
439.260; 1887.125;  220.475;    0.000
439.309; 1963.125;  235.475;    0.000
439.358; 1963.125;  205.475;    0.000
439.407; 1961.125;  207.475;    0.000
439.456; 1991.125;  216.475;    0.000
439.506; 1995.125;  245.475;    0.000
439.555; 2075.125;  264.475;    0.000
439.604; 1955.125;  227.475;    0.000
439.653; 1968.125;  220.475;    0.000
439.702; 1977.125;  223.475;    0.000
439.751; 1959.125;  197.475;    0.000
439.800; 2035.125;  207.475;    0.000
439.849; 1987.125;  238.475;    0.000
439.898; 1941.125;  209.475;    0.000
439.947; 1956.125;  170.475;    0.000
439.996; 2053.125;  233.475;    0.000
440.045; 2013.125;  222.475;    0.000
440.094; 2001.125;  240.475;    0.000
440.143; 2042.125;  249.475;    0.000
440.192; 2017.125;  252.475;    0.000
440.241; 1946.125;  239.475;    0.000
440.290; 2062.125;  234.475;    0.000
440.339; 2014.125;  241.475;    0.000
440.388; 1970.125;  239.475;    0.000
440.437; 1950.125;  231.475;    0.000
440.486; 2024.125;  254.475;    0.000
440.535; 1946.125;  266.475;    0.000
440.583; 1974.125;  205.475;    0.000
440.632; 1928.125;  234.475;    0.000
440.681; 1994.125;  218.475;    0.000
440.730; 2077.125;  248.475;    0.000
440.779; 2020.125;  246.475;    0.000
440.828; 1990.125;  235.475;    0.000
440.876; 2021.125;  218.475;    0.000
440.925; 2044.125;  228.475;    0.000
440.974; 2016.125;  249.475;    0.000
441.023; 2049.125;  192.475;    0.000
441.072; 2012.125;  226.475;    0.000
441.120; 2074.125;  238.475;    0.000
441.169; 2007.125;  255.475;    0.000
441.218; 2009.125;  233.475;    0.000
441.267; 2102.125;  231.475;    0.000
441.315; 2073.125;  214.475;    0.000
441.364; 2026.125;  250.475;    0.000
441.413; 2097.125;  228.475;    0.000
441.461; 2054.125;  209.475;    0.000
441.510; 2126.125;  260.475;    0.000
441.559; 2124.125;  230.475;    0.000
441.607; 2134.125;  220.475;    0.000
441.656; 2070.125;  251.475;    0.000
441.705; 2130.125;  237.475;    0.000
441.753; 2122.125;  257.475;    0.000
441.802; 2113.125;  256.475;    0.000
441.850; 2126.125;  253.475;    0.000
441.899; 2106.125;  212.475;    0.000
441.948; 2006.125;  251.475;    0.000
441.996; 1994.125;  239.475;    0.000
442.045; 2048.125;  223.475;    0.000
442.093; 2026.125;  211.475;    0.000
442.142; 2050.125;  235.475;    0.000
442.190; 2100.125;  254.475;    0.000
442.239; 1968.125;  226.475;    0.000
442.287; 2043.125;  242.475;    0.000
442.336; 2122.125;  256.475;    0.000
442.384; 2032.125;  252.475;    0.000
442.433; 2149.125;  262.475;    0.000
442.481; 2081.125;  246.475;    0.000
442.529; 2017.125;  290.475;    0.000
442.578; 2022.125;  247.475;    0.000
442.626; 2063.125;  247.475;    0.000
442.675; 2074.125;  272.475;    0.000
442.723; 2010.125;  230.475;    0.000
442.771; 2052.125;  234.475;    0.000
442.820; 2074.125;  224.475;    0.000
442.868; 1981.125;  246.475;    0.000
442.917; 2034.125;  249.475;    0.000
442.965; 2094.125;  260.475;    0.000
443.013; 2109.125;  258.475;    0.000
443.062; 2074.125;  259.475;    0.000
443.110; 2048.125;  226.475;    0.000
443.158; 2098.125;  213.475;    0.000
443.206; 1998.125;  201.475;    0.000
443.255; 2082.125;  280.475;    0.000
443.303; 2096.125;  292.475;    0.000
443.351; 2103.125;  256.475;    0.000
443.399; 2044.125;  215.475;    0.000
443.448; 2082.125;  243.475;    0.000
443.496; 2076.125;  249.475;    0.000
443.544; 2033.125;  231.475;    0.000
443.592; 2051.125;  243.475;    0.000
443.640; 2221.125;  252.475;    0.000
443.689; 2076.125;  220.475;    0.000
443.737; 2089.125;  231.475;    0.000
443.785; 2062.125;  256.475;    0.000
443.833; 2153.125;  268.475;    0.000
443.881; 2066.125;  181.475;    0.000
443.929; 2181.125;  245.475;    0.000
443.977; 2124.125;  278.475;    0.000
444.025; 2086.125;  245.475;    0.000
444.074; 2146.125;  233.475;    0.000
444.122; 2122.125;  267.475;    0.000
444.170; 2152.125;  247.475;    0.000
444.218; 2213.125;  246.475;    0.000
444.266; 2222.125;  275.475;    0.000
444.314; 2264.125;  263.475;    0.000
444.362; 2124.125;  240.475;    0.000
444.410; 2211.125;  220.475;    0.000
444.458; 2152.125;  258.475;    0.000
444.506; 2140.125;  258.475;    0.000
444.554; 2169.125;  224.475;    0.000
444.602; 2183.125;  245.475;    0.000
444.650; 2243.125;  261.475;    0.000
444.698; 2203.125;  232.475;    0.000
444.746; 2227.125;  206.475;    0.000
444.793; 2168.125;  249.475;    0.000
444.841; 2269.125;  261.475;    0.000
444.889; 2319.125;  221.475;    0.000
444.937; 2133.125;  215.475;    0.000
444.985; 2221.125;  244.475;    0.000
445.033; 2243.125;  211.475;    0.000
445.081; 2186.125;  225.475;    0.000
445.129; 2105.125;  217.475;    0.000
445.176; 2084.125;  196.475;    0.000
445.224; 2124.125;  211.475;    0.000
445.272; 2165.125;  242.475;    0.000
445.320; 2166.125;  225.475;    0.000
445.368; 2206.125;  249.475;    0.000
445.415; 2191.125;  243.475;    0.000
445.463; 2135.125;  242.475;    0.000
445.511; 2226.125;  248.475;    0.000
445.559; 2162.125;  219.475;    0.000
445.606; 2092.125;  221.475;    0.000
445.654; 2157.125;  202.475;    0.000
445.702; 2149.125;  210.475;    0.000
445.749; 2184.125;  249.475;    0.000
445.797; 2130.125;  206.475;    0.000
445.845; 2161.125;  213.475;    0.000
445.892; 2176.125;  224.475;    0.000
445.940; 2106.125;  214.475;    0.000
445.988; 2183.125;  247.475;    0.000
446.035; 2158.125;  204.475;    0.000
446.083; 2258.125;  235.475;    0.000
446.130; 2093.125;  195.475;    0.000
446.178; 2146.125;  236.475;    0.000
446.226; 2065.125;  218.475;    0.000
446.273; 2148.125;  215.475;    0.000
446.321; 2154.125;  222.475;    0.000
446.368; 2168.125;  228.475;    0.000
446.416; 2224.125;  223.475;    0.000
446.463; 2140.125;  220.475;    0.000
446.511; 2151.125;  198.475;    0.000
446.558; 2138.125;  208.475;    0.000
446.606; 2211.125;  253.475;    0.000
446.653; 2129.125;  198.475;    0.000
446.701; 2325.125;  231.475;    0.000
446.748; 2241.125;  224.475;    0.000
446.796; 2094.125;  201.475;    0.000
446.843; 2153.125;  257.475;    0.000
446.891; 2182.125;  218.475;    0.000
446.938; 2190.125;  232.475;    0.000
446.985; 2158.125;  229.475;    0.000
447.033; 2176.125;  251.475;    0.000
447.080; 2256.125;  257.475;    0.000
447.128; 2166.125;  232.475;    0.000
447.175; 2308.125;  269.475;    0.000
447.222; 2270.125;  185.475;    0.000
447.270; 2277.125;  264.475;    0.000
447.317; 2311.125;  225.475;    0.000
447.364; 2390.125;  243.475;    0.000
447.411; 2371.125;  263.475;    0.000
447.459; 2318.125;  257.475;    0.000
447.506; 2352.125;  175.475;    0.000
447.553; 2385.125;  203.475;    0.000
447.601; 2340.125;  238.475;    0.000
447.648; 2389.125;  244.475;    0.000
447.695; 2468.125;  249.475;    0.000
447.742; 2377.125;  234.475;    0.000
447.789; 2492.125;  228.475;    0.000
447.837; 2513.125;  258.475;    0.000
447.884; 2502.125;  243.475;    0.000
447.931; 2545.125;  235.475;    0.000
447.978; 2654.125;  224.475;    0.000
448.025; 2601.125;  245.475;    0.000
448.072; 2604.125;  212.475;    0.000
448.120; 2592.125;  256.475;    0.000
448.167; 2638.125;  240.475;    0.000
448.214; 2570.125;  247.475;    0.000
448.261; 2556.125;  245.475;    0.000
448.308; 2561.125;  273.475;    0.000
448.355; 2481.125;  257.475;    0.000
448.402; 2506.125;  259.475;    0.000
448.449; 2408.125;  238.475;    0.000
448.496; 2419.125;  245.475;    0.000
448.543; 2332.125;  217.475;    0.000
448.590; 2424.125;  269.475;    0.000
448.637; 2368.125;  250.475;    0.000
448.684; 2247.125;  250.475;    0.000
448.731; 2299.125;  235.475;    0.000
448.778; 2315.125;  265.475;    0.000
448.825; 2215.125;  257.475;    0.000
448.872; 2171.125;  234.475;    0.000
448.919; 2237.125;  216.475;    0.000
448.966; 2219.125;  274.475;    0.000
449.013; 2109.125;  263.475;    0.000
449.060; 2141.125;  247.475;    0.000
449.107; 2127.125;  218.475;    0.000
449.154; 2076.125;  225.475;    0.000
449.200; 2113.125;  212.475;    0.000
449.247; 2156.125;  242.475;    0.000
449.294; 2138.125;  228.475;    0.000
449.341; 2125.125;  232.475;    0.000
449.388; 1997.125;  247.475;    0.000
449.435; 2040.125;  227.475;    0.000
449.481; 2087.125;  270.475;    0.000
449.528; 2144.125;  265.475;    0.000
449.575; 2068.125;  255.475;    0.000
449.622; 2058.125;  210.475;    0.000
449.668; 2073.125;  234.475;    0.000
449.715; 2065.125;  262.475;    0.000
449.762; 2077.125;  247.475;    0.000
449.809; 2061.125;  286.475;    0.000
449.855; 2098.125;  246.475;    0.000
449.902; 1990.125;  224.475;    0.000
449.949; 2060.125;  244.475;    0.000
449.995; 2038.125;  274.475;    0.000
450.042; 2076.125;  272.475;    0.000
450.089; 2150.125;  274.475;    0.000
450.135; 2102.125;  285.475;    0.000
450.182; 2011.125;  251.475;    0.000
450.229; 2006.125;  242.475;    0.000
450.275; 2013.125;  277.475;    0.000
450.322; 2004.125;  260.475;    0.000
450.368; 2054.125;  257.475;    0.000
450.415; 2007.125;  276.475;    0.000
450.462; 2068.125;  298.475;    0.000
450.508; 2080.125;  255.475;    0.000
450.555; 1995.125;  271.475;    0.000
450.601; 2002.125;  281.475;    0.000
450.648; 1947.125;  249.475;    0.000
450.694; 1983.125;  270.475;    0.000
450.741; 2043.125;  256.475;    0.000
450.787; 1977.125;  292.475;    0.000
450.834; 1998.125;  221.475;    0.000
450.880; 1985.125;  265.475;    0.000
450.927; 1949.125;  242.475;    0.000
450.973; 1967.125;  259.475;    0.000
451.019; 1914.125;  221.475;    0.000
451.066; 1880.125;  257.475;    0.000
451.112; 1988.125;  251.475;    0.000
451.159; 1966.125;  278.475;    0.000
451.205; 1925.125;  274.475;    0.000
451.251; 1922.125;  281.475;    0.000
451.298; 1961.125;  273.475;    0.000
451.344; 1941.125;  246.475;    0.000
451.390; 1978.125;  286.475;    0.000
451.437; 1968.125;  268.475;    0.000
451.483; 2002.125;  315.475;    0.000
451.529; 2020.125;  251.475;    0.000
451.576; 1974.125;  306.475;    0.000
451.622; 1908.125;  234.475;    0.000
451.668; 1945.125;  243.475;    0.000
451.714; 1998.125;  256.475;    0.000
451.761; 1967.125;  264.475;    0.000
451.807; 1996.125;  284.475;    0.000
451.853; 1975.125;  282.475;    0.000
451.899; 1880.125;  240.475;    0.000
451.945; 1942.125;  263.475;    0.000
451.992; 1983.125;  255.475;    0.000
452.038; 1893.125;  273.475;    0.000
452.084; 1943.125;  274.475;    0.000
452.130; 1905.125;  261.475;    0.000
452.176; 1866.125;  246.475;    0.000
452.222; 1871.125;  238.475;    0.000
452.268; 1832.125;  267.475;    0.000
452.315; 1841.125;  274.475;    0.000
452.361; 1950.125;  241.475;    0.000
452.407; 1850.125;  274.475;    0.000
452.453; 1931.125;  260.475;    0.000
452.499; 1881.125;  232.475;    0.000
452.545; 1912.125;  252.475;    0.000
452.591; 1844.125;  263.475;    0.000
452.637; 1872.125;  208.475;    0.000
452.683; 1875.125;  237.475;    0.000
452.729; 1938.125;  263.475;    0.000
452.775; 1953.125;  291.475;    0.000
452.821; 1851.125;  238.475;    0.000
452.867; 1843.125;  223.475;    0.000
452.913; 1869.125;  257.475;    0.000
452.959; 1868.125;  238.475;    0.000
453.005; 1866.125;  252.475;    0.000
453.051; 1951.125;  260.475;    0.000
453.097; 1931.125;  268.475;    0.000
453.142; 1844.125;  231.475;    0.000
453.188; 1865.125;  266.475;    0.000
453.234; 1794.125;  233.475;    0.000
453.280; 1755.125;  219.475;    0.000
453.326; 1897.125;  265.475;    0.000
453.372; 1823.125;  238.475;    0.000
453.418; 1820.125;  240.475;    0.000
453.463; 1920.125;  219.475;    0.000
453.509; 1861.125;  264.475;    0.000
453.555; 1856.125;  247.475;    0.000
453.601; 1797.125;  230.475;    0.000
453.647; 1851.125;  285.475;    0.000
453.692; 1825.125;  240.475;    0.000
453.738; 1828.125;  233.475;    0.000
453.784; 1891.125;  230.475;    0.000
453.829; 1782.125;  246.475;    0.000
453.875; 1879.125;  261.475;    0.000
453.921; 1830.125;  203.475;    0.000
453.967; 1817.125;  241.475;    0.000
454.012; 1911.125;  250.475;    0.000
454.058; 1888.125;  252.475;    0.000
454.104; 1909.125;  239.475;    0.000
454.149; 1860.125;  250.475;    0.000
454.195; 1856.125;  243.475;    0.000
454.240; 1875.125;  252.475;    0.000
454.286; 1933.125;  245.475;    0.000
454.332; 1850.125;  286.475;    0.000
454.377; 1839.125;  254.475;    0.000
454.423; 1821.125;  246.475;    0.000
454.468; 1879.125;  235.475;    0.000
454.514; 1852.125;  231.475;    0.000
454.559; 1842.125;  246.475;    0.000
454.605; 1835.125;  204.475;    0.000
454.650; 1904.125;  272.475;    0.000
454.696; 1831.125;  222.475;    0.000
454.741; 1891.125;  290.475;    0.000
454.787; 1810.125;  262.475;    0.000
454.832; 1813.125;  227.475;    0.000
454.878; 1869.125;  241.475;    0.000
454.923; 1851.125;  272.475;    0.000
454.969; 1853.125;  290.475;    0.000
455.014; 1826.125;  278.475;    0.000
455.060; 1844.125;  246.475;    0.000
455.105; 1814.125;  231.475;    0.000
455.150; 1925.125;  265.475;    0.000
455.196; 1846.125;  266.475;    0.000
455.241; 1912.125;  258.475;    0.000
455.286; 1847.125;  266.475;    0.000
455.332; 1900.125;  252.475;    0.000
455.377; 1878.125;  219.475;    0.000
455.422; 1938.125;  262.475;    0.000
455.468; 1855.125;  260.475;    0.000
455.513; 1777.125;  212.475;    0.000
455.558; 1797.125;  197.475;    0.000
455.604; 1826.125;  262.475;    0.000
455.649; 1874.125;  238.475;    0.000
455.694; 1811.125;  221.475;    0.000
455.739; 1822.125;  251.475;    0.000
455.785; 1876.125;  287.475;    0.000
455.830; 1916.125;  284.475;    0.000
455.875; 1896.125;  234.475;    0.000
455.920; 1875.125;  215.475;    0.000
455.965; 1798.125;  256.475;    0.000
456.010; 1905.125;  266.475;    0.000
456.056; 1849.125;  263.475;    0.000
456.101; 1861.125;  240.475;    0.000
456.146; 1869.125;  258.475;    0.000
456.191; 1860.125;  241.475;    0.000
456.236; 1752.125;  252.475;    0.000
456.281; 1788.125;  218.475;    0.000
456.326; 1800.125;  251.475;    0.000
456.371; 1852.125;  256.475;    0.000
456.416; 1823.125;  301.475;    0.000
456.461; 1905.125;  233.475;    0.000
456.507; 1825.125;  218.475;    0.000
456.552; 1849.125;  278.475;    0.000
456.597; 1835.125;  223.475;    0.000
456.642; 1873.125;  203.475;    0.000
456.687; 1780.125;  245.475;    0.000
456.732; 1898.125;  256.475;    0.000
456.776; 1888.125;  244.475;    0.000
456.821; 1925.125;  276.475;    0.000
456.866; 1820.125;  232.475;    0.000
456.911; 1833.125;  225.475;    0.000
456.956; 1844.125;  237.475;    0.000
457.001; 1895.125;  261.475;    0.000
457.046; 1828.125;  205.475;    0.000
457.091; 1905.125;  241.475;    0.000
457.136; 1818.125;  217.475;    0.000
457.181; 1803.125;  251.475;    0.000
457.225; 1831.125;  241.475;    0.000
457.270; 1887.125;  237.475;    0.000
457.315; 1866.125;  279.475;    0.000
457.360; 1818.125;  245.475;    0.000
457.405; 1801.125;  202.475;    0.000
457.450; 1923.125;  247.475;    0.000
457.494; 1819.125;  243.475;    0.000
457.539; 1840.125;  222.475;    0.000
457.584; 1828.125;  239.475;    0.000
457.629; 1786.125;  236.475;    0.000
457.673; 1887.125;  234.475;    0.000
457.718; 1871.125;  202.475;    0.000
457.763; 1851.125;  274.475;    0.000
457.807; 1851.125;  236.475;    0.000
457.852; 1900.125;  265.475;    0.000
457.897; 1899.125;  252.475;    0.000
457.941; 1851.125;  264.475;    0.000
457.986; 1901.125;  280.475;    0.000
458.031; 1899.125;  217.475;    0.000
458.075; 1951.125;  249.475;    0.000
458.120; 1931.125;  257.475;    0.000
458.165; 1849.125;  183.475;    0.000
458.209; 1952.125;  245.475;    0.000
458.254; 1963.125;  245.475;    0.000
458.298; 1971.125;  265.475;    0.000
458.343; 1831.125;  241.475;    0.000
458.387; 1924.125;  262.475;    0.000
458.432; 1927.125;  245.475;    0.000
458.476; 1895.125;  255.475;    0.000
458.521; 1859.125;  269.475;    0.000
458.565; 2041.125;  265.475;    0.000
458.610; 1979.125;  222.475;    0.000
458.654; 1925.125;  257.475;    0.000
458.699; 1933.125;  296.475;    0.000
458.743; 1995.125;  203.475;    0.000
458.788; 2062.125;  267.475;    0.000
458.832; 2049.125;  274.475;    0.000
458.877; 1974.125;  251.475;    0.000
458.921; 1970.125;  237.475;    0.000
458.965; 2007.125;  264.475;    0.000
459.010; 2006.125;  256.475;    0.000
459.054; 2018.125;  280.475;    0.000
459.099; 2016.125;  240.475;    0.000
459.143; 2060.125;  287.475;    0.000
459.187; 2097.125;  257.475;    0.000
459.231; 1958.125;  273.475;    0.000
459.276; 1996.125;  231.475;    0.000
459.320; 2045.125;  261.475;    0.000
459.364; 2025.125;  278.475;    0.000
459.409; 2102.125;  249.475;    0.000
459.453; 2106.125;  235.475;    0.000
459.497; 2093.125;  262.475;    0.000
459.541; 2068.125;  269.475;    0.000
459.586; 2058.125;  240.475;    0.000
459.630; 2140.125;  261.475;    0.000
459.674; 2050.125;  276.475;    0.000
459.718; 2062.125;  236.475;    0.000
459.762; 2057.125;  263.475;    0.000
459.807; 2150.125;  263.475;    0.000
459.851; 2091.125;  225.475;    0.000
459.895; 2110.125;  247.475;    0.000
459.939; 2136.125;  231.475;    0.000
459.983; 2146.125;  242.475;    0.000
460.027; 2062.125;  248.475;    0.000
460.071; 2209.125;  273.475;    0.000
460.115; 2140.125;  282.475;    0.000
460.159; 2145.125;  264.475;    0.000
460.204; 2144.125;  288.475;    0.000
460.248; 2146.125;  293.475;    0.000
460.292; 2218.125;  277.475;    0.000
460.336; 2141.125;  250.475;    0.000
460.380; 2212.125;  275.475;    0.000
460.424; 2185.125;  243.475;    0.000
460.468; 2282.125;  277.475;    0.000
460.512; 2220.125;  261.475;    0.000
460.556; 2138.125;  266.475;    0.000
460.599; 2199.125;  246.475;    0.000
460.643; 2200.125;  256.475;    0.000
460.687; 2154.125;  257.475;    0.000
460.731; 2183.125;  235.475;    0.000
460.775; 2178.125;  278.475;    0.000
460.819; 2175.125;  268.475;    0.000
460.863; 2217.125;  257.475;    0.000
460.907; 2180.125;  213.475;    0.000
460.951; 2127.125;  274.475;    0.000
460.995; 2286.125;  258.475;    0.000
461.038; 2231.125;  219.475;    0.000
461.082; 2148.125;  253.475;    0.000
461.126; 2157.125;  281.475;    0.000
461.170; 2151.125;  244.475;    0.000
461.214; 2164.125;  262.475;    0.000
461.257; 2189.125;  284.475;    0.000
461.301; 2171.125;  275.475;    0.000
461.345; 2156.125;  267.475;    0.000
461.389; 2197.125;  255.475;    0.000
461.432; 2149.125;  282.475;    0.000
461.476; 2134.125;  263.475;    0.000
461.520; 2133.125;  260.475;    0.000
461.563; 2191.125;  278.475;    0.000
461.607; 2178.125;  236.475;    0.000
461.651; 2282.125;  262.475;    0.000
461.694; 2154.125;  236.475;    0.000
461.738; 2244.125;  295.475;    0.000
461.782; 2259.125;  252.475;    0.000
461.825; 2216.125;  271.475;    0.000
461.869; 2256.125;  278.475;    0.000
461.913; 2178.125;  255.475;    0.000
461.956; 2269.125;  254.475;    0.000
462.000; 2269.125;  299.475;    0.000
462.043; 2209.125;  282.475;    0.000
462.087; 2329.125;  274.475;    0.000
462.130; 2274.125;  270.475;    0.000
462.174; 2318.125;  274.475;    0.000
462.217; 2294.125;  272.475;    0.000
462.261; 2314.125;  286.475;    0.000
462.304; 2294.125;  236.475;    0.000
462.348; 2290.125;  262.475;    0.000
462.391; 2272.125;  244.475;    0.000
462.435; 2336.125;  321.475;    0.000
462.478; 2290.125;  230.475;    0.000
462.522; 2372.125;  245.475;    0.000
462.565; 2398.125;  278.475;    0.000
462.608; 2365.125;  303.475;    0.000
462.652; 2387.125;  275.475;    0.000
462.695; 2352.125;  314.475;    0.000
462.739; 2407.125;  307.475;    0.000
462.782; 2428.125;  286.475;    0.000
462.825; 2402.125;  312.475;    0.000
462.869; 2491.125;  338.475;    0.000
462.912; 2439.125;  304.475;    0.000
462.955; 2531.125;  288.475;    0.000
462.998; 2465.125;  292.475;    0.000
463.042; 2482.125;  309.475;    0.000
463.085; 2473.125;  292.475;    0.000
463.128; 2593.125;  317.475;    0.000
463.172; 2305.125;  287.475;    0.000
463.215;  374.125;  313.475;    0.000
463.258;  342.125;  295.475;    0.000
463.301;  294.125;  275.475;    0.000
463.344;  348.125;  311.475;    0.000
463.388;  316.125;  296.475;    0.000
463.431;  274.125;  277.475;    0.000
463.474;  314.125;  364.475;    0.000
463.517;  316.125;  306.475;    0.000
463.560;  329.125;  308.475;    0.000
463.603;  333.125;  343.475;    0.000
463.646;  356.125;  309.475;    0.000
463.690;  328.125;  309.475;    0.000
463.733;  317.125;  320.475;    0.000
463.776;  284.125;  299.475;    0.000
463.819;  326.125;  320.475;    0.000
463.862;  269.125;  283.475;    0.000

