
Integration time [ms]:   1.000
Averaging Nr. [scans]: 1
Smoothing Nr. [pixels]: 0
Data measured with spectrometer [name]: UV1
Wave   ;Sample   ;Dark     ;Reference
[nm]   ;[counts] ;[counts] ;[counts] 

236.381;  127.625;  175.825;    0.000
236.451;  185.625;  220.825;    0.000
236.520;  201.625;  178.825;    0.000
236.590;  189.625;  182.825;    0.000
236.660;  181.625;  180.825;    0.000
236.730;  182.625;  201.825;    0.000
236.799;  183.625;  168.825;    0.000
236.869;  167.625;  205.825;    0.000
236.939;  213.625;  175.825;    0.000
237.009;  143.625;  186.825;    0.000
237.078;  166.625;  200.825;    0.000
237.148;  166.625;  156.825;    0.000
237.218;  200.625;  190.825;    0.000
237.287;  205.625;  167.825;    0.000
237.357;  190.625;  213.825;    0.000
237.427;  178.625;  164.825;    0.000
237.496; 1164.625;  210.825;    0.000
237.566; 1137.625;  193.825;    0.000
237.636; 1015.625;  179.825;    0.000
237.705; 1080.625;  218.825;    0.000
237.775; 1128.625;  160.825;    0.000
237.845; 1081.625;  207.825;    0.000
237.914; 1215.625;  180.825;    0.000
237.984; 1116.625;  207.825;    0.000
238.054; 1077.625;  149.825;    0.000
238.123; 1063.625;  190.825;    0.000
238.193; 1101.625;  167.825;    0.000
238.263; 1082.625;  172.825;    0.000
238.332; 1091.625;  173.825;    0.000
238.402; 1115.625;  214.825;    0.000
238.471; 1018.625;  181.825;    0.000
238.541; 1085.625;  177.825;    0.000
238.611; 1008.625;  138.825;    0.000
238.680; 1062.625;  168.825;    0.000
238.750; 1094.625;  171.825;    0.000
238.819; 1098.625;  156.825;    0.000
238.889; 1073.625;  194.825;    0.000
238.958; 1099.625;  185.825;    0.000
239.028; 1128.625;  170.825;    0.000
239.097; 1034.625;  159.825;    0.000
239.167; 1192.625;  208.825;    0.000
239.237; 1109.625;  167.825;    0.000
239.306; 1044.625;  154.825;    0.000
239.376; 1155.625;  183.825;    0.000
239.445; 1090.625;  221.825;    0.000
239.515; 1101.625;  208.825;    0.000
239.584; 1061.625;  177.825;    0.000
239.654; 1029.625;  133.825;    0.000
239.723; 1084.625;  167.825;    0.000
239.793; 1038.625;  190.825;    0.000
239.862; 1029.625;  192.825;    0.000
239.932; 1043.625;  174.825;    0.000
240.001; 1077.625;  166.825;    0.000
240.070; 1087.625;  179.825;    0.000
240.140; 1074.625;  191.825;    0.000
240.209; 1093.625;  134.825;    0.000
240.279; 1042.625;  185.825;    0.000
240.348; 1063.625;  193.825;    0.000
240.418; 1054.625;  149.825;    0.000
240.487; 1096.625;  197.825;    0.000
240.556; 1103.625;  193.825;    0.000
240.626; 1130.625;  178.825;    0.000
240.695; 1002.625;  194.825;    0.000
240.765; 1092.625;  178.825;    0.000
240.834; 1003.625;  190.825;    0.000
240.903; 1038.625;  212.825;    0.000
240.973; 1066.625;  153.825;    0.000
241.042; 1044.625;  177.825;    0.000
241.112; 1087.625;  193.825;    0.000
241.181; 1022.625;  171.825;    0.000
241.250;  984.625;  152.825;    0.000
241.320; 1110.625;  176.825;    0.000
241.389; 1053.625;  186.825;    0.000
241.458; 1038.625;  182.825;    0.000
241.528; 1062.625;  175.825;    0.000
241.597; 1051.625;  180.825;    0.000
241.666; 1052.625;  162.825;    0.000
241.736; 1025.625;  187.825;    0.000
241.805; 1036.625;  173.825;    0.000
241.874; 1016.625;  177.825;    0.000
241.943; 1118.625;  208.825;    0.000
242.013; 1059.625;  183.825;    0.000
242.082; 1037.625;  171.825;    0.000
242.151; 1029.625;  208.825;    0.000
242.221; 1019.625;  160.825;    0.000
242.290; 1098.625;  200.825;    0.000
242.359; 1052.625;  167.825;    0.000
242.428; 1029.625;  213.825;    0.000
242.498;  987.625;  156.825;    0.000
242.567; 1042.625;  200.825;    0.000
242.636;  996.625;  178.825;    0.000
242.705; 1017.625;  185.825;    0.000
242.774; 1045.625;  190.825;    0.000
242.844;  996.625;  194.825;    0.000
242.913; 1010.625;  162.825;    0.000
242.982; 1071.625;  189.825;    0.000
243.051; 1045.625;  176.825;    0.000
243.120;  991.625;  213.825;    0.000
243.190; 1019.625;  155.825;    0.000
243.259; 1062.625;  183.825;    0.000
243.328; 1090.625;  170.825;    0.000
243.397; 1013.625;  224.825;    0.000
243.466;  974.625;  172.825;    0.000
243.535;  974.625;  145.825;    0.000
243.605;  988.625;  157.825;    0.000
243.674;  934.625;  199.825;    0.000
243.743; 1057.625;  196.825;    0.000
243.812;  970.625;  152.825;    0.000
243.881;  980.625;  188.825;    0.000
243.950; 1075.625;  154.825;    0.000
244.019; 1036.625;  195.825;    0.000
244.088; 1019.625;  164.825;    0.000
244.158; 1064.625;  220.825;    0.000
244.227;  959.625;  150.825;    0.000
244.296; 1006.625;  153.825;    0.000
244.365; 1017.625;  195.825;    0.000
244.434;  966.625;  136.825;    0.000
244.503;  987.625;  172.825;    0.000
244.572;  968.625;  129.825;    0.000
244.641;  972.625;  132.825;    0.000
244.710; 1061.625;  185.825;    0.000
244.779;  998.625;  164.825;    0.000
244.848; 1000.625;  132.825;    0.000
244.917;  991.625;  196.825;    0.000
244.986;  993.625;  148.825;    0.000
245.055; 1005.625;  192.825;    0.000
245.124;  960.625;  170.825;    0.000
245.193; 1029.625;  172.825;    0.000
245.262;  926.625;  146.825;    0.000
245.331;  907.625;  178.825;    0.000
245.400;  919.625;  108.825;    0.000
245.469;  931.625;  173.825;    0.000
245.538;  935.625;  180.825;    0.000
245.607;  950.625;  171.825;    0.000
245.676;  862.625;  149.825;    0.000
245.745;  850.625;  194.825;    0.000
245.814;  884.625;  186.825;    0.000
245.883;  912.625;  192.825;    0.000
245.952;  840.625;  169.825;    0.000
246.021;  960.625;  190.825;    0.000
246.090;  868.625;  181.825;    0.000
246.159;  859.625;  179.825;    0.000
246.227;  923.625;  182.825;    0.000
246.296;  859.625;  182.825;    0.000
246.365;  945.625;  171.825;    0.000
246.434;  907.625;  218.825;    0.000
246.503;  830.625;  147.825;    0.000
246.572;  868.625;  227.825;    0.000
246.641;  914.625;  193.825;    0.000
246.710;  853.625;  207.825;    0.000
246.779;  918.625;  181.825;    0.000
246.847;  894.625;  179.825;    0.000
246.916;  859.625;  155.825;    0.000
246.985;  904.625;  168.825;    0.000
247.054;  853.625;  137.825;    0.000
247.123;  852.625;  128.825;    0.000
247.192;  864.625;  163.825;    0.000
247.260;  864.625;  173.825;    0.000
247.329;  871.625;  174.825;    0.000
247.398;  895.625;  238.825;    0.000
247.467;  823.625;  168.825;    0.000
247.536;  957.625;  203.825;    0.000
247.604;  809.625;  194.825;    0.000
247.673;  850.625;  145.825;    0.000
247.742;  862.625;  167.825;    0.000
247.811;  894.625;  180.825;    0.000
247.879;  875.625;  187.825;    0.000
247.948;  925.625;  187.825;    0.000
248.017;  816.625;  170.825;    0.000
248.086;  860.625;  223.825;    0.000
248.154;  880.625;  160.825;    0.000
248.223;  862.625;  163.825;    0.000
248.292;  879.625;  201.825;    0.000
248.361;  861.625;  205.825;    0.000
248.429;  903.625;  191.825;    0.000
248.498;  803.625;  194.825;    0.000
248.567;  870.625;  217.825;    0.000
248.635;  862.625;  224.825;    0.000
248.704;  813.625;  204.825;    0.000
248.773;  900.625;  175.825;    0.000
248.841;  894.625;  157.825;    0.000
248.910;  886.625;  206.825;    0.000
248.979;  822.625;  170.825;    0.000
249.047;  835.625;  178.825;    0.000
249.116;  787.625;  183.825;    0.000
249.185;  888.625;  202.825;    0.000
249.253;  798.625;  159.825;    0.000
249.322;  870.625;  177.825;    0.000
249.390;  844.625;  157.825;    0.000
249.459;  822.625;  211.825;    0.000
249.528;  819.625;  181.825;    0.000
249.596;  838.625;  179.825;    0.000
249.665;  840.625;  176.825;    0.000
249.733;  815.625;  186.825;    0.000
249.802;  830.625;  185.825;    0.000
249.871;  844.625;  166.825;    0.000
249.939;  820.625;  163.825;    0.000
250.008;  821.625;  212.825;    0.000
250.076;  834.625;  227.825;    0.000
250.145;  828.625;  172.825;    0.000
250.213;  751.625;  173.825;    0.000
250.282;  767.625;  189.825;    0.000
250.350;  801.625;  166.825;    0.000
250.419;  822.625;  161.825;    0.000
250.487;  819.625;  178.825;    0.000
250.556;  840.625;  208.825;    0.000
250.624;  788.625;  190.825;    0.000
250.693;  795.625;  163.825;    0.000
250.761;  780.625;  194.825;    0.000
250.830;  840.625;  225.825;    0.000
250.898;  749.625;  140.825;    0.000
250.967;  769.625;  167.825;    0.000
251.035;  800.625;  155.825;    0.000
251.104;  835.625;  189.825;    0.000
251.172;  795.625;  136.825;    0.000
251.241;  741.625;  148.825;    0.000
251.309;  785.625;  201.825;    0.000
251.378;  805.625;  169.825;    0.000
251.446;  758.625;  178.825;    0.000
251.514;  822.625;  206.825;    0.000
251.583;  767.625;  178.825;    0.000
251.651;  725.625;  168.825;    0.000
251.720;  799.625;  190.825;    0.000
251.788;  856.625;  209.825;    0.000
251.856;  720.625;  173.825;    0.000
251.925;  732.625;  171.825;    0.000
251.993;  801.625;  188.825;    0.000
252.062;  736.625;  169.825;    0.000
252.130;  803.625;  196.825;    0.000
252.198;  769.625;  210.825;    0.000
252.267;  737.625;  181.825;    0.000
252.335;  717.625;  164.825;    0.000
252.403;  763.625;  152.825;    0.000
252.472;  680.625;  166.825;    0.000
252.540;  765.625;  189.825;    0.000
252.608;  755.625;  198.825;    0.000
252.677;  687.625;  156.825;    0.000
252.745;  748.625;  184.825;    0.000
252.813;  695.625;  163.825;    0.000
252.881;  651.625;  130.825;    0.000
252.950;  722.625;  189.825;    0.000
253.018;  686.625;  164.825;    0.000
253.086;  655.625;  172.825;    0.000
253.155;  654.625;  205.825;    0.000
253.223;  652.625;  175.825;    0.000
253.291;  678.625;  176.825;    0.000
253.359;  600.625;  182.825;    0.000
253.428;  694.625;  222.825;    0.000
253.496;  620.625;  166.825;    0.000
253.564;  581.625;  135.825;    0.000
253.632;  538.625;  184.825;    0.000
253.700;  585.625;  173.825;    0.000
253.769;  676.625;  163.825;    0.000
253.837;  607.625;  179.825;    0.000
253.905;  631.625;  157.825;    0.000
253.973;  596.625;  164.825;    0.000
254.041;  621.625;  170.825;    0.000
254.110;  581.625;  169.825;    0.000
254.178;  598.625;  165.825;    0.000
254.246;  580.625;  126.825;    0.000
254.314;  617.625;  166.825;    0.000
254.382;  617.625;  169.825;    0.000
254.450;  591.625;  170.825;    0.000
254.518;  588.625;  196.825;    0.000
254.587;  581.625;  161.825;    0.000
254.655;  597.625;  187.825;    0.000
254.723;  619.625;  144.825;    0.000
254.791;  596.625;  175.825;    0.000
254.859;  611.625;  168.825;    0.000
254.927;  627.625;  198.825;    0.000
254.995;  583.625;  165.825;    0.000
255.063;  600.625;  150.825;    0.000
255.131;  585.625;  181.825;    0.000
255.199;  608.625;  160.825;    0.000
255.267;  608.625;  131.825;    0.000
255.336;  580.625;  188.825;    0.000
255.404;  587.625;  163.825;    0.000
255.472;  625.625;  192.825;    0.000
255.540;  647.625;  158.825;    0.000
255.608;  599.625;  147.825;    0.000
255.676;  607.625;  166.825;    0.000
255.744;  620.625;  159.825;    0.000
255.812;  609.625;  164.825;    0.000
255.880;  662.625;  195.825;    0.000
255.948;  662.625;  167.825;    0.000
256.016;  664.625;  185.825;    0.000
256.084;  689.625;  191.825;    0.000
256.152;  623.625;  214.825;    0.000
256.220;  630.625;  195.825;    0.000
256.288;  676.625;  185.825;    0.000
256.356;  623.625;  168.825;    0.000
256.424;  633.625;  161.825;    0.000
256.491;  598.625;  161.825;    0.000
256.559;  642.625;  157.825;    0.000
256.627;  687.625;  164.825;    0.000
256.695;  594.625;  146.825;    0.000
256.763;  669.625;  194.825;    0.000
256.831;  652.625;  182.825;    0.000
256.899;  694.625;  192.825;    0.000
256.967;  628.625;  172.825;    0.000
257.035;  702.625;  169.825;    0.000
257.103;  773.625;  223.825;    0.000
257.171;  703.625;  141.825;    0.000
257.238;  766.625;  146.825;    0.000
257.306;  715.625;  180.825;    0.000
257.374;  696.625;  138.825;    0.000
257.442;  767.625;  135.825;    0.000
257.510;  780.625;  130.825;    0.000
257.578;  734.625;  123.825;    0.000
257.646;  768.625;  162.825;    0.000
257.713;  767.625;  149.825;    0.000
257.781;  732.625;  125.825;    0.000
257.849;  833.625;  149.825;    0.000
257.917;  766.625;  177.825;    0.000
257.985;  831.625;  143.825;    0.000
258.052;  856.625;  154.825;    0.000
258.120;  799.625;  162.825;    0.000
258.188;  825.625;  172.825;    0.000
258.256;  862.625;  160.825;    0.000
258.324;  922.625;  209.825;    0.000
258.391;  849.625;  153.825;    0.000
258.459;  936.625;  133.825;    0.000
258.527;  911.625;  160.825;    0.000
258.595;  850.625;  128.825;    0.000
258.662;  838.625;  114.825;    0.000
258.730;  933.625;  192.825;    0.000
258.798;  899.625;  144.825;    0.000
258.865;  898.625;  140.825;    0.000
258.933;  916.625;  150.825;    0.000
259.001;  894.625;  149.825;    0.000
259.069;  959.625;  110.825;    0.000
259.136;  910.625;  150.825;    0.000
259.204; 1018.625;  156.825;    0.000
259.272; 1035.625;  185.825;    0.000
259.339; 1040.625;  148.825;    0.000
259.407; 1048.625;  163.825;    0.000
259.475;  994.625;  129.825;    0.000
259.542;  988.625;  144.825;    0.000
259.610; 1012.625;  164.825;    0.000
259.677; 1047.625;  188.825;    0.000
259.745; 1059.625;  113.825;    0.000
259.813; 1064.625;  188.825;    0.000
259.880; 1093.625;  174.825;    0.000
259.948; 1091.625;  166.825;    0.000
260.016; 1120.625;  150.825;    0.000
260.083; 1086.625;  178.825;    0.000
260.151; 1163.625;  120.825;    0.000
260.218; 1139.625;  175.825;    0.000
260.286; 1176.625;  155.825;    0.000
260.353; 1185.625;  165.825;    0.000
260.421; 1168.625;  169.825;    0.000
260.489; 1256.625;  194.825;    0.000
260.556; 1224.625;  161.825;    0.000
260.624; 1211.625;  179.825;    0.000
260.691; 1249.625;  174.825;    0.000
260.759; 1237.625;  164.825;    0.000
260.826; 1247.625;  125.825;    0.000
260.894; 1199.625;  164.825;    0.000
260.961; 1292.625;  147.825;    0.000
261.029; 1217.625;  167.825;    0.000
261.096; 1305.625;  136.825;    0.000
261.164; 1320.625;  146.825;    0.000
261.231; 1410.625;  190.825;    0.000
261.299; 1381.625;  171.825;    0.000
261.366; 1431.625;  165.825;    0.000
261.434; 1421.625;  160.825;    0.000
261.501; 1321.625;  149.825;    0.000
261.568; 1378.625;  155.825;    0.000
261.636; 1441.625;  137.825;    0.000
261.703; 1410.625;  186.825;    0.000
261.771; 1403.625;  162.825;    0.000
261.838; 1471.625;  190.825;    0.000
261.906; 1414.625;  133.825;    0.000
261.973; 1457.625;  202.825;    0.000
262.040; 1356.625;  179.825;    0.000
262.108; 1534.625;  161.825;    0.000
262.175; 1508.625;  155.825;    0.000
262.243; 1496.625;  158.825;    0.000
262.310; 1505.625;  129.825;    0.000
262.377; 1479.625;  157.825;    0.000
262.445; 1568.625;  132.825;    0.000
262.512; 1511.625;  161.825;    0.000
262.579; 1599.625;  151.825;    0.000
262.647; 1625.625;  174.825;    0.000
262.714; 1594.625;  174.825;    0.000
262.781; 1569.625;  164.825;    0.000
262.849; 1590.625;  168.825;    0.000
262.916; 1670.625;  153.825;    0.000
262.983; 1673.625;  201.825;    0.000
263.051; 1680.625;  117.825;    0.000
263.118; 1665.625;  150.825;    0.000
263.185; 1666.625;  172.825;    0.000
263.252; 1676.625;  154.825;    0.000
263.320; 1711.625;  152.825;    0.000
263.387; 1721.625;  136.825;    0.000
263.454; 1751.625;  167.825;    0.000
263.522; 1698.625;  122.825;    0.000
263.589; 1817.625;  147.825;    0.000
263.656; 1876.625;  130.825;    0.000
263.723; 1693.625;  182.825;    0.000
263.790; 1770.625;  163.825;    0.000
263.858; 1882.625;  161.825;    0.000
263.925; 1893.625;  153.825;    0.000
263.992; 1859.625;  139.825;    0.000
264.059; 1873.625;  141.825;    0.000
264.126; 1844.625;  153.825;    0.000
264.194; 1876.625;  144.825;    0.000
264.261; 1971.625;  188.825;    0.000
264.328; 1966.625;  161.825;    0.000
264.395; 1929.625;  184.825;    0.000
264.462; 1913.625;  162.825;    0.000
264.529; 1979.625;  178.825;    0.000
264.597; 1938.625;  160.825;    0.000
264.664; 1914.625;  158.825;    0.000
264.731; 2009.625;  176.825;    0.000
264.798; 1883.625;  137.825;    0.000
264.865; 1962.625;  175.825;    0.000
264.932; 2018.625;  162.825;    0.000
264.999; 2004.625;  153.825;    0.000
265.066; 2037.625;  168.825;    0.000
265.133; 1990.625;  142.825;    0.000
265.201; 2022.625;  163.825;    0.000
265.268; 2030.625;  143.825;    0.000
265.335; 2043.625;  156.825;    0.000
265.402; 2013.625;  136.825;    0.000
265.469; 2088.625;  127.825;    0.000
265.536; 2126.625;  159.825;    0.000
265.603; 2128.625;  191.825;    0.000
265.670; 2126.625;  136.825;    0.000
265.737; 2115.625;  186.825;    0.000
265.804; 2223.625;  147.825;    0.000
265.871; 2184.625;  147.825;    0.000
265.938; 2199.625;  153.825;    0.000
266.005; 2152.625;  172.825;    0.000
266.072; 2146.625;  151.825;    0.000
266.139; 2150.625;  175.825;    0.000
266.206; 2203.625;  165.825;    0.000
266.273; 2188.625;  162.825;    0.000
266.340; 2129.625;  150.825;    0.000
266.407; 2294.625;  169.825;    0.000
266.474; 2190.625;  151.825;    0.000
266.541; 2182.625;  164.825;    0.000
266.608; 2225.625;  111.825;    0.000
266.675; 2275.625;  173.825;    0.000
266.742; 2202.625;  148.825;    0.000
266.808; 2240.625;  185.825;    0.000
266.875; 2242.625;  188.825;    0.000
266.942; 2247.625;  131.825;    0.000
267.009; 2228.625;  184.825;    0.000
267.076; 2288.625;  200.825;    0.000
267.143; 2355.625;  216.825;    0.000
267.210; 2332.625;  138.825;    0.000
267.277; 2362.625;  143.825;    0.000
267.344; 2351.625;  172.825;    0.000
267.410; 2337.625;  172.825;    0.000
267.477; 2406.625;  160.825;    0.000
267.544; 2323.625;  175.825;    0.000
267.611; 2412.625;  189.825;    0.000
267.678; 2366.625;  162.825;    0.000
267.745; 2491.625;  206.825;    0.000
267.811; 2422.625;  146.825;    0.000
267.878; 2436.625;  147.825;    0.000
267.945; 2355.625;  170.825;    0.000
268.012; 2382.625;  153.825;    0.000
268.079; 2374.625;  185.825;    0.000
268.145; 2344.625;  197.825;    0.000
268.212; 2397.625;  167.825;    0.000
268.279; 2388.625;  145.825;    0.000
268.346; 2336.625;  182.825;    0.000
268.412; 2348.625;  144.825;    0.000
268.479; 2317.625;  186.825;    0.000
268.546; 2391.625;  147.825;    0.000
268.613; 2313.625;  188.825;    0.000
268.679; 2357.625;  173.825;    0.000
268.746; 2323.625;  204.825;    0.000
268.813; 2497.625;  199.825;    0.000
268.879; 2400.625;  157.825;    0.000
268.946; 2409.625;  192.825;    0.000
269.013; 2449.625;  136.825;    0.000
269.079; 2328.625;  166.825;    0.000
269.146; 2373.625;  129.825;    0.000
269.213; 2365.625;  178.825;    0.000
269.280; 2383.625;  148.825;    0.000
269.346; 2479.625;  194.825;    0.000
269.413; 2409.625;  135.825;    0.000
269.479; 2433.625;  180.825;    0.000
269.546; 2359.625;  169.825;    0.000
269.613; 2294.625;  160.825;    0.000
269.679; 2394.625;  161.825;    0.000
269.746; 2407.625;  143.825;    0.000
269.813; 2409.625;  172.825;    0.000
269.879; 2432.625;  152.825;    0.000
269.946; 2332.625;  156.825;    0.000
270.012; 2426.625;  190.825;    0.000
270.079; 2332.625;  143.825;    0.000
270.145; 2461.625;  148.825;    0.000
270.212; 2393.625;  176.825;    0.000
270.279; 2397.625;  168.825;    0.000
270.345; 2380.625;  143.825;    0.000
270.412; 2363.625;  155.825;    0.000
270.478; 2353.625;  176.825;    0.000
270.545; 2325.625;  112.825;    0.000
270.611; 2509.625;  186.825;    0.000
270.678; 2333.625;  141.825;    0.000
270.744; 2370.625;  145.825;    0.000
270.811; 2391.625;  120.825;    0.000
270.877; 2305.625;  118.825;    0.000
270.944; 2363.625;  135.825;    0.000
271.010; 2445.625;  128.825;    0.000
271.077; 2438.625;  176.825;    0.000
271.143; 2386.625;  162.825;    0.000
271.210; 2385.625;  133.825;    0.000
271.276; 2374.625;  107.825;    0.000
271.342; 2395.625;  202.825;    0.000
271.409; 2386.625;  160.825;    0.000
271.475; 2386.625;  165.825;    0.000
271.542; 2353.625;  152.825;    0.000
271.608; 2336.625;  163.825;    0.000
271.675; 2334.625;  149.825;    0.000
271.741; 2436.625;  164.825;    0.000
271.807; 2356.625;  128.825;    0.000
271.874; 2443.625;  148.825;    0.000
271.940; 2373.625;  179.825;    0.000
272.007; 2468.625;  148.825;    0.000
272.073; 2383.625;  146.825;    0.000
272.139; 2433.625;  166.825;    0.000
272.206; 2406.625;  198.825;    0.000
272.272; 2383.625;  201.825;    0.000
272.338; 2481.625;  208.825;    0.000
272.405; 2424.625;  181.825;    0.000
272.471; 2387.625;  167.825;    0.000
272.537; 2398.625;  189.825;    0.000
272.604; 2332.625;  162.825;    0.000
272.670; 2405.625;  194.825;    0.000
272.736; 2433.625;  176.825;    0.000
272.802; 2568.625;  163.825;    0.000
272.869; 2426.625;  170.825;    0.000
272.935; 2473.625;  145.825;    0.000
273.001; 2435.625;  149.825;    0.000
273.068; 2395.625;  172.825;    0.000
273.134; 2469.625;  155.825;    0.000
273.200; 2600.625;  183.825;    0.000
273.266; 2521.625;  160.825;    0.000
273.333; 2492.625;  190.825;    0.000
273.399; 2448.625;  132.825;    0.000
273.465; 2589.625;  179.825;    0.000
273.531; 2525.625;  161.825;    0.000
273.597; 2541.625;  194.825;    0.000
273.664; 2611.625;  193.825;    0.000
273.730; 2477.625;  180.825;    0.000
273.796; 2593.625;  145.825;    0.000
273.862; 2519.625;  176.825;    0.000
273.928; 2593.625;  169.825;    0.000
273.995; 2630.625;  202.825;    0.000
274.061; 2577.625;  176.825;    0.000
274.127; 2583.625;  178.825;    0.000
274.193; 2622.625;  106.825;    0.000
274.259; 2689.625;  186.825;    0.000
274.325; 2686.625;  163.825;    0.000
274.391; 2637.625;  162.825;    0.000
274.457; 2782.625;  145.825;    0.000
274.524; 2704.625;  189.825;    0.000
274.590; 2645.625;  161.825;    0.000
274.656; 2770.625;  157.825;    0.000
274.722; 2755.625;  143.825;    0.000
274.788; 2756.625;  166.825;    0.000
274.854; 2805.625;  200.825;    0.000
274.920; 2681.625;  132.825;    0.000
274.986; 2828.625;  184.825;    0.000
275.052; 2876.625;  169.825;    0.000
275.118; 2747.625;  153.825;    0.000
275.184; 2933.625;  182.825;    0.000
275.250; 2981.625;  124.825;    0.000
275.316; 3001.625;  154.825;    0.000
275.382; 3025.625;  150.825;    0.000
275.448; 2962.625;  180.825;    0.000
275.514; 2991.625;  143.825;    0.000
275.580; 2983.625;  120.825;    0.000
275.646; 3013.625;  127.825;    0.000
275.712; 3153.625;  109.825;    0.000
275.778; 3120.625;  126.825;    0.000
275.844; 3174.625;  155.825;    0.000
275.910; 3222.625;  164.825;    0.000
275.976; 3319.625;  161.825;    0.000
276.042; 3301.625;  152.825;    0.000
276.108; 3409.625;  159.825;    0.000
276.174; 3362.625;  149.825;    0.000
276.240; 3412.625;  112.825;    0.000
276.306; 3566.625;  142.825;    0.000
276.372; 3731.625;  136.825;    0.000
276.437; 3617.625;  141.825;    0.000
276.503; 3660.625;  150.825;    0.000
276.569; 3711.625;  178.825;    0.000
276.635; 3772.625;  117.825;    0.000
276.701; 3908.625;  174.825;    0.000
276.767; 3931.625;  136.825;    0.000
276.833; 3993.625;  119.825;    0.000
276.899; 4098.625;  171.825;    0.000
276.964; 4351.625;  146.825;    0.000
277.030; 4419.625;  157.825;    0.000
277.096; 4514.625;  124.825;    0.000
277.162; 4635.625;  185.825;    0.000
277.228; 4774.625;  125.825;    0.000
277.293; 4866.625;  159.825;    0.000
277.359; 5054.625;  186.825;    0.000
277.425; 5330.625;  176.825;    0.000
277.491; 5678.625;  140.825;    0.000
277.557; 6526.625;  172.825;    0.000
277.622; 8700.625;  187.825;    0.000
277.688; 8696.625;  203.825;    0.000
277.754; 9082.625;  170.825;    0.000
277.820; 9744.625;  142.825;    0.000
277.885;11272.625;  182.825;    0.000
277.951;13491.625;  171.825;    0.000
278.017;12041.625;  173.825;    0.000
278.083;10812.625;  151.825;    0.000
278.148;10361.625;  159.825;    0.000
278.214;10505.625;  173.825;    0.000
278.280;10972.625;  137.825;    0.000
278.345;10135.625;  190.825;    0.000
278.411; 9501.625;  149.825;    0.000
278.477;10007.625;  157.825;    0.000
278.542;10405.625;  136.825;    0.000
278.608;11585.625;  144.825;    0.000
278.674;12592.625;  215.825;    0.000
278.739;13829.625;  148.825;    0.000
278.805;15640.625;  152.825;    0.000
278.871;18189.625;  170.825;    0.000
278.936;22221.625;  180.825;    0.000
279.002;30177.625;  177.825;    0.000
279.067;37419.625;  172.825;    0.000
279.133;36627.625;  160.825;    0.000
279.199;34541.625;  165.825;    0.000
279.264;35633.625;  130.825;    0.000
279.330;40021.625;  154.825;    0.000
279.395;47448.625;  170.825;    0.000
279.461;53008.625;  136.825;    0.000
279.527;54897.625;  174.825;    0.000
279.592;55027.625;  179.825;    0.000
279.658;52201.625;  187.825;    0.000
279.723;51361.625;  201.825;    0.000
279.789;51975.625;  194.825;    0.000
279.854;47989.625;  171.825;    0.000
279.920;42774.625;  183.825;    0.000
279.985;40091.625;  173.825;    0.000
280.051;40577.625;  194.825;    0.000
280.116;45206.625;  197.825;    0.000
280.182;51765.625;  171.825;    0.000
280.247;54432.625;  131.825;    0.000
280.313;51224.625;  166.825;    0.000
280.378;42349.625;  159.825;    0.000
280.444;33764.625;  190.825;    0.000
280.509;27823.625;  189.825;    0.000
280.574;23583.625;  171.825;    0.000
280.640;20857.625;  167.825;    0.000
280.705;18847.625;  129.825;    0.000
280.771;17067.625;  193.825;    0.000
280.836;15528.625;  172.825;    0.000
280.902;14736.625;  189.825;    0.000
280.967;13665.625;  143.825;    0.000
281.032;12862.625;  182.825;    0.000
281.098;12188.625;  172.825;    0.000
281.163;11817.625;  184.825;    0.000
281.229;11021.625;  210.825;    0.000
281.294;10577.625;  223.825;    0.000
281.359;10002.625;  197.825;    0.000
281.425; 9709.625;  192.825;    0.000
281.490; 9349.625;  162.825;    0.000
281.555; 9053.625;  193.825;    0.000
281.621; 8471.625;  141.825;    0.000
281.686; 8456.625;  166.825;    0.000
281.751; 8259.625;  204.825;    0.000
281.816; 7821.625;  159.825;    0.000
281.882; 7657.625;  146.825;    0.000
281.947; 7422.625;  176.825;    0.000
282.012; 7295.625;  139.825;    0.000
282.078; 7080.625;  186.825;    0.000
282.143; 6757.625;  151.825;    0.000
282.208; 6781.625;  213.825;    0.000
282.273; 6604.625;  160.825;    0.000
282.339; 6346.625;  175.825;    0.000
282.404; 6487.625;  157.825;    0.000
282.469; 6359.625;  185.825;    0.000
282.534; 6205.625;  166.825;    0.000
282.600; 6045.625;  168.825;    0.000
282.665; 6006.625;  167.825;    0.000
282.730; 5876.625;  148.825;    0.000
282.795; 5798.625;  186.825;    0.000
282.860; 5769.625;  161.825;    0.000
282.926; 5677.625;  178.825;    0.000
282.991; 5586.625;  139.825;    0.000
283.056; 5491.625;  158.825;    0.000
283.121; 5564.625;  191.825;    0.000
283.186; 5407.625;  182.825;    0.000
283.251; 5331.625;  181.825;    0.000
283.316; 5356.625;  187.825;    0.000
283.382; 5224.625;  175.825;    0.000
283.447; 5239.625;  183.825;    0.000
283.512; 5240.625;  175.825;    0.000
283.577; 5142.625;  180.825;    0.000
283.642; 5131.625;  193.825;    0.000
283.707; 5089.625;  145.825;    0.000
283.772; 5054.625;  143.825;    0.000
283.837; 5011.625;  143.825;    0.000
283.902; 5018.625;  150.825;    0.000
283.967; 4906.625;  166.825;    0.000
284.032; 4991.625;  126.825;    0.000
284.097; 5084.625;  201.825;    0.000
284.163; 4928.625;  133.825;    0.000
284.228; 5162.625;  193.825;    0.000
284.293; 4926.625;  157.825;    0.000
284.358; 5028.625;  185.825;    0.000
284.423; 5229.625;  142.825;    0.000
284.488; 5167.625;  192.825;    0.000
284.553; 5444.625;  146.825;    0.000
284.618; 5492.625;  154.825;    0.000
284.683; 5609.625;  172.825;    0.000
284.748; 6025.625;  195.825;    0.000
284.812; 6314.625;  190.825;    0.000
284.877; 6901.625;  169.825;    0.000
284.942; 7909.625;  195.825;    0.000
285.007; 9195.625;  204.825;    0.000
285.072;12265.625;  189.825;    0.000
285.137;16244.625;  149.825;    0.000
285.202;20657.625;  164.825;    0.000
285.267;19745.625;  161.825;    0.000
285.332;15134.625;  140.825;    0.000
285.397;11749.625;  142.825;    0.000
285.462; 9417.625;  146.825;    0.000
285.527; 8155.625;  132.825;    0.000
285.591; 7539.625;  160.825;    0.000
285.656; 6736.625;  136.825;    0.000
285.721; 6223.625;  135.825;    0.000
285.786; 6073.625;  171.825;    0.000
285.851; 5754.625;  168.825;    0.000
285.916; 5584.625;  178.825;    0.000
285.981; 5281.625;  152.825;    0.000
286.045; 5216.625;  167.825;    0.000
286.110; 5007.625;  187.825;    0.000
286.175; 4984.625;  162.825;    0.000
286.240; 4983.625;  163.825;    0.000
286.305; 4789.625;  190.825;    0.000
286.369; 4813.625;  143.825;    0.000
286.434; 4724.625;  185.825;    0.000
286.499; 4621.625;  195.825;    0.000
286.564; 4580.625;  173.825;    0.000
286.628; 4487.625;  159.825;    0.000
286.693; 4577.625;  175.825;    0.000
286.758; 4531.625;  170.825;    0.000
286.823; 4373.625;  129.825;    0.000
286.887; 4281.625;  172.825;    0.000
286.952; 4444.625;  163.825;    0.000
287.017; 4343.625;  217.825;    0.000
287.082; 4344.625;  165.825;    0.000
287.146; 4233.625;  176.825;    0.000
287.211; 4303.625;  192.825;    0.000
287.276; 4247.625;  147.825;    0.000
287.340; 4246.625;  162.825;    0.000
287.405; 4137.625;  196.825;    0.000
287.470; 4195.625;  148.825;    0.000
287.534; 4242.625;  166.825;    0.000
287.599; 4084.625;  193.825;    0.000
287.663; 4274.625;  191.825;    0.000
287.728; 4079.625;  146.825;    0.000
287.793; 4256.625;  234.825;    0.000
287.857; 4194.625;  177.825;    0.000
287.922; 4053.625;  166.825;    0.000
287.987; 4188.625;  169.825;    0.000
288.051; 4090.625;  169.825;    0.000
288.116; 4101.625;  187.825;    0.000
288.180; 4066.625;  200.825;    0.000
288.245; 3975.625;  201.825;    0.000
288.309; 4073.625;  176.825;    0.000
288.374; 4050.625;  162.825;    0.000
288.439; 3987.625;  195.825;    0.000
288.503; 3940.625;  162.825;    0.000
288.568; 4044.625;  228.825;    0.000
288.632; 4025.625;  194.825;    0.000
288.697; 4010.625;  173.825;    0.000
288.761; 4010.625;  153.825;    0.000
288.826; 3887.625;  151.825;    0.000
288.890; 3985.625;  208.825;    0.000
288.955; 3917.625;  159.825;    0.000
289.019; 3924.625;  198.825;    0.000
289.084; 3788.625;  152.825;    0.000
289.148; 4028.625;  171.825;    0.000
289.212; 4057.625;  184.825;    0.000
289.277; 3837.625;  165.825;    0.000
289.341; 3871.625;  207.825;    0.000
289.406; 3913.625;  156.825;    0.000
289.470; 3961.625;  191.825;    0.000
289.535; 3965.625;  222.825;    0.000
289.599; 3979.625;  214.825;    0.000
289.663; 3956.625;  183.825;    0.000
289.728; 3813.625;  192.825;    0.000
289.792; 3965.625;  197.825;    0.000
289.857; 3933.625;  221.825;    0.000
289.921; 3888.625;  177.825;    0.000
289.985; 3959.625;  177.825;    0.000
290.050; 3879.625;  178.825;    0.000
290.114; 3835.625;  112.825;    0.000
290.178; 3895.625;  170.825;    0.000
290.243; 3679.625;  162.825;    0.000
290.307; 3822.625;  178.825;    0.000
290.371; 3954.625;  141.825;    0.000
290.436; 3858.625;  178.825;    0.000
290.500; 3868.625;  135.825;    0.000
290.564; 3844.625;  199.825;    0.000
290.629; 3956.625;  165.825;    0.000
290.693; 3912.625;  154.825;    0.000
290.757; 3898.625;  159.825;    0.000
290.821; 3925.625;  179.825;    0.000
290.886; 3857.625;  141.825;    0.000
290.950; 3995.625;  166.825;    0.000
291.014; 3975.625;  169.825;    0.000
291.078; 3964.625;  191.825;    0.000
291.143; 4045.625;  169.825;    0.000
291.207; 4019.625;  164.825;    0.000
291.271; 3964.625;  193.825;    0.000
291.335; 4112.625;  150.825;    0.000
291.399; 4215.625;  175.825;    0.000
291.464; 4443.625;  128.825;    0.000
291.528; 4550.625;  162.825;    0.000
291.592; 4529.625;  152.825;    0.000
291.656; 4349.625;  175.825;    0.000
291.720; 4308.625;  173.825;    0.000
291.784; 4252.625;  192.825;    0.000
291.849; 4248.625;  159.825;    0.000
291.913; 4259.625;  174.825;    0.000
291.977; 4211.625;  177.825;    0.000
292.041; 4347.625;  188.825;    0.000
292.105; 4369.625;  174.825;    0.000
292.169; 4323.625;  143.825;    0.000
292.233; 4428.625;  149.825;    0.000
292.297; 4448.625;  176.825;    0.000
292.361; 4452.625;  178.825;    0.000
292.425; 4607.625;  153.825;    0.000
292.490; 4796.625;  185.825;    0.000
292.554; 5007.625;  144.825;    0.000
292.618; 5341.625;  166.825;    0.000
292.682; 5833.625;  181.825;    0.000
292.746; 6584.625;  152.825;    0.000
292.810; 8841.625;  208.825;    0.000
292.874;10794.625;  142.825;    0.000
292.938;11263.625;  195.825;    0.000
293.002;10127.625;  156.825;    0.000
293.066; 9199.625;  108.825;    0.000
293.130; 8439.625;  136.825;    0.000
293.194; 8204.625;  135.825;    0.000
293.258; 7848.625;  187.825;    0.000
293.322; 7710.625;  148.825;    0.000
293.386; 7766.625;  186.825;    0.000
293.450; 8318.625;  196.825;    0.000
293.514; 9495.625;  175.825;    0.000
293.577;12225.625;  137.825;    0.000
293.641;16206.625;  142.825;    0.000
293.705;17112.625;  201.825;    0.000
293.769;15654.625;  150.825;    0.000
293.833;13706.625;  147.825;    0.000
293.897;12061.625;  170.825;    0.000
293.961;10802.625;  121.825;    0.000
294.025; 9859.625;  172.825;    0.000
294.089; 8976.625;  167.825;    0.000
294.152; 8426.625;  167.825;    0.000
294.216; 7793.625;  165.825;    0.000
294.280; 7218.625;  168.825;    0.000
294.344; 6970.625;  160.825;    0.000
294.408; 6687.625;  187.825;    0.000
294.472; 6484.625;  141.825;    0.000
294.536; 6021.625;  184.825;    0.000
294.599; 5886.625;  176.825;    0.000
294.663; 5678.625;  120.825;    0.000
294.727; 5572.625;  159.825;    0.000
294.791; 5279.625;  190.825;    0.000
294.855; 5123.625;  148.825;    0.000
294.918; 4988.625;  160.825;    0.000
294.982; 4958.625;  156.825;    0.000
295.046; 4761.625;  177.825;    0.000
295.110; 4798.625;  149.825;    0.000
295.173; 4698.625;  156.825;    0.000
295.237; 4569.625;  174.825;    0.000
295.301; 4396.625;  152.825;    0.000
295.364; 4457.625;  204.825;    0.000
295.428; 4436.625;  196.825;    0.000
295.492; 4236.625;  178.825;    0.000
295.556; 4317.625;  161.825;    0.000
295.619; 4271.625;  178.825;    0.000
295.683; 4215.625;  152.825;    0.000
295.747; 4173.625;  148.825;    0.000
295.810; 4035.625;  177.825;    0.000
295.874; 4111.625;  146.825;    0.000
295.938; 4030.625;  115.825;    0.000
296.001; 3892.625;  172.825;    0.000
296.065; 3911.625;  146.825;    0.000
296.128; 3944.625;  164.825;    0.000
296.192; 3864.625;  137.825;    0.000
296.256; 3824.625;  143.825;    0.000
296.319; 3813.625;  156.825;    0.000
296.383; 3832.625;  165.825;    0.000
296.447; 3719.625;  170.825;    0.000
296.510; 3623.625;  174.825;    0.000
296.574; 3809.625;  127.825;    0.000
296.637; 3753.625;  132.825;    0.000
296.701; 3659.625;  206.825;    0.000
296.764; 3666.625;  179.825;    0.000
296.828; 3672.625;  213.825;    0.000
296.891; 3645.625;  149.825;    0.000
296.955; 3565.625;  170.825;    0.000
297.018; 3682.625;  185.825;    0.000
297.082; 3582.625;  205.825;    0.000
297.145; 3565.625;  154.825;    0.000
297.209; 3605.625;  200.825;    0.000
297.272; 3529.625;  157.825;    0.000
297.336; 3482.625;  164.825;    0.000
297.399; 3462.625;  166.825;    0.000
297.463; 3469.625;  195.825;    0.000
297.526; 3535.625;  176.825;    0.000
297.590; 3513.625;  198.825;    0.000
297.653; 3482.625;  146.825;    0.000
297.717; 3392.625;  175.825;    0.000
297.780; 3469.625;  139.825;    0.000
297.843; 3338.625;  174.825;    0.000
297.907; 3467.625;  149.825;    0.000
297.970; 3360.625;  161.825;    0.000
298.034; 3367.625;  185.825;    0.000
298.097; 3429.625;  167.825;    0.000
298.160; 3270.625;  195.825;    0.000
298.224; 3324.625;  178.825;    0.000
298.287; 3295.625;  164.825;    0.000
298.350; 3382.625;  194.825;    0.000
298.414; 3315.625;  191.825;    0.000
298.477; 3234.625;  155.825;    0.000
298.540; 3345.625;  139.825;    0.000
298.604; 3298.625;  198.825;    0.000
298.667; 3322.625;  183.825;    0.000
298.730; 3314.625;  185.825;    0.000
298.794; 3218.625;  153.825;    0.000
298.857; 3365.625;  169.825;    0.000
298.920; 3216.625;  159.825;    0.000
298.984; 3086.625;  179.825;    0.000
299.047; 3246.625;  174.825;    0.000
299.110; 3206.625;  144.825;    0.000
299.173; 3225.625;  190.825;    0.000
299.237; 3233.625;  163.825;    0.000
299.300; 3098.625;  153.825;    0.000
299.363; 3164.625;  145.825;    0.000
299.426; 3100.625;  160.825;    0.000
299.489; 3119.625;  173.825;    0.000
299.553; 3099.625;  209.825;    0.000
299.616; 3162.625;  172.825;    0.000
299.679; 3191.625;  204.825;    0.000
299.742; 3073.625;  162.825;    0.000
299.805; 3198.625;  198.825;    0.000
299.868; 3124.625;  176.825;    0.000
299.932; 3106.625;  166.825;    0.000
299.995; 3212.625;  162.825;    0.000
300.058; 3113.625;  175.825;    0.000
300.121; 3070.625;  197.825;    0.000
300.184; 3141.625;  188.825;    0.000
300.247; 3074.625;  181.825;    0.000
300.310; 3067.625;  161.825;    0.000
300.374; 3113.625;  201.825;    0.000
300.437; 2958.625;  156.825;    0.000
300.500; 3067.625;  180.825;    0.000
300.563; 3070.625;  174.825;    0.000
300.626; 2986.625;  206.825;    0.000
300.689; 2945.625;  218.825;    0.000
300.752; 3104.625;  192.825;    0.000
300.815; 3040.625;  172.825;    0.000
300.878; 2992.625;  207.825;    0.000
300.941; 2950.625;  163.825;    0.000
301.004; 3011.625;  171.825;    0.000
301.067; 2933.625;  198.825;    0.000
301.130; 3007.625;  156.825;    0.000
301.193; 3017.625;  173.825;    0.000
301.256; 2934.625;  167.825;    0.000
301.319; 3098.625;  211.825;    0.000
301.382; 3031.625;  167.825;    0.000
301.445; 2924.625;  224.825;    0.000
301.508; 2933.625;  168.825;    0.000
301.571; 2868.625;  161.825;    0.000
301.634; 2926.625;  177.825;    0.000
301.697; 2912.625;  203.825;    0.000
301.760; 2905.625;  190.825;    0.000
301.823; 2873.625;  182.825;    0.000
301.885; 3009.625;  202.825;    0.000
301.948; 2950.625;  200.825;    0.000
302.011; 2857.625;  157.825;    0.000
302.074; 2931.625;  205.825;    0.000
302.137; 2887.625;  149.825;    0.000
302.200; 2755.625;  201.825;    0.000
302.263; 2888.625;  178.825;    0.000
302.326; 2867.625;  184.825;    0.000
302.388; 2894.625;  176.825;    0.000
302.451; 2928.625;  146.825;    0.000
302.514; 2852.625;  192.825;    0.000
302.577; 2927.625;  181.825;    0.000
302.640; 2846.625;  186.825;    0.000
302.703; 2792.625;  164.825;    0.000
302.765; 2847.625;  197.825;    0.000
302.828; 2859.625;  208.825;    0.000
302.891; 2854.625;  168.825;    0.000
302.954; 2870.625;  177.825;    0.000
303.016; 2895.625;  190.825;    0.000
303.079; 2976.625;  216.825;    0.000
303.142; 2904.625;  228.825;    0.000
303.205; 2878.625;  192.825;    0.000
303.267; 2904.625;  182.825;    0.000
303.330; 2810.625;  201.825;    0.000
303.393; 2973.625;  196.825;    0.000
303.456; 2823.625;  184.825;    0.000
303.518; 2840.625;  194.825;    0.000
303.581; 2803.625;  195.825;    0.000
303.644; 2766.625;  184.825;    0.000
303.706; 2865.625;  150.825;    0.000
303.769; 2860.625;  182.825;    0.000
303.832; 2897.625;  143.825;    0.000
303.894; 2902.625;  207.825;    0.000
303.957; 2884.625;  178.825;    0.000
304.020; 2783.625;  203.825;    0.000
304.082; 2833.625;  175.825;    0.000
304.145; 2901.625;  171.825;    0.000
304.207; 2916.625;  157.825;    0.000
304.270; 2843.625;  195.825;    0.000
304.333; 2884.625;  195.825;    0.000
304.395; 2857.625;  197.825;    0.000
304.458; 2859.625;  231.825;    0.000
304.520; 2867.625;  218.825;    0.000
304.583; 2932.625;  177.825;    0.000
304.646; 2849.625;  177.825;    0.000
304.708; 2883.625;  178.825;    0.000
304.771; 2818.625;  143.825;    0.000
304.833; 2918.625;  241.825;    0.000
304.896; 2887.625;  200.825;    0.000
304.958; 2915.625;  176.825;    0.000
305.021; 2796.625;  159.825;    0.000
305.083; 2916.625;  159.825;    0.000
305.146; 2830.625;  190.825;    0.000
305.208; 2850.625;  152.825;    0.000
305.271; 2862.625;  162.825;    0.000
305.333; 2873.625;  219.825;    0.000
305.396; 2799.625;  163.825;    0.000
305.458; 2850.625;  215.825;    0.000
305.520; 2912.625;  174.825;    0.000
305.583; 2958.625;  161.825;    0.000
305.645; 2851.625;  203.825;    0.000
305.708; 2864.625;  163.825;    0.000
305.770; 2956.625;  215.825;    0.000
305.833; 2877.625;  207.825;    0.000
305.895; 2838.625;  166.825;    0.000
305.957; 2960.625;  175.825;    0.000
306.020; 2747.625;  169.825;    0.000
306.082; 2801.625;  203.825;    0.000
306.144; 2783.625;  181.825;    0.000
306.207; 2802.625;  199.825;    0.000
306.269; 2937.625;  177.825;    0.000
306.331; 2864.625;  160.825;    0.000
306.394; 2991.625;  193.825;    0.000
306.456; 2866.625;  136.825;    0.000
306.518; 2864.625;  189.825;    0.000
306.581; 2883.625;  156.825;    0.000
306.643; 2787.625;  190.825;    0.000
306.705; 2966.625;  190.825;    0.000
306.768; 2928.625;  172.825;    0.000
306.830; 2861.625;  214.825;    0.000
306.892; 2904.625;  198.825;    0.000
306.954; 2932.625;  177.825;    0.000
307.017; 2904.625;  183.825;    0.000
307.079; 2973.625;  170.825;    0.000
307.141; 2947.625;  173.825;    0.000
307.203; 2939.625;  171.825;    0.000
307.266; 3007.625;  166.825;    0.000
307.328; 3041.625;  207.825;    0.000
307.390; 3055.625;  201.825;    0.000
307.452; 3078.625;  182.825;    0.000
307.514; 2954.625;  213.825;    0.000
307.577; 3008.625;  213.825;    0.000
307.639; 3053.625;  197.825;    0.000
307.701; 3054.625;  174.825;    0.000
307.763; 3100.625;  181.825;    0.000
307.825; 3118.625;  186.825;    0.000
307.887; 3061.625;  198.825;    0.000
307.949; 2981.625;  158.825;    0.000
308.012; 3060.625;  209.825;    0.000
308.074; 3035.625;  176.825;    0.000
308.136; 3054.625;  227.825;    0.000
308.198; 3115.625;  187.825;    0.000
308.260; 3079.625;  211.825;    0.000
308.322; 3053.625;  206.825;    0.000
308.384; 3148.625;  186.825;    0.000
308.446; 3136.625;  175.825;    0.000
308.508; 3086.625;  211.825;    0.000
308.570; 3162.625;  191.825;    0.000
308.632; 3175.625;  195.825;    0.000
308.694; 3151.625;  173.825;    0.000
308.756; 3205.625;  185.825;    0.000
308.818; 3264.625;  195.825;    0.000
308.880; 3258.625;  189.825;    0.000
308.942; 3354.625;  231.825;    0.000
309.004; 3310.625;  188.825;    0.000
309.066; 3405.625;  196.825;    0.000
309.128; 3425.625;  155.825;    0.000
309.190; 3554.625;  176.825;    0.000
309.252; 3570.625;  191.825;    0.000
309.314; 3748.625;  236.825;    0.000
309.376; 3751.625;  212.825;    0.000
309.438; 3647.625;  201.825;    0.000
309.500; 3662.625;  206.825;    0.000
309.562; 3690.625;  213.825;    0.000
309.624; 3745.625;  196.825;    0.000
309.686; 3990.625;  198.825;    0.000
309.747; 3970.625;  186.825;    0.000
309.809; 3838.625;  215.825;    0.000
309.871; 3786.625;  242.825;    0.000
309.933; 3539.625;  162.825;    0.000
309.995; 3546.625;  163.825;    0.000
310.057; 3528.625;  145.825;    0.000
310.119; 3466.625;  205.825;    0.000
310.180; 3418.625;  195.825;    0.000
310.242; 3352.625;  167.825;    0.000
310.304; 3366.625;  213.825;    0.000
310.366; 3271.625;  224.825;    0.000
310.428; 3386.625;  170.825;    0.000
310.489; 3358.625;  195.825;    0.000
310.551; 3369.625;  207.825;    0.000
310.613; 3350.625;  168.825;    0.000
310.675; 3288.625;  188.825;    0.000
310.737; 3312.625;  211.825;    0.000
310.798; 3372.625;  221.825;    0.000
310.860; 3211.625;  201.825;    0.000
310.922; 3228.625;  206.825;    0.000
310.983; 3231.625;  222.825;    0.000
311.045; 3221.625;  235.825;    0.000
311.107; 3305.625;  184.825;    0.000
311.169; 3218.625;  148.825;    0.000
311.230; 3225.625;  211.825;    0.000
311.292; 3316.625;  235.825;    0.000
311.354; 3253.625;  183.825;    0.000
311.415; 3191.625;  196.825;    0.000
311.477; 3240.625;  200.825;    0.000
311.539; 3157.625;  171.825;    0.000
311.600; 3125.625;  169.825;    0.000
311.662; 3209.625;  231.825;    0.000
311.724; 3188.625;  204.825;    0.000
311.785; 3267.625;  214.825;    0.000
311.847; 3085.625;  193.825;    0.000
311.908; 3175.625;  180.825;    0.000
311.970; 3165.625;  233.825;    0.000
312.032; 3255.625;  192.825;    0.000
312.093; 3168.625;  195.825;    0.000
312.155; 3207.625;  194.825;    0.000
312.216; 3198.625;  238.825;    0.000
312.278; 3189.625;  146.825;    0.000
312.339; 3106.625;  184.825;    0.000
312.401; 3143.625;  201.825;    0.000
312.462; 3076.625;  173.825;    0.000
312.524; 3176.625;  205.825;    0.000
312.585; 3249.625;  199.825;    0.000
312.647; 3232.625;  168.825;    0.000
312.708; 3146.625;  180.825;    0.000
312.770; 3215.625;  180.825;    0.000
312.831; 3161.625;  176.825;    0.000
312.893; 3209.625;  211.825;    0.000
312.954; 3183.625;  178.825;    0.000
313.016; 3204.625;  204.825;    0.000
313.077; 3212.625;  216.825;    0.000
313.139; 3255.625;  172.825;    0.000
313.200; 3069.625;  197.825;    0.000
313.261; 3166.625;  227.825;    0.000
313.323; 3167.625;  204.825;    0.000
313.384; 3143.625;  182.825;    0.000
313.446; 3182.625;  204.825;    0.000
313.507; 3119.625;  164.825;    0.000
313.568; 3176.625;  197.825;    0.000
313.630; 3148.625;  190.825;    0.000
313.691; 3180.625;  185.825;    0.000
313.752; 3164.625;  192.825;    0.000
313.814; 3088.625;  176.825;    0.000
313.875; 3223.625;  210.825;    0.000
313.936; 3251.625;  165.825;    0.000
313.998; 3177.625;  162.825;    0.000
314.059; 3203.625;  178.825;    0.000
314.120; 3147.625;  176.825;    0.000
314.182; 3152.625;  167.825;    0.000
314.243; 3098.625;  204.825;    0.000
314.304; 3137.625;  197.825;    0.000
314.365; 3196.625;  183.825;    0.000
314.427; 3148.625;  176.825;    0.000
314.488; 3153.625;  149.825;    0.000
314.549; 3168.625;  218.825;    0.000
314.610; 3139.625;  160.825;    0.000
314.672; 3117.625;  187.825;    0.000
314.733; 3187.625;  184.825;    0.000
314.794; 3117.625;  164.825;    0.000
314.855; 3117.625;  191.825;    0.000
314.917; 3154.625;  172.825;    0.000
314.978; 3111.625;  185.825;    0.000
315.039; 3086.625;  194.825;    0.000
315.100; 3197.625;  190.825;    0.000
315.161; 3149.625;  185.825;    0.000
315.222; 3170.625;  204.825;    0.000
315.283; 3218.625;  166.825;    0.000
315.345; 3144.625;  133.825;    0.000
315.406; 3093.625;  191.825;    0.000
315.467; 3141.625;  166.825;    0.000
315.528; 3064.625;  194.825;    0.000
315.589; 3144.625;  193.825;    0.000
315.650; 3083.625;  190.825;    0.000
315.711; 3113.625;  219.825;    0.000
315.772; 3195.625;  159.825;    0.000
315.833; 3169.625;  191.825;    0.000
315.894; 3113.625;  202.825;    0.000
315.955; 3042.625;  167.825;    0.000
316.016; 3117.625;  177.825;    0.000
316.078; 3114.625;  185.825;    0.000
316.139; 3135.625;  219.825;    0.000
316.200; 3001.625;  163.825;    0.000
316.261; 3116.625;  183.825;    0.000
316.322; 3211.625;  230.825;    0.000
316.383; 3190.625;  198.825;    0.000
316.444; 3058.625;  209.825;    0.000
316.504; 3051.625;  179.825;    0.000
316.565; 3101.625;  185.825;    0.000
316.626; 2958.625;  155.825;    0.000
316.687; 3112.625;  211.825;    0.000
316.748; 3090.625;  192.825;    0.000
316.809; 3102.625;  183.825;    0.000
316.870; 3089.625;  196.825;    0.000
316.931; 3072.625;  173.825;    0.000
316.992; 3111.625;  179.825;    0.000
317.053; 3076.625;  186.825;    0.000
317.114; 3046.625;  189.825;    0.000
317.175; 2979.625;  226.825;    0.000
317.235; 3057.625;  206.825;    0.000
317.296; 3136.625;  191.825;    0.000
317.357; 3137.625;  173.825;    0.000
317.418; 3118.625;  212.825;    0.000
317.479; 3004.625;  247.825;    0.000
317.540; 3009.625;  205.825;    0.000
317.601; 3139.625;  205.825;    0.000
317.661; 3033.625;  150.825;    0.000
317.722; 3022.625;  198.825;    0.000
317.783; 3035.625;  153.825;    0.000
317.844; 3105.625;  202.825;    0.000
317.904; 3198.625;  180.825;    0.000
317.965; 3101.625;  205.825;    0.000
318.026; 2998.625;  223.825;    0.000
318.087; 3006.625;  218.825;    0.000
318.148; 3117.625;  207.825;    0.000
318.208; 3124.625;  212.825;    0.000
318.269; 2939.625;  174.825;    0.000
318.330; 3116.625;  191.825;    0.000
318.390; 3016.625;  197.825;    0.000
318.451; 2947.625;  167.825;    0.000
318.512; 2985.625;  174.825;    0.000
318.572; 3068.625;  199.825;    0.000
318.633; 3111.625;  233.825;    0.000
318.694; 3071.625;  232.825;    0.000
318.754; 3078.625;  181.825;    0.000
318.815; 2921.625;  199.825;    0.000
318.876; 3117.625;  207.825;    0.000
318.936; 3044.625;  202.825;    0.000
318.997; 3020.625;  182.825;    0.000
319.058; 3054.625;  180.825;    0.000
319.118; 3029.625;  199.825;    0.000
319.179; 3037.625;  199.825;    0.000
319.239; 2941.625;  229.825;    0.000
319.300; 2951.625;  223.825;    0.000
319.361; 3070.625;  210.825;    0.000
319.421; 3009.625;  205.825;    0.000
319.482; 2977.625;  205.825;    0.000
319.542; 2975.625;  176.825;    0.000
319.603; 2932.625;  191.825;    0.000
319.663; 2988.625;  183.825;    0.000
319.724; 3025.625;  174.825;    0.000
319.784; 2937.625;  198.825;    0.000
319.845; 3036.625;  218.825;    0.000
319.905; 3017.625;  217.825;    0.000
319.966; 3013.625;  197.825;    0.000
320.026; 2943.625;  209.825;    0.000
320.087; 3087.625;  225.825;    0.000
320.147; 2919.625;  201.825;    0.000
320.208; 2971.625;  176.825;    0.000
320.268; 3019.625;  168.825;    0.000
320.329; 2936.625;  238.825;    0.000
320.389; 2962.625;  220.825;    0.000
320.449; 3012.625;  230.825;    0.000
320.510; 3004.625;  234.825;    0.000
320.570; 2970.625;  210.825;    0.000
320.631; 3015.625;  207.825;    0.000
320.691; 2946.625;  222.825;    0.000
320.751; 2977.625;  195.825;    0.000
320.812; 2931.625;  193.825;    0.000
320.872; 3052.625;  237.825;    0.000
320.932; 3116.625;  213.825;    0.000
320.993; 2960.625;  185.825;    0.000
321.053; 2999.625;  245.825;    0.000
321.113; 3000.625;  206.825;    0.000
321.174; 3009.625;  202.825;    0.000
321.234; 3017.625;  244.825;    0.000
321.294; 2933.625;  228.825;    0.000
321.355; 2966.625;  208.825;    0.000
321.415; 2979.625;  223.825;    0.000
321.475; 2979.625;  203.825;    0.000
321.535; 3005.625;  230.825;    0.000
321.596; 2981.625;  186.825;    0.000
321.656; 3010.625;  216.825;    0.000
321.716; 2916.625;  207.825;    0.000
321.776; 3014.625;  181.825;    0.000
321.837; 2981.625;  207.825;    0.000
321.897; 2969.625;  225.825;    0.000
321.957; 2958.625;  222.825;    0.000
322.017; 3003.625;  215.825;    0.000
322.077; 2898.625;  250.825;    0.000
322.138; 3065.625;  189.825;    0.000
322.198; 2979.625;  200.825;    0.000
322.258; 2972.625;  217.825;    0.000
322.318; 2902.625;  183.825;    0.000
322.378; 2906.625;  231.825;    0.000
322.438; 2945.625;  228.825;    0.000
322.499; 2884.625;  248.825;    0.000
322.559; 2907.625;  198.825;    0.000
322.619; 2880.625;  221.825;    0.000
322.679; 2878.625;  217.825;    0.000
322.739; 2943.625;  204.825;    0.000
322.799; 2959.625;  236.825;    0.000
322.859; 2902.625;  213.825;    0.000
322.919; 2951.625;  210.825;    0.000
322.979; 3008.625;  244.825;    0.000
323.039; 2892.625;  218.825;    0.000
323.099; 2914.625;  232.825;    0.000
323.159; 3010.625;  216.825;    0.000
323.219; 2960.625;  169.825;    0.000
323.279; 2877.625;  236.825;    0.000
323.339; 2971.625;  243.825;    0.000
323.399; 2986.625;  208.825;    0.000
323.459; 2930.625;  220.825;    0.000
323.519; 2909.625;  228.825;    0.000
323.579; 2895.625;  164.825;    0.000
323.639; 3086.625;  209.825;    0.000
323.699; 2908.625;  188.825;    0.000
323.759; 2968.625;  206.825;    0.000
323.819; 2987.625;  204.825;    0.000
323.879; 2900.625;  222.825;    0.000
323.939; 2924.625;  206.825;    0.000
323.999; 3035.625;  202.825;    0.000
324.059; 2813.625;  245.825;    0.000
324.119; 2934.625;  214.825;    0.000
324.178; 2877.625;  183.825;    0.000
324.238; 2925.625;  193.825;    0.000
324.298; 2870.625;  207.825;    0.000
324.358; 2891.625;  196.825;    0.000
324.418; 2896.625;  193.825;    0.000
324.478; 2983.625;  191.825;    0.000
324.538; 2949.625;  224.825;    0.000
324.597; 2918.625;  187.825;    0.000
324.657; 2884.625;  208.825;    0.000
324.717; 2907.625;  198.825;    0.000
324.777; 2882.625;  159.825;    0.000
324.837; 2871.625;  180.825;    0.000
324.896; 2880.625;  215.825;    0.000
324.956; 2869.625;  210.825;    0.000
325.016; 2904.625;  187.825;    0.000
325.076; 2918.625;  197.825;    0.000
325.135; 2872.625;  226.825;    0.000
325.195; 3005.625;  201.825;    0.000
325.255; 2761.625;  167.825;    0.000
325.315; 2897.625;  217.825;    0.000
325.374; 2912.625;  196.825;    0.000
325.434; 2911.625;  167.825;    0.000
325.494; 2895.625;  214.825;    0.000
325.553; 2901.625;  203.825;    0.000
325.613; 2857.625;  206.825;    0.000
325.673; 2835.625;  148.825;    0.000
325.732; 2948.625;  207.825;    0.000
325.792; 2840.625;  151.825;    0.000
325.852; 2875.625;  195.825;    0.000
325.911; 2835.625;  201.825;    0.000
325.971; 2974.625;  224.825;    0.000
326.031; 2863.625;  201.825;    0.000
326.090; 2817.625;  203.825;    0.000
326.150; 2822.625;  183.825;    0.000
326.209; 2918.625;  226.825;    0.000
326.269; 2890.625;  194.825;    0.000
326.328; 2774.625;  200.825;    0.000
326.388; 2863.625;  177.825;    0.000
326.448; 2868.625;  239.825;    0.000
326.507; 2824.625;  197.825;    0.000
326.567; 2914.625;  161.825;    0.000
326.626; 2844.625;  220.825;    0.000
326.686; 2736.625;  178.825;    0.000
326.745; 2791.625;  167.825;    0.000
326.805; 2863.625;  176.825;    0.000
326.864; 2768.625;  204.825;    0.000
326.924; 2843.625;  218.825;    0.000
326.983; 2773.625;  201.825;    0.000
327.043; 2792.625;  219.825;    0.000
327.102; 2788.625;  202.825;    0.000
327.161; 2813.625;  228.825;    0.000
327.221; 2814.625;  217.825;    0.000
327.280; 2787.625;  188.825;    0.000
327.340; 2701.625;  209.825;    0.000
327.399; 2815.625;  189.825;    0.000
327.459; 2789.625;  216.825;    0.000
327.518; 2768.625;  200.825;    0.000
327.577; 2754.625;  194.825;    0.000
327.637; 2765.625;  180.825;    0.000
327.696; 2780.625;  208.825;    0.000
327.755; 2731.625;  218.825;    0.000
327.815; 2739.625;  234.825;    0.000
327.874; 2832.625;  259.825;    0.000
327.933; 2749.625;  192.825;    0.000
327.993; 2869.625;  208.825;    0.000
328.052; 2772.625;  221.825;    0.000
328.111; 2770.625;  203.825;    0.000
328.171; 2809.625;  221.825;    0.000
328.230; 2701.625;  222.825;    0.000
328.289; 2775.625;  254.825;    0.000
328.349; 2729.625;  232.825;    0.000
328.408; 2786.625;  223.825;    0.000
328.467; 2709.625;  198.825;    0.000
328.526; 2695.625;  217.825;    0.000
328.586; 2778.625;  185.825;    0.000
328.645; 2805.625;  210.825;    0.000
328.704; 2772.625;  211.825;    0.000
328.763; 2699.625;  231.825;    0.000
328.822; 2752.625;  254.825;    0.000
328.882; 2740.625;  216.825;    0.000
328.941; 2733.625;  239.825;    0.000
329.000; 2733.625;  251.825;    0.000
329.059; 2772.625;  227.825;    0.000
329.118; 2691.625;  233.825;    0.000
329.177; 2757.625;  188.825;    0.000
329.237; 2883.625;  257.825;    0.000
329.296; 2731.625;  265.825;    0.000
329.355; 2825.625;  245.825;    0.000
329.414; 2734.625;  236.825;    0.000
329.473; 2749.625;  242.825;    0.000
329.532; 2684.625;  228.825;    0.000
329.591; 2784.625;  206.825;    0.000
329.650; 2745.625;  250.825;    0.000
329.709; 2814.625;  278.825;    0.000
329.768; 2791.625;  219.825;    0.000
329.827; 2823.625;  254.825;    0.000
329.886; 2837.625;  221.825;    0.000
329.945; 2789.625;  239.825;    0.000
330.004; 2978.625;  245.825;    0.000
330.063; 2936.625;  201.825;    0.000
330.122; 3116.625;  227.825;    0.000
330.181; 3397.625;  196.825;    0.000
330.240; 3487.625;  203.825;    0.000
330.299; 3184.625;  214.825;    0.000
330.358; 2801.625;  196.825;    0.000
330.417; 2795.625;  201.825;    0.000
330.476; 2801.625;  248.825;    0.000
330.535; 2742.625;  253.825;    0.000
330.594; 2741.625;  231.825;    0.000
330.653; 2693.625;  210.825;    0.000
330.712; 2700.625;  242.825;    0.000
330.771; 2731.625;  240.825;    0.000
330.830; 2688.625;  230.825;    0.000
330.889; 2631.625;  217.825;    0.000
330.948; 2709.625;  211.825;    0.000
331.006; 2635.625;  217.825;    0.000
331.065; 2566.625;  170.825;    0.000
331.124; 2707.625;  211.825;    0.000
331.183; 2662.625;  192.825;    0.000
331.242; 2671.625;  227.825;    0.000
331.301; 2604.625;  240.825;    0.000
331.359; 2612.625;  223.825;    0.000
331.418; 2640.625;  215.825;    0.000
331.477; 2650.625;  230.825;    0.000
331.536; 2734.625;  221.825;    0.000
331.595; 2581.625;  198.825;    0.000
331.653; 2617.625;  207.825;    0.000
331.712; 2609.625;  217.825;    0.000
331.771; 2568.625;  221.825;    0.000
331.830; 2630.625;  222.825;    0.000
331.888; 2679.625;  213.825;    0.000
331.947; 2545.625;  233.825;    0.000
332.006; 2483.625;  212.825;    0.000
332.065; 2587.625;  200.825;    0.000
332.123; 2588.625;  223.825;    0.000
332.182; 2638.625;  180.825;    0.000
332.241; 2627.625;  192.825;    0.000
332.299; 2618.625;  172.825;    0.000
332.358; 2616.625;  216.825;    0.000
332.417; 2639.625;  211.825;    0.000
332.475; 2624.625;  222.825;    0.000
332.534; 2604.625;  238.825;    0.000
332.592; 2610.625;  216.825;    0.000
332.651; 2579.625;  196.825;    0.000
332.710; 2606.625;  215.825;    0.000
332.768; 2691.625;  193.825;    0.000
332.827; 2567.625;  201.825;    0.000
332.885; 2656.625;  226.825;    0.000
332.944; 2658.625;  174.825;    0.000
333.003; 2738.625;  187.825;    0.000
333.061; 2768.625;  208.825;    0.000
333.120; 2714.625;  202.825;    0.000
333.178; 2835.625;  227.825;    0.000
333.237; 2828.625;  215.825;    0.000
333.295; 2940.625;  245.825;    0.000
333.354; 2809.625;  194.825;    0.000
333.412; 2720.625;  165.825;    0.000
333.471; 2732.625;  219.825;    0.000
333.529; 2821.625;  255.825;    0.000
333.588; 2851.625;  264.825;    0.000
333.646; 3035.625;  231.825;    0.000
333.705; 3029.625;  232.825;    0.000
333.763; 2955.625;  233.825;    0.000
333.822; 2833.625;  221.825;    0.000
333.880; 2804.625;  180.825;    0.000
333.938; 2766.625;  229.825;    0.000
333.997; 2751.625;  194.825;    0.000
334.055; 2736.625;  230.825;    0.000
334.114; 2813.625;  230.825;    0.000
334.172; 2747.625;  170.825;    0.000
334.230; 2732.625;  192.825;    0.000
334.289; 2828.625;  225.825;    0.000
334.347; 2761.625;  233.825;    0.000
334.405; 2725.625;  207.825;    0.000
334.464; 2740.625;  175.825;    0.000
334.522; 2741.625;  180.825;    0.000
334.580; 2735.625;  172.825;    0.000
334.639; 2719.625;  230.825;    0.000
334.697; 2681.625;  217.825;    0.000
334.755; 2681.625;  217.825;    0.000
334.814; 2729.625;  210.825;    0.000
334.872; 2626.625;  170.825;    0.000
334.930; 2678.625;  167.825;    0.000
334.988; 2721.625;  244.825;    0.000
335.047; 2705.625;  202.825;    0.000
335.105; 2703.625;  181.825;    0.000
335.163; 2692.625;  195.825;    0.000
335.221; 2676.625;  203.825;    0.000
335.280; 2799.625;  216.825;    0.000
335.338; 2673.625;  197.825;    0.000
335.396; 2738.625;  232.825;    0.000
335.454; 2685.625;  211.825;    0.000
335.512; 2713.625;  221.825;    0.000
335.570; 2592.625;  216.825;    0.000
335.629; 2703.625;  244.825;    0.000
335.687; 2780.625;  244.825;    0.000
335.745; 2729.625;  189.825;    0.000
335.803; 2697.625;  198.825;    0.000
335.861; 2735.625;  236.825;    0.000
335.919; 2786.625;  234.825;    0.000
335.977; 2813.625;  214.825;    0.000
336.035; 2723.625;  242.825;    0.000
336.094; 2735.625;  219.825;    0.000
336.152; 2670.625;  196.825;    0.000
336.210; 2650.625;  221.825;    0.000
336.268; 2645.625;  257.825;    0.000
336.326; 2730.625;  211.825;    0.000
336.384; 2740.625;  217.825;    0.000
336.442; 2736.625;  176.825;    0.000
336.500; 2672.625;  242.825;    0.000
336.558; 2665.625;  238.825;    0.000
336.616; 2636.625;  261.825;    0.000
336.674; 2619.625;  200.825;    0.000
336.732; 2607.625;  208.825;    0.000
336.790; 2613.625;  183.825;    0.000
336.848; 2711.625;  199.825;    0.000
336.906; 2683.625;  240.825;    0.000
336.964; 2720.625;  234.825;    0.000
337.022; 2676.625;  282.825;    0.000
337.080; 2675.625;  265.825;    0.000
337.138; 2602.625;  255.825;    0.000
337.195; 2626.625;  200.825;    0.000
337.253; 2561.625;  199.825;    0.000
337.311; 2665.625;  233.825;    0.000
337.369; 2628.625;  250.825;    0.000
337.427; 2678.625;  201.825;    0.000
337.485; 2660.625;  228.825;    0.000
337.543; 2651.625;  221.825;    0.000
337.601; 2649.625;  232.825;    0.000
337.658; 2679.625;  215.825;    0.000
337.716; 2628.625;  198.825;    0.000
337.774; 2463.625;  262.825;    0.000
337.832; 2576.625;  220.825;    0.000
337.890; 2525.625;  194.825;    0.000
337.947; 2614.625;  205.825;    0.000
338.005; 2563.625;  229.825;    0.000
338.063; 2544.625;  237.825;    0.000
338.121; 2577.625;  220.825;    0.000
338.178; 2585.625;  227.825;    0.000
338.236; 2584.625;  238.825;    0.000
338.294; 2602.625;  242.825;    0.000
338.352; 2565.625;  230.825;    0.000
338.409; 2515.625;  222.825;    0.000
338.467; 2563.625;  233.825;    0.000
338.525; 2643.625;  253.825;    0.000
338.583; 2502.625;  221.825;    0.000
338.640; 2567.625;  225.825;    0.000
338.698; 2450.625;  229.825;    0.000
338.756; 2584.625;  238.825;    0.000
338.813; 2570.625;  260.825;    0.000
338.871; 2618.625;  246.825;    0.000
338.928; 2558.625;  240.825;    0.000
338.986; 2570.625;  228.825;    0.000
339.044; 2643.625;  265.825;    0.000
339.101; 2598.625;  224.825;    0.000
339.159; 2604.625;  235.825;    0.000
339.216; 2596.625;  244.825;    0.000
339.274; 2650.625;  266.825;    0.000
339.332; 2612.625;  248.825;    0.000
339.389; 2546.625;  246.825;    0.000
339.447; 2571.625;  237.825;    0.000
339.504; 2557.625;  244.825;    0.000
339.562; 2578.625;  249.825;    0.000
339.619; 2529.625;  266.825;    0.000
339.677; 2662.625;  263.825;    0.000
339.734; 2548.625;  216.825;    0.000
339.792; 2567.625;  276.825;    0.000
339.849; 2520.625;  240.825;    0.000
339.907; 2485.625;  275.825;    0.000
339.964; 2648.625;  243.825;    0.000
340.022; 2615.625;  224.825;    0.000
340.079; 2660.625;  230.825;    0.000
340.137; 2581.625;  232.825;    0.000
340.194; 2503.625;  261.825;    0.000
340.252; 2545.625;  219.825;    0.000
340.309; 2556.625;  212.825;    0.000
340.366; 2573.625;  231.825;    0.000
340.424; 2575.625;  244.825;    0.000
340.481; 2622.625;  238.825;    0.000
340.538; 2593.625;  217.825;    0.000
340.596; 2573.625;  224.825;    0.000
340.653; 2655.625;  225.825;    0.000
340.711; 2652.625;  276.825;    0.000
340.768; 2600.625;  239.825;    0.000
340.825; 2529.625;  216.825;    0.000
340.883; 2543.625;  264.825;    0.000
340.940; 2558.625;  256.825;    0.000
340.997; 2587.625;  230.825;    0.000
341.054; 2603.625;  229.825;    0.000
341.112; 2647.625;  220.825;    0.000
341.169; 2608.625;  276.825;    0.000
341.226; 2646.625;  224.825;    0.000
341.284; 2690.625;  235.825;    0.000
341.341; 2580.625;  226.825;    0.000
341.398; 2548.625;  200.825;    0.000
341.455; 2573.625;  242.825;    0.000
341.512; 2652.625;  226.825;    0.000
341.570; 2632.625;  299.825;    0.000
341.627; 2647.625;  221.825;    0.000
341.684; 2671.625;  204.825;    0.000
341.741; 2667.625;  285.825;    0.000
341.798; 2657.625;  237.825;    0.000
341.856; 2651.625;  223.825;    0.000
341.913; 2548.625;  232.825;    0.000
341.970; 2700.625;  250.825;    0.000
342.027; 2604.625;  272.825;    0.000
342.084; 2651.625;  242.825;    0.000
342.141; 2570.625;  207.825;    0.000
342.198; 2599.625;  252.825;    0.000
342.255; 2639.625;  189.825;    0.000
342.313; 2657.625;  222.825;    0.000
342.370; 2668.625;  203.825;    0.000
342.427; 2630.625;  261.825;    0.000
342.484; 2660.625;  230.825;    0.000
342.541; 2504.625;  224.825;    0.000
342.598; 2581.625;  245.825;    0.000
342.655; 2591.625;  235.825;    0.000
342.712; 2522.625;  238.825;    0.000
342.769; 2581.625;  235.825;    0.000
342.826; 2673.625;  232.825;    0.000
342.883; 2539.625;  212.825;    0.000
342.940; 2542.625;  189.825;    0.000
342.997; 2522.625;  241.825;    0.000
343.054; 2675.625;  235.825;    0.000
343.111; 2669.625;  216.825;    0.000
343.168; 2690.625;  202.825;    0.000
343.225; 2748.625;  228.825;    0.000
343.282; 2634.625;  208.825;    0.000
343.339; 2722.625;  241.825;    0.000
343.395; 2739.625;  206.825;    0.000
343.452; 2690.625;  227.825;    0.000
343.509; 2713.625;  212.825;    0.000
343.566; 2658.625;  266.825;    0.000
343.623; 2750.625;  240.825;    0.000
343.680; 2740.625;  215.825;    0.000
343.737; 2708.625;  231.825;    0.000
343.794; 2769.625;  256.825;    0.000
343.850; 2786.625;  235.825;    0.000
343.907; 2762.625;  246.825;    0.000
343.964; 2691.625;  241.825;    0.000
344.021; 2753.625;  237.825;    0.000
344.078; 2867.625;  248.825;    0.000
344.134; 2828.625;  225.825;    0.000
344.191; 2782.625;  209.825;    0.000
344.248; 2854.625;  234.825;    0.000
344.305; 2749.625;  224.825;    0.000
344.361; 2750.625;  194.825;    0.000
344.418; 2809.625;  240.825;    0.000
344.475; 2686.625;  252.825;    0.000
344.532; 2782.625;  251.825;    0.000
344.588; 2817.625;  240.825;    0.000
344.645; 2754.625;  253.825;    0.000
344.702; 2865.625;  216.825;    0.000
344.758; 2758.625;  258.825;    0.000
344.815; 2792.625;  239.825;    0.000
344.872; 2733.625;  216.825;    0.000
344.928; 2788.625;  236.825;    0.000
344.985; 2847.625;  238.825;    0.000
345.042; 2826.625;  211.825;    0.000
345.098; 2731.625;  223.825;    0.000
345.155; 2803.625;  266.825;    0.000
345.212; 2719.625;  266.825;    0.000
345.268; 2702.625;  245.825;    0.000
345.325; 2728.625;  225.825;    0.000
345.381; 2902.625;  223.825;    0.000
345.438; 2722.625;  259.825;    0.000
345.495; 2812.625;  233.825;    0.000
345.551; 2840.625;  254.825;    0.000
345.608; 2765.625;  212.825;    0.000
345.664; 2850.625;  225.825;    0.000
345.721; 2750.625;  223.825;    0.000
345.777; 2753.625;  226.825;    0.000
345.834; 2681.625;  215.825;    0.000
345.890; 2729.625;  230.825;    0.000
345.947; 2826.625;  232.825;    0.000
346.003; 2682.625;  241.825;    0.000
346.060; 2755.625;  241.825;    0.000
346.116; 2861.625;  231.825;    0.000
346.173; 2823.625;  229.825;    0.000
346.229; 2794.625;  262.825;    0.000
346.285; 2722.625;  232.825;    0.000
346.342; 2714.625;  228.825;    0.000
346.398; 2721.625;  203.825;    0.000
346.455; 2812.625;  214.825;    0.000
346.511; 2852.625;  245.825;    0.000
346.567; 2686.625;  192.825;    0.000
346.624; 2860.625;  206.825;    0.000
346.680; 2901.625;  209.825;    0.000
346.737; 2821.625;  239.825;    0.000
346.793; 2803.625;  234.825;    0.000
346.849; 2818.625;  252.825;    0.000
346.906; 2919.625;  247.825;    0.000
346.962; 2923.625;  274.825;    0.000
347.018; 2781.625;  225.825;    0.000
347.074; 2926.625;  261.825;    0.000
347.131; 2678.625;  230.825;    0.000
347.187; 2822.625;  269.825;    0.000
347.243; 2790.625;  261.825;    0.000
347.300; 2695.625;  236.825;    0.000
347.356; 2766.625;  284.825;    0.000
347.412; 2760.625;  243.825;    0.000
347.468; 2796.625;  276.825;    0.000
347.524; 2738.625;  232.825;    0.000
347.581; 2740.625;  242.825;    0.000
347.637; 2886.625;  270.825;    0.000
347.693; 2807.625;  269.825;    0.000
347.749; 2851.625;  278.825;    0.000
347.805; 2838.625;  224.825;    0.000
347.862; 2789.625;  207.825;    0.000
347.918; 2776.625;  259.825;    0.000
347.974; 2850.625;  244.825;    0.000
348.030; 2894.625;  219.825;    0.000
348.086; 2862.625;  250.825;    0.000
348.142; 2799.625;  251.825;    0.000
348.198; 2825.625;  267.825;    0.000
348.254; 2842.625;  230.825;    0.000
348.311; 2832.625;  261.825;    0.000
348.367; 2920.625;  259.825;    0.000
348.423; 2738.625;  251.825;    0.000
348.479; 2765.625;  251.825;    0.000
348.535; 2832.625;  269.825;    0.000
348.591; 2873.625;  238.825;    0.000
348.647; 2859.625;  273.825;    0.000
348.703; 2922.625;  291.825;    0.000
348.759; 2817.625;  231.825;    0.000
348.815; 2701.625;  286.825;    0.000
348.871; 2783.625;  265.825;    0.000
348.927; 2892.625;  234.825;    0.000
348.983; 2850.625;  267.825;    0.000
349.039; 2793.625;  233.825;    0.000
349.095; 2831.625;  225.825;    0.000
349.151; 2890.625;  242.825;    0.000
349.207; 2845.625;  223.825;    0.000
349.263; 2882.625;  219.825;    0.000
349.319; 2843.625;  226.825;    0.000
349.374; 2904.625;  232.825;    0.000
349.430; 2878.625;  235.825;    0.000
349.486; 2753.625;  227.825;    0.000
349.542; 2910.625;  253.825;    0.000
349.598; 2904.625;  227.825;    0.000
349.654; 2909.625;  270.825;    0.000
349.710; 2896.625;  233.825;    0.000
349.766; 2957.625;  245.825;    0.000
349.821; 2838.625;  242.825;    0.000
349.877; 2959.625;  229.825;    0.000
349.933; 2891.625;  229.825;    0.000
349.989; 2941.625;  230.825;    0.000
350.045; 2843.625;  236.825;    0.000
350.100; 2892.625;  237.825;    0.000
350.156; 2908.625;  230.825;    0.000
350.212; 2810.625;  254.825;    0.000
350.268; 2899.625;  239.825;    0.000
350.323; 2946.625;  204.825;    0.000
350.379; 2861.625;  246.825;    0.000
350.435; 2877.625;  249.825;    0.000
350.491; 2848.625;  217.825;    0.000
350.546; 2872.625;  231.825;    0.000
350.602; 2932.625;  240.825;    0.000
350.658; 2901.625;  235.825;    0.000
350.713; 2847.625;  234.825;    0.000
350.769; 2823.625;  218.825;    0.000
350.825; 2891.625;  227.825;    0.000
350.880; 2825.625;  226.825;    0.000
350.936; 2907.625;  247.825;    0.000
350.992; 2840.625;  213.825;    0.000
351.047; 2886.625;  207.825;    0.000
351.103; 2866.625;  271.825;    0.000
351.158; 2927.625;  251.825;    0.000
351.214; 2986.625;  199.825;    0.000
351.270; 2853.625;  214.825;    0.000
351.325; 2906.625;  235.825;    0.000
351.381; 2932.625;  223.825;    0.000
351.436; 2936.625;  237.825;    0.000
351.492; 3078.625;  221.825;    0.000
351.547; 2983.625;  237.825;    0.000
351.603; 2938.625;  239.825;    0.000
351.658; 3023.625;  209.825;    0.000
351.714; 3011.625;  226.825;    0.000
351.769; 2992.625;  238.825;    0.000
351.825; 3008.625;  226.825;    0.000
351.880; 3020.625;  217.825;    0.000
351.936; 2982.625;  246.825;    0.000
351.991; 2938.625;  233.825;    0.000
352.047; 2851.625;  215.825;    0.000
352.102; 2963.625;  243.825;    0.000
352.158; 2901.625;  234.825;    0.000
352.213; 2850.625;  201.825;    0.000
352.268; 2846.625;  234.825;    0.000
352.324; 2868.625;  211.825;    0.000
352.379; 2914.625;  221.825;    0.000
352.434; 2909.625;  259.825;    0.000
352.490; 2966.625;  250.825;    0.000
352.545; 2952.625;  251.825;    0.000
352.601; 2955.625;  283.825;    0.000
352.656; 2940.625;  236.825;    0.000
352.711; 2905.625;  237.825;    0.000
352.767; 2918.625;  201.825;    0.000
352.822; 2971.625;  209.825;    0.000
352.877; 2984.625;  239.825;    0.000
352.932; 2901.625;  228.825;    0.000
352.988; 2931.625;  202.825;    0.000
353.043; 2902.625;  268.825;    0.000
353.098; 3058.625;  208.825;    0.000
353.153; 2895.625;  219.825;    0.000
353.209; 3011.625;  252.825;    0.000
353.264; 2898.625;  225.825;    0.000
353.319; 2916.625;  234.825;    0.000
353.374; 2882.625;  236.825;    0.000
353.430; 2920.625;  245.825;    0.000
353.485; 2900.625;  238.825;    0.000
353.540; 2948.625;  238.825;    0.000
353.595; 2813.625;  215.825;    0.000
353.650; 2874.625;  238.825;    0.000
353.705; 3023.625;  274.825;    0.000
353.761; 3027.625;  229.825;    0.000
353.816; 2943.625;  275.825;    0.000
353.871; 3031.625;  245.825;    0.000
353.926; 2868.625;  253.825;    0.000
353.981; 2944.625;  269.825;    0.000
354.036; 2950.625;  246.825;    0.000
354.091; 2912.625;  257.825;    0.000
354.146; 2954.625;  278.825;    0.000
354.201; 2985.625;  276.825;    0.000
354.256; 2879.625;  224.825;    0.000
354.311; 2966.625;  287.825;    0.000
354.367; 2989.625;  210.825;    0.000
354.422; 2992.625;  231.825;    0.000
354.477; 2933.625;  226.825;    0.000
354.532; 2986.625;  262.825;    0.000
354.587; 2968.625;  275.825;    0.000
354.642; 2931.625;  247.825;    0.000
354.697; 2949.625;  251.825;    0.000
354.751; 2971.625;  249.825;    0.000
354.806; 2980.625;  217.825;    0.000
354.861; 2951.625;  247.825;    0.000
354.916; 2974.625;  259.825;    0.000
354.971; 3107.625;  241.825;    0.000
355.026; 2900.625;  250.825;    0.000
355.081; 3021.625;  244.825;    0.000
355.136; 2902.625;  203.825;    0.000
355.191; 2994.625;  241.825;    0.000
355.246; 2916.625;  248.825;    0.000
355.301; 3001.625;  259.825;    0.000
355.355; 2987.625;  236.825;    0.000
355.410; 2946.625;  221.825;    0.000
355.465; 2946.625;  206.825;    0.000
355.520; 2997.625;  258.825;    0.000
355.575; 2921.625;  273.825;    0.000
355.630; 2998.625;  252.825;    0.000
355.684; 3038.625;  246.825;    0.000
355.739; 2946.625;  251.825;    0.000
355.794; 2881.625;  247.825;    0.000
355.849; 3007.625;  246.825;    0.000
355.904; 2974.625;  262.825;    0.000
355.958; 2926.625;  249.825;    0.000
356.013; 2938.625;  213.825;    0.000
356.068; 2911.625;  255.825;    0.000
356.123; 3008.625;  205.825;    0.000
356.177; 2990.625;  239.825;    0.000
356.232; 2998.625;  258.825;    0.000
356.287; 3054.625;  248.825;    0.000
356.341; 2952.625;  221.825;    0.000
356.396; 2999.625;  220.825;    0.000
356.451; 3008.625;  231.825;    0.000
356.505; 2962.625;  231.825;    0.000
356.560; 3020.625;  254.825;    0.000
356.615; 2879.625;  234.825;    0.000
356.669; 3046.625;  250.825;    0.000
356.724; 3047.625;  261.825;    0.000
356.778; 2910.625;  207.825;    0.000
356.833; 2929.625;  205.825;    0.000
356.888; 3002.625;  235.825;    0.000
356.942; 2974.625;  205.825;    0.000
356.997; 3034.625;  276.825;    0.000
357.051; 3044.625;  243.825;    0.000
357.106; 2961.625;  242.825;    0.000
357.160; 2966.625;  241.825;    0.000
357.215; 3016.625;  212.825;    0.000
357.269; 3052.625;  238.825;    0.000
357.324; 2955.625;  223.825;    0.000
357.378; 2885.625;  221.825;    0.000
357.433; 3028.625;  262.825;    0.000
357.487; 2895.625;  246.825;    0.000
357.542; 3075.625;  221.825;    0.000
357.596; 2956.625;  225.825;    0.000
357.651; 3087.625;  244.825;    0.000
357.705; 2959.625;  269.825;    0.000
357.760; 2906.625;  209.825;    0.000
357.814; 2954.625;  250.825;    0.000
357.868; 2985.625;  266.825;    0.000
357.923; 2930.625;  248.825;    0.000
357.977; 2996.625;  262.825;    0.000
358.032; 2982.625;  228.825;    0.000
358.086; 2996.625;  257.825;    0.000
358.140; 2957.625;  217.825;    0.000
358.195; 2902.625;  246.825;    0.000
358.249; 2923.625;  255.825;    0.000
358.303; 3006.625;  252.825;    0.000
358.358; 2921.625;  278.825;    0.000
358.412; 2977.625;  276.825;    0.000
358.466; 2988.625;  275.825;    0.000
358.521; 2968.625;  229.825;    0.000
358.575; 2976.625;  270.825;    0.000
358.629; 2949.625;  239.825;    0.000
358.683; 2905.625;  254.825;    0.000
358.738; 2975.625;  239.825;    0.000
358.792; 2961.625;  272.825;    0.000
358.846; 3009.625;  289.825;    0.000
358.900; 2825.625;  299.825;    0.000
358.954; 2947.625;  247.825;    0.000
359.009; 2964.625;  245.825;    0.000
359.063; 2967.625;  272.825;    0.000
359.117; 3017.625;  242.825;    0.000
359.171; 3027.625;  279.825;    0.000
359.225; 3006.625;  221.825;    0.000
359.280; 2975.625;  238.825;    0.000
359.334; 2996.625;  264.825;    0.000
359.388; 2961.625;  273.825;    0.000
359.442; 2974.625;  233.825;    0.000
359.496; 2898.625;  226.825;    0.000
359.550; 2990.625;  271.825;    0.000
359.604; 2907.625;  296.825;    0.000
359.658; 2987.625;  252.825;    0.000
359.712; 2892.625;  256.825;    0.000
359.766; 2904.625;  257.825;    0.000
359.820; 2968.625;  239.825;    0.000
359.875; 2968.625;  252.825;    0.000
359.929; 3046.625;  258.825;    0.000
359.983; 2889.625;  232.825;    0.000
360.037; 2873.625;  268.825;    0.000
360.091; 3035.625;  303.825;    0.000
360.145; 2927.625;  232.825;    0.000
360.199; 2856.625;  255.825;    0.000
360.253; 2955.625;  252.825;    0.000
360.306; 2939.625;  278.825;    0.000
360.360; 2878.625;  249.825;    0.000
360.414; 2852.625;  274.825;    0.000
360.468; 2915.625;  247.825;    0.000
360.522; 2974.625;  268.825;    0.000
360.576; 2882.625;  263.825;    0.000
360.630; 3044.625;  296.825;    0.000
360.684; 2983.625;  253.825;    0.000
360.738; 2990.625;  301.825;    0.000
360.792; 2960.625;  282.825;    0.000
360.846; 2952.625;  277.825;    0.000
360.899; 2939.625;  292.825;    0.000
360.953; 2910.625;  266.825;    0.000
361.007; 2974.625;  240.825;    0.000
361.061; 2949.625;  247.825;    0.000
361.115; 3019.625;  276.825;    0.000
361.168; 2932.625;  288.825;    0.000
361.222; 2884.625;  271.825;    0.000
361.276; 2920.625;  270.825;    0.000
361.330; 2923.625;  295.825;    0.000
361.384; 2960.625;  276.825;    0.000
361.437; 2977.625;  280.825;    0.000
361.491; 2965.625;  261.825;    0.000
361.545; 2911.625;  273.825;    0.000
361.599; 2982.625;  269.825;    0.000
361.652; 3005.625;  258.825;    0.000
361.706; 2957.625;  270.825;    0.000
361.760; 2879.625;  294.825;    0.000
361.813; 2902.625;  244.825;    0.000
361.867; 2928.625;  294.825;    0.000
361.921; 2973.625;  285.825;    0.000
361.974; 2893.625;  269.825;    0.000
362.028; 2978.625;  275.825;    0.000
362.082; 2904.625;  270.825;    0.000
362.135; 2935.625;  259.825;    0.000
362.189; 2851.625;  302.825;    0.000
362.242; 3039.625;  296.825;    0.000
362.296; 2952.625;  285.825;    0.000
362.350; 2931.625;  303.825;    0.000
362.403; 2920.625;  271.825;    0.000
362.457; 2934.625;  285.825;    0.000
362.510; 2882.625;  288.825;    0.000
362.564; 2949.625;  268.825;    0.000
362.617; 2784.625;  285.825;    0.000
362.671; 2919.625;  277.825;    0.000
362.724; 2914.625;  242.825;    0.000
362.778; 2934.625;  274.825;    0.000
362.831; 2897.625;  280.825;    0.000
362.885; 2967.625;  284.825;    0.000
362.938; 2876.625;  276.825;    0.000
362.992;  330.625;  289.825;    0.000
363.045;  272.625;  247.825;    0.000
363.099;  295.625;  260.825;    0.000
363.152;  282.625;  258.825;    0.000
363.205;  251.625;  286.825;    0.000
363.259;  260.625;  236.825;    0.000
363.312;  311.625;  297.825;    0.000
363.366;  280.625;  266.825;    0.000
363.419;  290.625;  309.825;    0.000
363.472;  302.625;  293.825;    0.000
363.526;  297.625;  270.825;    0.000
363.579;  290.625;  276.825;    0.000
363.632;  263.625;  279.825;    0.000
363.686;  276.625;  292.825;    0.000
363.739;  288.625;  248.825;    0.000
363.792;  287.625;  287.825;    0.000

