
Integration time [ms]:   1.000
Averaging Nr. [scans]: 1
Smoothing Nr. [pixels]: 0
Data measured with spectrometer [name]: VIS
Wave   ;Sample   ;Dark     ;Reference
[nm]   ;[counts] ;[counts] ;[counts] 

450.961;  203.100;    0.000;    0.000
451.100;  217.100;    0.000;    0.000
451.239;  188.100;    0.000;    0.000
451.377;  207.100;    0.000;    0.000
451.516;  184.100;    0.000;    0.000
451.655;  218.100;    0.000;    0.000
451.794;  203.100;    0.000;    0.000
451.932;  219.100;    0.000;    0.000
452.071;  226.100;    0.000;    0.000
452.210;  181.100;    0.000;    0.000
452.348;  222.100;    0.000;    0.000
452.487;  226.100;    0.000;    0.000
452.626;  208.100;    0.000;    0.000
452.764;  224.100;    0.000;    0.000
452.903;  247.100;    0.000;    0.000
453.042;  906.100;    0.000;    0.000
453.180;42464.102;    0.000;    0.000
453.319;55741.102;    0.000;    0.000
453.458;50409.102;    0.000;    0.000
453.596;32908.102;    0.000;    0.000
453.735;20180.100;    0.000;    0.000
453.873;15659.100;    0.000;    0.000
454.012;14637.100;    0.000;    0.000
454.150;14929.100;    0.000;    0.000
454.289;17183.100;    0.000;    0.000
454.427;19081.100;    0.000;    0.000
454.566;22964.100;    0.000;    0.000
454.704;37403.102;    0.000;    0.000
454.843;53417.102;    0.000;    0.000
454.981;51674.102;    0.000;    0.000
455.120;37509.102;    0.000;    0.000
455.258;26847.100;    0.000;    0.000
455.397;22276.100;    0.000;    0.000
455.535;19901.100;    0.000;    0.000
455.674;17628.100;    0.000;    0.000
455.812;16579.100;    0.000;    0.000
455.951;17700.100;    0.000;    0.000
456.089;22687.100;    0.000;    0.000
456.227;30621.100;    0.000;    0.000
456.366;32691.100;    0.000;    0.000
456.504;26322.100;    0.000;    0.000
456.642;20437.100;    0.000;    0.000
456.781;20976.100;    0.000;    0.000
456.919;29031.100;    0.000;    0.000
457.057;43132.102;    0.000;    0.000
457.196;49464.102;    0.000;    0.000
457.334;38377.102;    0.000;    0.000
457.472;24173.100;    0.000;    0.000
457.610;18640.100;    0.000;    0.000
457.749;16857.100;    0.000;    0.000
457.887;16701.100;    0.000;    0.000
458.025;16395.100;    0.000;    0.000
458.163;15779.100;    0.000;    0.000
458.301;15995.100;    0.000;    0.000
458.440;16139.100;    0.000;    0.000
458.578;16373.100;    0.000;    0.000
458.716;17230.100;    0.000;    0.000
458.854;18634.100;    0.000;    0.000
458.992;19064.100;    0.000;    0.000
459.130;17974.100;    0.000;    0.000
459.269;16891.100;    0.000;    0.000
459.407;16810.100;    0.000;    0.000
459.545;16644.100;    0.000;    0.000
459.683;16853.100;    0.000;    0.000
459.821;17326.100;    0.000;    0.000
459.959;17676.100;    0.000;    0.000
460.097;17452.100;    0.000;    0.000
460.235;17489.100;    0.000;    0.000
460.373;17731.100;    0.000;    0.000
460.511;17520.100;    0.000;    0.000
460.649;17801.100;    0.000;    0.000
460.787;17913.100;    0.000;    0.000
460.925;17893.100;    0.000;    0.000
461.063;18102.100;    0.000;    0.000
461.201;17947.100;    0.000;    0.000
461.339;18543.100;    0.000;    0.000
461.477;20845.100;    0.000;    0.000
461.615;24323.100;    0.000;    0.000
461.753;25004.100;    0.000;    0.000
461.891;21908.100;    0.000;    0.000
462.029;21168.100;    0.000;    0.000
462.166;22825.100;    0.000;    0.000
462.304;23540.100;    0.000;    0.000
462.442;22079.100;    0.000;    0.000
462.580;20959.100;    0.000;    0.000
462.718;22079.100;    0.000;    0.000
462.856;23265.100;    0.000;    0.000
462.993;22849.100;    0.000;    0.000
463.131;21840.100;    0.000;    0.000
463.269;20986.100;    0.000;    0.000
463.407;21174.100;    0.000;    0.000
463.545;21045.100;    0.000;    0.000
463.682;23141.100;    0.000;    0.000
463.820;26739.100;    0.000;    0.000
463.958;28376.100;    0.000;    0.000
464.095;25414.100;    0.000;    0.000
464.233;22271.100;    0.000;    0.000
464.371;21727.100;    0.000;    0.000
464.509;21690.100;    0.000;    0.000
464.646;21157.100;    0.000;    0.000
464.784;20558.100;    0.000;    0.000
464.921;20956.100;    0.000;    0.000
465.059;20106.100;    0.000;    0.000
465.197;19524.100;    0.000;    0.000
465.334;19565.100;    0.000;    0.000
465.472;21362.100;    0.000;    0.000
465.609;22495.100;    0.000;    0.000
465.747;21242.100;    0.000;    0.000
465.885;19251.100;    0.000;    0.000
466.022;18287.100;    0.000;    0.000
466.160;18298.100;    0.000;    0.000
466.297;17958.100;    0.000;    0.000
466.435;18694.100;    0.000;    0.000
466.572;20136.100;    0.000;    0.000
466.710;21882.100;    0.000;    0.000
466.847;20728.100;    0.000;    0.000
466.985;18488.100;    0.000;    0.000
467.122;17978.100;    0.000;    0.000
467.260;17737.100;    0.000;    0.000
467.397;18170.100;    0.000;    0.000
467.534;18341.100;    0.000;    0.000
467.672;18291.100;    0.000;    0.000
467.809;18064.100;    0.000;    0.000
467.947;19463.100;    0.000;    0.000
468.084;21702.100;    0.000;    0.000
468.221;21951.100;    0.000;    0.000
468.359;19496.100;    0.000;    0.000
468.496;17797.100;    0.000;    0.000
468.633;17926.100;    0.000;    0.000
468.771;18486.100;    0.000;    0.000
468.908;18860.100;    0.000;    0.000
469.045;19909.100;    0.000;    0.000
469.183;19801.100;    0.000;    0.000
469.320;18580.100;    0.000;    0.000
469.457;18316.100;    0.000;    0.000
469.594;18939.100;    0.000;    0.000
469.732;19861.100;    0.000;    0.000
469.869;20443.100;    0.000;    0.000
470.006;19797.100;    0.000;    0.000
470.143;18521.100;    0.000;    0.000
470.280;18364.100;    0.000;    0.000
470.417;18339.100;    0.000;    0.000
470.555;18670.100;    0.000;    0.000
470.692;19099.100;    0.000;    0.000
470.829;20475.100;    0.000;    0.000
470.966;20943.100;    0.000;    0.000
471.103;20112.100;    0.000;    0.000
471.240;18722.100;    0.000;    0.000
471.377;18290.100;    0.000;    0.000
471.514;18306.100;    0.000;    0.000
471.651;18184.100;    0.000;    0.000
471.789;17711.100;    0.000;    0.000
471.926;17996.100;    0.000;    0.000
472.063;18426.100;    0.000;    0.000
472.200;18858.100;    0.000;    0.000
472.337;18609.100;    0.000;    0.000
472.474;18152.100;    0.000;    0.000
472.611;17603.100;    0.000;    0.000
472.748;17504.100;    0.000;    0.000
472.884;17730.100;    0.000;    0.000
473.021;18227.100;    0.000;    0.000
473.158;18565.100;    0.000;    0.000
473.295;18342.100;    0.000;    0.000
473.432;18055.100;    0.000;    0.000
473.569;18058.100;    0.000;    0.000
473.706;17698.100;    0.000;    0.000
473.843;17709.100;    0.000;    0.000
473.980;18276.100;    0.000;    0.000
474.117;20202.100;    0.000;    0.000
474.253;22052.100;    0.000;    0.000
474.390;20412.100;    0.000;    0.000
474.527;18447.100;    0.000;    0.000
474.664;18199.100;    0.000;    0.000
474.801;18116.100;    0.000;    0.000
474.937;17987.100;    0.000;    0.000
475.074;17899.100;    0.000;    0.000
475.211;17796.100;    0.000;    0.000
475.348;18364.100;    0.000;    0.000
475.484;19227.100;    0.000;    0.000
475.621;23192.100;    0.000;    0.000
475.758;29976.100;    0.000;    0.000
475.894;32847.102;    0.000;    0.000
476.031;27073.100;    0.000;    0.000
476.168;20892.100;    0.000;    0.000
476.304;20373.100;    0.000;    0.000
476.441;20489.100;    0.000;    0.000
476.578;19754.100;    0.000;    0.000
476.714;19337.100;    0.000;    0.000
476.851;19099.100;    0.000;    0.000
476.987;19411.100;    0.000;    0.000
477.124;19509.100;    0.000;    0.000
477.261;19312.100;    0.000;    0.000
477.397;19509.100;    0.000;    0.000
477.534;20220.100;    0.000;    0.000
477.670;21670.100;    0.000;    0.000
477.807;24561.100;    0.000;    0.000
477.943;26981.100;    0.000;    0.000
478.080;25637.100;    0.000;    0.000
478.216;22313.100;    0.000;    0.000
478.353;20702.100;    0.000;    0.000
478.489;20685.100;    0.000;    0.000
478.626;20453.100;    0.000;    0.000
478.762;20609.100;    0.000;    0.000
478.898;20889.100;    0.000;    0.000
479.035;21492.100;    0.000;    0.000
479.171;22301.100;    0.000;    0.000
479.308;22295.100;    0.000;    0.000
479.444;21945.100;    0.000;    0.000
479.580;22127.100;    0.000;    0.000
479.717;23061.100;    0.000;    0.000
479.853;24727.100;    0.000;    0.000
479.989;25144.100;    0.000;    0.000
480.126;24801.100;    0.000;    0.000
480.262;27858.100;    0.000;    0.000
480.398;34191.102;    0.000;    0.000
480.535;36768.102;    0.000;    0.000
480.671;30823.100;    0.000;    0.000
480.807;24453.100;    0.000;    0.000
480.943;22724.100;    0.000;    0.000
481.080;22406.100;    0.000;    0.000
481.216;21929.100;    0.000;    0.000
481.352;21038.100;    0.000;    0.000
481.488;20589.100;    0.000;    0.000
481.624;20197.100;    0.000;    0.000
481.760;20886.100;    0.000;    0.000
481.897;22773.100;    0.000;    0.000
482.033;23904.100;    0.000;    0.000
482.169;22457.100;    0.000;    0.000
482.305;20267.100;    0.000;    0.000
482.441;19716.100;    0.000;    0.000
482.577;20043.100;    0.000;    0.000
482.713;20115.100;    0.000;    0.000
482.849;19983.100;    0.000;    0.000
482.985;19838.100;    0.000;    0.000
483.121;19925.100;    0.000;    0.000
483.258;19964.100;    0.000;    0.000
483.394;20090.100;    0.000;    0.000
483.530;20756.100;    0.000;    0.000
483.665;20760.100;    0.000;    0.000
483.801;21291.100;    0.000;    0.000
483.937;24137.100;    0.000;    0.000
484.073;26836.100;    0.000;    0.000
484.209;24741.100;    0.000;    0.000
484.345;21327.100;    0.000;    0.000
484.481;20862.100;    0.000;    0.000
484.617;20985.100;    0.000;    0.000
484.753;21709.100;    0.000;    0.000
484.889;22257.100;    0.000;    0.000
485.025;21636.100;    0.000;    0.000
485.161;21286.100;    0.000;    0.000
485.296;22619.100;    0.000;    0.000
485.432;26957.100;    0.000;    0.000
485.568;32059.100;    0.000;    0.000
485.704;29501.100;    0.000;    0.000
485.840;23238.100;    0.000;    0.000
485.975;21436.100;    0.000;    0.000
486.111;20975.100;    0.000;    0.000
486.247;21674.100;    0.000;    0.000
486.383;22425.100;    0.000;    0.000
486.518;23076.100;    0.000;    0.000
486.654;25125.100;    0.000;    0.000
486.790;29488.100;    0.000;    0.000
486.926;32620.100;    0.000;    0.000
487.061;31177.100;    0.000;    0.000
487.197;28967.100;    0.000;    0.000
487.333;28995.100;    0.000;    0.000
487.468;28815.100;    0.000;    0.000
487.604;25017.100;    0.000;    0.000
487.740;22331.100;    0.000;    0.000
487.875;21590.100;    0.000;    0.000
488.011;22240.100;    0.000;    0.000
488.146;23134.100;    0.000;    0.000
488.282;25855.100;    0.000;    0.000
488.417;30652.100;    0.000;    0.000
488.553;31604.100;    0.000;    0.000
488.688;25735.100;    0.000;    0.000
488.824;21514.100;    0.000;    0.000
488.960;20946.100;    0.000;    0.000
489.095;21375.100;    0.000;    0.000
489.230;21297.100;    0.000;    0.000
489.366;21496.100;    0.000;    0.000
489.501;21298.100;    0.000;    0.000
489.637;21134.100;    0.000;    0.000
489.772;23920.100;    0.000;    0.000
489.908;29381.100;    0.000;    0.000
490.043;30673.100;    0.000;    0.000
490.178;25542.100;    0.000;    0.000
490.314;21926.100;    0.000;    0.000
490.449;21787.100;    0.000;    0.000
490.585;21887.100;    0.000;    0.000
490.720;22585.100;    0.000;    0.000
490.855;25724.100;    0.000;    0.000
490.991;31120.100;    0.000;    0.000
491.126;35984.102;    0.000;    0.000
491.261;35408.102;    0.000;    0.000
491.396;31785.100;    0.000;    0.000
491.532;26251.100;    0.000;    0.000
491.667;22125.100;    0.000;    0.000
491.802;22339.100;    0.000;    0.000
491.937;24211.100;    0.000;    0.000
492.073;26065.100;    0.000;    0.000
492.208;24962.100;    0.000;    0.000
492.343;22811.100;    0.000;    0.000
492.478;21616.100;    0.000;    0.000
492.613;22262.100;    0.000;    0.000
492.749;23833.100;    0.000;    0.000
492.884;24050.100;    0.000;    0.000
493.019;22066.100;    0.000;    0.000
493.154;20715.100;    0.000;    0.000
493.289;20410.100;    0.000;    0.000
493.424;20643.100;    0.000;    0.000
493.559;21028.100;    0.000;    0.000
493.694;22338.100;    0.000;    0.000
493.829;23314.100;    0.000;    0.000
493.964;22274.100;    0.000;    0.000
494.099;21492.100;    0.000;    0.000
494.234;20949.100;    0.000;    0.000
494.369;21184.100;    0.000;    0.000
494.504;20766.100;    0.000;    0.000
494.639;21168.100;    0.000;    0.000
494.774;21139.100;    0.000;    0.000
494.909;21009.100;    0.000;    0.000
495.044;20773.100;    0.000;    0.000
495.179;20460.100;    0.000;    0.000
495.314;20581.100;    0.000;    0.000
495.449;21112.100;    0.000;    0.000
495.584;21205.100;    0.000;    0.000
495.719;21527.100;    0.000;    0.000
495.854;21655.100;    0.000;    0.000
495.988;21633.100;    0.000;    0.000
496.123;21343.100;    0.000;    0.000
496.258;21997.100;    0.000;    0.000
496.393;22328.100;    0.000;    0.000
496.528;22934.100;    0.000;    0.000
496.663;22913.100;    0.000;    0.000
496.797;23060.100;    0.000;    0.000
496.932;23191.100;    0.000;    0.000
497.067;23139.100;    0.000;    0.000
497.202;23738.100;    0.000;    0.000
497.336;25143.100;    0.000;    0.000
497.471;27283.100;    0.000;    0.000
497.606;27920.100;    0.000;    0.000
497.740;28198.100;    0.000;    0.000
497.875;30970.100;    0.000;    0.000
498.010;43960.102;    0.000;    0.000
498.144;60442.102;    0.000;    0.000
498.279;53213.102;    0.000;    0.000
498.414;32928.102;    0.000;    0.000
498.548;28396.100;    0.000;    0.000
498.683;29071.100;    0.000;    0.000
498.817;34102.102;    0.000;    0.000
498.952;47789.102;    0.000;    0.000
499.087;61293.102;    0.000;    0.000
499.221;53187.102;    0.000;    0.000
499.356;36860.102;    0.000;    0.000
499.490;35020.102;    0.000;    0.000
499.625;37577.102;    0.000;    0.000
499.759;46737.102;    0.000;    0.000
499.894;61780.102;    0.000;    0.000
500.028;62899.102;    0.000;    0.000
500.162;50775.102;    0.000;    0.000
500.297;44057.102;    0.000;    0.000
500.431;44453.102;    0.000;    0.000
500.566;52143.102;    0.000;    0.000
500.700;60692.102;    0.000;    0.000
500.835;54608.102;    0.000;    0.000
500.969;42781.102;    0.000;    0.000
501.103;40457.102;    0.000;    0.000
501.238;47602.102;    0.000;    0.000
501.372;59573.102;    0.000;    0.000
501.506;57411.102;    0.000;    0.000
501.641;43567.102;    0.000;    0.000
501.775;35723.102;    0.000;    0.000
501.909;36540.102;    0.000;    0.000
502.043;38695.102;    0.000;    0.000
502.178;38504.102;    0.000;    0.000
502.312;40260.102;    0.000;    0.000
502.446;41920.102;    0.000;    0.000
502.580;37547.102;    0.000;    0.000
502.715;29708.100;    0.000;    0.000
502.849;25441.100;    0.000;    0.000
502.983;24255.100;    0.000;    0.000
503.117;23679.100;    0.000;    0.000
503.251;23728.100;    0.000;    0.000
503.385;28803.100;    0.000;    0.000
503.520;43269.102;    0.000;    0.000
503.654;51752.102;    0.000;    0.000
503.788;47584.102;    0.000;    0.000
503.922;40755.102;    0.000;    0.000
504.056;33428.102;    0.000;    0.000
504.190;25895.100;    0.000;    0.000
504.324;23437.100;    0.000;    0.000
504.458;23387.100;    0.000;    0.000
504.592;21956.100;    0.000;    0.000
504.726;21615.100;    0.000;    0.000
504.860;20694.100;    0.000;    0.000
504.994;20265.100;    0.000;    0.000
505.128;20690.100;    0.000;    0.000
505.262;21745.100;    0.000;    0.000
505.396;21182.100;    0.000;    0.000
505.530;19378.100;    0.000;    0.000
505.664;18833.100;    0.000;    0.000
505.798;18648.100;    0.000;    0.000
505.932;18633.100;    0.000;    0.000
506.066;19094.100;    0.000;    0.000
506.199;20768.100;    0.000;    0.000
506.333;25301.100;    0.000;    0.000
506.467;28851.100;    0.000;    0.000
506.601;25073.100;    0.000;    0.000
506.735;20242.100;    0.000;    0.000
506.869;20559.100;    0.000;    0.000
507.002;21661.100;    0.000;    0.000
507.136;23534.100;    0.000;    0.000
507.270;22899.100;    0.000;    0.000
507.404;19606.100;    0.000;    0.000
507.537;17622.100;    0.000;    0.000
507.671;17371.100;    0.000;    0.000
507.805;16912.100;    0.000;    0.000
507.939;16792.100;    0.000;    0.000
508.072;16596.100;    0.000;    0.000
508.206;16578.100;    0.000;    0.000
508.340;16754.100;    0.000;    0.000
508.473;17237.100;    0.000;    0.000
508.607;18181.100;    0.000;    0.000
508.740;17971.100;    0.000;    0.000
508.874;16902.100;    0.000;    0.000
509.008;16066.100;    0.000;    0.000
509.141;15933.100;    0.000;    0.000
509.275;16089.100;    0.000;    0.000
509.408;16076.100;    0.000;    0.000
509.542;15852.100;    0.000;    0.000
509.675;16134.100;    0.000;    0.000
509.809;15881.100;    0.000;    0.000
509.942;16069.100;    0.000;    0.000
510.076;15805.100;    0.000;    0.000
510.209;15809.100;    0.000;    0.000
510.343;15798.100;    0.000;    0.000
510.476;15625.100;    0.000;    0.000
510.610;15437.100;    0.000;    0.000
510.743;15779.100;    0.000;    0.000
510.877;15727.100;    0.000;    0.000
511.010;15890.100;    0.000;    0.000
511.143;16215.100;    0.000;    0.000
511.277;17491.100;    0.000;    0.000
511.410;17572.100;    0.000;    0.000
511.543;16214.100;    0.000;    0.000
511.677;15648.100;    0.000;    0.000
511.810;16646.100;    0.000;    0.000
511.943;19890.100;    0.000;    0.000
512.077;20823.100;    0.000;    0.000
512.210;17950.100;    0.000;    0.000
512.343;15943.100;    0.000;    0.000
512.476;16020.100;    0.000;    0.000
512.610;16726.100;    0.000;    0.000
512.743;19304.100;    0.000;    0.000
512.876;22416.100;    0.000;    0.000
513.009;20650.100;    0.000;    0.000
513.142;17117.100;    0.000;    0.000
513.276;15938.100;    0.000;    0.000
513.409;15325.100;    0.000;    0.000
513.542;15061.100;    0.000;    0.000
513.675;15180.100;    0.000;    0.000
513.808;14887.100;    0.000;    0.000
513.941;15146.100;    0.000;    0.000
514.074;15133.100;    0.000;    0.000
514.207;14929.100;    0.000;    0.000
514.340;15859.100;    0.000;    0.000
514.474;17972.100;    0.000;    0.000
514.607;19218.100;    0.000;    0.000
514.740;18095.100;    0.000;    0.000
514.873;16533.100;    0.000;    0.000
515.006;16046.100;    0.000;    0.000
515.139;17249.100;    0.000;    0.000
515.272;18572.100;    0.000;    0.000
515.404;18966.100;    0.000;    0.000
515.537;17737.100;    0.000;    0.000
515.670;15874.100;    0.000;    0.000
515.803;15665.100;    0.000;    0.000
515.936;15585.100;    0.000;    0.000
516.069;15616.100;    0.000;    0.000
516.202;15655.100;    0.000;    0.000
516.335;15798.100;    0.000;    0.000
516.468;15877.100;    0.000;    0.000
516.600;16351.100;    0.000;    0.000
516.733;16639.100;    0.000;    0.000
516.866;17314.100;    0.000;    0.000
516.999;17608.100;    0.000;    0.000
517.132;18611.100;    0.000;    0.000
517.264;23172.100;    0.000;    0.000
517.397;25804.100;    0.000;    0.000
517.530;21426.100;    0.000;    0.000
517.663;18249.100;    0.000;    0.000
517.795;18332.100;    0.000;    0.000
517.928;17993.100;    0.000;    0.000
518.061;17803.100;    0.000;    0.000
518.193;18016.100;    0.000;    0.000
518.326;19293.100;    0.000;    0.000
518.459;21833.100;    0.000;    0.000
518.591;24819.100;    0.000;    0.000
518.724;27682.100;    0.000;    0.000
518.857;30893.100;    0.000;    0.000
518.989;27411.100;    0.000;    0.000
519.122;23439.100;    0.000;    0.000
519.254;27170.100;    0.000;    0.000
519.387;24744.100;    0.000;    0.000
519.519;17961.100;    0.000;    0.000
519.652;15716.100;    0.000;    0.000
519.784;15570.100;    0.000;    0.000
519.917;15354.100;    0.000;    0.000
520.049;15589.100;    0.000;    0.000
520.182;15399.100;    0.000;    0.000
520.314;15165.100;    0.000;    0.000
520.447;15336.100;    0.000;    0.000
520.579;16080.100;    0.000;    0.000
520.712;16221.100;    0.000;    0.000
520.844;18338.100;    0.000;    0.000
520.976;25315.100;    0.000;    0.000
521.109;26129.100;    0.000;    0.000
521.241;19493.100;    0.000;    0.000
521.373;15803.100;    0.000;    0.000
521.506;14398.100;    0.000;    0.000
521.638;14302.100;    0.000;    0.000
521.770;14385.100;    0.000;    0.000
521.903;15041.100;    0.000;    0.000
522.035;15080.100;    0.000;    0.000
522.167;15542.100;    0.000;    0.000
522.300;19718.100;    0.000;    0.000
522.432;25579.100;    0.000;    0.000
522.564;28183.100;    0.000;    0.000
522.696;25123.100;    0.000;    0.000
522.828;19510.100;    0.000;    0.000
522.961;15760.100;    0.000;    0.000
523.093;14648.100;    0.000;    0.000
523.225;14250.100;    0.000;    0.000
523.357;13924.100;    0.000;    0.000
523.489;13466.100;    0.000;    0.000
523.621;13473.100;    0.000;    0.000
523.753;13635.100;    0.000;    0.000
523.885;13918.100;    0.000;    0.000
524.018;13637.100;    0.000;    0.000
524.150;13334.100;    0.000;    0.000
524.282;13133.100;    0.000;    0.000
524.414;13470.100;    0.000;    0.000
524.546;13710.100;    0.000;    0.000
524.678;14611.100;    0.000;    0.000
524.810;13998.100;    0.000;    0.000
524.942;13179.100;    0.000;    0.000
525.074;13554.100;    0.000;    0.000
525.206;13946.100;    0.000;    0.000
525.338;13454.100;    0.000;    0.000
525.469;13408.100;    0.000;    0.000
525.601;13600.100;    0.000;    0.000
525.733;13340.100;    0.000;    0.000
525.865;13342.100;    0.000;    0.000
525.997;13818.100;    0.000;    0.000
526.129;14185.100;    0.000;    0.000
526.261;14461.100;    0.000;    0.000
526.393;14291.100;    0.000;    0.000
526.524;15370.100;    0.000;    0.000
526.656;15350.100;    0.000;    0.000
526.788;15089.100;    0.000;    0.000
526.920;14685.100;    0.000;    0.000
527.052;13904.100;    0.000;    0.000
527.183;13234.100;    0.000;    0.000
527.315;12850.100;    0.000;    0.000
527.447;12705.100;    0.000;    0.000
527.578;12603.100;    0.000;    0.000
527.710;12405.100;    0.000;    0.000
527.842;12528.100;    0.000;    0.000
527.973;12664.100;    0.000;    0.000
528.105;13025.100;    0.000;    0.000
528.237;14124.100;    0.000;    0.000
528.368;14567.100;    0.000;    0.000
528.500;13647.100;    0.000;    0.000
528.632;12695.100;    0.000;    0.000
528.763;12679.100;    0.000;    0.000
528.895;12747.100;    0.000;    0.000
529.026;12744.100;    0.000;    0.000
529.158;12422.100;    0.000;    0.000
529.289;12480.100;    0.000;    0.000
529.421;12778.100;    0.000;    0.000
529.552;13894.100;    0.000;    0.000
529.684;14867.100;    0.000;    0.000
529.815;14898.100;    0.000;    0.000
529.947;13731.100;    0.000;    0.000
530.078;12958.100;    0.000;    0.000
530.210;12554.100;    0.000;    0.000
530.341;12300.100;    0.000;    0.000
530.472;12488.100;    0.000;    0.000
530.604;12438.100;    0.000;    0.000
530.735;12508.100;    0.000;    0.000
530.867;12350.100;    0.000;    0.000
530.998;12369.100;    0.000;    0.000
531.129;12409.100;    0.000;    0.000
531.260;12426.100;    0.000;    0.000
531.392;12455.100;    0.000;    0.000
531.523;12450.100;    0.000;    0.000
531.654;12253.100;    0.000;    0.000
531.786;12509.100;    0.000;    0.000
531.917;12298.100;    0.000;    0.000
532.048;12148.100;    0.000;    0.000
532.179;12150.100;    0.000;    0.000
532.311;12231.100;    0.000;    0.000
532.442;12273.100;    0.000;    0.000
532.573;12222.100;    0.000;    0.000
532.704;12173.100;    0.000;    0.000
532.835;12328.100;    0.000;    0.000
532.966;12260.100;    0.000;    0.000
533.097;12137.100;    0.000;    0.000
533.229;11990.100;    0.000;    0.000
533.360;12395.100;    0.000;    0.000
533.491;13417.100;    0.000;    0.000
533.622;15889.100;    0.000;    0.000
533.753;16111.100;    0.000;    0.000
533.884;13830.100;    0.000;    0.000
534.015;12728.100;    0.000;    0.000
534.146;12469.100;    0.000;    0.000
534.277;12455.100;    0.000;    0.000
534.408;12102.100;    0.000;    0.000
534.539;12170.100;    0.000;    0.000
534.670;12027.100;    0.000;    0.000
534.801;12093.100;    0.000;    0.000
534.932;12068.100;    0.000;    0.000
535.063;12670.100;    0.000;    0.000
535.194;12740.100;    0.000;    0.000
535.324;12084.100;    0.000;    0.000
535.455;11833.100;    0.000;    0.000
535.586;11839.100;    0.000;    0.000
535.717;11776.100;    0.000;    0.000
535.848;11847.100;    0.000;    0.000
535.979;11893.100;    0.000;    0.000
536.109;11879.100;    0.000;    0.000
536.240;11618.100;    0.000;    0.000
536.371;11605.100;    0.000;    0.000
536.502;11574.100;    0.000;    0.000
536.632;11769.100;    0.000;    0.000
536.763;11862.100;    0.000;    0.000
536.894;12452.100;    0.000;    0.000
537.025;12259.100;    0.000;    0.000
537.155;11736.100;    0.000;    0.000
537.286;11575.100;    0.000;    0.000
537.417;11790.100;    0.000;    0.000
537.547;11637.100;    0.000;    0.000
537.678;11654.100;    0.000;    0.000
537.808;11711.100;    0.000;    0.000
537.939;12496.100;    0.000;    0.000
538.070;13532.100;    0.000;    0.000
538.200;13201.100;    0.000;    0.000
538.331;12382.100;    0.000;    0.000
538.461;11654.100;    0.000;    0.000
538.592;11765.100;    0.000;    0.000
538.722;11691.100;    0.000;    0.000
538.853;12111.100;    0.000;    0.000
538.983;12630.100;    0.000;    0.000
539.114;12308.100;    0.000;    0.000
539.244;11749.100;    0.000;    0.000
539.375;11648.100;    0.000;    0.000
539.505;11946.100;    0.000;    0.000
539.636;12714.100;    0.000;    0.000
539.766;12651.100;    0.000;    0.000
539.896;11719.100;    0.000;    0.000
540.027;11675.100;    0.000;    0.000
540.157;11718.100;    0.000;    0.000
540.287;11600.100;    0.000;    0.000
540.418;11612.100;    0.000;    0.000
540.548;11896.100;    0.000;    0.000
540.678;11776.100;    0.000;    0.000
540.809;12164.100;    0.000;    0.000
540.939;12759.100;    0.000;    0.000
541.069;12411.100;    0.000;    0.000
541.200;11607.100;    0.000;    0.000
541.330;11819.100;    0.000;    0.000
541.460;11789.100;    0.000;    0.000
541.590;11616.100;    0.000;    0.000
541.720;12064.100;    0.000;    0.000
541.851;12994.100;    0.000;    0.000
541.981;12666.100;    0.000;    0.000
542.111;12135.100;    0.000;    0.000
542.241;11635.100;    0.000;    0.000
542.371;11679.100;    0.000;    0.000
542.501;11798.100;    0.000;    0.000
542.631;11674.100;    0.000;    0.000
542.761;12072.100;    0.000;    0.000
542.891;12548.100;    0.000;    0.000
543.021;12344.100;    0.000;    0.000
543.151;11614.100;    0.000;    0.000
543.281;11530.100;    0.000;    0.000
543.411;11683.100;    0.000;    0.000
543.542;11649.100;    0.000;    0.000
543.671;11825.100;    0.000;    0.000
543.801;11810.100;    0.000;    0.000
543.931;11854.100;    0.000;    0.000
544.061;11778.100;    0.000;    0.000
544.191;11673.100;    0.000;    0.000
544.321;11655.100;    0.000;    0.000
544.451;11470.100;    0.000;    0.000
544.581;11906.100;    0.000;    0.000
544.711;12390.100;    0.000;    0.000
544.841;12607.100;    0.000;    0.000
544.970;12554.100;    0.000;    0.000
545.100;12264.100;    0.000;    0.000
545.230;12572.100;    0.000;    0.000
545.360;12624.100;    0.000;    0.000
545.490;12816.100;    0.000;    0.000
545.619;12374.100;    0.000;    0.000
545.749;12319.100;    0.000;    0.000
545.879;12251.100;    0.000;    0.000
546.009;12675.100;    0.000;    0.000
546.138;12447.100;    0.000;    0.000
546.268;12246.100;    0.000;    0.000
546.398;12162.100;    0.000;    0.000
546.527;12566.100;    0.000;    0.000
546.657;12268.100;    0.000;    0.000
546.786;12254.100;    0.000;    0.000
546.916;12550.100;    0.000;    0.000
547.046;12886.100;    0.000;    0.000
547.175;13192.100;    0.000;    0.000
547.305;13669.100;    0.000;    0.000
547.434;13766.100;    0.000;    0.000
547.564;13128.100;    0.000;    0.000
547.693;13904.100;    0.000;    0.000
547.823;14233.100;    0.000;    0.000
547.953;13587.100;    0.000;    0.000
548.082;14538.100;    0.000;    0.000
548.211;14775.100;    0.000;    0.000
548.341;13357.100;    0.000;    0.000
548.470;13027.100;    0.000;    0.000
548.600;13118.100;    0.000;    0.000
548.729;13630.100;    0.000;    0.000
548.859;14432.100;    0.000;    0.000
548.988;15437.100;    0.000;    0.000
549.117;15016.100;    0.000;    0.000
549.247;13664.100;    0.000;    0.000
549.376;13564.100;    0.000;    0.000
549.505;13307.100;    0.000;    0.000
549.635;13245.100;    0.000;    0.000
549.764;13097.100;    0.000;    0.000
549.893;13195.100;    0.000;    0.000
550.023;12919.100;    0.000;    0.000
550.152;13126.100;    0.000;    0.000
550.281;14281.100;    0.000;    0.000
550.410;15177.100;    0.000;    0.000
550.539;13952.100;    0.000;    0.000
550.669;13138.100;    0.000;    0.000
550.798;12866.100;    0.000;    0.000
550.927;12987.100;    0.000;    0.000
551.056;14251.100;    0.000;    0.000
551.185;18631.100;    0.000;    0.000
551.314;23356.100;    0.000;    0.000
551.443;23644.100;    0.000;    0.000
551.573;18642.100;    0.000;    0.000
551.702;13674.100;    0.000;    0.000
551.831;13438.100;    0.000;    0.000
551.960;13163.100;    0.000;    0.000
552.089;13281.100;    0.000;    0.000
552.218;13236.100;    0.000;    0.000
552.347;13518.100;    0.000;    0.000
552.476;13520.100;    0.000;    0.000
552.605;13552.100;    0.000;    0.000
552.734;13689.100;    0.000;    0.000
552.863;13799.100;    0.000;    0.000
552.992;14458.100;    0.000;    0.000
553.121;14499.100;    0.000;    0.000
553.249;14271.100;    0.000;    0.000
553.378;14283.100;    0.000;    0.000
553.507;14118.100;    0.000;    0.000
553.636;13926.100;    0.000;    0.000
553.765;14098.100;    0.000;    0.000
553.894;13828.100;    0.000;    0.000
554.023;13796.100;    0.000;    0.000
554.151;13658.100;    0.000;    0.000
554.280;13602.100;    0.000;    0.000
554.409;13544.100;    0.000;    0.000
554.538;13635.100;    0.000;    0.000
554.666;13431.100;    0.000;    0.000
554.795;13380.100;    0.000;    0.000
554.924;13190.100;    0.000;    0.000
555.052;13167.100;    0.000;    0.000
555.181;12820.100;    0.000;    0.000
555.310;12960.100;    0.000;    0.000
555.439;12941.100;    0.000;    0.000
555.567;12718.100;    0.000;    0.000
555.696;12854.100;    0.000;    0.000
555.824;12703.100;    0.000;    0.000
555.953;12747.100;    0.000;    0.000
556.082;12481.100;    0.000;    0.000
556.210;12712.100;    0.000;    0.000
556.339;12996.100;    0.000;    0.000
556.467;14400.100;    0.000;    0.000
556.596;14712.100;    0.000;    0.000
556.724;13087.100;    0.000;    0.000
556.853;12471.100;    0.000;    0.000
556.981;12601.100;    0.000;    0.000
557.110;12487.100;    0.000;    0.000
557.238;12601.100;    0.000;    0.000
557.367;12732.100;    0.000;    0.000
557.495;12696.100;    0.000;    0.000
557.623;12609.100;    0.000;    0.000
557.752;12688.100;    0.000;    0.000
557.880;12733.100;    0.000;    0.000
558.008;12905.100;    0.000;    0.000
558.137;12779.100;    0.000;    0.000
558.265;12967.100;    0.000;    0.000
558.393;13223.100;    0.000;    0.000
558.522;13107.100;    0.000;    0.000
558.650;12827.100;    0.000;    0.000
558.778;12532.100;    0.000;    0.000
558.906;12578.100;    0.000;    0.000
559.035;12658.100;    0.000;    0.000
559.163;12714.100;    0.000;    0.000
559.291;12700.100;    0.000;    0.000
559.419;12505.100;    0.000;    0.000
559.548;12598.100;    0.000;    0.000
559.676;12870.100;    0.000;    0.000
559.804;13320.100;    0.000;    0.000
559.932;13189.100;    0.000;    0.000
560.060;13175.100;    0.000;    0.000
560.188;12996.100;    0.000;    0.000
560.316;12870.100;    0.000;    0.000
560.444;12921.100;    0.000;    0.000
560.572;12737.100;    0.000;    0.000
560.700;12972.100;    0.000;    0.000
560.828;12805.100;    0.000;    0.000
560.956;12774.100;    0.000;    0.000
561.085;12835.100;    0.000;    0.000
561.212;12775.100;    0.000;    0.000
561.340;12977.100;    0.000;    0.000
561.468;13005.100;    0.000;    0.000
561.596;12850.100;    0.000;    0.000
561.724;13068.100;    0.000;    0.000
561.852;13228.100;    0.000;    0.000
561.980;13239.100;    0.000;    0.000
562.108;13051.100;    0.000;    0.000
562.236;13274.100;    0.000;    0.000
562.364;13429.100;    0.000;    0.000
562.492;13555.100;    0.000;    0.000
562.619;13804.100;    0.000;    0.000
562.747;13970.100;    0.000;    0.000
562.875;14012.100;    0.000;    0.000
563.003;13773.100;    0.000;    0.000
563.130;13854.100;    0.000;    0.000
563.258;13719.100;    0.000;    0.000
563.386;13704.100;    0.000;    0.000
563.514;14159.100;    0.000;    0.000
563.641;14253.100;    0.000;    0.000
563.769;14118.100;    0.000;    0.000
563.897;14010.100;    0.000;    0.000
564.024;14383.100;    0.000;    0.000
564.152;14546.100;    0.000;    0.000
564.280;16859.100;    0.000;    0.000
564.407;19564.100;    0.000;    0.000
564.535;18020.100;    0.000;    0.000
564.662;15152.100;    0.000;    0.000
564.790;15948.100;    0.000;    0.000
564.917;16290.100;    0.000;    0.000
565.045;15779.100;    0.000;    0.000
565.173;15251.100;    0.000;    0.000
565.300;15625.100;    0.000;    0.000
565.428;15971.100;    0.000;    0.000
565.555;16202.100;    0.000;    0.000
565.682;16466.100;    0.000;    0.000
565.810;16772.100;    0.000;    0.000
565.937;16849.100;    0.000;    0.000
566.065;18750.100;    0.000;    0.000
566.192;21296.100;    0.000;    0.000
566.320;22052.100;    0.000;    0.000
566.447;20259.100;    0.000;    0.000
566.574;19887.100;    0.000;    0.000
566.702;20000.100;    0.000;    0.000
566.829;20135.100;    0.000;    0.000
566.956;20353.100;    0.000;    0.000
567.083;20528.100;    0.000;    0.000
567.211;21098.100;    0.000;    0.000
567.338;21787.100;    0.000;    0.000
567.465;23434.100;    0.000;    0.000
567.593;24445.100;    0.000;    0.000
567.720;23063.100;    0.000;    0.000
567.847;22962.100;    0.000;    0.000
567.974;22738.100;    0.000;    0.000
568.101;21734.100;    0.000;    0.000
568.228;20385.100;    0.000;    0.000
568.356;19660.100;    0.000;    0.000
568.483;18798.100;    0.000;    0.000
568.610;18670.100;    0.000;    0.000
568.737;18070.100;    0.000;    0.000
568.864;18373.100;    0.000;    0.000
568.991;18313.100;    0.000;    0.000
569.118;17300.100;    0.000;    0.000
569.245;16392.100;    0.000;    0.000
569.372;16274.100;    0.000;    0.000
569.499;16005.100;    0.000;    0.000
569.626;15961.100;    0.000;    0.000
569.753;16203.100;    0.000;    0.000
569.880;16305.100;    0.000;    0.000
570.007;15628.100;    0.000;    0.000
570.134;16111.100;    0.000;    0.000
570.261;16887.100;    0.000;    0.000
570.388;16582.100;    0.000;    0.000
570.515;15885.100;    0.000;    0.000
570.642;15837.100;    0.000;    0.000
570.768;15986.100;    0.000;    0.000
570.895;15912.100;    0.000;    0.000
571.022;15518.100;    0.000;    0.000
571.149;15839.100;    0.000;    0.000
571.276;15777.100;    0.000;    0.000
571.402;16354.100;    0.000;    0.000
571.529;17087.100;    0.000;    0.000
571.656;15846.100;    0.000;    0.000
571.783;14870.100;    0.000;    0.000
571.909;14651.100;    0.000;    0.000
572.036;14832.100;    0.000;    0.000
572.163;14506.100;    0.000;    0.000
572.289;14248.100;    0.000;    0.000
572.416;14128.100;    0.000;    0.000
572.543;14364.100;    0.000;    0.000
572.669;14953.100;    0.000;    0.000
572.796;14716.100;    0.000;    0.000
572.922;13937.100;    0.000;    0.000
573.049;13875.100;    0.000;    0.000
573.176;13891.100;    0.000;    0.000
573.302;13791.100;    0.000;    0.000
573.429;13703.100;    0.000;    0.000
573.555;13709.100;    0.000;    0.000
573.682;13712.100;    0.000;    0.000
573.808;14466.100;    0.000;    0.000
573.935;15316.100;    0.000;    0.000
574.061;15068.100;    0.000;    0.000
574.188;14029.100;    0.000;    0.000
574.314;13753.100;    0.000;    0.000
574.440;13558.100;    0.000;    0.000
574.567;13381.100;    0.000;    0.000
574.693;13525.100;    0.000;    0.000
574.820;13727.100;    0.000;    0.000
574.946;13505.100;    0.000;    0.000
575.072;13330.100;    0.000;    0.000
575.198;13649.100;    0.000;    0.000
575.325;13511.100;    0.000;    0.000
575.451;13736.100;    0.000;    0.000
575.577;13805.100;    0.000;    0.000
575.704;13832.100;    0.000;    0.000
575.830;13823.100;    0.000;    0.000
575.956;13726.100;    0.000;    0.000
576.082;13967.100;    0.000;    0.000
576.208;14493.100;    0.000;    0.000
576.335;14823.100;    0.000;    0.000
576.461;14338.100;    0.000;    0.000
576.587;14552.100;    0.000;    0.000
576.713;14468.100;    0.000;    0.000
576.839;14065.100;    0.000;    0.000
576.965;13850.100;    0.000;    0.000
577.091;14148.100;    0.000;    0.000
577.217;14367.100;    0.000;    0.000
577.343;14773.100;    0.000;    0.000
577.469;14721.100;    0.000;    0.000
577.596;14056.100;    0.000;    0.000
577.722;13641.100;    0.000;    0.000
577.848;13574.100;    0.000;    0.000
577.974;13703.100;    0.000;    0.000
578.099;13727.100;    0.000;    0.000
578.225;13835.100;    0.000;    0.000
578.351;13937.100;    0.000;    0.000
578.477;14622.100;    0.000;    0.000
578.603;15002.100;    0.000;    0.000
578.729;14374.100;    0.000;    0.000
578.855;13770.100;    0.000;    0.000
578.981;13835.100;    0.000;    0.000
579.107;13740.100;    0.000;    0.000
579.232;13656.100;    0.000;    0.000
579.358;13560.100;    0.000;    0.000
579.484;13418.100;    0.000;    0.000
579.610;13762.100;    0.000;    0.000
579.735;13775.100;    0.000;    0.000
579.861;13809.100;    0.000;    0.000
579.987;13647.100;    0.000;    0.000
580.113;13770.100;    0.000;    0.000
580.238;13776.100;    0.000;    0.000
580.364;14722.100;    0.000;    0.000
580.490;14857.100;    0.000;    0.000
580.615;14554.100;    0.000;    0.000
580.741;14138.100;    0.000;    0.000
580.867;14183.100;    0.000;    0.000
580.992;13976.100;    0.000;    0.000
581.118;13807.100;    0.000;    0.000
581.243;14052.100;    0.000;    0.000
581.369;13920.100;    0.000;    0.000
581.494;13738.100;    0.000;    0.000
581.620;13509.100;    0.000;    0.000
581.745;13488.100;    0.000;    0.000
581.871;13475.100;    0.000;    0.000
581.996;13719.100;    0.000;    0.000
582.122;13538.100;    0.000;    0.000
582.247;13755.100;    0.000;    0.000
582.373;13847.100;    0.000;    0.000
582.498;13526.100;    0.000;    0.000
582.624;13602.100;    0.000;    0.000
582.749;13456.100;    0.000;    0.000
582.874;13708.100;    0.000;    0.000
583.000;13744.100;    0.000;    0.000
583.125;13612.100;    0.000;    0.000
583.250;13862.100;    0.000;    0.000
583.376;13767.100;    0.000;    0.000
583.501;13677.100;    0.000;    0.000
583.626;13675.100;    0.000;    0.000
583.751;13879.100;    0.000;    0.000
583.877;13824.100;    0.000;    0.000
584.002;13982.100;    0.000;    0.000
584.127;14041.100;    0.000;    0.000
584.252;13876.100;    0.000;    0.000
584.377;13772.100;    0.000;    0.000
584.503;13793.100;    0.000;    0.000
584.628;13804.100;    0.000;    0.000
584.753;13859.100;    0.000;    0.000
584.878;13707.100;    0.000;    0.000
585.003;13813.100;    0.000;    0.000
585.128;13849.100;    0.000;    0.000
585.253;13813.100;    0.000;    0.000
585.378;13968.100;    0.000;    0.000
585.503;13702.100;    0.000;    0.000
585.628;13727.100;    0.000;    0.000
585.753;13835.100;    0.000;    0.000
585.878;13585.100;    0.000;    0.000
586.003;13891.100;    0.000;    0.000
586.128;13982.100;    0.000;    0.000
586.253;13952.100;    0.000;    0.000
586.378;14272.100;    0.000;    0.000
586.503;16381.100;    0.000;    0.000
586.628;19588.100;    0.000;    0.000
586.753;18028.100;    0.000;    0.000
586.878;14367.100;    0.000;    0.000
587.003;14065.100;    0.000;    0.000
587.127;13951.100;    0.000;    0.000
587.252;14085.100;    0.000;    0.000
587.377;14281.100;    0.000;    0.000
587.502;14026.100;    0.000;    0.000
587.627;14263.100;    0.000;    0.000
587.751;14644.100;    0.000;    0.000
587.876;14987.100;    0.000;    0.000
588.001;14835.100;    0.000;    0.000
588.125;14748.100;    0.000;    0.000
588.250;14770.100;    0.000;    0.000
588.375;14779.100;    0.000;    0.000
588.499;14698.100;    0.000;    0.000
588.624;15174.100;    0.000;    0.000
588.749;15897.100;    0.000;    0.000
588.873;19028.100;    0.000;    0.000
588.998;21612.100;    0.000;    0.000
589.122;19522.100;    0.000;    0.000
589.247;16430.100;    0.000;    0.000
589.372;16081.100;    0.000;    0.000
589.496;17837.100;    0.000;    0.000
589.621;18867.100;    0.000;    0.000
589.745;17888.100;    0.000;    0.000
589.870;18766.100;    0.000;    0.000
589.994;18531.100;    0.000;    0.000
590.118;16221.100;    0.000;    0.000
590.243;16036.100;    0.000;    0.000
590.367;15815.100;    0.000;    0.000
590.492;16104.100;    0.000;    0.000
590.616;15748.100;    0.000;    0.000
590.740;15673.100;    0.000;    0.000
590.865;15541.100;    0.000;    0.000
590.989;15488.100;    0.000;    0.000
591.114;15737.100;    0.000;    0.000
591.238;15963.100;    0.000;    0.000
591.362;16197.100;    0.000;    0.000
591.486;16215.100;    0.000;    0.000
591.611;16339.100;    0.000;    0.000
591.735;16859.100;    0.000;    0.000
591.859;17474.100;    0.000;    0.000
591.983;17427.100;    0.000;    0.000
592.107;18308.100;    0.000;    0.000
592.232;18950.100;    0.000;    0.000
592.356;18328.100;    0.000;    0.000
592.480;18120.100;    0.000;    0.000
592.604;18038.100;    0.000;    0.000
592.728;18521.100;    0.000;    0.000
592.852;18776.100;    0.000;    0.000
592.976;19227.100;    0.000;    0.000
593.100;19285.100;    0.000;    0.000
593.224;19596.100;    0.000;    0.000
593.349;19525.100;    0.000;    0.000
593.473;19103.100;    0.000;    0.000
593.597;19340.100;    0.000;    0.000
593.721;20073.100;    0.000;    0.000
593.844;20337.100;    0.000;    0.000
593.968;20439.100;    0.000;    0.000
594.092;21464.100;    0.000;    0.000
594.216;21175.100;    0.000;    0.000
594.340;19809.100;    0.000;    0.000
594.464;19187.100;    0.000;    0.000
594.588;18776.100;    0.000;    0.000
594.712;18513.100;    0.000;    0.000
594.836;18498.100;    0.000;    0.000
594.959;18245.100;    0.000;    0.000
595.083;18210.100;    0.000;    0.000
595.207;20913.100;    0.000;    0.000
595.331;22517.100;    0.000;    0.000
595.455;19924.100;    0.000;    0.000
595.578;18109.100;    0.000;    0.000
595.702;17684.100;    0.000;    0.000
595.826;17541.100;    0.000;    0.000
595.949;17157.100;    0.000;    0.000
596.073;17051.100;    0.000;    0.000
596.197;16759.100;    0.000;    0.000
596.320;17185.100;    0.000;    0.000
596.444;18897.100;    0.000;    0.000
596.568;20683.100;    0.000;    0.000
596.691;19810.100;    0.000;    0.000
596.815;17388.100;    0.000;    0.000
596.938;17383.100;    0.000;    0.000
597.062;17375.100;    0.000;    0.000
597.186;17610.100;    0.000;    0.000
597.309;17714.100;    0.000;    0.000
597.433;17685.100;    0.000;    0.000
597.556;17608.100;    0.000;    0.000
597.680;18520.100;    0.000;    0.000
597.803;20890.100;    0.000;    0.000
597.926;20638.100;    0.000;    0.000
598.050;18201.100;    0.000;    0.000
598.173;17583.100;    0.000;    0.000
598.297;17717.100;    0.000;    0.000
598.420;17696.100;    0.000;    0.000
598.543;18036.100;    0.000;    0.000
598.667;18317.100;    0.000;    0.000
598.790;18890.100;    0.000;    0.000
598.913;19163.100;    0.000;    0.000
599.037;19309.100;    0.000;    0.000
599.160;19307.100;    0.000;    0.000
599.283;19401.100;    0.000;    0.000
599.406;19770.100;    0.000;    0.000
599.530;20408.100;    0.000;    0.000
599.653;20477.100;    0.000;    0.000
599.776;20568.100;    0.000;    0.000
599.899;21555.100;    0.000;    0.000
600.022;21756.100;    0.000;    0.000
600.145;21111.100;    0.000;    0.000
600.269;21183.100;    0.000;    0.000
600.392;20543.100;    0.000;    0.000
600.515;20050.100;    0.000;    0.000
600.638;19839.100;    0.000;    0.000
600.761;19596.100;    0.000;    0.000
600.884;19048.100;    0.000;    0.000
601.007;19114.100;    0.000;    0.000
601.130;19248.100;    0.000;    0.000
601.253;19054.100;    0.000;    0.000
601.376;19413.100;    0.000;    0.000
601.499;19135.100;    0.000;    0.000
601.622;19042.100;    0.000;    0.000
601.745;18565.100;    0.000;    0.000
601.868;18600.100;    0.000;    0.000
601.991;18403.100;    0.000;    0.000
602.113;18198.100;    0.000;    0.000
602.236;18362.100;    0.000;    0.000
602.359;18245.100;    0.000;    0.000
602.482;18559.100;    0.000;    0.000
602.605;18626.100;    0.000;    0.000
602.728;18808.100;    0.000;    0.000
602.850;18930.100;    0.000;    0.000
602.973;19485.100;    0.000;    0.000
603.096;20210.100;    0.000;    0.000
603.219;20612.100;    0.000;    0.000
603.341;20961.100;    0.000;    0.000
603.464;20522.100;    0.000;    0.000
603.587;20223.100;    0.000;    0.000
603.709;20028.100;    0.000;    0.000
603.832;19869.100;    0.000;    0.000
603.955;20447.100;    0.000;    0.000
604.077;20286.100;    0.000;    0.000
604.200;19966.100;    0.000;    0.000
604.323;19673.100;    0.000;    0.000
604.445;19377.100;    0.000;    0.000
604.568;18926.100;    0.000;    0.000
604.690;18624.100;    0.000;    0.000
604.813;18310.100;    0.000;    0.000
604.935;18223.100;    0.000;    0.000
605.058;17727.100;    0.000;    0.000
605.180;17480.100;    0.000;    0.000
605.303;17529.100;    0.000;    0.000
605.425;17260.100;    0.000;    0.000
605.547;17212.100;    0.000;    0.000
605.670;16974.100;    0.000;    0.000
605.792;16763.100;    0.000;    0.000
605.915;16827.100;    0.000;    0.000
606.037;16685.100;    0.000;    0.000
606.159;16701.100;    0.000;    0.000
606.282;16570.100;    0.000;    0.000
606.404;17212.100;    0.000;    0.000
606.526;17258.100;    0.000;    0.000
606.648;16901.100;    0.000;    0.000
606.771;17099.100;    0.000;    0.000
606.893;16906.100;    0.000;    0.000
607.015;17043.100;    0.000;    0.000
607.137;16970.100;    0.000;    0.000
607.260;17041.100;    0.000;    0.000
607.382;16820.100;    0.000;    0.000
607.504;16706.100;    0.000;    0.000
607.626;16740.100;    0.000;    0.000
607.748;16790.100;    0.000;    0.000
607.870;16639.100;    0.000;    0.000
607.992;16643.100;    0.000;    0.000
608.114;16530.100;    0.000;    0.000
608.237;16321.100;    0.000;    0.000
608.359;16082.100;    0.000;    0.000
608.481;16818.100;    0.000;    0.000
608.603;16342.100;    0.000;    0.000
608.725;15378.100;    0.000;    0.000
608.847;15343.100;    0.000;    0.000
608.969;16624.100;    0.000;    0.000
609.090;17716.100;    0.000;    0.000
609.212;16746.100;    0.000;    0.000
609.334;15186.100;    0.000;    0.000
609.456;14558.100;    0.000;    0.000
609.578;14437.100;    0.000;    0.000
609.700;14583.100;    0.000;    0.000
609.822;15132.100;    0.000;    0.000
609.944;15258.100;    0.000;    0.000
610.065;14438.100;    0.000;    0.000
610.187;14501.100;    0.000;    0.000
610.309;14336.100;    0.000;    0.000
610.431;14515.100;    0.000;    0.000
610.552;14480.100;    0.000;    0.000
610.674;14566.100;    0.000;    0.000
610.796;14373.100;    0.000;    0.000
610.918;14251.100;    0.000;    0.000
611.039;14272.100;    0.000;    0.000
611.161;14221.100;    0.000;    0.000
611.282;13918.100;    0.000;    0.000
611.404;13805.100;    0.000;    0.000
611.526;13764.100;    0.000;    0.000
611.647;13679.100;    0.000;    0.000
611.769;13979.100;    0.000;    0.000
611.890;13940.100;    0.000;    0.000
612.012;13943.100;    0.000;    0.000
612.133;13951.100;    0.000;    0.000
612.255;13658.100;    0.000;    0.000
612.377;13364.100;    0.000;    0.000
612.498;14227.100;    0.000;    0.000
612.619;14826.100;    0.000;    0.000
612.741;14364.100;    0.000;    0.000
612.862;13640.100;    0.000;    0.000
612.984;13391.100;    0.000;    0.000
613.105;13436.100;    0.000;    0.000
613.226;13308.100;    0.000;    0.000
613.348;13423.100;    0.000;    0.000
613.469;13655.100;    0.000;    0.000
613.590;13498.100;    0.000;    0.000
613.712;13487.100;    0.000;    0.000
613.833;13569.100;    0.000;    0.000
613.954;13712.100;    0.000;    0.000
614.076;13512.100;    0.000;    0.000
614.197;13520.100;    0.000;    0.000
614.318;13420.100;    0.000;    0.000
614.439;13643.100;    0.000;    0.000
614.560;13885.100;    0.000;    0.000
614.682;13921.100;    0.000;    0.000
614.803;13709.100;    0.000;    0.000
614.924;13815.100;    0.000;    0.000
615.045;14070.100;    0.000;    0.000
615.166;13477.100;    0.000;    0.000
615.287;13185.100;    0.000;    0.000
615.408;13273.100;    0.000;    0.000
615.529;13398.100;    0.000;    0.000
615.650;13444.100;    0.000;    0.000
615.771;13709.100;    0.000;    0.000
615.892;13469.100;    0.000;    0.000
616.013;13465.100;    0.000;    0.000
616.134;13562.100;    0.000;    0.000
616.255;13639.100;    0.000;    0.000
616.376;13685.100;    0.000;    0.000
616.497;13587.100;    0.000;    0.000
616.618;13455.100;    0.000;    0.000
616.739;13406.100;    0.000;    0.000
616.860;13436.100;    0.000;    0.000
616.981;13645.100;    0.000;    0.000
617.102;13514.100;    0.000;    0.000
617.222;13732.100;    0.000;    0.000
617.343;13732.100;    0.000;    0.000
617.464;13751.100;    0.000;    0.000
617.585;13547.100;    0.000;    0.000
617.705;13666.100;    0.000;    0.000
617.826;13825.100;    0.000;    0.000
617.947;13499.100;    0.000;    0.000
618.068;13646.100;    0.000;    0.000
618.188;13514.100;    0.000;    0.000
618.309;13676.100;    0.000;    0.000
618.430;13433.100;    0.000;    0.000
618.550;13730.100;    0.000;    0.000
618.671;13552.100;    0.000;    0.000
618.791;13526.100;    0.000;    0.000
618.912;13223.100;    0.000;    0.000
619.033;13421.100;    0.000;    0.000
619.153;13352.100;    0.000;    0.000
619.274;13241.100;    0.000;    0.000
619.394;13202.100;    0.000;    0.000
619.515;12990.100;    0.000;    0.000
619.635;12951.100;    0.000;    0.000
619.756;12933.100;    0.000;    0.000
619.876;13001.100;    0.000;    0.000
619.996;13244.100;    0.000;    0.000
620.117;12836.100;    0.000;    0.000
620.237;12754.100;    0.000;    0.000
620.358;12719.100;    0.000;    0.000
620.478;12675.100;    0.000;    0.000
620.598;12725.100;    0.000;    0.000
620.719;12553.100;    0.000;    0.000
620.839;12590.100;    0.000;    0.000
620.959;12634.100;    0.000;    0.000
621.079;12630.100;    0.000;    0.000
621.200;12921.100;    0.000;    0.000
621.320;13173.100;    0.000;    0.000
621.440;14354.100;    0.000;    0.000
621.560;15004.100;    0.000;    0.000
621.681;14536.100;    0.000;    0.000
621.801;13519.100;    0.000;    0.000
621.921;13695.100;    0.000;    0.000
622.041;14842.100;    0.000;    0.000
622.161;15039.100;    0.000;    0.000
622.281;14191.100;    0.000;    0.000
622.401;13682.100;    0.000;    0.000
622.521;13478.100;    0.000;    0.000
622.641;13402.100;    0.000;    0.000
622.761;13388.100;    0.000;    0.000
622.882;13258.100;    0.000;    0.000
623.002;13338.100;    0.000;    0.000
623.121;13346.100;    0.000;    0.000
623.241;13358.100;    0.000;    0.000
623.361;13275.100;    0.000;    0.000
623.481;13364.100;    0.000;    0.000
623.601;13582.100;    0.000;    0.000
623.721;13394.100;    0.000;    0.000
623.841;13358.100;    0.000;    0.000
623.961;13706.100;    0.000;    0.000
624.081;13449.100;    0.000;    0.000
624.201;13888.100;    0.000;    0.000
624.320;14180.100;    0.000;    0.000
624.440;14004.100;    0.000;    0.000
624.560;13726.100;    0.000;    0.000
624.680;13607.100;    0.000;    0.000
624.799;13549.100;    0.000;    0.000
624.919;13329.100;    0.000;    0.000
625.039;13437.100;    0.000;    0.000
625.159;13304.100;    0.000;    0.000
625.278;13244.100;    0.000;    0.000
625.398;13055.100;    0.000;    0.000
625.518;13505.100;    0.000;    0.000
625.637;15581.100;    0.000;    0.000
625.757;25171.100;    0.000;    0.000
625.876;29021.100;    0.000;    0.000
625.996;24180.100;    0.000;    0.000
626.115;20091.100;    0.000;    0.000
626.235;16997.100;    0.000;    0.000
626.354;13512.100;    0.000;    0.000
626.474;13095.100;    0.000;    0.000
626.594;12869.100;    0.000;    0.000
626.713;12686.100;    0.000;    0.000
626.832;12683.100;    0.000;    0.000
626.952;12539.100;    0.000;    0.000
627.071;12396.100;    0.000;    0.000
627.191;12215.100;    0.000;    0.000
627.310;12242.100;    0.000;    0.000
627.429;12396.100;    0.000;    0.000
627.549;12238.100;    0.000;    0.000
627.668;12403.100;    0.000;    0.000
627.787;12328.100;    0.000;    0.000
627.907;12380.100;    0.000;    0.000
628.026;12311.100;    0.000;    0.000
628.145;12212.100;    0.000;    0.000
628.264;12324.100;    0.000;    0.000
628.384;12325.100;    0.000;    0.000
628.503;12297.100;    0.000;    0.000
628.622;12248.100;    0.000;    0.000
628.741;12113.100;    0.000;    0.000
628.860;11917.100;    0.000;    0.000
628.980;12037.100;    0.000;    0.000
629.099;12009.100;    0.000;    0.000
629.218;12209.100;    0.000;    0.000
629.337;12043.100;    0.000;    0.000
629.456;12205.100;    0.000;    0.000
629.575;12155.100;    0.000;    0.000
629.694;12087.100;    0.000;    0.000
629.813;11969.100;    0.000;    0.000
629.932;11900.100;    0.000;    0.000
630.051;11965.100;    0.000;    0.000
630.170;12052.100;    0.000;    0.000
630.289;12080.100;    0.000;    0.000
630.408;12381.100;    0.000;    0.000
630.527;12219.100;    0.000;    0.000
630.646;12097.100;    0.000;    0.000
630.764;12277.100;    0.000;    0.000
630.883;11937.100;    0.000;    0.000
631.002;12123.100;    0.000;    0.000
631.121;12580.100;    0.000;    0.000
631.240;12857.100;    0.000;    0.000
631.359;12417.100;    0.000;    0.000
631.477;12237.100;    0.000;    0.000
631.596;12020.100;    0.000;    0.000
631.715;12333.100;    0.000;    0.000
631.834;12225.100;    0.000;    0.000
631.952;12015.100;    0.000;    0.000
632.071;11789.100;    0.000;    0.000
632.190;11783.100;    0.000;    0.000
632.308;11841.100;    0.000;    0.000
632.427;11541.100;    0.000;    0.000
632.546;11602.100;    0.000;    0.000
632.664;11579.100;    0.000;    0.000
632.783;11528.100;    0.000;    0.000
632.901;11341.100;    0.000;    0.000
633.020;11289.100;    0.000;    0.000
633.138;11318.100;    0.000;    0.000
633.257;11156.100;    0.000;    0.000
633.375;11337.100;    0.000;    0.000
633.494;11327.100;    0.000;    0.000
633.612;11483.100;    0.000;    0.000
633.731;11272.100;    0.000;    0.000
633.849;11037.100;    0.000;    0.000
633.968;11023.100;    0.000;    0.000
634.086;11052.100;    0.000;    0.000
634.204;11012.100;    0.000;    0.000
634.323;10925.100;    0.000;    0.000
634.441;11049.100;    0.000;    0.000
634.559;10954.100;    0.000;    0.000
634.678;10969.100;    0.000;    0.000
634.796;10947.100;    0.000;    0.000
634.914;10895.100;    0.000;    0.000
635.032;10797.100;    0.000;    0.000
635.151;10812.100;    0.000;    0.000
635.269;10751.100;    0.000;    0.000
635.387;10752.100;    0.000;    0.000
635.505;10654.100;    0.000;    0.000
635.623;10903.100;    0.000;    0.000
635.742;10799.100;    0.000;    0.000
635.860;10944.100;    0.000;    0.000
635.978;10789.100;    0.000;    0.000
636.096;10896.100;    0.000;    0.000
636.214;10746.100;    0.000;    0.000
636.332;10652.100;    0.000;    0.000
636.450;10707.100;    0.000;    0.000
636.568;10773.100;    0.000;    0.000
636.686;10861.100;    0.000;    0.000
636.804;10692.100;    0.000;    0.000
636.922;10615.100;    0.000;    0.000
637.040;10656.100;    0.000;    0.000
637.158;10503.100;    0.000;    0.000
637.276;10429.100;    0.000;    0.000
637.394;10363.100;    0.000;    0.000
637.512;10164.100;    0.000;    0.000
637.629;10301.100;    0.000;    0.000
637.747;10258.100;    0.000;    0.000
637.865;10437.100;    0.000;    0.000
637.983;10428.100;    0.000;    0.000
638.101;10479.100;    0.000;    0.000
638.218;10445.100;    0.000;    0.000
638.336;10274.100;    0.000;    0.000
638.454;10243.100;    0.000;    0.000
638.572;10151.100;    0.000;    0.000
638.689;10242.100;    0.000;    0.000
638.807;10215.100;    0.000;    0.000
638.925;10108.100;    0.000;    0.000
639.042;10266.100;    0.000;    0.000
639.160;10150.100;    0.000;    0.000
639.278;10024.100;    0.000;    0.000
639.395;10058.100;    0.000;    0.000
639.513;10239.100;    0.000;    0.000
639.630;10148.100;    0.000;    0.000
639.748;10110.100;    0.000;    0.000
639.865;10179.100;    0.000;    0.000
639.983;10142.100;    0.000;    0.000
640.100; 9978.100;    0.000;    0.000
640.218; 9813.100;    0.000;    0.000
640.335; 9948.100;    0.000;    0.000
640.453; 9936.100;    0.000;    0.000
640.570; 9780.100;    0.000;    0.000
640.688; 9992.100;    0.000;    0.000
640.805; 9825.100;    0.000;    0.000
640.922; 9931.100;    0.000;    0.000
641.040; 9885.100;    0.000;    0.000
641.157; 9751.100;    0.000;    0.000
641.274;10005.100;    0.000;    0.000
641.391; 9881.100;    0.000;    0.000
641.509; 9886.100;    0.000;    0.000
641.626; 9781.100;    0.000;    0.000
641.743; 9740.100;    0.000;    0.000
641.860; 9985.100;    0.000;    0.000
641.978; 9789.100;    0.000;    0.000
642.095; 9860.100;    0.000;    0.000
642.212; 9625.100;    0.000;    0.000
642.329; 9793.100;    0.000;    0.000
642.446; 9833.100;    0.000;    0.000
642.563; 9775.100;    0.000;    0.000
642.681; 9733.100;    0.000;    0.000
642.798; 9891.100;    0.000;    0.000
642.915; 9863.100;    0.000;    0.000
643.032; 9827.100;    0.000;    0.000
643.149; 9856.100;    0.000;    0.000
643.266; 9829.100;    0.000;    0.000
643.383; 9864.100;    0.000;    0.000
643.500; 9690.100;    0.000;    0.000
643.617; 9920.100;    0.000;    0.000
643.734; 9871.100;    0.000;    0.000
643.850; 9931.100;    0.000;    0.000
643.967; 9885.100;    0.000;    0.000
644.084; 9956.100;    0.000;    0.000
644.201;10057.100;    0.000;    0.000
644.318; 9812.100;    0.000;    0.000
644.435; 9950.100;    0.000;    0.000
644.552;10045.100;    0.000;    0.000
644.668;10201.100;    0.000;    0.000
644.785;10161.100;    0.000;    0.000
644.902;10177.100;    0.000;    0.000
645.019; 9944.100;    0.000;    0.000
645.135;10035.100;    0.000;    0.000
645.252;10069.100;    0.000;    0.000
645.369;10015.100;    0.000;    0.000
645.485; 9905.100;    0.000;    0.000
645.602; 9815.100;    0.000;    0.000
645.719; 9950.100;    0.000;    0.000
645.835; 9903.100;    0.000;    0.000
645.952; 9946.100;    0.000;    0.000
646.068; 9899.100;    0.000;    0.000
646.185;10072.100;    0.000;    0.000
646.302;10042.100;    0.000;    0.000
646.418;10040.100;    0.000;    0.000
646.535;10104.100;    0.000;    0.000
646.651;10154.100;    0.000;    0.000
646.768;10103.100;    0.000;    0.000
646.884;10232.100;    0.000;    0.000
647.000;10107.100;    0.000;    0.000
647.117;10069.100;    0.000;    0.000
647.233;10164.100;    0.000;    0.000
647.350;10338.100;    0.000;    0.000
647.466;10281.100;    0.000;    0.000
647.582;10292.100;    0.000;    0.000
647.699;10383.100;    0.000;    0.000
647.815;10565.100;    0.000;    0.000
647.931;10714.100;    0.000;    0.000
648.047;10563.100;    0.000;    0.000
648.164;10607.100;    0.000;    0.000
648.280;10516.100;    0.000;    0.000
648.396;10799.100;    0.000;    0.000
648.512;10780.100;    0.000;    0.000
648.629;10604.100;    0.000;    0.000
648.745;10810.100;    0.000;    0.000
648.861;10785.100;    0.000;    0.000
648.977;10830.100;    0.000;    0.000
649.093;11245.100;    0.000;    0.000
649.209;11241.100;    0.000;    0.000
649.325;10866.100;    0.000;    0.000
649.441;10673.100;    0.000;    0.000
649.557;10440.100;    0.000;    0.000
649.673;10643.100;    0.000;    0.000
649.789;10553.100;    0.000;    0.000
649.905;10396.100;    0.000;    0.000
650.021;10397.100;    0.000;    0.000
650.137;10365.100;    0.000;    0.000
650.253;10384.100;    0.000;    0.000
650.369;10573.100;    0.000;    0.000
650.485;10399.100;    0.000;    0.000
650.601;10525.100;    0.000;    0.000
650.717;10423.100;    0.000;    0.000
650.833;10579.100;    0.000;    0.000
650.948;10633.100;    0.000;    0.000
651.064;10742.100;    0.000;    0.000
651.180;10933.100;    0.000;    0.000
651.296;11048.100;    0.000;    0.000
651.411;11096.100;    0.000;    0.000
651.527;11039.100;    0.000;    0.000
651.643;10886.100;    0.000;    0.000
651.759;10873.100;    0.000;    0.000
651.874;10941.100;    0.000;    0.000
651.990;11085.100;    0.000;    0.000
652.105;10908.100;    0.000;    0.000
652.221;11024.100;    0.000;    0.000
652.337;11065.100;    0.000;    0.000
652.452;11229.100;    0.000;    0.000
652.568;11199.100;    0.000;    0.000
652.683;11325.100;    0.000;    0.000
652.799;11301.100;    0.000;    0.000
652.914;11265.100;    0.000;    0.000
653.030;11579.100;    0.000;    0.000
653.145;11748.100;    0.000;    0.000
653.261;11695.100;    0.000;    0.000
653.376;11833.100;    0.000;    0.000
653.492;11945.100;    0.000;    0.000
653.607;11964.100;    0.000;    0.000
653.722;12231.100;    0.000;    0.000
653.838;12264.100;    0.000;    0.000
653.953;12439.100;    0.000;    0.000
654.068;12595.100;    0.000;    0.000
654.184;12895.100;    0.000;    0.000
654.299;13312.100;    0.000;    0.000
654.414;13531.100;    0.000;    0.000
654.530;14150.100;    0.000;    0.000
654.645;14844.100;    0.000;    0.000
654.760;14832.100;    0.000;    0.000
654.875;14753.100;    0.000;    0.000
654.990;15064.100;    0.000;    0.000
655.106;15522.100;    0.000;    0.000
655.221;15981.100;    0.000;    0.000
655.336;17137.100;    0.000;    0.000
655.451;18831.100;    0.000;    0.000
655.566;19779.100;    0.000;    0.000
655.681;19792.100;    0.000;    0.000
655.796;19919.100;    0.000;    0.000
655.911;20723.100;    0.000;    0.000
656.026;21908.100;    0.000;    0.000
656.141;23062.100;    0.000;    0.000
656.256;23927.100;    0.000;    0.000
656.371;24120.100;    0.000;    0.000
656.486;23910.100;    0.000;    0.000
656.601;23509.100;    0.000;    0.000
656.716;22594.100;    0.000;    0.000
656.831;21714.100;    0.000;    0.000
656.946;20705.100;    0.000;    0.000
657.060;20088.100;    0.000;    0.000
657.175;19145.100;    0.000;    0.000
657.290;18646.100;    0.000;    0.000
657.405;18298.100;    0.000;    0.000
657.520;17437.100;    0.000;    0.000
657.634;17163.100;    0.000;    0.000
657.749;16457.100;    0.000;    0.000
657.864;16236.100;    0.000;    0.000
657.979;15856.100;    0.000;    0.000
658.093;15307.100;    0.000;    0.000
658.208;15072.100;    0.000;    0.000
658.323;14797.100;    0.000;    0.000
658.437;14529.100;    0.000;    0.000
658.552;14225.100;    0.000;    0.000
658.666;14084.100;    0.000;    0.000
658.781;13921.100;    0.000;    0.000
658.895;13569.100;    0.000;    0.000
659.010;13465.100;    0.000;    0.000
659.125;13327.100;    0.000;    0.000
659.239;13167.100;    0.000;    0.000
659.353;13057.100;    0.000;    0.000
659.468;12969.100;    0.000;    0.000
659.582;12851.100;    0.000;    0.000
659.697;12862.100;    0.000;    0.000
659.811;12962.100;    0.000;    0.000
659.926;12935.100;    0.000;    0.000
660.040;12873.100;    0.000;    0.000
660.154;12712.100;    0.000;    0.000
660.269;12622.100;    0.000;    0.000
660.383;12496.100;    0.000;    0.000
660.497;12894.100;    0.000;    0.000
660.612;13019.100;    0.000;    0.000
660.726;12689.100;    0.000;    0.000
660.840;12492.100;    0.000;    0.000
660.954;12207.100;    0.000;    0.000
661.068;12100.100;    0.000;    0.000
661.183;11940.100;    0.000;    0.000
661.297;11753.100;    0.000;    0.000
661.411;11765.100;    0.000;    0.000
661.525;11664.100;    0.000;    0.000
661.639;11415.100;    0.000;    0.000
661.753;11299.100;    0.000;    0.000
661.867;11497.100;    0.000;    0.000
661.981;11355.100;    0.000;    0.000
662.095;11221.100;    0.000;    0.000
662.209;11070.100;    0.000;    0.000
662.323;11182.100;    0.000;    0.000
662.437;10945.100;    0.000;    0.000
662.551;10970.100;    0.000;    0.000
662.665;10623.100;    0.000;    0.000
662.779;10692.100;    0.000;    0.000
662.893;10528.100;    0.000;    0.000
663.007;10427.100;    0.000;    0.000
663.121;10312.100;    0.000;    0.000
663.235;10276.100;    0.000;    0.000
663.349;10179.100;    0.000;    0.000
663.462;10277.100;    0.000;    0.000
663.576;10172.100;    0.000;    0.000
663.690;10065.100;    0.000;    0.000
663.804;10047.100;    0.000;    0.000
663.917;10020.100;    0.000;    0.000
664.031; 9821.100;    0.000;    0.000
664.145;10055.100;    0.000;    0.000
664.258; 9831.100;    0.000;    0.000
664.372; 9764.100;    0.000;    0.000
664.486; 9821.100;    0.000;    0.000
664.599; 9563.100;    0.000;    0.000
664.713; 9702.100;    0.000;    0.000
664.827; 9656.100;    0.000;    0.000
664.940; 9681.100;    0.000;    0.000
665.054; 9705.100;    0.000;    0.000
665.167; 9828.100;    0.000;    0.000
665.281; 9748.100;    0.000;    0.000
665.394; 9791.100;    0.000;    0.000
665.508; 9669.100;    0.000;    0.000
665.621; 9513.100;    0.000;    0.000
665.735; 9629.100;    0.000;    0.000
665.848; 9461.100;    0.000;    0.000
665.961; 9444.100;    0.000;    0.000
666.075; 9677.100;    0.000;    0.000
666.188; 9487.100;    0.000;    0.000
666.301; 9687.100;    0.000;    0.000
666.415; 9633.100;    0.000;    0.000
666.528; 9981.100;    0.000;    0.000
666.641;10225.100;    0.000;    0.000
666.755;10526.100;    0.000;    0.000
666.868;10504.100;    0.000;    0.000
666.981; 9895.100;    0.000;    0.000
667.094; 9569.100;    0.000;    0.000
667.207; 9407.100;    0.000;    0.000
667.321; 9108.100;    0.000;    0.000
667.434; 9119.100;    0.000;    0.000
667.547; 9306.100;    0.000;    0.000
667.660; 9265.100;    0.000;    0.000
667.773; 9428.100;    0.000;    0.000
667.886; 9487.100;    0.000;    0.000
667.999; 9436.100;    0.000;    0.000
668.112; 9400.100;    0.000;    0.000
668.225; 9167.100;    0.000;    0.000
668.338; 8957.100;    0.000;    0.000
668.451; 8832.100;    0.000;    0.000
668.564; 9017.100;    0.000;    0.000
668.677; 8799.100;    0.000;    0.000
668.790; 8790.100;    0.000;    0.000
668.903; 8817.100;    0.000;    0.000
669.016; 8735.100;    0.000;    0.000
669.129; 8899.100;    0.000;    0.000
669.242; 8690.100;    0.000;    0.000
669.354; 8660.100;    0.000;    0.000
669.467; 8551.100;    0.000;    0.000
669.580; 8706.100;    0.000;    0.000
669.693; 8682.100;    0.000;    0.000
669.806; 8574.100;    0.000;    0.000
669.918; 8599.100;    0.000;    0.000
670.031; 8524.100;    0.000;    0.000
670.144; 8384.100;    0.000;    0.000
670.256; 8426.100;    0.000;    0.000
670.369; 8548.100;    0.000;    0.000
670.482; 8480.100;    0.000;    0.000
670.594; 8409.100;    0.000;    0.000
670.707; 8425.100;    0.000;    0.000
670.820; 8332.100;    0.000;    0.000
670.932; 8525.100;    0.000;    0.000
671.045; 8267.100;    0.000;    0.000
671.157; 8263.100;    0.000;    0.000
671.270; 8435.100;    0.000;    0.000
671.382; 8433.100;    0.000;    0.000
671.495; 8645.100;    0.000;    0.000
671.607; 8904.100;    0.000;    0.000
671.720; 9054.100;    0.000;    0.000
671.832; 9058.100;    0.000;    0.000
671.944; 8885.100;    0.000;    0.000
672.057; 8457.100;    0.000;    0.000
672.169; 8475.100;    0.000;    0.000
672.281; 8564.100;    0.000;    0.000
672.394; 8484.100;    0.000;    0.000
672.506; 8555.100;    0.000;    0.000
672.618; 8371.100;    0.000;    0.000
672.731; 8328.100;    0.000;    0.000
672.843; 8369.100;    0.000;    0.000
672.955; 8285.100;    0.000;    0.000
673.067; 8258.100;    0.000;    0.000
673.180; 8284.100;    0.000;    0.000
673.292; 8233.100;    0.000;    0.000
673.404; 8213.100;    0.000;    0.000
673.516; 8091.100;    0.000;    0.000
673.628; 8174.100;    0.000;    0.000
673.740; 8135.100;    0.000;    0.000
673.852; 8339.100;    0.000;    0.000
673.964; 8143.100;    0.000;    0.000
674.076; 8234.100;    0.000;    0.000
674.188; 8590.100;    0.000;    0.000
674.300; 9110.100;    0.000;    0.000
674.412; 9036.100;    0.000;    0.000
674.524; 8566.100;    0.000;    0.000
674.636; 8452.100;    0.000;    0.000
674.748; 8332.100;    0.000;    0.000
674.860; 8356.100;    0.000;    0.000
674.972; 8237.100;    0.000;    0.000
675.084; 8134.100;    0.000;    0.000
675.196; 8089.100;    0.000;    0.000
675.307; 8131.100;    0.000;    0.000
675.419; 8023.100;    0.000;    0.000
675.531; 8175.100;    0.000;    0.000
675.643; 8104.100;    0.000;    0.000
675.755; 7977.100;    0.000;    0.000
675.866; 8026.100;    0.000;    0.000
675.978; 7914.100;    0.000;    0.000
676.090; 7838.100;    0.000;    0.000
676.201; 8079.100;    0.000;    0.000
676.313; 7973.100;    0.000;    0.000
676.425; 8124.100;    0.000;    0.000
676.536; 8088.100;    0.000;    0.000
676.648; 8068.100;    0.000;    0.000
676.759; 7944.100;    0.000;    0.000
676.871; 8027.100;    0.000;    0.000
676.983; 7881.100;    0.000;    0.000
677.094; 7859.100;    0.000;    0.000
677.206; 7741.100;    0.000;    0.000
677.317; 7643.100;    0.000;    0.000
677.429; 7820.100;    0.000;    0.000
677.540; 7875.100;    0.000;    0.000
677.651; 7880.100;    0.000;    0.000
677.763; 7931.100;    0.000;    0.000
677.874; 7712.100;    0.000;    0.000
677.986; 7707.100;    0.000;    0.000
678.097; 7790.100;    0.000;    0.000
678.208; 7919.100;    0.000;    0.000
678.320; 7924.100;    0.000;    0.000
678.431; 8043.100;    0.000;    0.000
678.542; 7902.100;    0.000;    0.000
678.653; 7884.100;    0.000;    0.000
678.765; 7946.100;    0.000;    0.000
678.876; 7635.100;    0.000;    0.000
678.987; 7766.100;    0.000;    0.000
679.098; 7752.100;    0.000;    0.000
679.209; 7733.100;    0.000;    0.000
679.320; 7882.100;    0.000;    0.000
679.432; 7772.100;    0.000;    0.000
679.543; 7826.100;    0.000;    0.000
679.654; 7723.100;    0.000;    0.000
679.765; 7763.100;    0.000;    0.000
679.876; 7730.100;    0.000;    0.000
679.987; 7739.100;    0.000;    0.000
680.098; 7562.100;    0.000;    0.000
680.209; 7570.100;    0.000;    0.000
680.320; 7622.100;    0.000;    0.000
680.431; 7730.100;    0.000;    0.000
680.542; 7636.100;    0.000;    0.000
680.653; 7826.100;    0.000;    0.000
680.763; 7558.100;    0.000;    0.000
680.874; 7632.100;    0.000;    0.000
680.985; 7640.100;    0.000;    0.000
681.096; 7693.100;    0.000;    0.000
681.207; 7652.100;    0.000;    0.000
681.318; 7640.100;    0.000;    0.000
681.428; 7543.100;    0.000;    0.000
681.539; 7575.100;    0.000;    0.000
681.650; 7691.100;    0.000;    0.000
681.760; 7733.100;    0.000;    0.000
681.871; 7829.100;    0.000;    0.000
681.982; 7714.100;    0.000;    0.000
682.093; 7548.100;    0.000;    0.000
682.203; 7566.100;    0.000;    0.000
682.314; 7653.100;    0.000;    0.000
682.424; 7721.100;    0.000;    0.000
682.535; 7580.100;    0.000;    0.000
682.646; 7893.100;    0.000;    0.000
682.756; 7888.100;    0.000;    0.000
682.867; 7741.100;    0.000;    0.000
682.977; 7771.100;    0.000;    0.000
683.088; 7673.100;    0.000;    0.000
683.198; 7553.100;    0.000;    0.000
683.308; 7577.100;    0.000;    0.000
683.419; 7743.100;    0.000;    0.000
683.529; 7582.100;    0.000;    0.000
683.640; 7553.100;    0.000;    0.000
683.750; 7513.100;    0.000;    0.000
683.860; 7695.100;    0.000;    0.000
683.971; 7678.100;    0.000;    0.000
684.081; 7642.100;    0.000;    0.000
684.191; 7523.100;    0.000;    0.000
684.301; 7583.100;    0.000;    0.000
684.412; 7660.100;    0.000;    0.000
684.522; 7700.100;    0.000;    0.000
684.632; 7666.100;    0.000;    0.000
684.742; 7542.100;    0.000;    0.000
684.852; 7688.100;    0.000;    0.000
684.963; 7859.100;    0.000;    0.000
685.073; 7729.100;    0.000;    0.000
685.183; 7644.100;    0.000;    0.000
685.293; 7680.100;    0.000;    0.000
685.403; 7711.100;    0.000;    0.000
685.513; 7796.100;    0.000;    0.000
685.623; 7593.100;    0.000;    0.000
685.733; 7711.100;    0.000;    0.000
685.843; 7607.100;    0.000;    0.000
685.953; 7834.100;    0.000;    0.000
686.063; 8201.100;    0.000;    0.000
686.173; 8235.100;    0.000;    0.000
686.283; 8012.100;    0.000;    0.000
686.393; 7682.100;    0.000;    0.000
686.503; 7634.100;    0.000;    0.000
686.612; 7817.100;    0.000;    0.000
686.722; 7648.100;    0.000;    0.000
686.832; 7499.100;    0.000;    0.000
686.942; 7658.100;    0.000;    0.000
687.052; 7732.100;    0.000;    0.000
687.161; 7627.100;    0.000;    0.000
687.271; 7729.100;    0.000;    0.000
687.381; 7760.100;    0.000;    0.000
687.491; 7770.100;    0.000;    0.000
687.600; 7665.100;    0.000;    0.000
687.710; 7526.100;    0.000;    0.000
687.820; 7519.100;    0.000;    0.000
687.929; 7537.100;    0.000;    0.000
688.039; 7524.100;    0.000;    0.000
688.148; 7657.100;    0.000;    0.000
688.258; 7518.100;    0.000;    0.000
688.367; 7550.100;    0.000;    0.000
688.477; 7699.100;    0.000;    0.000
688.586; 7649.100;    0.000;    0.000
688.696; 7631.100;    0.000;    0.000
688.805; 7486.100;    0.000;    0.000
688.915; 7520.100;    0.000;    0.000
689.024; 7472.100;    0.000;    0.000
689.134; 7443.100;    0.000;    0.000
689.243; 7304.100;    0.000;    0.000
689.352; 7442.100;    0.000;    0.000
689.462; 7369.100;    0.000;    0.000
689.571; 7477.100;    0.000;    0.000
689.680; 7306.100;    0.000;    0.000
689.790; 7405.100;    0.000;    0.000
689.899; 7408.100;    0.000;    0.000
690.008; 7461.100;    0.000;    0.000
690.117; 7319.100;    0.000;    0.000
690.227; 7516.100;    0.000;    0.000
690.336; 7313.100;    0.000;    0.000
690.445; 7471.100;    0.000;    0.000
690.554; 7455.100;    0.000;    0.000
690.663; 7414.100;    0.000;    0.000
690.772; 7515.100;    0.000;    0.000
690.881; 7391.100;    0.000;    0.000
690.990; 7534.100;    0.000;    0.000
691.099; 7576.100;    0.000;    0.000
691.209; 7620.100;    0.000;    0.000
691.318; 7700.100;    0.000;    0.000
691.427; 7614.100;    0.000;    0.000
691.536; 7492.100;    0.000;    0.000
691.644; 7605.100;    0.000;    0.000
691.753; 7515.100;    0.000;    0.000
691.862; 7631.100;    0.000;    0.000
691.971; 7776.100;    0.000;    0.000
692.080; 7797.100;    0.000;    0.000
692.189; 7845.100;    0.000;    0.000
692.298; 7792.100;    0.000;    0.000
692.406; 7790.100;    0.000;    0.000
692.515; 7823.100;    0.000;    0.000
692.624; 7753.100;    0.000;    0.000
692.733; 7817.100;    0.000;    0.000
692.842; 7837.100;    0.000;    0.000
692.950; 7806.100;    0.000;    0.000
693.059; 7770.100;    0.000;    0.000
693.168; 7929.100;    0.000;    0.000
693.276; 7829.100;    0.000;    0.000
693.385; 7761.100;    0.000;    0.000
693.494; 7950.100;    0.000;    0.000
693.602; 7714.100;    0.000;    0.000
693.711; 7827.100;    0.000;    0.000
693.819; 7815.100;    0.000;    0.000
693.928; 7789.100;    0.000;    0.000
694.036; 7740.100;    0.000;    0.000
694.145; 7660.100;    0.000;    0.000
694.253; 7658.100;    0.000;    0.000
694.362; 7792.100;    0.000;    0.000
694.470; 7875.100;    0.000;    0.000
694.579; 7795.100;    0.000;    0.000
694.687; 7777.100;    0.000;    0.000
694.795; 7814.100;    0.000;    0.000
694.904; 7683.100;    0.000;    0.000
695.012; 7688.100;    0.000;    0.000
695.120; 7694.100;    0.000;    0.000
695.229; 7795.100;    0.000;    0.000
695.337; 7774.100;    0.000;    0.000
695.445; 7750.100;    0.000;    0.000
695.553; 7789.100;    0.000;    0.000
695.662; 7830.100;    0.000;    0.000
695.770; 7814.100;    0.000;    0.000
695.878; 7894.100;    0.000;    0.000
695.986; 8014.100;    0.000;    0.000
696.094; 8083.100;    0.000;    0.000
696.202; 8048.100;    0.000;    0.000
696.310; 8154.100;    0.000;    0.000
696.419; 8126.100;    0.000;    0.000
696.527; 7922.100;    0.000;    0.000
696.635; 8022.100;    0.000;    0.000
696.743; 7945.100;    0.000;    0.000
696.851; 7802.100;    0.000;    0.000
696.959; 7664.100;    0.000;    0.000
697.067; 7768.100;    0.000;    0.000
697.174; 7816.100;    0.000;    0.000
697.282; 7717.100;    0.000;    0.000
697.390; 7728.100;    0.000;    0.000
697.498; 7693.100;    0.000;    0.000
697.606; 7737.100;    0.000;    0.000
697.714; 7779.100;    0.000;    0.000
697.822; 7945.100;    0.000;    0.000
697.929; 7675.100;    0.000;    0.000
698.037; 7785.100;    0.000;    0.000
698.145; 7829.100;    0.000;    0.000
698.253; 7754.100;    0.000;    0.000
698.360; 7845.100;    0.000;    0.000
698.468; 7796.100;    0.000;    0.000
698.576; 7863.100;    0.000;    0.000
698.683; 7833.100;    0.000;    0.000
698.791; 7776.100;    0.000;    0.000
698.899; 7783.100;    0.000;    0.000
699.006; 7717.100;    0.000;    0.000
699.114; 7750.100;    0.000;    0.000
699.221; 7757.100;    0.000;    0.000
699.329; 7895.100;    0.000;    0.000
699.436; 8108.100;    0.000;    0.000
699.544; 8103.100;    0.000;    0.000
699.651; 8500.100;    0.000;    0.000
699.759; 8721.100;    0.000;    0.000
699.866; 9180.100;    0.000;    0.000
699.974; 8913.100;    0.000;    0.000
700.081; 8630.100;    0.000;    0.000
700.188; 8341.100;    0.000;    0.000
700.296; 8435.100;    0.000;    0.000
700.403; 8555.100;    0.000;    0.000
700.510; 8601.100;    0.000;    0.000
700.618; 8452.100;    0.000;    0.000
700.725; 8085.100;    0.000;    0.000
700.832; 7920.100;    0.000;    0.000
700.940; 8096.100;    0.000;    0.000
701.047; 7937.100;    0.000;    0.000
701.154; 7965.100;    0.000;    0.000
701.261; 7993.100;    0.000;    0.000
701.368; 7925.100;    0.000;    0.000
701.475; 7903.100;    0.000;    0.000
701.582; 7971.100;    0.000;    0.000
701.690; 7871.100;    0.000;    0.000
701.797; 7887.100;    0.000;    0.000
701.904; 7823.100;    0.000;    0.000
702.011; 7854.100;    0.000;    0.000
702.118; 7896.100;    0.000;    0.000
702.225; 7858.100;    0.000;    0.000
702.332; 7792.100;    0.000;    0.000
702.439; 7786.100;    0.000;    0.000
702.546; 7732.100;    0.000;    0.000
702.652; 7639.100;    0.000;    0.000
702.759; 7780.100;    0.000;    0.000
702.866; 7797.100;    0.000;    0.000
702.973; 7754.100;    0.000;    0.000
703.080; 7743.100;    0.000;    0.000
703.187; 8004.100;    0.000;    0.000
703.294; 7961.100;    0.000;    0.000
703.400; 7501.100;    0.000;    0.000
703.507; 1028.100;    0.000;    0.000
703.614;  312.100;    0.000;    0.000
703.720;  317.100;    0.000;    0.000
703.827;  319.100;    0.000;    0.000
703.934;  331.100;    0.000;    0.000
704.040;  303.100;    0.000;    0.000
704.147;  293.100;    0.000;    0.000
704.254;  345.100;    0.000;    0.000
704.360;  288.100;    0.000;    0.000
704.467;  334.100;    0.000;    0.000
704.573;  316.100;    0.000;    0.000
704.680;  315.100;    0.000;    0.000
704.786;  299.100;    0.000;    0.000
704.893;  303.100;    0.000;    0.000
704.999;  298.100;    0.000;    0.000
705.106;  319.100;    0.000;    0.000

