
Integration time [ms]:   1.000
Averaging Nr. [scans]: 1
Smoothing Nr. [pixels]: 0
Data measured with spectrometer [name]: NIR
Wave   ;Sample   ;Dark     ;Reference
[nm]   ;[counts] ;[counts] ;[counts] 

691.496;  158.950;    0.000;    0.000
691.696;  161.950;    0.000;    0.000
691.896;  137.950;    0.000;    0.000
692.096;  201.950;    0.000;    0.000
692.296;   95.950;    0.000;    0.000
692.496;  176.950;    0.000;    0.000
692.695;  128.950;    0.000;    0.000
692.895;  182.950;    0.000;    0.000
693.095;  126.950;    0.000;    0.000
693.295;  127.950;    0.000;    0.000
693.495;  165.950;    0.000;    0.000
693.695;  145.950;    0.000;    0.000
693.894;  166.950;    0.000;    0.000
694.094;  144.950;    0.000;    0.000
694.294;  159.950;    0.000;    0.000
694.494;  540.950;    0.000;    0.000
694.693; 4334.950;    0.000;    0.000
694.893; 4582.950;    0.000;    0.000
695.093; 4677.950;    0.000;    0.000
695.293; 4841.950;    0.000;    0.000
695.492; 4767.950;    0.000;    0.000
695.692; 4862.950;    0.000;    0.000
695.891; 4888.950;    0.000;    0.000
696.091; 4988.950;    0.000;    0.000
696.291; 4908.950;    0.000;    0.000
696.490; 4937.950;    0.000;    0.000
696.690; 4832.950;    0.000;    0.000
696.889; 5003.950;    0.000;    0.000
697.089; 4871.950;    0.000;    0.000
697.288; 4959.950;    0.000;    0.000
697.488; 4904.950;    0.000;    0.000
697.687; 4877.950;    0.000;    0.000
697.887; 5233.950;    0.000;    0.000
698.086; 5029.950;    0.000;    0.000
698.286; 4987.950;    0.000;    0.000
698.485; 4923.950;    0.000;    0.000
698.684; 4992.950;    0.000;    0.000
698.884; 5000.950;    0.000;    0.000
699.083; 5028.950;    0.000;    0.000
699.282; 5223.950;    0.000;    0.000
699.482; 5431.950;    0.000;    0.000
699.681; 5749.950;    0.000;    0.000
699.880; 5883.950;    0.000;    0.000
700.080; 5613.950;    0.000;    0.000
700.279; 5579.950;    0.000;    0.000
700.478; 5601.950;    0.000;    0.000
700.677; 5476.950;    0.000;    0.000
700.877; 5455.950;    0.000;    0.000
701.076; 5390.950;    0.000;    0.000
701.275; 5333.950;    0.000;    0.000
701.474; 5284.950;    0.000;    0.000
701.673; 5329.950;    0.000;    0.000
701.872; 5377.950;    0.000;    0.000
702.071; 5304.950;    0.000;    0.000
702.271; 5216.950;    0.000;    0.000
702.470; 5339.950;    0.000;    0.000
702.669; 5304.950;    0.000;    0.000
702.868; 5292.950;    0.000;    0.000
703.067; 5439.950;    0.000;    0.000
703.266; 5421.950;    0.000;    0.000
703.465; 5713.950;    0.000;    0.000
703.664; 5921.950;    0.000;    0.000
703.863; 6173.950;    0.000;    0.000
704.062; 6087.950;    0.000;    0.000
704.260; 5886.950;    0.000;    0.000
704.459; 5736.950;    0.000;    0.000
704.658; 5564.950;    0.000;    0.000
704.857; 5748.950;    0.000;    0.000
705.056; 5847.950;    0.000;    0.000
705.255; 5922.950;    0.000;    0.000
705.454; 6097.950;    0.000;    0.000
705.652; 6075.950;    0.000;    0.000
705.851; 5797.950;    0.000;    0.000
706.050; 5865.950;    0.000;    0.000
706.249; 5982.950;    0.000;    0.000
706.447; 5946.950;    0.000;    0.000
706.646; 6043.950;    0.000;    0.000
706.845; 6088.950;    0.000;    0.000
707.043; 6078.950;    0.000;    0.000
707.242; 5782.950;    0.000;    0.000
707.441; 5846.950;    0.000;    0.000
707.639; 5679.950;    0.000;    0.000
707.838; 5835.950;    0.000;    0.000
708.037; 5768.950;    0.000;    0.000
708.235; 5666.950;    0.000;    0.000
708.434; 5732.950;    0.000;    0.000
708.632; 5757.950;    0.000;    0.000
708.831; 6043.950;    0.000;    0.000
709.029; 5829.950;    0.000;    0.000
709.228; 5912.950;    0.000;    0.000
709.426; 5905.950;    0.000;    0.000
709.625; 6084.950;    0.000;    0.000
709.823; 5931.950;    0.000;    0.000
710.022; 6054.950;    0.000;    0.000
710.220; 6145.950;    0.000;    0.000
710.418; 6346.950;    0.000;    0.000
710.617; 6243.950;    0.000;    0.000
710.815; 6393.950;    0.000;    0.000
711.013; 6320.950;    0.000;    0.000
711.212; 6364.950;    0.000;    0.000
711.410; 6426.950;    0.000;    0.000
711.608; 6515.950;    0.000;    0.000
711.807; 6480.950;    0.000;    0.000
712.005; 6487.950;    0.000;    0.000
712.203; 6271.950;    0.000;    0.000
712.401; 6768.950;    0.000;    0.000
712.599; 6763.950;    0.000;    0.000
712.798; 6749.950;    0.000;    0.000
712.996; 6915.950;    0.000;    0.000
713.194; 6839.950;    0.000;    0.000
713.392; 6807.950;    0.000;    0.000
713.590; 6787.950;    0.000;    0.000
713.788; 6956.950;    0.000;    0.000
713.986; 7039.950;    0.000;    0.000
714.184; 6769.950;    0.000;    0.000
714.382; 6793.950;    0.000;    0.000
714.580; 6759.950;    0.000;    0.000
714.778; 6699.950;    0.000;    0.000
714.976; 6723.950;    0.000;    0.000
715.174; 6798.950;    0.000;    0.000
715.372; 6872.950;    0.000;    0.000
715.570; 7253.950;    0.000;    0.000
715.768; 7361.950;    0.000;    0.000
715.966; 7321.950;    0.000;    0.000
716.164; 7310.950;    0.000;    0.000
716.362; 7263.950;    0.000;    0.000
716.560; 7014.950;    0.000;    0.000
716.758; 6834.950;    0.000;    0.000
716.955; 6982.950;    0.000;    0.000
717.153; 6868.950;    0.000;    0.000
717.351; 6893.950;    0.000;    0.000
717.549; 6910.950;    0.000;    0.000
717.746; 6732.950;    0.000;    0.000
717.944; 6870.950;    0.000;    0.000
718.142; 6785.950;    0.000;    0.000
718.340; 6794.950;    0.000;    0.000
718.537; 6800.950;    0.000;    0.000
718.735; 7339.950;    0.000;    0.000
718.933; 7746.950;    0.000;    0.000
719.130; 7372.950;    0.000;    0.000
719.328; 6812.950;    0.000;    0.000
719.525; 6807.950;    0.000;    0.000
719.723; 6997.950;    0.000;    0.000
719.920; 6860.950;    0.000;    0.000
720.118; 6913.950;    0.000;    0.000
720.316; 7003.950;    0.000;    0.000
720.513; 6973.950;    0.000;    0.000
720.711; 8516.950;    0.000;    0.000
720.908;10329.950;    0.000;    0.000
721.105; 9294.950;    0.000;    0.000
721.303; 7659.950;    0.000;    0.000
721.500; 8260.950;    0.000;    0.000
721.698; 7981.950;    0.000;    0.000
721.895; 7254.950;    0.000;    0.000
722.092; 7050.950;    0.000;    0.000
722.290; 7253.950;    0.000;    0.000
722.487; 7121.950;    0.000;    0.000
722.684; 7120.950;    0.000;    0.000
722.882; 6940.950;    0.000;    0.000
723.079; 6960.950;    0.000;    0.000
723.276; 6994.950;    0.000;    0.000
723.473; 7110.950;    0.000;    0.000
723.671; 6941.950;    0.000;    0.000
723.868; 7027.950;    0.000;    0.000
724.065; 7015.950;    0.000;    0.000
724.262; 7866.950;    0.000;    0.000
724.459; 8960.950;    0.000;    0.000
724.656; 8208.950;    0.000;    0.000
724.854; 7367.950;    0.000;    0.000
725.051; 8619.950;    0.000;    0.000
725.248; 8944.950;    0.000;    0.000
725.445; 7685.950;    0.000;    0.000
725.642; 7093.950;    0.000;    0.000
725.839; 7055.950;    0.000;    0.000
726.036; 6953.950;    0.000;    0.000
726.233; 6979.950;    0.000;    0.000
726.430; 7032.950;    0.000;    0.000
726.627; 7258.950;    0.000;    0.000
726.824; 7101.950;    0.000;    0.000
727.021; 7280.950;    0.000;    0.000
727.218; 7111.950;    0.000;    0.000
727.414; 7135.950;    0.000;    0.000
727.611; 7048.950;    0.000;    0.000
727.808; 7132.950;    0.000;    0.000
728.005; 7363.950;    0.000;    0.000
728.202; 7447.950;    0.000;    0.000
728.399; 7331.950;    0.000;    0.000
728.595; 7317.950;    0.000;    0.000
728.792; 7365.950;    0.000;    0.000
728.989; 7513.950;    0.000;    0.000
729.186; 7663.950;    0.000;    0.000
729.382; 7685.950;    0.000;    0.000
729.579; 7902.950;    0.000;    0.000
729.776; 8176.950;    0.000;    0.000
729.972; 8228.950;    0.000;    0.000
730.169; 8157.950;    0.000;    0.000
730.366; 7806.950;    0.000;    0.000
730.562; 7824.950;    0.000;    0.000
730.759; 7949.950;    0.000;    0.000
730.955; 7837.950;    0.000;    0.000
731.152; 7992.950;    0.000;    0.000
731.348; 8050.950;    0.000;    0.000
731.545; 8307.950;    0.000;    0.000
731.741; 8408.950;    0.000;    0.000
731.938; 8210.950;    0.000;    0.000
732.134; 7733.950;    0.000;    0.000
732.331; 7690.950;    0.000;    0.000
732.527; 7521.950;    0.000;    0.000
732.724; 7445.950;    0.000;    0.000
732.920; 7712.950;    0.000;    0.000
733.116; 7640.950;    0.000;    0.000
733.313; 7532.950;    0.000;    0.000
733.509; 7432.950;    0.000;    0.000
733.705; 7578.950;    0.000;    0.000
733.902; 7461.950;    0.000;    0.000
734.098; 7597.950;    0.000;    0.000
734.294; 8307.950;    0.000;    0.000
734.490; 8921.950;    0.000;    0.000
734.687; 8148.950;    0.000;    0.000
734.883; 7554.950;    0.000;    0.000
735.079; 7818.950;    0.000;    0.000
735.275; 7949.950;    0.000;    0.000
735.471; 8282.950;    0.000;    0.000
735.667; 9005.950;    0.000;    0.000
735.863; 9052.950;    0.000;    0.000
736.060; 8182.950;    0.000;    0.000
736.256; 8694.950;    0.000;    0.000
736.452; 8820.950;    0.000;    0.000
736.648; 7972.950;    0.000;    0.000
736.844; 7705.950;    0.000;    0.000
737.040; 7518.950;    0.000;    0.000
737.236; 7608.950;    0.000;    0.000
737.432; 7455.950;    0.000;    0.000
737.628; 7655.950;    0.000;    0.000
737.824; 7614.950;    0.000;    0.000
738.019; 7620.950;    0.000;    0.000
738.215; 7583.950;    0.000;    0.000
738.411; 7635.950;    0.000;    0.000
738.607; 7531.950;    0.000;    0.000
738.803; 7630.950;    0.000;    0.000
738.999; 7727.950;    0.000;    0.000
739.195; 7799.950;    0.000;    0.000
739.390; 7889.950;    0.000;    0.000
739.586; 7807.950;    0.000;    0.000
739.782; 7890.950;    0.000;    0.000
739.978; 7733.950;    0.000;    0.000
740.173; 7851.950;    0.000;    0.000
740.369; 7942.950;    0.000;    0.000
740.565; 8145.950;    0.000;    0.000
740.760; 8166.950;    0.000;    0.000
740.956; 8140.950;    0.000;    0.000
741.152; 8209.950;    0.000;    0.000
741.347; 8248.950;    0.000;    0.000
741.543; 8326.950;    0.000;    0.000
741.738; 8580.950;    0.000;    0.000
741.934; 8895.950;    0.000;    0.000
742.129; 9672.950;    0.000;    0.000
742.325;11373.950;    0.000;    0.000
742.520;11954.950;    0.000;    0.000
742.716;11131.950;    0.000;    0.000
742.911;10185.950;    0.000;    0.000
743.107;10055.950;    0.000;    0.000
743.302; 9862.950;    0.000;    0.000
743.498; 9870.950;    0.000;    0.000
743.693;10245.950;    0.000;    0.000
743.888;11426.950;    0.000;    0.000
744.084;14195.950;    0.000;    0.000
744.279;17002.949;    0.000;    0.000
744.474;16098.950;    0.000;    0.000
744.670;14110.950;    0.000;    0.000
744.865;12610.950;    0.000;    0.000
745.060;11771.950;    0.000;    0.000
745.255;11356.950;    0.000;    0.000
745.451;11078.950;    0.000;    0.000
745.646;10740.950;    0.000;    0.000
745.841;10892.950;    0.000;    0.000
746.036;11007.950;    0.000;    0.000
746.231;11409.950;    0.000;    0.000
746.426;12348.950;    0.000;    0.000
746.622;15683.950;    0.000;    0.000
746.817;20791.949;    0.000;    0.000
747.012;22181.949;    0.000;    0.000
747.207;18798.949;    0.000;    0.000
747.402;15763.950;    0.000;    0.000
747.597;14411.950;    0.000;    0.000
747.792;13609.950;    0.000;    0.000
747.987;12732.950;    0.000;    0.000
748.182;12082.950;    0.000;    0.000
748.377;11635.950;    0.000;    0.000
748.572;11145.950;    0.000;    0.000
748.767;11066.950;    0.000;    0.000
748.961;11031.950;    0.000;    0.000
749.156;10546.950;    0.000;    0.000
749.351;10311.950;    0.000;    0.000
749.546;10404.950;    0.000;    0.000
749.741;10098.950;    0.000;    0.000
749.936; 9813.950;    0.000;    0.000
750.130; 9742.950;    0.000;    0.000
750.325; 9595.950;    0.000;    0.000
750.520; 9563.950;    0.000;    0.000
750.715; 9514.950;    0.000;    0.000
750.909; 9494.950;    0.000;    0.000
751.104; 9424.950;    0.000;    0.000
751.299; 9371.950;    0.000;    0.000
751.493; 9323.950;    0.000;    0.000
751.688; 9382.950;    0.000;    0.000
751.882; 9252.950;    0.000;    0.000
752.077; 9065.950;    0.000;    0.000
752.272; 9153.950;    0.000;    0.000
752.466; 9095.950;    0.000;    0.000
752.661; 9008.950;    0.000;    0.000
752.855; 8923.950;    0.000;    0.000
753.050; 9190.950;    0.000;    0.000
753.244; 9106.950;    0.000;    0.000
753.439; 9053.950;    0.000;    0.000
753.633; 8911.950;    0.000;    0.000
753.828; 8957.950;    0.000;    0.000
754.022; 8990.950;    0.000;    0.000
754.216; 9096.950;    0.000;    0.000
754.411; 9128.950;    0.000;    0.000
754.605; 9015.950;    0.000;    0.000
754.799; 8936.950;    0.000;    0.000
754.994; 9002.950;    0.000;    0.000
755.188; 8959.950;    0.000;    0.000
755.382; 8857.950;    0.000;    0.000
755.576; 8931.950;    0.000;    0.000
755.771; 8955.950;    0.000;    0.000
755.965; 8972.950;    0.000;    0.000
756.159; 9073.950;    0.000;    0.000
756.353; 9412.950;    0.000;    0.000
756.547; 9501.950;    0.000;    0.000
756.742; 9369.950;    0.000;    0.000
756.936; 9183.950;    0.000;    0.000
757.130; 9188.950;    0.000;    0.000
757.324; 9371.950;    0.000;    0.000
757.518; 9560.950;    0.000;    0.000
757.712; 9460.950;    0.000;    0.000
757.906; 9487.950;    0.000;    0.000
758.100; 9321.950;    0.000;    0.000
758.294; 9313.950;    0.000;    0.000
758.488; 9153.950;    0.000;    0.000
758.682; 9283.950;    0.000;    0.000
758.876; 9307.950;    0.000;    0.000
759.070; 9390.950;    0.000;    0.000
759.264; 9184.950;    0.000;    0.000
759.458; 9282.950;    0.000;    0.000
759.651; 9363.950;    0.000;    0.000
759.845; 9091.950;    0.000;    0.000
760.039; 9342.950;    0.000;    0.000
760.233; 9111.950;    0.000;    0.000
760.427; 9164.950;    0.000;    0.000
760.620; 9145.950;    0.000;    0.000
760.814; 9055.950;    0.000;    0.000
761.008; 9366.950;    0.000;    0.000
761.202; 9461.950;    0.000;    0.000
761.395; 9595.950;    0.000;    0.000
761.589; 9672.950;    0.000;    0.000
761.783; 9589.950;    0.000;    0.000
761.976; 9546.950;    0.000;    0.000
762.170; 9434.950;    0.000;    0.000
762.363; 9419.950;    0.000;    0.000
762.557; 9431.950;    0.000;    0.000
762.750; 9484.950;    0.000;    0.000
762.944; 9484.950;    0.000;    0.000
763.138; 9488.950;    0.000;    0.000
763.331; 9581.950;    0.000;    0.000
763.524; 9845.950;    0.000;    0.000
763.718; 9919.950;    0.000;    0.000
763.911; 9983.950;    0.000;    0.000
764.105; 9609.950;    0.000;    0.000
764.298; 9794.950;    0.000;    0.000
764.492; 9790.950;    0.000;    0.000
764.685; 9761.950;    0.000;    0.000
764.878; 9869.950;    0.000;    0.000
765.072; 9986.950;    0.000;    0.000
765.265;10456.950;    0.000;    0.000
765.458;10610.950;    0.000;    0.000
765.651;10410.950;    0.000;    0.000
765.845;10140.950;    0.000;    0.000
766.038;10470.950;    0.000;    0.000
766.231;11775.950;    0.000;    0.000
766.424;13856.950;    0.000;    0.000
766.617;13320.950;    0.000;    0.000
766.811;11295.950;    0.000;    0.000
767.004;10712.950;    0.000;    0.000
767.197;10845.950;    0.000;    0.000
767.390;10505.950;    0.000;    0.000
767.583;10615.950;    0.000;    0.000
767.776;10687.950;    0.000;    0.000
767.969;10689.950;    0.000;    0.000
768.162;10856.950;    0.000;    0.000
768.355;10674.950;    0.000;    0.000
768.548;10595.950;    0.000;    0.000
768.741;10527.950;    0.000;    0.000
768.934;10558.950;    0.000;    0.000
769.127;10761.950;    0.000;    0.000
769.320;10562.950;    0.000;    0.000
769.513;10851.950;    0.000;    0.000
769.706;11853.950;    0.000;    0.000
769.898;12854.950;    0.000;    0.000
770.091;11874.950;    0.000;    0.000
770.284;10982.950;    0.000;    0.000
770.477;11015.950;    0.000;    0.000
770.670;11042.950;    0.000;    0.000
770.862;11128.950;    0.000;    0.000
771.055;10854.950;    0.000;    0.000
771.248;10946.950;    0.000;    0.000
771.441;11011.950;    0.000;    0.000
771.633;11052.950;    0.000;    0.000
771.826;11061.950;    0.000;    0.000
772.018;11240.950;    0.000;    0.000
772.211;11278.950;    0.000;    0.000
772.404;11221.950;    0.000;    0.000
772.596;11199.950;    0.000;    0.000
772.789;11248.950;    0.000;    0.000
772.981;11313.950;    0.000;    0.000
773.174;11314.950;    0.000;    0.000
773.366;11524.950;    0.000;    0.000
773.559;11339.950;    0.000;    0.000
773.751;11475.950;    0.000;    0.000
773.944;11686.950;    0.000;    0.000
774.136;11742.950;    0.000;    0.000
774.329;11995.950;    0.000;    0.000
774.521;12109.950;    0.000;    0.000
774.713;12195.950;    0.000;    0.000
774.906;12774.950;    0.000;    0.000
775.098;13216.950;    0.000;    0.000
775.290;13339.950;    0.000;    0.000
775.483;13662.950;    0.000;    0.000
775.675;14457.950;    0.000;    0.000
775.867;15068.950;    0.000;    0.000
776.059;15913.950;    0.000;    0.000
776.251;17353.949;    0.000;    0.000
776.444;19520.949;    0.000;    0.000
776.636;22738.949;    0.000;    0.000
776.828;29077.949;    0.000;    0.000
777.020;44428.949;    0.000;    0.000
777.212;61046.949;    0.000;    0.000
777.404;65131.949;    0.000;    0.000
777.596;56258.949;    0.000;    0.000
777.788;40508.949;    0.000;    0.000
777.980;30339.949;    0.000;    0.000
778.172;24948.949;    0.000;    0.000
778.364;21683.949;    0.000;    0.000
778.556;19458.949;    0.000;    0.000
778.748;17889.949;    0.000;    0.000
778.940;16919.949;    0.000;    0.000
779.132;15767.950;    0.000;    0.000
779.324;14883.950;    0.000;    0.000
779.516;14178.950;    0.000;    0.000
779.708;13702.950;    0.000;    0.000
779.900;13135.950;    0.000;    0.000
780.091;12965.950;    0.000;    0.000
780.283;12605.950;    0.000;    0.000
780.475;12518.950;    0.000;    0.000
780.667;12230.950;    0.000;    0.000
780.859;12157.950;    0.000;    0.000
781.050;12074.950;    0.000;    0.000
781.242;11718.950;    0.000;    0.000
781.434;11602.950;    0.000;    0.000
781.625;11416.950;    0.000;    0.000
781.817;11396.950;    0.000;    0.000
782.008;11252.950;    0.000;    0.000
782.200;11394.950;    0.000;    0.000
782.392;11368.950;    0.000;    0.000
782.583;11229.950;    0.000;    0.000
782.775;11215.950;    0.000;    0.000
782.966;11031.950;    0.000;    0.000
783.158;11182.950;    0.000;    0.000
783.349;11091.950;    0.000;    0.000
783.541;11308.950;    0.000;    0.000
783.732;11039.950;    0.000;    0.000
783.924;10859.950;    0.000;    0.000
784.115;10890.950;    0.000;    0.000
784.306;10637.950;    0.000;    0.000
784.498;10601.950;    0.000;    0.000
784.689;10659.950;    0.000;    0.000
784.880;10509.950;    0.000;    0.000
785.072;10514.950;    0.000;    0.000
785.263;10238.950;    0.000;    0.000
785.454;10098.950;    0.000;    0.000
785.645; 9973.950;    0.000;    0.000
785.837;10132.950;    0.000;    0.000
786.028;10068.950;    0.000;    0.000
786.219; 9856.950;    0.000;    0.000
786.410; 9776.950;    0.000;    0.000
786.601; 9814.950;    0.000;    0.000
786.792; 9775.950;    0.000;    0.000
786.984; 9771.950;    0.000;    0.000
787.175; 9585.950;    0.000;    0.000
787.366; 9737.950;    0.000;    0.000
787.557; 9710.950;    0.000;    0.000
787.748; 9473.950;    0.000;    0.000
787.939; 9651.950;    0.000;    0.000
788.130; 9654.950;    0.000;    0.000
788.321; 9416.950;    0.000;    0.000
788.512; 9740.950;    0.000;    0.000
788.703; 9572.950;    0.000;    0.000
788.894; 9395.950;    0.000;    0.000
789.084; 9478.950;    0.000;    0.000
789.275; 9397.950;    0.000;    0.000
789.466; 9371.950;    0.000;    0.000
789.657; 9389.950;    0.000;    0.000
789.848; 9577.950;    0.000;    0.000
790.039; 9604.950;    0.000;    0.000
790.229; 9660.950;    0.000;    0.000
790.420; 9607.950;    0.000;    0.000
790.611; 9578.950;    0.000;    0.000
790.801; 9648.950;    0.000;    0.000
790.992; 9641.950;    0.000;    0.000
791.183; 9493.950;    0.000;    0.000
791.373; 9317.950;    0.000;    0.000
791.564; 9424.950;    0.000;    0.000
791.755; 9391.950;    0.000;    0.000
791.945; 9430.950;    0.000;    0.000
792.136; 9448.950;    0.000;    0.000
792.326; 9430.950;    0.000;    0.000
792.517; 9575.950;    0.000;    0.000
792.707; 9641.950;    0.000;    0.000
792.898; 9420.950;    0.000;    0.000
793.088; 9393.950;    0.000;    0.000
793.279; 9524.950;    0.000;    0.000
793.469; 9587.950;    0.000;    0.000
793.660; 9666.950;    0.000;    0.000
793.850; 9921.950;    0.000;    0.000
794.040;10154.950;    0.000;    0.000
794.231;10857.950;    0.000;    0.000
794.421;11731.950;    0.000;    0.000
794.611;13272.950;    0.000;    0.000
794.802;14796.950;    0.000;    0.000
794.992;15502.950;    0.000;    0.000
795.182;14984.950;    0.000;    0.000
795.372;13817.950;    0.000;    0.000
795.563;12535.950;    0.000;    0.000
795.753;11471.950;    0.000;    0.000
795.943;11124.950;    0.000;    0.000
796.133;10885.950;    0.000;    0.000
796.323;10602.950;    0.000;    0.000
796.513; 9991.950;    0.000;    0.000
796.703; 9571.950;    0.000;    0.000
796.893; 9523.950;    0.000;    0.000
797.083; 9312.950;    0.000;    0.000
797.273; 9364.950;    0.000;    0.000
797.463; 9383.950;    0.000;    0.000
797.653; 9737.950;    0.000;    0.000
797.843;10741.950;    0.000;    0.000
798.033;10423.950;    0.000;    0.000
798.223; 9215.950;    0.000;    0.000
798.413; 8949.950;    0.000;    0.000
798.603; 8716.950;    0.000;    0.000
798.793; 8784.950;    0.000;    0.000
798.983; 8635.950;    0.000;    0.000
799.172; 8723.950;    0.000;    0.000
799.362; 8898.950;    0.000;    0.000
799.552; 9155.950;    0.000;    0.000
799.742; 9319.950;    0.000;    0.000
799.932; 8765.950;    0.000;    0.000
800.121; 8787.950;    0.000;    0.000
800.311; 8524.950;    0.000;    0.000
800.501; 8555.950;    0.000;    0.000
800.690; 8361.950;    0.000;    0.000
800.880; 8280.950;    0.000;    0.000
801.070; 8247.950;    0.000;    0.000
801.259; 8269.950;    0.000;    0.000
801.449; 8161.950;    0.000;    0.000
801.638; 8214.950;    0.000;    0.000
801.828; 8207.950;    0.000;    0.000
802.017; 8027.950;    0.000;    0.000
802.207; 8182.950;    0.000;    0.000
802.396; 8648.950;    0.000;    0.000
802.586; 8486.950;    0.000;    0.000
802.775; 8065.950;    0.000;    0.000
802.965; 7921.950;    0.000;    0.000
803.154; 7892.950;    0.000;    0.000
803.343; 7897.950;    0.000;    0.000
803.533; 7772.950;    0.000;    0.000
803.722; 7726.950;    0.000;    0.000
803.911; 7670.950;    0.000;    0.000
804.101; 7697.950;    0.000;    0.000
804.290; 7498.950;    0.000;    0.000
804.479; 7557.950;    0.000;    0.000
804.668; 7524.950;    0.000;    0.000
804.857; 7468.950;    0.000;    0.000
805.047; 7414.950;    0.000;    0.000
805.236; 7478.950;    0.000;    0.000
805.425; 7494.950;    0.000;    0.000
805.614; 7367.950;    0.000;    0.000
805.803; 7475.950;    0.000;    0.000
805.992; 7320.950;    0.000;    0.000
806.181; 7436.950;    0.000;    0.000
806.370; 7538.950;    0.000;    0.000
806.559; 7765.950;    0.000;    0.000
806.748; 8063.950;    0.000;    0.000
806.937; 7829.950;    0.000;    0.000
807.126; 7655.950;    0.000;    0.000
807.315; 7192.950;    0.000;    0.000
807.504; 7418.950;    0.000;    0.000
807.693; 7395.950;    0.000;    0.000
807.882; 7240.950;    0.000;    0.000
808.071; 7341.950;    0.000;    0.000
808.260; 7263.950;    0.000;    0.000
808.448; 7438.950;    0.000;    0.000
808.637; 7265.950;    0.000;    0.000
808.826; 7407.950;    0.000;    0.000
809.015; 7080.950;    0.000;    0.000
809.203; 7237.950;    0.000;    0.000
809.392; 7180.950;    0.000;    0.000
809.581; 7148.950;    0.000;    0.000
809.770; 7327.950;    0.000;    0.000
809.958; 7239.950;    0.000;    0.000
810.147; 7200.950;    0.000;    0.000
810.335; 7293.950;    0.000;    0.000
810.524; 7291.950;    0.000;    0.000
810.713; 7227.950;    0.000;    0.000
810.901; 7361.950;    0.000;    0.000
811.090; 7317.950;    0.000;    0.000
811.278; 7432.950;    0.000;    0.000
811.467; 7521.950;    0.000;    0.000
811.655; 7741.950;    0.000;    0.000
811.844; 7626.950;    0.000;    0.000
812.032; 7458.950;    0.000;    0.000
812.220; 7305.950;    0.000;    0.000
812.409; 7242.950;    0.000;    0.000
812.597; 7272.950;    0.000;    0.000
812.785; 7442.950;    0.000;    0.000
812.974; 7198.950;    0.000;    0.000
813.162; 7180.950;    0.000;    0.000
813.350; 7202.950;    0.000;    0.000
813.539; 7185.950;    0.000;    0.000
813.727; 7162.950;    0.000;    0.000
813.915; 7156.950;    0.000;    0.000
814.103; 7145.950;    0.000;    0.000
814.291; 7158.950;    0.000;    0.000
814.479; 7080.950;    0.000;    0.000
814.668; 7174.950;    0.000;    0.000
814.856; 7353.950;    0.000;    0.000
815.044; 7274.950;    0.000;    0.000
815.232; 7424.950;    0.000;    0.000
815.420; 7369.950;    0.000;    0.000
815.608; 7454.950;    0.000;    0.000
815.796; 7290.950;    0.000;    0.000
815.984; 7444.950;    0.000;    0.000
816.172; 7513.950;    0.000;    0.000
816.360; 7738.950;    0.000;    0.000
816.548; 7654.950;    0.000;    0.000
816.736; 7732.950;    0.000;    0.000
816.924; 7965.950;    0.000;    0.000
817.111; 8274.950;    0.000;    0.000
817.299; 8106.950;    0.000;    0.000
817.487; 8498.950;    0.000;    0.000
817.675; 8929.950;    0.000;    0.000
817.863; 9380.950;    0.000;    0.000
818.050;10428.950;    0.000;    0.000
818.238;13030.950;    0.000;    0.000
818.426;17414.949;    0.000;    0.000
818.613;20830.949;    0.000;    0.000
818.801;21541.949;    0.000;    0.000
818.989;19393.949;    0.000;    0.000
819.176;15920.950;    0.000;    0.000
819.364;13756.950;    0.000;    0.000
819.552;12858.950;    0.000;    0.000
819.739;12378.950;    0.000;    0.000
819.927;12396.950;    0.000;    0.000
820.114;12551.950;    0.000;    0.000
820.302;12361.950;    0.000;    0.000
820.489;11870.950;    0.000;    0.000
820.677;12392.950;    0.000;    0.000
820.864;13775.950;    0.000;    0.000
821.052;16021.950;    0.000;    0.000
821.239;18122.949;    0.000;    0.000
821.426;23400.949;    0.000;    0.000
821.614;30905.949;    0.000;    0.000
821.801;31305.949;    0.000;    0.000
821.988;25632.949;    0.000;    0.000
822.176;24688.949;    0.000;    0.000
822.363;24649.949;    0.000;    0.000
822.550;21552.949;    0.000;    0.000
822.737;18112.949;    0.000;    0.000
822.924;16121.950;    0.000;    0.000
823.112;14861.950;    0.000;    0.000
823.299;14052.950;    0.000;    0.000
823.486;13135.950;    0.000;    0.000
823.673;12477.950;    0.000;    0.000
823.860;12536.950;    0.000;    0.000
824.047;14598.950;    0.000;    0.000
824.234;17123.949;    0.000;    0.000
824.421;16637.949;    0.000;    0.000
824.608;13888.950;    0.000;    0.000
824.795;12101.950;    0.000;    0.000
824.982;11068.950;    0.000;    0.000
825.169;10001.950;    0.000;    0.000
825.356; 9580.950;    0.000;    0.000
825.543; 9073.950;    0.000;    0.000
825.730; 8642.950;    0.000;    0.000
825.917; 8329.950;    0.000;    0.000
826.104; 8218.950;    0.000;    0.000
826.290; 8003.950;    0.000;    0.000
826.477; 7954.950;    0.000;    0.000
826.664; 7710.950;    0.000;    0.000
826.851; 7574.950;    0.000;    0.000
827.038; 7374.950;    0.000;    0.000
827.224; 7183.950;    0.000;    0.000
827.411; 7038.950;    0.000;    0.000
827.598; 6972.950;    0.000;    0.000
827.784; 6982.950;    0.000;    0.000
827.971; 6822.950;    0.000;    0.000
828.157; 6667.950;    0.000;    0.000
828.344; 6588.950;    0.000;    0.000
828.531; 6723.950;    0.000;    0.000
828.717; 6596.950;    0.000;    0.000
828.904; 6668.950;    0.000;    0.000
829.090; 6391.950;    0.000;    0.000
829.277; 6355.950;    0.000;    0.000
829.463; 6251.950;    0.000;    0.000
829.650; 6415.950;    0.000;    0.000
829.836; 6381.950;    0.000;    0.000
830.022; 6511.950;    0.000;    0.000
830.209; 6321.950;    0.000;    0.000
830.395; 6271.950;    0.000;    0.000
830.581; 6477.950;    0.000;    0.000
830.768; 6382.950;    0.000;    0.000
830.954; 6219.950;    0.000;    0.000
831.140; 6294.950;    0.000;    0.000
831.327; 6283.950;    0.000;    0.000
831.513; 6074.950;    0.000;    0.000
831.699; 5980.950;    0.000;    0.000
831.885; 6079.950;    0.000;    0.000
832.071; 5786.950;    0.000;    0.000
832.257; 5729.950;    0.000;    0.000
832.444; 5860.950;    0.000;    0.000
832.630; 5767.950;    0.000;    0.000
832.816; 5793.950;    0.000;    0.000
833.002; 5750.950;    0.000;    0.000
833.188; 5898.950;    0.000;    0.000
833.374; 6073.950;    0.000;    0.000
833.560; 5961.950;    0.000;    0.000
833.746; 5890.950;    0.000;    0.000
833.932; 5760.950;    0.000;    0.000
834.118; 5654.950;    0.000;    0.000
834.303; 5700.950;    0.000;    0.000
834.489; 5660.950;    0.000;    0.000
834.675; 5540.950;    0.000;    0.000
834.861; 5593.950;    0.000;    0.000
835.047; 5610.950;    0.000;    0.000
835.233; 5657.950;    0.000;    0.000
835.418; 5679.950;    0.000;    0.000
835.604; 5619.950;    0.000;    0.000
835.790; 5640.950;    0.000;    0.000
835.976; 5698.950;    0.000;    0.000
836.161; 5954.950;    0.000;    0.000
836.347; 6339.950;    0.000;    0.000
836.533; 6169.950;    0.000;    0.000
836.718; 5743.950;    0.000;    0.000
836.904; 5506.950;    0.000;    0.000
837.089; 5428.950;    0.000;    0.000
837.275; 5419.950;    0.000;    0.000
837.460; 5634.950;    0.000;    0.000
837.646; 6369.950;    0.000;    0.000
837.831; 6630.950;    0.000;    0.000
838.017; 6587.950;    0.000;    0.000
838.202; 7109.950;    0.000;    0.000
838.388; 6948.950;    0.000;    0.000
838.573; 5762.950;    0.000;    0.000
838.759; 5600.950;    0.000;    0.000
838.944; 5591.950;    0.000;    0.000
839.129; 5400.950;    0.000;    0.000
839.315; 5563.950;    0.000;    0.000
839.500; 6000.950;    0.000;    0.000
839.685; 6099.950;    0.000;    0.000
839.870; 5843.950;    0.000;    0.000
840.056; 5499.950;    0.000;    0.000
840.241; 5463.950;    0.000;    0.000
840.426; 5501.950;    0.000;    0.000
840.611; 5489.950;    0.000;    0.000
840.796; 5663.950;    0.000;    0.000
840.981; 6119.950;    0.000;    0.000
841.166; 7051.950;    0.000;    0.000
841.352; 6922.950;    0.000;    0.000
841.537; 6070.950;    0.000;    0.000
841.722; 6083.950;    0.000;    0.000
841.907; 5807.950;    0.000;    0.000
842.092; 5887.950;    0.000;    0.000
842.277; 6134.950;    0.000;    0.000
842.461; 7568.950;    0.000;    0.000
842.646; 8587.950;    0.000;    0.000
842.831; 7591.950;    0.000;    0.000
843.016; 6593.950;    0.000;    0.000
843.201; 7584.950;    0.000;    0.000
843.386;13077.950;    0.000;    0.000
843.571;14361.950;    0.000;    0.000
843.755;10505.950;    0.000;    0.000
843.940; 8698.950;    0.000;    0.000
844.125; 9261.950;    0.000;    0.000
844.310;11174.950;    0.000;    0.000
844.494;16060.950;    0.000;    0.000
844.679;19612.949;    0.000;    0.000
844.864;18098.949;    0.000;    0.000
845.048;14012.950;    0.000;    0.000
845.233;11516.950;    0.000;    0.000
845.418; 9775.950;    0.000;    0.000
845.602; 8855.950;    0.000;    0.000
845.787; 8094.950;    0.000;    0.000
845.971; 7599.950;    0.000;    0.000
846.156; 7147.950;    0.000;    0.000
846.340; 6839.950;    0.000;    0.000
846.525; 6701.950;    0.000;    0.000
846.709; 7002.950;    0.000;    0.000
846.893; 6839.950;    0.000;    0.000
847.078; 6095.950;    0.000;    0.000
847.262; 5913.950;    0.000;    0.000
847.447; 5688.950;    0.000;    0.000
847.631; 5662.950;    0.000;    0.000
847.815; 5579.950;    0.000;    0.000
848.000; 5473.950;    0.000;    0.000
848.184; 5434.950;    0.000;    0.000
848.368; 5297.950;    0.000;    0.000
848.552; 5412.950;    0.000;    0.000
848.736; 5199.950;    0.000;    0.000
848.921; 5090.950;    0.000;    0.000
849.105; 5102.950;    0.000;    0.000
849.289; 5050.950;    0.000;    0.000
849.473; 5147.950;    0.000;    0.000
849.657; 5285.950;    0.000;    0.000
849.841; 5040.950;    0.000;    0.000
850.025; 4986.950;    0.000;    0.000
850.209; 5022.950;    0.000;    0.000
850.393; 4919.950;    0.000;    0.000
850.577; 4916.950;    0.000;    0.000
850.761; 4895.950;    0.000;    0.000
850.945; 4802.950;    0.000;    0.000
851.129; 4808.950;    0.000;    0.000
851.313; 4901.950;    0.000;    0.000
851.497; 4877.950;    0.000;    0.000
851.680; 5391.950;    0.000;    0.000
851.864; 5460.950;    0.000;    0.000
852.048; 4963.950;    0.000;    0.000
852.232; 4842.950;    0.000;    0.000
852.416; 4952.950;    0.000;    0.000
852.599; 4803.950;    0.000;    0.000
852.783; 4791.950;    0.000;    0.000
852.967; 4689.950;    0.000;    0.000
853.150; 4776.950;    0.000;    0.000
853.334; 4623.950;    0.000;    0.000
853.518; 4711.950;    0.000;    0.000
853.701; 4693.950;    0.000;    0.000
853.885; 4864.950;    0.000;    0.000
854.068; 4983.950;    0.000;    0.000
854.252; 4845.950;    0.000;    0.000
854.435; 4705.950;    0.000;    0.000
854.619; 4944.950;    0.000;    0.000
854.802; 5139.950;    0.000;    0.000
854.986; 5023.950;    0.000;    0.000
855.169; 4678.950;    0.000;    0.000
855.353; 4656.950;    0.000;    0.000
855.536; 4805.950;    0.000;    0.000
855.719; 4745.950;    0.000;    0.000
855.903; 4827.950;    0.000;    0.000
856.086; 4928.950;    0.000;    0.000
856.269; 4919.950;    0.000;    0.000
856.452; 5002.950;    0.000;    0.000
856.636; 5590.950;    0.000;    0.000
856.819; 6195.950;    0.000;    0.000
857.002; 6083.950;    0.000;    0.000
857.185; 5797.950;    0.000;    0.000
857.368; 5390.950;    0.000;    0.000
857.552; 5304.950;    0.000;    0.000
857.735; 5307.950;    0.000;    0.000
857.918; 5173.950;    0.000;    0.000
858.101; 5182.950;    0.000;    0.000
858.284; 5122.950;    0.000;    0.000
858.467; 5231.950;    0.000;    0.000
858.650; 5173.950;    0.000;    0.000
858.833; 5372.950;    0.000;    0.000
859.016; 5620.950;    0.000;    0.000
859.199; 6420.950;    0.000;    0.000
859.382; 7465.950;    0.000;    0.000
859.564; 7944.950;    0.000;    0.000
859.747; 7437.950;    0.000;    0.000
859.930; 6789.950;    0.000;    0.000
860.113; 6351.950;    0.000;    0.000
860.296; 6124.950;    0.000;    0.000
860.478; 5907.950;    0.000;    0.000
860.661; 5832.950;    0.000;    0.000
860.844; 5706.950;    0.000;    0.000
861.027; 5567.950;    0.000;    0.000
861.209; 5701.950;    0.000;    0.000
861.392; 5587.950;    0.000;    0.000
861.575; 5809.950;    0.000;    0.000
861.757; 5856.950;    0.000;    0.000
861.940; 6009.950;    0.000;    0.000
862.122; 6216.950;    0.000;    0.000
862.305; 6427.950;    0.000;    0.000
862.487; 6952.950;    0.000;    0.000
862.670; 8213.950;    0.000;    0.000
862.852;10856.950;    0.000;    0.000
863.035;12421.950;    0.000;    0.000
863.217;11543.950;    0.000;    0.000
863.400; 9775.950;    0.000;    0.000
863.582; 9098.950;    0.000;    0.000
863.764; 8263.950;    0.000;    0.000
863.947; 7610.950;    0.000;    0.000
864.129; 7281.950;    0.000;    0.000
864.311; 7151.950;    0.000;    0.000
864.493; 6900.950;    0.000;    0.000
864.676; 6669.950;    0.000;    0.000
864.858; 6592.950;    0.000;    0.000
865.040; 6626.950;    0.000;    0.000
865.222; 6839.950;    0.000;    0.000
865.404; 7103.950;    0.000;    0.000
865.587; 7716.950;    0.000;    0.000
865.769; 8059.950;    0.000;    0.000
865.951; 7652.950;    0.000;    0.000
866.133; 7507.950;    0.000;    0.000
866.315; 7557.950;    0.000;    0.000
866.497; 7423.950;    0.000;    0.000
866.679; 7715.950;    0.000;    0.000
866.861; 8161.950;    0.000;    0.000
867.043; 8483.950;    0.000;    0.000
867.225; 9328.950;    0.000;    0.000
867.407;11197.950;    0.000;    0.000
867.589;13309.950;    0.000;    0.000
867.770;18246.949;    0.000;    0.000
867.952;26935.949;    0.000;    0.000
868.134;32457.949;    0.000;    0.000
868.316;31786.949;    0.000;    0.000
868.498;28656.949;    0.000;    0.000
868.679;23126.949;    0.000;    0.000
868.861;18125.949;    0.000;    0.000
869.043;14916.950;    0.000;    0.000
869.224;12712.950;    0.000;    0.000
869.406;11273.950;    0.000;    0.000
869.588;10584.950;    0.000;    0.000
869.769; 9934.950;    0.000;    0.000
869.951; 9965.950;    0.000;    0.000
870.132;10877.950;    0.000;    0.000
870.314;12516.950;    0.000;    0.000
870.495;12321.950;    0.000;    0.000
870.677;10614.950;    0.000;    0.000
870.858;10494.950;    0.000;    0.000
871.040;12090.950;    0.000;    0.000
871.221;13173.950;    0.000;    0.000
871.403;12074.950;    0.000;    0.000
871.584;10644.950;    0.000;    0.000
871.765;11400.950;    0.000;    0.000
871.947;11552.950;    0.000;    0.000
872.128;10294.950;    0.000;    0.000
872.309; 8742.950;    0.000;    0.000
872.491; 7681.950;    0.000;    0.000
872.672; 7313.950;    0.000;    0.000
872.853; 7241.950;    0.000;    0.000
873.034; 6938.950;    0.000;    0.000
873.215; 6308.950;    0.000;    0.000
873.396; 6026.950;    0.000;    0.000
873.578; 5822.950;    0.000;    0.000
873.759; 5684.950;    0.000;    0.000
873.940; 5302.950;    0.000;    0.000
874.121; 5203.950;    0.000;    0.000
874.302; 5032.950;    0.000;    0.000
874.483; 5074.950;    0.000;    0.000
874.664; 5181.950;    0.000;    0.000
874.845; 5044.950;    0.000;    0.000
875.026; 4921.950;    0.000;    0.000
875.207; 4741.950;    0.000;    0.000
875.388; 4650.950;    0.000;    0.000
875.568; 4548.950;    0.000;    0.000
875.749; 4447.950;    0.000;    0.000
875.930; 4264.950;    0.000;    0.000
876.111; 4452.950;    0.000;    0.000
876.292; 4332.950;    0.000;    0.000
876.472; 4227.950;    0.000;    0.000
876.653; 4349.950;    0.000;    0.000
876.834; 4185.950;    0.000;    0.000
877.015; 3997.950;    0.000;    0.000
877.195; 4147.950;    0.000;    0.000
877.376; 3993.950;    0.000;    0.000
877.556; 4058.950;    0.000;    0.000
877.737; 4042.950;    0.000;    0.000
877.918; 3890.950;    0.000;    0.000
878.098; 3995.950;    0.000;    0.000
878.279; 3818.950;    0.000;    0.000
878.459; 3886.950;    0.000;    0.000
878.640; 3876.950;    0.000;    0.000
878.820; 3758.950;    0.000;    0.000
879.000; 3837.950;    0.000;    0.000
879.181; 3810.950;    0.000;    0.000
879.361; 3784.950;    0.000;    0.000
879.542; 3771.950;    0.000;    0.000
879.722; 3788.950;    0.000;    0.000
879.902; 3812.950;    0.000;    0.000
880.083; 3762.950;    0.000;    0.000
880.263; 3825.950;    0.000;    0.000
880.443; 3773.950;    0.000;    0.000
880.623; 3679.950;    0.000;    0.000
880.803; 3763.950;    0.000;    0.000
880.984; 3832.950;    0.000;    0.000
881.164; 3708.950;    0.000;    0.000
881.344; 3810.950;    0.000;    0.000
881.524; 3725.950;    0.000;    0.000
881.704; 3983.950;    0.000;    0.000
881.884; 4189.950;    0.000;    0.000
882.064; 4239.950;    0.000;    0.000
882.244; 4366.950;    0.000;    0.000
882.424; 4018.950;    0.000;    0.000
882.604; 3817.950;    0.000;    0.000
882.784; 3918.950;    0.000;    0.000
882.964; 3705.950;    0.000;    0.000
883.144; 3712.950;    0.000;    0.000
883.324; 3732.950;    0.000;    0.000
883.504; 3660.950;    0.000;    0.000
883.683; 3568.950;    0.000;    0.000
883.863; 3550.950;    0.000;    0.000
884.043; 3587.950;    0.000;    0.000
884.223; 3539.950;    0.000;    0.000
884.402; 3587.950;    0.000;    0.000
884.582; 3551.950;    0.000;    0.000
884.762; 3516.950;    0.000;    0.000
884.941; 3451.950;    0.000;    0.000
885.121; 3497.950;    0.000;    0.000
885.301; 3471.950;    0.000;    0.000
885.480; 3375.950;    0.000;    0.000
885.660; 3469.950;    0.000;    0.000
885.839; 3441.950;    0.000;    0.000
886.019; 3456.950;    0.000;    0.000
886.198; 3455.950;    0.000;    0.000
886.378; 3425.950;    0.000;    0.000
886.557; 3424.950;    0.000;    0.000
886.737; 3370.950;    0.000;    0.000
886.916; 3357.950;    0.000;    0.000
887.095; 3379.950;    0.000;    0.000
887.275; 3296.950;    0.000;    0.000
887.454; 3367.950;    0.000;    0.000
887.633; 3314.950;    0.000;    0.000
887.813; 3508.950;    0.000;    0.000
887.992; 3405.950;    0.000;    0.000
888.171; 3281.950;    0.000;    0.000
888.350; 3359.950;    0.000;    0.000
888.530; 3322.950;    0.000;    0.000
888.709; 3309.950;    0.000;    0.000
888.888; 3222.950;    0.000;    0.000
889.067; 3328.950;    0.000;    0.000
889.246; 3441.950;    0.000;    0.000
889.425; 3286.950;    0.000;    0.000
889.604; 3338.950;    0.000;    0.000
889.783; 3272.950;    0.000;    0.000
889.962; 3201.950;    0.000;    0.000
890.141; 3348.950;    0.000;    0.000
890.320; 3234.950;    0.000;    0.000
890.499; 3278.950;    0.000;    0.000
890.678; 3331.950;    0.000;    0.000
890.857; 3326.950;    0.000;    0.000
891.036; 3321.950;    0.000;    0.000
891.214; 3332.950;    0.000;    0.000
891.393; 3376.950;    0.000;    0.000
891.572; 3295.950;    0.000;    0.000
891.751; 3274.950;    0.000;    0.000
891.930; 3336.950;    0.000;    0.000
892.108; 3501.950;    0.000;    0.000
892.287; 3261.950;    0.000;    0.000
892.466; 3401.950;    0.000;    0.000
892.644; 3310.950;    0.000;    0.000
892.823; 3327.950;    0.000;    0.000
893.001; 3212.950;    0.000;    0.000
893.180; 3230.950;    0.000;    0.000
893.359; 3282.950;    0.000;    0.000
893.537; 3208.950;    0.000;    0.000
893.716; 3335.950;    0.000;    0.000
893.894; 3149.950;    0.000;    0.000
894.073; 3164.950;    0.000;    0.000
894.251; 3108.950;    0.000;    0.000
894.429; 3117.950;    0.000;    0.000
894.608; 3177.950;    0.000;    0.000
894.786; 3142.950;    0.000;    0.000
894.964; 3185.950;    0.000;    0.000
895.143; 3133.950;    0.000;    0.000
895.321; 3200.950;    0.000;    0.000
895.499; 3236.950;    0.000;    0.000
895.677; 3132.950;    0.000;    0.000
895.856; 3238.950;    0.000;    0.000
896.034; 3224.950;    0.000;    0.000
896.212; 3189.950;    0.000;    0.000
896.390; 3163.950;    0.000;    0.000
896.568; 3217.950;    0.000;    0.000
896.746; 3236.950;    0.000;    0.000
896.924; 3123.950;    0.000;    0.000
897.102; 3270.950;    0.000;    0.000
897.280; 3167.950;    0.000;    0.000
897.458; 3234.950;    0.000;    0.000
897.636; 3159.950;    0.000;    0.000
897.814; 3309.950;    0.000;    0.000
897.992; 3450.950;    0.000;    0.000
898.170; 3281.950;    0.000;    0.000
898.348; 3258.950;    0.000;    0.000
898.526; 3315.950;    0.000;    0.000
898.704; 3404.950;    0.000;    0.000
898.882; 3390.950;    0.000;    0.000
899.059; 3426.950;    0.000;    0.000
899.237; 3220.950;    0.000;    0.000
899.415; 3299.950;    0.000;    0.000
899.593; 3299.950;    0.000;    0.000
899.770; 3240.950;    0.000;    0.000
899.948; 3354.950;    0.000;    0.000
900.125; 3299.950;    0.000;    0.000
900.303; 3263.950;    0.000;    0.000
900.481; 3383.950;    0.000;    0.000
900.658; 3311.950;    0.000;    0.000
900.836; 3386.950;    0.000;    0.000
901.013; 3457.950;    0.000;    0.000
901.191; 3529.950;    0.000;    0.000
901.368; 3607.950;    0.000;    0.000
901.546; 3687.950;    0.000;    0.000
901.723; 3724.950;    0.000;    0.000
901.901; 3898.950;    0.000;    0.000
902.078; 3960.950;    0.000;    0.000
902.255; 4045.950;    0.000;    0.000
902.433; 4051.950;    0.000;    0.000
902.610; 4375.950;    0.000;    0.000
902.787; 4386.950;    0.000;    0.000
902.964; 4467.950;    0.000;    0.000
903.142; 4510.950;    0.000;    0.000
903.319; 4491.950;    0.000;    0.000
903.496; 4543.950;    0.000;    0.000
903.673; 4642.950;    0.000;    0.000
903.850; 4747.950;    0.000;    0.000
904.027; 4986.950;    0.000;    0.000
904.204; 5377.950;    0.000;    0.000
904.381; 6371.950;    0.000;    0.000
904.558; 7822.950;    0.000;    0.000
904.735; 8659.950;    0.000;    0.000
904.912; 8600.950;    0.000;    0.000
905.089; 8320.950;    0.000;    0.000
905.266; 7323.950;    0.000;    0.000
905.443; 6232.950;    0.000;    0.000
905.620; 5803.950;    0.000;    0.000
905.797; 5387.950;    0.000;    0.000
905.974; 5597.950;    0.000;    0.000
906.151; 5747.950;    0.000;    0.000
906.327; 5623.950;    0.000;    0.000
906.504; 5429.950;    0.000;    0.000
906.681; 4929.950;    0.000;    0.000
906.858; 4862.950;    0.000;    0.000
907.034; 4575.950;    0.000;    0.000
907.211; 4503.950;    0.000;    0.000
907.388; 4414.950;    0.000;    0.000
907.564; 4294.950;    0.000;    0.000
907.741; 4298.950;    0.000;    0.000
907.917; 4243.950;    0.000;    0.000
908.094; 4117.950;    0.000;    0.000
908.271; 3974.950;    0.000;    0.000
908.447; 3926.950;    0.000;    0.000
908.623; 4084.950;    0.000;    0.000
908.800; 3965.950;    0.000;    0.000
908.976; 4096.950;    0.000;    0.000
909.153; 4070.950;    0.000;    0.000
909.329; 4186.950;    0.000;    0.000
909.505; 4321.950;    0.000;    0.000
909.682; 4122.950;    0.000;    0.000
909.858; 3835.950;    0.000;    0.000
910.034; 3622.950;    0.000;    0.000
910.211; 3502.950;    0.000;    0.000
910.387; 3518.950;    0.000;    0.000
910.563; 3464.950;    0.000;    0.000
910.739; 3459.950;    0.000;    0.000
910.915; 3420.950;    0.000;    0.000
911.091; 3540.950;    0.000;    0.000
911.268; 3594.950;    0.000;    0.000
911.444; 3407.950;    0.000;    0.000
911.620; 3343.950;    0.000;    0.000
911.796; 3355.950;    0.000;    0.000
911.972; 3285.950;    0.000;    0.000
912.148; 3258.950;    0.000;    0.000
912.324; 3319.950;    0.000;    0.000
912.500; 3387.950;    0.000;    0.000
912.676; 3197.950;    0.000;    0.000
912.851; 3192.950;    0.000;    0.000
913.027; 3200.950;    0.000;    0.000
913.203; 3097.950;    0.000;    0.000
913.379; 3115.950;    0.000;    0.000
913.555; 3166.950;    0.000;    0.000
913.730; 3171.950;    0.000;    0.000
913.906; 3117.950;    0.000;    0.000
914.082; 3094.950;    0.000;    0.000
914.258; 3123.950;    0.000;    0.000
914.433; 3128.950;    0.000;    0.000
914.609; 3063.950;    0.000;    0.000
914.784; 3124.950;    0.000;    0.000
914.960; 3042.950;    0.000;    0.000
915.136; 2927.950;    0.000;    0.000
915.311; 3041.950;    0.000;    0.000
915.487; 3105.950;    0.000;    0.000
915.662; 3107.950;    0.000;    0.000
915.838; 3076.950;    0.000;    0.000
916.013; 3095.950;    0.000;    0.000
916.189; 3054.950;    0.000;    0.000
916.364; 3096.950;    0.000;    0.000
916.539; 3061.950;    0.000;    0.000
916.715; 3161.950;    0.000;    0.000
916.890; 3153.950;    0.000;    0.000
917.065; 3042.950;    0.000;    0.000
917.240; 2993.950;    0.000;    0.000
917.416; 2964.950;    0.000;    0.000
917.591; 2908.950;    0.000;    0.000
917.766; 3012.950;    0.000;    0.000
917.941; 2978.950;    0.000;    0.000
918.116; 2918.950;    0.000;    0.000
918.292; 2883.950;    0.000;    0.000
918.467; 3039.950;    0.000;    0.000
918.642; 2909.950;    0.000;    0.000
918.817; 2916.950;    0.000;    0.000
918.992; 2926.950;    0.000;    0.000
919.167; 2907.950;    0.000;    0.000
919.342; 2925.950;    0.000;    0.000
919.517; 2994.950;    0.000;    0.000
919.692; 2979.950;    0.000;    0.000
919.867; 2888.950;    0.000;    0.000
920.041; 2839.950;    0.000;    0.000
920.216; 2890.950;    0.000;    0.000
920.391; 2936.950;    0.000;    0.000
920.566; 2937.950;    0.000;    0.000
920.741; 2827.950;    0.000;    0.000
920.915; 2877.950;    0.000;    0.000
921.090; 2834.950;    0.000;    0.000
921.265; 2795.950;    0.000;    0.000
921.439; 2896.950;    0.000;    0.000
921.614; 2831.950;    0.000;    0.000
921.789; 2788.950;    0.000;    0.000
921.963; 2856.950;    0.000;    0.000
922.138; 2813.950;    0.000;    0.000
922.312; 2895.950;    0.000;    0.000
922.487; 2953.950;    0.000;    0.000
922.661; 2909.950;    0.000;    0.000
922.836; 2851.950;    0.000;    0.000
923.010; 2832.950;    0.000;    0.000
923.185; 2947.950;    0.000;    0.000
923.359; 3030.950;    0.000;    0.000
923.534; 2922.950;    0.000;    0.000
923.708; 2935.950;    0.000;    0.000
923.882; 3027.950;    0.000;    0.000
924.057; 3019.950;    0.000;    0.000
924.231; 3098.950;    0.000;    0.000
924.405; 3208.950;    0.000;    0.000
924.579; 3219.950;    0.000;    0.000
924.753; 3227.950;    0.000;    0.000
924.928; 3185.950;    0.000;    0.000
925.102; 3258.950;    0.000;    0.000
925.276; 3391.950;    0.000;    0.000
925.450; 3399.950;    0.000;    0.000
925.624; 3669.950;    0.000;    0.000
925.798; 3926.950;    0.000;    0.000
925.972; 4040.950;    0.000;    0.000
926.146; 4433.950;    0.000;    0.000
926.320; 5035.950;    0.000;    0.000
926.494; 5470.950;    0.000;    0.000
926.668; 5690.950;    0.000;    0.000
926.842; 5863.950;    0.000;    0.000
927.016; 5528.950;    0.000;    0.000
927.190; 5411.950;    0.000;    0.000
927.363; 5188.950;    0.000;    0.000
927.537; 4954.950;    0.000;    0.000
927.711; 4643.950;    0.000;    0.000
927.885; 4631.950;    0.000;    0.000
928.058; 4535.950;    0.000;    0.000
928.232; 4377.950;    0.000;    0.000
928.406; 4182.950;    0.000;    0.000
928.579; 4051.950;    0.000;    0.000
928.753; 4015.950;    0.000;    0.000
928.927; 3799.950;    0.000;    0.000
929.100; 3798.950;    0.000;    0.000
929.274; 3656.950;    0.000;    0.000
929.447; 3569.950;    0.000;    0.000
929.621; 3695.950;    0.000;    0.000
929.794; 3517.950;    0.000;    0.000
929.968; 3430.950;    0.000;    0.000
930.141; 3239.950;    0.000;    0.000
930.315; 3336.950;    0.000;    0.000
930.488; 3285.950;    0.000;    0.000
930.661; 3170.950;    0.000;    0.000
930.835; 3132.950;    0.000;    0.000
931.008; 3135.950;    0.000;    0.000
931.181; 3077.950;    0.000;    0.000
931.354; 3080.950;    0.000;    0.000
931.528; 3042.950;    0.000;    0.000
931.701; 3041.950;    0.000;    0.000
931.874; 2899.950;    0.000;    0.000
932.047; 2984.950;    0.000;    0.000
932.220; 2891.950;    0.000;    0.000
932.393; 2890.950;    0.000;    0.000
932.566; 2848.950;    0.000;    0.000
932.739; 2879.950;    0.000;    0.000
932.912; 2863.950;    0.000;    0.000
933.085; 2801.950;    0.000;    0.000
933.258; 2828.950;    0.000;    0.000
933.431; 2643.950;    0.000;    0.000
933.604; 2743.950;    0.000;    0.000
933.777; 2741.950;    0.000;    0.000
933.950; 2814.950;    0.000;    0.000
934.123; 2651.950;    0.000;    0.000
934.296; 2685.950;    0.000;    0.000
934.468; 2659.950;    0.000;    0.000
934.641; 2722.950;    0.000;    0.000
934.814; 2740.950;    0.000;    0.000
934.987; 2557.950;    0.000;    0.000
935.159; 2634.950;    0.000;    0.000
935.332; 2635.950;    0.000;    0.000
935.505; 2578.950;    0.000;    0.000
935.677; 2573.950;    0.000;    0.000
935.850; 2660.950;    0.000;    0.000
936.022; 2592.950;    0.000;    0.000
936.195; 2619.950;    0.000;    0.000
936.367; 2610.950;    0.000;    0.000
936.540; 2646.950;    0.000;    0.000
936.712; 2683.950;    0.000;    0.000
936.885; 2691.950;    0.000;    0.000
937.057; 2681.950;    0.000;    0.000
937.229; 2698.950;    0.000;    0.000
937.402; 2792.950;    0.000;    0.000
937.574; 2791.950;    0.000;    0.000
937.746; 2991.950;    0.000;    0.000
937.919; 3166.950;    0.000;    0.000
938.091; 3334.950;    0.000;    0.000
938.263; 3679.950;    0.000;    0.000
938.435; 4299.950;    0.000;    0.000
938.608; 5587.950;    0.000;    0.000
938.780; 6456.950;    0.000;    0.000
938.952; 6494.950;    0.000;    0.000
939.124; 7077.950;    0.000;    0.000
939.296; 8077.950;    0.000;    0.000
939.468; 7877.950;    0.000;    0.000
939.640; 6293.950;    0.000;    0.000
939.812; 5248.950;    0.000;    0.000
939.984; 4592.950;    0.000;    0.000
940.156; 4188.950;    0.000;    0.000
940.328; 3840.950;    0.000;    0.000
940.500; 3846.950;    0.000;    0.000
940.672; 3651.950;    0.000;    0.000
940.843; 3357.950;    0.000;    0.000
941.015; 3135.950;    0.000;    0.000
941.187; 2965.950;    0.000;    0.000
941.359; 2784.950;    0.000;    0.000
941.531; 2643.950;    0.000;    0.000
941.702; 2584.950;    0.000;    0.000
941.874; 2515.950;    0.000;    0.000
942.046; 2382.950;    0.000;    0.000
942.217; 2427.950;    0.000;    0.000
942.389; 2267.950;    0.000;    0.000
942.560; 2273.950;    0.000;    0.000
942.732; 2239.950;    0.000;    0.000
942.904; 2192.950;    0.000;    0.000
943.075; 2211.950;    0.000;    0.000
943.247; 2209.950;    0.000;    0.000
943.418; 2194.950;    0.000;    0.000
943.589; 2175.950;    0.000;    0.000
943.761; 2095.950;    0.000;    0.000
943.932; 2047.950;    0.000;    0.000
944.104; 2006.950;    0.000;    0.000
944.275; 1988.950;    0.000;    0.000
944.446; 2061.950;    0.000;    0.000
944.617; 1919.950;    0.000;    0.000
944.789; 1971.950;    0.000;    0.000
944.960; 1976.950;    0.000;    0.000
945.131; 1947.950;    0.000;    0.000
945.302; 2042.950;    0.000;    0.000
945.473; 2043.950;    0.000;    0.000
945.645; 2085.950;    0.000;    0.000
945.816; 2119.950;    0.000;    0.000
945.987; 2325.950;    0.000;    0.000
946.158; 2350.950;    0.000;    0.000
946.329; 2337.950;    0.000;    0.000
946.500; 2166.950;    0.000;    0.000
946.671; 2069.950;    0.000;    0.000
946.842; 2036.950;    0.000;    0.000
947.013; 2072.950;    0.000;    0.000
947.183; 2036.950;    0.000;    0.000
947.354; 1950.950;    0.000;    0.000
947.525; 1968.950;    0.000;    0.000
947.696; 1991.950;    0.000;    0.000
947.867; 2035.950;    0.000;    0.000
948.037; 1961.950;    0.000;    0.000
948.208; 2064.950;    0.000;    0.000
948.379; 2107.950;    0.000;    0.000
948.550; 2037.950;    0.000;    0.000
948.720; 2059.950;    0.000;    0.000
948.891; 1966.950;    0.000;    0.000
949.061; 2027.950;    0.000;    0.000
949.232; 1905.950;    0.000;    0.000
949.403; 1944.950;    0.000;    0.000
949.573; 1951.950;    0.000;    0.000
949.744; 2028.950;    0.000;    0.000
949.914; 1933.950;    0.000;    0.000
950.085; 1992.950;    0.000;    0.000
950.255; 2009.950;    0.000;    0.000
950.425; 2017.950;    0.000;    0.000
950.596; 2067.950;    0.000;    0.000
950.766; 2148.950;    0.000;    0.000
950.936; 2115.950;    0.000;    0.000
951.107; 2044.950;    0.000;    0.000
951.277; 2054.950;    0.000;    0.000
951.447; 2033.950;    0.000;    0.000
951.617; 1995.950;    0.000;    0.000
951.788; 1899.950;    0.000;    0.000
951.958; 1953.950;    0.000;    0.000
952.128; 1842.950;    0.000;    0.000
952.298; 2018.950;    0.000;    0.000
952.468; 2001.950;    0.000;    0.000
952.638; 1967.950;    0.000;    0.000
952.808; 1984.950;    0.000;    0.000
952.978; 1908.950;    0.000;    0.000
953.148; 1884.950;    0.000;    0.000
953.318; 1890.950;    0.000;    0.000
953.488; 1955.950;    0.000;    0.000
953.658; 1899.950;    0.000;    0.000
953.828; 1913.950;    0.000;    0.000
953.998; 1883.950;    0.000;    0.000
954.167; 1874.950;    0.000;    0.000
954.337; 1941.950;    0.000;    0.000
954.507; 2207.950;    0.000;    0.000
954.677; 2148.950;    0.000;    0.000
954.846; 1889.950;    0.000;    0.000
955.016; 1888.950;    0.000;    0.000
955.186; 1900.950;    0.000;    0.000
955.355; 1817.950;    0.000;    0.000
955.525; 1859.950;    0.000;    0.000
955.695; 1906.950;    0.000;    0.000
955.864; 1887.950;    0.000;    0.000
956.034; 1855.950;    0.000;    0.000
956.203; 1806.950;    0.000;    0.000
956.373; 1815.950;    0.000;    0.000
956.542; 1920.950;    0.000;    0.000
956.711; 1867.950;    0.000;    0.000
956.881; 1821.950;    0.000;    0.000
957.050; 1900.950;    0.000;    0.000
957.220; 1905.950;    0.000;    0.000
957.389; 1877.950;    0.000;    0.000
957.558; 1829.950;    0.000;    0.000
957.727; 1850.950;    0.000;    0.000
957.897; 1803.950;    0.000;    0.000
958.066; 1838.950;    0.000;    0.000
958.235; 1786.950;    0.000;    0.000
958.404; 1776.950;    0.000;    0.000
958.573; 1870.950;    0.000;    0.000
958.743; 1777.950;    0.000;    0.000
958.912; 1842.950;    0.000;    0.000
959.081; 1806.950;    0.000;    0.000
959.250; 1737.950;    0.000;    0.000
959.419; 1768.950;    0.000;    0.000
959.588; 1864.950;    0.000;    0.000
959.757; 2058.950;    0.000;    0.000
959.926; 2270.950;    0.000;    0.000
960.094; 2194.950;    0.000;    0.000
960.263; 1905.950;    0.000;    0.000
960.432; 1799.950;    0.000;    0.000
960.601; 1780.950;    0.000;    0.000
960.770; 1762.950;    0.000;    0.000
960.939; 1832.950;    0.000;    0.000
961.107; 1782.950;    0.000;    0.000
961.276; 1739.950;    0.000;    0.000
961.445; 1853.950;    0.000;    0.000
961.613; 1772.950;    0.000;    0.000
961.782; 1797.950;    0.000;    0.000
961.951; 1846.950;    0.000;    0.000
962.119; 1833.950;    0.000;    0.000
962.288; 1926.950;    0.000;    0.000
962.456; 1869.950;    0.000;    0.000
962.625; 1820.950;    0.000;    0.000
962.793; 1782.950;    0.000;    0.000
962.962; 1858.950;    0.000;    0.000
963.130; 1752.950;    0.000;    0.000
963.298; 1852.950;    0.000;    0.000
963.467; 1945.950;    0.000;    0.000
963.635; 2920.950;    0.000;    0.000
963.803; 3840.950;    0.000;    0.000
963.972; 3381.950;    0.000;    0.000
964.140; 2119.950;    0.000;    0.000
964.308; 1836.950;    0.000;    0.000
964.477; 2021.950;    0.000;    0.000
964.645; 2193.950;    0.000;    0.000
964.813; 2204.950;    0.000;    0.000
964.981; 1915.950;    0.000;    0.000
965.149; 1915.950;    0.000;    0.000
965.317; 1944.950;    0.000;    0.000
965.485; 1848.950;    0.000;    0.000
965.653; 1901.950;    0.000;    0.000
965.821; 2007.950;    0.000;    0.000
965.989; 1993.950;    0.000;    0.000
966.157; 1941.950;    0.000;    0.000
966.325; 1911.950;    0.000;    0.000
966.493; 1810.950;    0.000;    0.000
966.661; 1757.950;    0.000;    0.000
966.829; 1770.950;    0.000;    0.000
966.996; 1740.950;    0.000;    0.000
967.164; 1857.950;    0.000;    0.000
967.332; 2446.950;    0.000;    0.000
967.500; 3222.950;    0.000;    0.000
967.667; 3042.950;    0.000;    0.000
967.835; 2033.950;    0.000;    0.000
968.003; 1830.950;    0.000;    0.000
968.170; 1750.950;    0.000;    0.000
968.338; 1708.950;    0.000;    0.000
968.505; 1782.950;    0.000;    0.000
968.673; 1924.950;    0.000;    0.000
968.841; 1952.950;    0.000;    0.000
969.008; 2006.950;    0.000;    0.000
969.175; 1821.950;    0.000;    0.000
969.343; 1824.950;    0.000;    0.000
969.510; 1749.950;    0.000;    0.000
969.678; 1759.950;    0.000;    0.000
969.845; 1798.950;    0.000;    0.000
970.012; 1798.950;    0.000;    0.000
970.180; 1829.950;    0.000;    0.000
970.347; 2242.950;    0.000;    0.000
970.514; 2655.950;    0.000;    0.000
970.681; 2552.950;    0.000;    0.000
970.849; 1866.950;    0.000;    0.000
971.016; 1774.950;    0.000;    0.000
971.183; 1744.950;    0.000;    0.000
971.350; 1769.950;    0.000;    0.000
971.517; 1757.950;    0.000;    0.000
971.684; 1842.950;    0.000;    0.000
971.851; 1850.950;    0.000;    0.000
972.018; 1931.950;    0.000;    0.000
972.185; 1746.950;    0.000;    0.000
972.352; 1808.950;    0.000;    0.000
972.519; 1830.950;    0.000;    0.000
972.686; 2206.950;    0.000;    0.000
972.853; 2391.950;    0.000;    0.000
973.020; 2082.950;    0.000;    0.000
973.186; 1833.950;    0.000;    0.000
973.353; 1752.950;    0.000;    0.000
973.520; 1736.950;    0.000;    0.000
973.687; 1801.950;    0.000;    0.000
973.853; 1804.950;    0.000;    0.000
974.020; 1778.950;    0.000;    0.000
974.187; 1975.950;    0.000;    0.000
974.353; 2307.950;    0.000;    0.000
974.520; 2154.950;    0.000;    0.000
974.687; 1855.950;    0.000;    0.000
974.853; 1750.950;    0.000;    0.000
975.020; 1813.950;    0.000;    0.000
975.186; 1661.950;    0.000;    0.000
975.353; 1800.950;    0.000;    0.000
975.519; 1749.950;    0.000;    0.000
975.685; 1772.950;    0.000;    0.000
975.852; 1730.950;    0.000;    0.000
976.018; 1780.950;    0.000;    0.000
976.184; 1699.950;    0.000;    0.000
976.351; 1734.950;    0.000;    0.000
976.517; 1813.950;    0.000;    0.000
976.683; 1842.950;    0.000;    0.000
976.849; 2013.950;    0.000;    0.000
977.016; 1997.950;    0.000;    0.000
977.182; 1920.950;    0.000;    0.000
977.348; 1762.950;    0.000;    0.000
977.514; 1722.950;    0.000;    0.000
977.680; 1796.950;    0.000;    0.000
977.846; 1784.950;    0.000;    0.000
978.012; 1813.950;    0.000;    0.000
978.178; 2254.950;    0.000;    0.000
978.344; 2402.950;    0.000;    0.000
978.510; 2231.950;    0.000;    0.000
978.676; 2133.950;    0.000;    0.000
978.842; 2136.950;    0.000;    0.000
979.008; 1836.950;    0.000;    0.000
979.174; 1786.950;    0.000;    0.000
979.340; 1795.950;    0.000;    0.000
979.505; 1808.950;    0.000;    0.000
979.671; 1767.950;    0.000;    0.000
979.837; 1801.950;    0.000;    0.000
980.003; 1814.950;    0.000;    0.000
980.168; 1811.950;    0.000;    0.000
980.334; 1711.950;    0.000;    0.000
980.499; 1849.950;    0.000;    0.000
980.665; 1846.950;    0.000;    0.000
980.831; 1792.950;    0.000;    0.000
980.996; 1749.950;    0.000;    0.000
981.162; 1869.950;    0.000;    0.000
981.327; 1778.950;    0.000;    0.000
981.493; 1864.950;    0.000;    0.000
981.658; 1785.950;    0.000;    0.000
981.823; 1812.950;    0.000;    0.000
981.989; 1880.950;    0.000;    0.000
982.154; 1908.950;    0.000;    0.000
982.319; 1853.950;    0.000;    0.000
982.485; 1952.950;    0.000;    0.000
982.650; 1913.950;    0.000;    0.000
982.815; 1781.950;    0.000;    0.000
982.980; 1897.950;    0.000;    0.000
983.146; 1950.950;    0.000;    0.000
983.311; 1919.950;    0.000;    0.000
983.476; 1832.950;    0.000;    0.000
983.641; 1752.950;    0.000;    0.000
983.806; 1850.950;    0.000;    0.000
983.971; 1828.950;    0.000;    0.000
984.136; 1801.950;    0.000;    0.000
984.301; 1683.950;    0.000;    0.000
984.466; 1789.950;    0.000;    0.000
984.631; 1746.950;    0.000;    0.000
984.796; 1757.950;    0.000;    0.000
984.961; 1776.950;    0.000;    0.000
985.126; 1739.950;    0.000;    0.000
985.291; 1662.950;    0.000;    0.000
985.455; 1700.950;    0.000;    0.000
985.620; 1770.950;    0.000;    0.000
985.785; 1759.950;    0.000;    0.000
985.950; 1643.950;    0.000;    0.000
986.114; 1778.950;    0.000;    0.000
986.279; 1819.950;    0.000;    0.000
986.444; 1902.950;    0.000;    0.000
986.608; 1895.950;    0.000;    0.000
986.773; 1821.950;    0.000;    0.000
986.937; 1928.950;    0.000;    0.000
987.102; 1915.950;    0.000;    0.000
987.266; 1860.950;    0.000;    0.000
987.431; 1879.950;    0.000;    0.000
987.595; 1794.950;    0.000;    0.000
987.760; 1815.950;    0.000;    0.000
987.924; 1747.950;    0.000;    0.000
988.088; 1751.950;    0.000;    0.000
988.253; 1757.950;    0.000;    0.000
988.417; 1688.950;    0.000;    0.000
988.581; 1695.950;    0.000;    0.000
988.746; 1719.950;    0.000;    0.000
988.910; 1665.950;    0.000;    0.000
989.074; 1690.950;    0.000;    0.000
989.238; 1667.950;    0.000;    0.000
989.402; 1683.950;    0.000;    0.000
989.566; 1585.950;    0.000;    0.000
989.731; 1570.950;    0.000;    0.000
989.895; 1622.950;    0.000;    0.000
990.059; 1579.950;    0.000;    0.000
990.223; 1607.950;    0.000;    0.000
990.387; 1628.950;    0.000;    0.000
990.551; 1576.950;    0.000;    0.000
990.714; 1582.950;    0.000;    0.000
990.878; 1567.950;    0.000;    0.000
991.042; 1461.950;    0.000;    0.000
991.206; 1599.950;    0.000;    0.000
991.370; 1545.950;    0.000;    0.000
991.534; 1542.950;    0.000;    0.000
991.697; 1483.950;    0.000;    0.000
991.861; 1528.950;    0.000;    0.000
992.025; 1513.950;    0.000;    0.000
992.188; 1486.950;    0.000;    0.000
992.352; 1524.950;    0.000;    0.000
992.516; 1563.950;    0.000;    0.000
992.679; 1555.950;    0.000;    0.000
992.843; 1550.950;    0.000;    0.000
993.006; 1520.950;    0.000;    0.000
993.170; 1529.950;    0.000;    0.000
993.333; 1503.950;    0.000;    0.000
993.497; 1471.950;    0.000;    0.000
993.660; 1468.950;    0.000;    0.000
993.824; 1455.950;    0.000;    0.000
993.987; 1508.950;    0.000;    0.000
994.150; 1461.950;    0.000;    0.000
994.314; 1483.950;    0.000;    0.000
994.477; 1525.950;    0.000;    0.000
994.640; 1435.950;    0.000;    0.000
994.803; 1487.950;    0.000;    0.000
994.967; 1480.950;    0.000;    0.000
995.130; 1529.950;    0.000;    0.000
995.293; 1470.950;    0.000;    0.000
995.456; 1467.950;    0.000;    0.000
995.619; 1489.950;    0.000;    0.000
995.782; 1523.950;    0.000;    0.000
995.945; 1442.950;    0.000;    0.000
996.108; 1416.950;    0.000;    0.000
996.271; 1411.950;    0.000;    0.000
996.434; 1412.950;    0.000;    0.000
996.597; 1381.950;    0.000;    0.000
996.760; 1388.950;    0.000;    0.000
996.923; 1407.950;    0.000;    0.000
997.086; 1393.950;    0.000;    0.000
997.248; 1511.950;    0.000;    0.000
997.411; 1442.950;    0.000;    0.000
997.574; 1409.950;    0.000;    0.000
997.737; 1395.950;    0.000;    0.000
997.899; 1410.950;    0.000;    0.000
998.062; 1423.950;    0.000;    0.000
998.225; 1368.950;    0.000;    0.000
998.387; 1462.950;    0.000;    0.000
998.550; 1407.950;    0.000;    0.000
998.712; 1388.950;    0.000;    0.000
998.875; 1347.950;    0.000;    0.000
999.037; 1405.950;    0.000;    0.000
999.200; 1338.950;    0.000;    0.000
999.362; 1339.950;    0.000;    0.000
999.525; 1391.950;    0.000;    0.000
999.687; 1355.950;    0.000;    0.000
999.849; 1414.950;    0.000;    0.000
1000.012; 1372.950;    0.000;    0.000
1000.174; 1419.950;    0.000;    0.000
1000.336; 1369.950;    0.000;    0.000
1000.499; 1457.950;    0.000;    0.000
1000.661; 1342.950;    0.000;    0.000
1000.823; 1365.950;    0.000;    0.000
1000.985; 1375.950;    0.000;    0.000
1001.147; 1386.950;    0.000;    0.000
1001.309; 1346.950;    0.000;    0.000
1001.471; 1382.950;    0.000;    0.000
1001.633; 1352.950;    0.000;    0.000
1001.796; 1329.950;    0.000;    0.000
1001.958; 1326.950;    0.000;    0.000
1002.119; 1326.950;    0.000;    0.000
1002.281; 1354.950;    0.000;    0.000
1002.443; 1359.950;    0.000;    0.000
1002.605; 1384.950;    0.000;    0.000
1002.767; 1296.950;    0.000;    0.000
1002.929; 1290.950;    0.000;    0.000
1003.091; 1304.950;    0.000;    0.000
1003.252; 1415.950;    0.000;    0.000
1003.414; 1379.950;    0.000;    0.000
1003.576; 1369.950;    0.000;    0.000
1003.738; 1278.950;    0.000;    0.000
1003.899; 1357.950;    0.000;    0.000
1004.061; 1439.950;    0.000;    0.000
1004.222; 1355.950;    0.000;    0.000
1004.384; 1306.950;    0.000;    0.000
1004.546; 1336.950;    0.000;    0.000
1004.707; 1422.950;    0.000;    0.000
1004.869; 1417.950;    0.000;    0.000
1005.030; 1399.950;    0.000;    0.000
1005.191; 1432.950;    0.000;    0.000
1005.353; 1361.950;    0.000;    0.000
1005.514; 1350.950;    0.000;    0.000
1005.675; 1440.950;    0.000;    0.000
1005.837; 1469.950;    0.000;    0.000
1005.998; 1415.950;    0.000;    0.000
1006.159; 1364.950;    0.000;    0.000
1006.321; 1336.950;    0.000;    0.000
1006.482; 1395.950;    0.000;    0.000
1006.643; 1406.950;    0.000;    0.000
1006.804; 1369.950;    0.000;    0.000
1006.965; 1327.950;    0.000;    0.000
1007.126; 1455.950;    0.000;    0.000
1007.287; 1411.950;    0.000;    0.000
1007.448; 1396.950;    0.000;    0.000
1007.609; 1508.950;    0.000;    0.000
1007.770; 1515.950;    0.000;    0.000
1007.931; 1445.950;    0.000;    0.000
1008.092; 1469.950;    0.000;    0.000
1008.253; 1475.950;    0.000;    0.000
1008.414; 1437.950;    0.000;    0.000
1008.575; 1469.950;    0.000;    0.000
1008.736; 1492.950;    0.000;    0.000
1008.896; 1570.950;    0.000;    0.000
1009.057; 1595.950;    0.000;    0.000
1009.218; 1602.950;    0.000;    0.000
1009.379; 1678.950;    0.000;    0.000
1009.539; 1591.950;    0.000;    0.000
1009.700; 1678.950;    0.000;    0.000
1009.860; 1743.950;    0.000;    0.000
1010.021; 1802.950;    0.000;    0.000
1010.182; 1912.950;    0.000;    0.000
1010.342; 1979.950;    0.000;    0.000
1010.503; 2058.950;    0.000;    0.000
1010.663; 2299.950;    0.000;    0.000
1010.823; 2420.950;    0.000;    0.000
1010.984; 2721.950;    0.000;    0.000
1011.144; 2885.950;    0.000;    0.000
1011.305; 3222.950;    0.000;    0.000
1011.465; 3371.950;    0.000;    0.000
1011.625; 3483.950;    0.000;    0.000
1011.785; 3430.950;    0.000;    0.000
1011.946; 3266.950;    0.000;    0.000
1012.106; 3066.950;    0.000;    0.000
1012.266; 3037.950;    0.000;    0.000
1012.426; 2897.950;    0.000;    0.000
1012.586; 2784.950;    0.000;    0.000
1012.746; 2652.950;    0.000;    0.000
1012.906; 2670.950;    0.000;    0.000
1013.066; 2602.950;    0.000;    0.000
1013.226; 2526.950;    0.000;    0.000
1013.386; 2455.950;    0.000;    0.000
1013.546; 2359.950;    0.000;    0.000
1013.706; 2264.950;    0.000;    0.000
1013.866; 2182.950;    0.000;    0.000
1014.026; 2166.950;    0.000;    0.000
1014.186; 2097.950;    0.000;    0.000
1014.346; 2133.950;    0.000;    0.000
1014.505; 2133.950;    0.000;    0.000
1014.665; 1976.950;    0.000;    0.000
1014.825; 1956.950;    0.000;    0.000
1014.985; 1952.950;    0.000;    0.000
1015.144; 1936.950;    0.000;    0.000
1015.304; 1934.950;    0.000;    0.000
1015.464; 1863.950;    0.000;    0.000
1015.623; 1823.950;    0.000;    0.000
1015.783; 1797.950;    0.000;    0.000
1015.942; 1753.950;    0.000;    0.000
1016.102; 1772.950;    0.000;    0.000
1016.261; 1739.950;    0.000;    0.000
1016.420; 1685.950;    0.000;    0.000
1016.580; 1724.950;    0.000;    0.000
1016.739; 1712.950;    0.000;    0.000
1016.899; 1699.950;    0.000;    0.000
1017.058; 1643.950;    0.000;    0.000
1017.217; 1644.950;    0.000;    0.000
1017.376; 1575.950;    0.000;    0.000
1017.536; 1543.950;    0.000;    0.000
1017.695; 1483.950;    0.000;    0.000
1017.854; 1593.950;    0.000;    0.000
1018.013; 1469.950;    0.000;    0.000
1018.172; 1447.950;    0.000;    0.000
1018.331; 1455.950;    0.000;    0.000
1018.490; 1447.950;    0.000;    0.000
1018.649; 1454.950;    0.000;    0.000
1018.808; 1428.950;    0.000;    0.000
1018.967; 1449.950;    0.000;    0.000
1019.126; 1453.950;    0.000;    0.000
1019.285; 1381.950;    0.000;    0.000
1019.444; 1368.950;    0.000;    0.000
1019.603; 1345.950;    0.000;    0.000
1019.762; 1408.950;    0.000;    0.000
1019.921; 1398.950;    0.000;    0.000
1020.079; 1334.950;    0.000;    0.000
1020.238; 1293.950;    0.000;    0.000
1020.397; 1336.950;    0.000;    0.000
1020.555; 1313.950;    0.000;    0.000
1020.714; 1354.950;    0.000;    0.000
1020.873; 1302.950;    0.000;    0.000
1021.031; 1294.950;    0.000;    0.000
1021.190; 1305.950;    0.000;    0.000
1021.348; 1276.950;    0.000;    0.000
1021.507; 1204.950;    0.000;    0.000
1021.665; 1314.950;    0.000;    0.000
1021.824; 1280.950;    0.000;    0.000
1021.982; 1232.950;    0.000;    0.000
1022.141; 1247.950;    0.000;    0.000
1022.299; 1197.950;    0.000;    0.000
1022.457; 1228.950;    0.000;    0.000
1022.616; 1221.950;    0.000;    0.000
1022.774; 1151.950;    0.000;    0.000
1022.932; 1207.950;    0.000;    0.000
1023.090; 1246.950;    0.000;    0.000
1023.249; 1199.950;    0.000;    0.000
1023.407; 1232.950;    0.000;    0.000
1023.565; 1165.950;    0.000;    0.000
1023.723; 1143.950;    0.000;    0.000
1023.881; 1156.950;    0.000;    0.000
1024.039; 1193.950;    0.000;    0.000
1024.197; 1205.950;    0.000;    0.000
1024.355; 1144.950;    0.000;    0.000
1024.513; 1205.950;    0.000;    0.000
1024.671; 1173.950;    0.000;    0.000
1024.829; 1180.950;    0.000;    0.000
1024.987; 1136.950;    0.000;    0.000
1025.145; 1137.950;    0.000;    0.000
1025.302; 1158.950;    0.000;    0.000
1025.460; 1086.950;    0.000;    0.000
1025.618; 1167.950;    0.000;    0.000
1025.776; 1091.950;    0.000;    0.000
1025.933; 1094.950;    0.000;    0.000
1026.091; 1100.950;    0.000;    0.000
1026.249; 1156.950;    0.000;    0.000
1026.406; 1165.950;    0.000;    0.000
1026.564; 1129.950;    0.000;    0.000
1026.721; 1078.950;    0.000;    0.000
1026.879; 1109.950;    0.000;    0.000
1027.036; 1113.950;    0.000;    0.000
1027.194; 1106.950;    0.000;    0.000
1027.351; 1154.950;    0.000;    0.000
1027.509; 1198.950;    0.000;    0.000
1027.666; 1176.950;    0.000;    0.000
1027.823; 1082.950;    0.000;    0.000
1027.981; 1126.950;    0.000;    0.000
1028.138; 1130.950;    0.000;    0.000
1028.295; 1102.950;    0.000;    0.000
1028.452; 1111.950;    0.000;    0.000
1028.609; 1098.950;    0.000;    0.000
1028.767; 1080.950;    0.000;    0.000
1028.924; 1176.950;    0.000;    0.000
1029.081; 1084.950;    0.000;    0.000
1029.238; 1075.950;    0.000;    0.000
1029.395; 1118.950;    0.000;    0.000
1029.552; 1093.950;    0.000;    0.000
1029.709; 1101.950;    0.000;    0.000
1029.866; 1069.950;    0.000;    0.000
1030.023; 1071.950;    0.000;    0.000
1030.180; 1112.950;    0.000;    0.000
1030.337; 1086.950;    0.000;    0.000
1030.494; 1026.950;    0.000;    0.000
1030.650; 1098.950;    0.000;    0.000
1030.807; 1061.950;    0.000;    0.000
1030.964; 1077.950;    0.000;    0.000
1031.121; 1100.950;    0.000;    0.000
1031.277; 1074.950;    0.000;    0.000
1031.434; 1062.950;    0.000;    0.000
1031.591; 1120.950;    0.000;    0.000
1031.747; 1094.950;    0.000;    0.000
1031.904; 1067.950;    0.000;    0.000
1032.060; 1074.950;    0.000;    0.000
1032.217; 1028.950;    0.000;    0.000
1032.373; 1033.950;    0.000;    0.000
1032.530; 1064.950;    0.000;    0.000
1032.686; 1089.950;    0.000;    0.000
1032.843; 1060.950;    0.000;    0.000
1032.999; 1111.950;    0.000;    0.000
1033.155; 1056.950;    0.000;    0.000
1033.312; 1049.950;    0.000;    0.000
1033.468; 1060.950;    0.000;    0.000
1033.624; 1099.950;    0.000;    0.000
1033.780; 1061.950;    0.000;    0.000
1033.937; 1043.950;    0.000;    0.000
1034.093; 1044.950;    0.000;    0.000
1034.249; 1025.950;    0.000;    0.000
1034.405; 1057.950;    0.000;    0.000
1034.561; 1048.950;    0.000;    0.000
1034.717; 1097.950;    0.000;    0.000
1034.873; 1081.950;    0.000;    0.000
1035.029; 1082.950;    0.000;    0.000
1035.185; 1086.950;    0.000;    0.000
1035.341; 1059.950;    0.000;    0.000
1035.497; 1116.950;    0.000;    0.000
1035.653; 1048.950;    0.000;    0.000
1035.809; 1072.950;    0.000;    0.000
1035.964; 1116.950;    0.000;    0.000
1036.120; 1063.950;    0.000;    0.000
1036.276; 1107.950;    0.000;    0.000
1036.432; 1021.950;    0.000;    0.000
1036.587; 1111.950;    0.000;    0.000
1036.743; 1131.950;    0.000;    0.000
1036.899; 1065.950;    0.000;    0.000
1037.054; 1029.950;    0.000;    0.000
1037.210; 1130.950;    0.000;    0.000
1037.365; 1157.950;    0.000;    0.000
1037.521; 1153.950;    0.000;    0.000
1037.676; 1106.950;    0.000;    0.000
1037.832; 1108.950;    0.000;    0.000
1037.987; 1114.950;    0.000;    0.000
1038.143; 1030.950;    0.000;    0.000
1038.298; 1094.950;    0.000;    0.000
1038.453; 1120.950;    0.000;    0.000
1038.609; 1193.950;    0.000;    0.000
1038.764; 1148.950;    0.000;    0.000
1038.919; 1104.950;    0.000;    0.000
1039.074; 1100.950;    0.000;    0.000
1039.229; 1121.950;    0.000;    0.000
1039.385; 1218.950;    0.000;    0.000
1039.540; 1113.950;    0.000;    0.000
1039.695; 1265.950;    0.000;    0.000
1039.850; 1199.950;    0.000;    0.000
1040.005; 1170.950;    0.000;    0.000
1040.160; 1210.950;    0.000;    0.000
1040.315; 1198.950;    0.000;    0.000
1040.470; 1116.950;    0.000;    0.000
1040.625; 1143.950;    0.000;    0.000
1040.780; 1138.950;    0.000;    0.000
1040.935; 1134.950;    0.000;    0.000
1041.089; 1166.950;    0.000;    0.000
1041.244; 1143.950;    0.000;    0.000
1041.399; 1201.950;    0.000;    0.000
1041.554; 1270.950;    0.000;    0.000
1041.708; 1272.950;    0.000;    0.000
1041.863; 1260.950;    0.000;    0.000
1042.018; 1265.950;    0.000;    0.000
1042.172; 1220.950;    0.000;    0.000
1042.327; 1246.950;    0.000;    0.000
1042.481; 1199.950;    0.000;    0.000
1042.636; 1227.950;    0.000;    0.000
1042.791; 1280.950;    0.000;    0.000
1042.945; 1379.950;    0.000;    0.000
1043.099; 1578.950;    0.000;    0.000
1043.254; 1459.950;    0.000;    0.000
1043.408; 1545.950;    0.000;    0.000
1043.563; 1553.950;    0.000;    0.000
1043.717; 1547.950;    0.000;    0.000
1043.871; 1416.950;    0.000;    0.000
1044.025; 1455.950;    0.000;    0.000
1044.180; 1462.950;    0.000;    0.000
1044.334; 1408.950;    0.000;    0.000
1044.488; 1515.950;    0.000;    0.000
1044.642; 1471.950;    0.000;    0.000
1044.796; 1497.950;    0.000;    0.000
1044.950; 1578.950;    0.000;    0.000
1045.104; 1665.950;    0.000;    0.000
1045.258; 1647.950;    0.000;    0.000
1045.412; 1729.950;    0.000;    0.000
1045.566; 1610.950;    0.000;    0.000
1045.720; 1488.950;    0.000;    0.000
1045.874; 1484.950;    0.000;    0.000
1046.028; 1481.950;    0.000;    0.000
1046.182; 1460.950;    0.000;    0.000
1046.336; 1474.950;    0.000;    0.000
1046.489; 1527.950;    0.000;    0.000
1046.643; 1521.950;    0.000;    0.000
1046.797; 1504.950;    0.000;    0.000
1046.951; 1569.950;    0.000;    0.000
1047.104; 1698.950;    0.000;    0.000
1047.258; 1643.950;    0.000;    0.000
1047.411; 1676.950;    0.000;    0.000
1047.565; 1723.950;    0.000;    0.000
1047.719; 1686.950;    0.000;    0.000
1047.872; 1570.950;    0.000;    0.000
1048.026; 1523.950;    0.000;    0.000
1048.179; 1587.950;    0.000;    0.000
1048.332; 1539.950;    0.000;    0.000
1048.486; 1580.950;    0.000;    0.000
1048.639; 1484.950;    0.000;    0.000
1048.792; 1581.950;    0.000;    0.000
1048.946; 1605.950;    0.000;    0.000
1049.099; 1649.950;    0.000;    0.000
1049.252; 1803.950;    0.000;    0.000
1049.406; 1781.950;    0.000;    0.000
1049.559; 1894.950;    0.000;    0.000
1049.712; 1940.950;    0.000;    0.000
1049.865; 1984.950;    0.000;    0.000
1050.018; 1963.950;    0.000;    0.000
1050.171; 1884.950;    0.000;    0.000
1050.324; 1892.950;    0.000;    0.000
1050.477; 1853.950;    0.000;    0.000
1050.630; 1905.950;    0.000;    0.000
1050.783; 1931.950;    0.000;    0.000
1050.936; 1907.950;    0.000;    0.000
1051.089; 1887.950;    0.000;    0.000
1051.242; 1932.950;    0.000;    0.000
1051.394; 2042.950;    0.000;    0.000
1051.547; 2103.950;    0.000;    0.000
1051.700; 2099.950;    0.000;    0.000
1051.853; 2005.950;    0.000;    0.000
1052.005; 2081.950;    0.000;    0.000
1052.158; 2264.950;    0.000;    0.000
1052.311; 2395.950;    0.000;    0.000
1052.463; 2379.950;    0.000;    0.000
1052.616; 2244.950;    0.000;    0.000
1052.768; 2230.950;    0.000;    0.000
1052.921; 2105.950;    0.000;    0.000
1053.073; 2065.950;    0.000;    0.000
1053.226; 2287.950;    0.000;    0.000
1053.378; 2571.950;    0.000;    0.000
1053.531; 2674.950;    0.000;    0.000
1053.683; 2594.950;    0.000;    0.000
1053.835; 2368.950;    0.000;    0.000
1053.988; 1959.950;    0.000;    0.000
1054.140;  545.950;    0.000;    0.000
1054.292;  372.950;    0.000;    0.000
1054.444;  308.950;    0.000;    0.000
1054.596;  301.950;    0.000;    0.000
1054.749;  303.950;    0.000;    0.000
1054.901;  314.950;    0.000;    0.000
1055.053;  277.950;    0.000;    0.000
1055.205;  297.950;    0.000;    0.000
1055.357;  328.950;    0.000;    0.000
1055.509;  297.950;    0.000;    0.000
1055.661;  332.950;    0.000;    0.000
1055.813;  328.950;    0.000;    0.000
1055.965;  326.950;    0.000;    0.000
1056.116;  307.950;    0.000;    0.000
1056.268;  320.950;    0.000;    0.000
1056.420;  319.950;    0.000;    0.000

