
Integration time [ms]:   1.000
Averaging Nr. [scans]: 1
Smoothing Nr. [pixels]: 0
Data measured with spectrometer [name]: UV1
Wave   ;Sample   ;Dark     ;Reference
[nm]   ;[counts] ;[counts] ;[counts] 

236.381;  183.650;    0.000;    0.000
236.451;  195.650;    0.000;    0.000
236.520;  180.650;    0.000;    0.000
236.590;  205.650;    0.000;    0.000
236.660;  191.650;    0.000;    0.000
236.730;  179.650;    0.000;    0.000
236.799;  199.650;    0.000;    0.000
236.869;  176.650;    0.000;    0.000
236.939;  188.650;    0.000;    0.000
237.009;  219.650;    0.000;    0.000
237.078;  199.650;    0.000;    0.000
237.148;  131.650;    0.000;    0.000
237.218;  194.650;    0.000;    0.000
237.287;  164.650;    0.000;    0.000
237.357;  195.650;    0.000;    0.000
237.427;  187.650;    0.000;    0.000
237.496; 1671.650;    0.000;    0.000
237.566; 1613.650;    0.000;    0.000
237.636; 1536.650;    0.000;    0.000
237.705; 1585.650;    0.000;    0.000
237.775; 1547.650;    0.000;    0.000
237.845; 1559.650;    0.000;    0.000
237.914; 1612.650;    0.000;    0.000
237.984; 1650.650;    0.000;    0.000
238.054; 1560.650;    0.000;    0.000
238.123; 1625.650;    0.000;    0.000
238.193; 1575.650;    0.000;    0.000
238.263; 1612.650;    0.000;    0.000
238.332; 1481.650;    0.000;    0.000
238.402; 1644.650;    0.000;    0.000
238.471; 1564.650;    0.000;    0.000
238.541; 1607.650;    0.000;    0.000
238.611; 1604.650;    0.000;    0.000
238.680; 1592.650;    0.000;    0.000
238.750; 1562.650;    0.000;    0.000
238.819; 1556.650;    0.000;    0.000
238.889; 1595.650;    0.000;    0.000
238.958; 1606.650;    0.000;    0.000
239.028; 1560.650;    0.000;    0.000
239.097; 1525.650;    0.000;    0.000
239.167; 1536.650;    0.000;    0.000
239.237; 1569.650;    0.000;    0.000
239.306; 1461.650;    0.000;    0.000
239.376; 1464.650;    0.000;    0.000
239.445; 1542.650;    0.000;    0.000
239.515; 1562.650;    0.000;    0.000
239.584; 1488.650;    0.000;    0.000
239.654; 1470.650;    0.000;    0.000
239.723; 1526.650;    0.000;    0.000
239.793; 1495.650;    0.000;    0.000
239.862; 1467.650;    0.000;    0.000
239.932; 1484.650;    0.000;    0.000
240.001; 1523.650;    0.000;    0.000
240.070; 1477.650;    0.000;    0.000
240.140; 1491.650;    0.000;    0.000
240.209; 1463.650;    0.000;    0.000
240.279; 1410.650;    0.000;    0.000
240.348; 1463.650;    0.000;    0.000
240.418; 1460.650;    0.000;    0.000
240.487; 1483.650;    0.000;    0.000
240.556; 1471.650;    0.000;    0.000
240.626; 1481.650;    0.000;    0.000
240.695; 1477.650;    0.000;    0.000
240.765; 1514.650;    0.000;    0.000
240.834; 1447.650;    0.000;    0.000
240.903; 1495.650;    0.000;    0.000
240.973; 1448.650;    0.000;    0.000
241.042; 1480.650;    0.000;    0.000
241.112; 1491.650;    0.000;    0.000
241.181; 1451.650;    0.000;    0.000
241.250; 1511.650;    0.000;    0.000
241.320; 1484.650;    0.000;    0.000
241.389; 1418.650;    0.000;    0.000
241.458; 1405.650;    0.000;    0.000
241.528; 1427.650;    0.000;    0.000
241.597; 1369.650;    0.000;    0.000
241.666; 1336.650;    0.000;    0.000
241.736; 1391.650;    0.000;    0.000
241.805; 1368.650;    0.000;    0.000
241.874; 1371.650;    0.000;    0.000
241.943; 1384.650;    0.000;    0.000
242.013; 1310.650;    0.000;    0.000
242.082; 1283.650;    0.000;    0.000
242.151; 1306.650;    0.000;    0.000
242.221; 1325.650;    0.000;    0.000
242.290; 1330.650;    0.000;    0.000
242.359; 1269.650;    0.000;    0.000
242.428; 1353.650;    0.000;    0.000
242.498; 1261.650;    0.000;    0.000
242.567; 1384.650;    0.000;    0.000
242.636; 1327.650;    0.000;    0.000
242.705; 1292.650;    0.000;    0.000
242.774; 1300.650;    0.000;    0.000
242.844; 1292.650;    0.000;    0.000
242.913; 1302.650;    0.000;    0.000
242.982; 1285.650;    0.000;    0.000
243.051; 1276.650;    0.000;    0.000
243.120; 1316.650;    0.000;    0.000
243.190; 1186.650;    0.000;    0.000
243.259; 1343.650;    0.000;    0.000
243.328; 1330.650;    0.000;    0.000
243.397; 1344.650;    0.000;    0.000
243.466; 1308.650;    0.000;    0.000
243.535; 1233.650;    0.000;    0.000
243.605; 1235.650;    0.000;    0.000
243.674; 1269.650;    0.000;    0.000
243.743; 1284.650;    0.000;    0.000
243.812; 1238.650;    0.000;    0.000
243.881; 1248.650;    0.000;    0.000
243.950; 1267.650;    0.000;    0.000
244.019; 1284.650;    0.000;    0.000
244.088; 1230.650;    0.000;    0.000
244.158; 1233.650;    0.000;    0.000
244.227; 1206.650;    0.000;    0.000
244.296; 1155.650;    0.000;    0.000
244.365; 1288.650;    0.000;    0.000
244.434; 1177.650;    0.000;    0.000
244.503; 1254.650;    0.000;    0.000
244.572; 1115.650;    0.000;    0.000
244.641; 1221.650;    0.000;    0.000
244.710; 1232.650;    0.000;    0.000
244.779; 1220.650;    0.000;    0.000
244.848; 1225.650;    0.000;    0.000
244.917; 1181.650;    0.000;    0.000
244.986; 1240.650;    0.000;    0.000
245.055; 1236.650;    0.000;    0.000
245.124; 1188.650;    0.000;    0.000
245.193; 1142.650;    0.000;    0.000
245.262; 1182.650;    0.000;    0.000
245.331; 1142.650;    0.000;    0.000
245.400; 1134.650;    0.000;    0.000
245.469; 1264.650;    0.000;    0.000
245.538; 1157.650;    0.000;    0.000
245.607; 1221.650;    0.000;    0.000
245.676; 1201.650;    0.000;    0.000
245.745; 1173.650;    0.000;    0.000
245.814; 1174.650;    0.000;    0.000
245.883; 1206.650;    0.000;    0.000
245.952; 1160.650;    0.000;    0.000
246.021; 1162.650;    0.000;    0.000
246.090; 1228.650;    0.000;    0.000
246.159; 1107.650;    0.000;    0.000
246.227; 1093.650;    0.000;    0.000
246.296; 1136.650;    0.000;    0.000
246.365; 1183.650;    0.000;    0.000
246.434; 1182.650;    0.000;    0.000
246.503; 1075.650;    0.000;    0.000
246.572; 1126.650;    0.000;    0.000
246.641; 1130.650;    0.000;    0.000
246.710; 1077.650;    0.000;    0.000
246.779; 1129.650;    0.000;    0.000
246.847; 1097.650;    0.000;    0.000
246.916; 1107.650;    0.000;    0.000
246.985; 1025.650;    0.000;    0.000
247.054; 1100.650;    0.000;    0.000
247.123; 1028.650;    0.000;    0.000
247.192; 1050.650;    0.000;    0.000
247.260; 1063.650;    0.000;    0.000
247.329; 1112.650;    0.000;    0.000
247.398; 1048.650;    0.000;    0.000
247.467; 1062.650;    0.000;    0.000
247.536; 1083.650;    0.000;    0.000
247.604; 1049.650;    0.000;    0.000
247.673;  980.650;    0.000;    0.000
247.742; 1028.650;    0.000;    0.000
247.811; 1071.650;    0.000;    0.000
247.879; 1023.650;    0.000;    0.000
247.948; 1064.650;    0.000;    0.000
248.017;  992.650;    0.000;    0.000
248.086; 1042.650;    0.000;    0.000
248.154; 1047.650;    0.000;    0.000
248.223;  997.650;    0.000;    0.000
248.292; 1052.650;    0.000;    0.000
248.361; 1036.650;    0.000;    0.000
248.429; 1049.650;    0.000;    0.000
248.498;  991.650;    0.000;    0.000
248.567; 1030.650;    0.000;    0.000
248.635; 1028.650;    0.000;    0.000
248.704; 1044.650;    0.000;    0.000
248.773;  988.650;    0.000;    0.000
248.841; 1059.650;    0.000;    0.000
248.910; 1013.650;    0.000;    0.000
248.979; 1010.650;    0.000;    0.000
249.047; 1004.650;    0.000;    0.000
249.116; 1010.650;    0.000;    0.000
249.185; 1005.650;    0.000;    0.000
249.253;  996.650;    0.000;    0.000
249.322; 1005.650;    0.000;    0.000
249.390;  964.650;    0.000;    0.000
249.459; 1015.650;    0.000;    0.000
249.528;  936.650;    0.000;    0.000
249.596;  930.650;    0.000;    0.000
249.665;  904.650;    0.000;    0.000
249.733;  894.650;    0.000;    0.000
249.802;  921.650;    0.000;    0.000
249.871;  956.650;    0.000;    0.000
249.939;  883.650;    0.000;    0.000
250.008;  952.650;    0.000;    0.000
250.076;  957.650;    0.000;    0.000
250.145;  974.650;    0.000;    0.000
250.213;  916.650;    0.000;    0.000
250.282;  905.650;    0.000;    0.000
250.350;  876.650;    0.000;    0.000
250.419;  878.650;    0.000;    0.000
250.487;  913.650;    0.000;    0.000
250.556;  904.650;    0.000;    0.000
250.624;  920.650;    0.000;    0.000
250.693;  840.650;    0.000;    0.000
250.761;  927.650;    0.000;    0.000
250.830;  900.650;    0.000;    0.000
250.898;  914.650;    0.000;    0.000
250.967;  880.650;    0.000;    0.000
251.035;  878.650;    0.000;    0.000
251.104;  877.650;    0.000;    0.000
251.172;  864.650;    0.000;    0.000
251.241;  869.650;    0.000;    0.000
251.309;  864.650;    0.000;    0.000
251.378;  903.650;    0.000;    0.000
251.446;  806.650;    0.000;    0.000
251.514;  850.650;    0.000;    0.000
251.583;  818.650;    0.000;    0.000
251.651;  830.650;    0.000;    0.000
251.720;  811.650;    0.000;    0.000
251.788;  831.650;    0.000;    0.000
251.856;  773.650;    0.000;    0.000
251.925;  821.650;    0.000;    0.000
251.993;  827.650;    0.000;    0.000
252.062;  843.650;    0.000;    0.000
252.130;  869.650;    0.000;    0.000
252.198;  806.650;    0.000;    0.000
252.267;  828.650;    0.000;    0.000
252.335;  767.650;    0.000;    0.000
252.403;  813.650;    0.000;    0.000
252.472;  776.650;    0.000;    0.000
252.540;  821.650;    0.000;    0.000
252.608;  780.650;    0.000;    0.000
252.677;  795.650;    0.000;    0.000
252.745;  840.650;    0.000;    0.000
252.813;  786.650;    0.000;    0.000
252.881;  764.650;    0.000;    0.000
252.950;  800.650;    0.000;    0.000
253.018;  789.650;    0.000;    0.000
253.086;  734.650;    0.000;    0.000
253.155;  811.650;    0.000;    0.000
253.223;  726.650;    0.000;    0.000
253.291;  786.650;    0.000;    0.000
253.359;  748.650;    0.000;    0.000
253.428;  805.650;    0.000;    0.000
253.496;  747.650;    0.000;    0.000
253.564;  813.650;    0.000;    0.000
253.632;  795.650;    0.000;    0.000
253.700;  802.650;    0.000;    0.000
253.769;  724.650;    0.000;    0.000
253.837;  821.650;    0.000;    0.000
253.905;  744.650;    0.000;    0.000
253.973;  787.650;    0.000;    0.000
254.041;  785.650;    0.000;    0.000
254.110;  738.650;    0.000;    0.000
254.178;  748.650;    0.000;    0.000
254.246;  750.650;    0.000;    0.000
254.314;  709.650;    0.000;    0.000
254.382;  672.650;    0.000;    0.000
254.450;  711.650;    0.000;    0.000
254.518;  780.650;    0.000;    0.000
254.587;  681.650;    0.000;    0.000
254.655;  748.650;    0.000;    0.000
254.723;  696.650;    0.000;    0.000
254.791;  719.650;    0.000;    0.000
254.859;  716.650;    0.000;    0.000
254.927;  704.650;    0.000;    0.000
254.995;  694.650;    0.000;    0.000
255.063;  718.650;    0.000;    0.000
255.131;  693.650;    0.000;    0.000
255.199;  674.650;    0.000;    0.000
255.267;  662.650;    0.000;    0.000
255.336;  697.650;    0.000;    0.000
255.404;  677.650;    0.000;    0.000
255.472;  688.650;    0.000;    0.000
255.540;  651.650;    0.000;    0.000
255.608;  669.650;    0.000;    0.000
255.676;  688.650;    0.000;    0.000
255.744;  716.650;    0.000;    0.000
255.812;  640.650;    0.000;    0.000
255.880;  715.650;    0.000;    0.000
255.948;  674.650;    0.000;    0.000
256.016;  730.650;    0.000;    0.000
256.084;  730.650;    0.000;    0.000
256.152;  800.650;    0.000;    0.000
256.220;  815.650;    0.000;    0.000
256.288;  893.650;    0.000;    0.000
256.356;  947.650;    0.000;    0.000
256.424;  939.650;    0.000;    0.000
256.491;  938.650;    0.000;    0.000
256.559;  933.650;    0.000;    0.000
256.627;  898.650;    0.000;    0.000
256.695;  843.650;    0.000;    0.000
256.763;  911.650;    0.000;    0.000
256.831;  771.650;    0.000;    0.000
256.899;  804.650;    0.000;    0.000
256.967;  741.650;    0.000;    0.000
257.035;  845.650;    0.000;    0.000
257.103;  915.650;    0.000;    0.000
257.171;  747.650;    0.000;    0.000
257.238;  744.650;    0.000;    0.000
257.306;  730.650;    0.000;    0.000
257.374;  764.650;    0.000;    0.000
257.442;  769.650;    0.000;    0.000
257.510;  849.650;    0.000;    0.000
257.578;  802.650;    0.000;    0.000
257.646;  777.650;    0.000;    0.000
257.713;  754.650;    0.000;    0.000
257.781;  772.650;    0.000;    0.000
257.849;  808.650;    0.000;    0.000
257.917;  843.650;    0.000;    0.000
257.985;  828.650;    0.000;    0.000
258.052;  801.650;    0.000;    0.000
258.120;  810.650;    0.000;    0.000
258.188;  842.650;    0.000;    0.000
258.256;  721.650;    0.000;    0.000
258.324;  746.650;    0.000;    0.000
258.391;  692.650;    0.000;    0.000
258.459;  689.650;    0.000;    0.000
258.527;  661.650;    0.000;    0.000
258.595;  676.650;    0.000;    0.000
258.662;  653.650;    0.000;    0.000
258.730;  710.650;    0.000;    0.000
258.798;  634.650;    0.000;    0.000
258.865;  776.650;    0.000;    0.000
258.933;  722.650;    0.000;    0.000
259.001;  752.650;    0.000;    0.000
259.069;  713.650;    0.000;    0.000
259.136;  811.650;    0.000;    0.000
259.204;  868.650;    0.000;    0.000
259.272;  813.650;    0.000;    0.000
259.339;  806.650;    0.000;    0.000
259.407;  790.650;    0.000;    0.000
259.475;  755.650;    0.000;    0.000
259.542;  818.650;    0.000;    0.000
259.610;  818.650;    0.000;    0.000
259.677;  829.650;    0.000;    0.000
259.745;  775.650;    0.000;    0.000
259.813;  787.650;    0.000;    0.000
259.880;  909.650;    0.000;    0.000
259.948;  939.650;    0.000;    0.000
260.016;  936.650;    0.000;    0.000
260.083;  875.650;    0.000;    0.000
260.151;  791.650;    0.000;    0.000
260.218;  804.650;    0.000;    0.000
260.286;  841.650;    0.000;    0.000
260.353;  886.650;    0.000;    0.000
260.421;  907.650;    0.000;    0.000
260.489;  981.650;    0.000;    0.000
260.556;  966.650;    0.000;    0.000
260.624;  958.650;    0.000;    0.000
260.691;  959.650;    0.000;    0.000
260.759;  959.650;    0.000;    0.000
260.826;  986.650;    0.000;    0.000
260.894;  873.650;    0.000;    0.000
260.961;  885.650;    0.000;    0.000
261.029; 1023.650;    0.000;    0.000
261.096; 1083.650;    0.000;    0.000
261.164; 1169.650;    0.000;    0.000
261.231;  966.650;    0.000;    0.000
261.299;  990.650;    0.000;    0.000
261.366;  903.650;    0.000;    0.000
261.434;  907.650;    0.000;    0.000
261.501;  976.650;    0.000;    0.000
261.568; 1029.650;    0.000;    0.000
261.636;  959.650;    0.000;    0.000
261.703; 1023.650;    0.000;    0.000
261.771; 1021.650;    0.000;    0.000
261.838; 1042.650;    0.000;    0.000
261.906;  992.650;    0.000;    0.000
261.973; 1099.650;    0.000;    0.000
262.040; 1087.650;    0.000;    0.000
262.108; 1050.650;    0.000;    0.000
262.175; 1065.650;    0.000;    0.000
262.243; 1126.650;    0.000;    0.000
262.310; 1091.650;    0.000;    0.000
262.377; 1129.650;    0.000;    0.000
262.445; 1193.650;    0.000;    0.000
262.512; 1138.650;    0.000;    0.000
262.579; 1169.650;    0.000;    0.000
262.647; 1111.650;    0.000;    0.000
262.714; 1130.650;    0.000;    0.000
262.781; 1206.650;    0.000;    0.000
262.849; 1237.650;    0.000;    0.000
262.916; 1274.650;    0.000;    0.000
262.983; 1457.650;    0.000;    0.000
263.051; 1481.650;    0.000;    0.000
263.118; 1639.650;    0.000;    0.000
263.185; 1680.650;    0.000;    0.000
263.252; 1483.650;    0.000;    0.000
263.320; 1494.650;    0.000;    0.000
263.387; 1524.650;    0.000;    0.000
263.454; 1577.650;    0.000;    0.000
263.522; 1770.650;    0.000;    0.000
263.589; 1797.650;    0.000;    0.000
263.656; 1753.650;    0.000;    0.000
263.723; 1766.650;    0.000;    0.000
263.790; 1926.650;    0.000;    0.000
263.858; 2119.650;    0.000;    0.000
263.925; 2088.650;    0.000;    0.000
263.992; 2078.650;    0.000;    0.000
264.059; 2351.650;    0.000;    0.000
264.126; 2481.650;    0.000;    0.000
264.194; 2635.650;    0.000;    0.000
264.261; 2720.650;    0.000;    0.000
264.328; 2549.650;    0.000;    0.000
264.395; 2731.650;    0.000;    0.000
264.462; 2816.650;    0.000;    0.000
264.529; 3087.650;    0.000;    0.000
264.597; 3698.650;    0.000;    0.000
264.664; 3678.650;    0.000;    0.000
264.731; 2929.650;    0.000;    0.000
264.798; 2582.650;    0.000;    0.000
264.865; 2455.650;    0.000;    0.000
264.932; 2461.650;    0.000;    0.000
264.999; 2411.650;    0.000;    0.000
265.066; 2266.650;    0.000;    0.000
265.133; 2123.650;    0.000;    0.000
265.201; 2163.650;    0.000;    0.000
265.268; 1908.650;    0.000;    0.000
265.335; 1909.650;    0.000;    0.000
265.402; 1893.650;    0.000;    0.000
265.469; 1855.650;    0.000;    0.000
265.536; 2135.650;    0.000;    0.000
265.603; 2054.650;    0.000;    0.000
265.670; 1962.650;    0.000;    0.000
265.737; 1904.650;    0.000;    0.000
265.804; 1715.650;    0.000;    0.000
265.871; 1779.650;    0.000;    0.000
265.938; 1707.650;    0.000;    0.000
266.005; 1745.650;    0.000;    0.000
266.072; 1674.650;    0.000;    0.000
266.139; 1789.650;    0.000;    0.000
266.206; 1737.650;    0.000;    0.000
266.273; 1811.650;    0.000;    0.000
266.340; 1762.650;    0.000;    0.000
266.407; 1819.650;    0.000;    0.000
266.474; 1694.650;    0.000;    0.000
266.541; 1618.650;    0.000;    0.000
266.608; 1589.650;    0.000;    0.000
266.675; 1675.650;    0.000;    0.000
266.742; 1569.650;    0.000;    0.000
266.808; 1629.650;    0.000;    0.000
266.875; 1665.650;    0.000;    0.000
266.942; 1772.650;    0.000;    0.000
267.009; 1709.650;    0.000;    0.000
267.076; 1680.650;    0.000;    0.000
267.143; 1778.650;    0.000;    0.000
267.210; 1856.650;    0.000;    0.000
267.277; 1682.650;    0.000;    0.000
267.344; 1738.650;    0.000;    0.000
267.410; 1716.650;    0.000;    0.000
267.477; 1665.650;    0.000;    0.000
267.544; 1686.650;    0.000;    0.000
267.611; 1765.650;    0.000;    0.000
267.678; 1811.650;    0.000;    0.000
267.745; 2050.650;    0.000;    0.000
267.811; 2108.650;    0.000;    0.000
267.878; 2201.650;    0.000;    0.000
267.945; 2262.650;    0.000;    0.000
268.012; 2199.650;    0.000;    0.000
268.079; 2221.650;    0.000;    0.000
268.145; 2066.650;    0.000;    0.000
268.212; 2064.650;    0.000;    0.000
268.279; 2087.650;    0.000;    0.000
268.346; 1941.650;    0.000;    0.000
268.412; 1758.650;    0.000;    0.000
268.479; 1807.650;    0.000;    0.000
268.546; 1846.650;    0.000;    0.000
268.613; 1765.650;    0.000;    0.000
268.679; 1818.650;    0.000;    0.000
268.746; 2497.650;    0.000;    0.000
268.813; 2779.650;    0.000;    0.000
268.879; 2291.650;    0.000;    0.000
268.946; 2148.650;    0.000;    0.000
269.013; 2407.650;    0.000;    0.000
269.079; 2386.650;    0.000;    0.000
269.146; 2093.650;    0.000;    0.000
269.213; 1959.650;    0.000;    0.000
269.280; 1762.650;    0.000;    0.000
269.346; 1733.650;    0.000;    0.000
269.413; 1855.650;    0.000;    0.000
269.479; 1844.650;    0.000;    0.000
269.546; 2055.650;    0.000;    0.000
269.613; 2119.650;    0.000;    0.000
269.679; 2192.650;    0.000;    0.000
269.746; 2505.650;    0.000;    0.000
269.813; 2860.650;    0.000;    0.000
269.879; 3001.650;    0.000;    0.000
269.946; 2907.650;    0.000;    0.000
270.012; 2852.650;    0.000;    0.000
270.079; 3012.650;    0.000;    0.000
270.145; 3074.650;    0.000;    0.000
270.212; 2860.650;    0.000;    0.000
270.279; 2805.650;    0.000;    0.000
270.345; 2362.650;    0.000;    0.000
270.412; 2162.650;    0.000;    0.000
270.478; 2143.650;    0.000;    0.000
270.545; 2270.650;    0.000;    0.000
270.611; 2554.650;    0.000;    0.000
270.678; 2391.650;    0.000;    0.000
270.744; 2115.650;    0.000;    0.000
270.811; 1923.650;    0.000;    0.000
270.877; 1791.650;    0.000;    0.000
270.944; 1753.650;    0.000;    0.000
271.010; 1749.650;    0.000;    0.000
271.077; 1711.650;    0.000;    0.000
271.143; 1679.650;    0.000;    0.000
271.210; 1681.650;    0.000;    0.000
271.276; 1684.650;    0.000;    0.000
271.342; 1690.650;    0.000;    0.000
271.409; 1769.650;    0.000;    0.000
271.475; 1911.650;    0.000;    0.000
271.542; 2234.650;    0.000;    0.000
271.608; 2370.650;    0.000;    0.000
271.675; 2239.650;    0.000;    0.000
271.741; 2282.650;    0.000;    0.000
271.807; 2079.650;    0.000;    0.000
271.874; 2073.650;    0.000;    0.000
271.940; 1985.650;    0.000;    0.000
272.007; 1811.650;    0.000;    0.000
272.073; 1567.650;    0.000;    0.000
272.139; 1587.650;    0.000;    0.000
272.206; 1666.650;    0.000;    0.000
272.272; 1726.650;    0.000;    0.000
272.338; 1715.650;    0.000;    0.000
272.405; 1653.650;    0.000;    0.000
272.471; 1741.650;    0.000;    0.000
272.537; 1971.650;    0.000;    0.000
272.604; 1841.650;    0.000;    0.000
272.670; 1743.650;    0.000;    0.000
272.736; 1712.650;    0.000;    0.000
272.802; 1770.650;    0.000;    0.000
272.869; 1735.650;    0.000;    0.000
272.935; 1720.650;    0.000;    0.000
273.001; 1831.650;    0.000;    0.000
273.068; 2184.650;    0.000;    0.000
273.134; 2419.650;    0.000;    0.000
273.200; 2427.650;    0.000;    0.000
273.266; 2446.650;    0.000;    0.000
273.333; 2361.650;    0.000;    0.000
273.399; 2164.650;    0.000;    0.000
273.465; 2055.650;    0.000;    0.000
273.531; 2073.650;    0.000;    0.000
273.597; 1865.650;    0.000;    0.000
273.664; 1910.650;    0.000;    0.000
273.730; 1866.650;    0.000;    0.000
273.796; 2023.650;    0.000;    0.000
273.862; 2176.650;    0.000;    0.000
273.928; 2292.650;    0.000;    0.000
273.995; 2291.650;    0.000;    0.000
274.061; 2167.650;    0.000;    0.000
274.127; 2257.650;    0.000;    0.000
274.193; 2832.650;    0.000;    0.000
274.259; 3028.650;    0.000;    0.000
274.325; 2683.650;    0.000;    0.000
274.391; 2375.650;    0.000;    0.000
274.457; 2418.650;    0.000;    0.000
274.524; 2480.650;    0.000;    0.000
274.590; 2860.650;    0.000;    0.000
274.656; 3803.650;    0.000;    0.000
274.722; 3821.650;    0.000;    0.000
274.788; 3497.650;    0.000;    0.000
274.854; 3232.650;    0.000;    0.000
274.920; 3106.650;    0.000;    0.000
274.986; 3203.650;    0.000;    0.000
275.052; 3526.650;    0.000;    0.000
275.118; 4626.650;    0.000;    0.000
275.184; 5660.650;    0.000;    0.000
275.250; 5345.650;    0.000;    0.000
275.316; 4833.650;    0.000;    0.000
275.382; 4049.650;    0.000;    0.000
275.448; 3539.650;    0.000;    0.000
275.514; 3172.650;    0.000;    0.000
275.580; 2974.650;    0.000;    0.000
275.646; 2924.650;    0.000;    0.000
275.712; 3068.650;    0.000;    0.000
275.778; 3301.650;    0.000;    0.000
275.844; 3440.650;    0.000;    0.000
275.910; 3129.650;    0.000;    0.000
275.976; 3112.650;    0.000;    0.000
276.042; 3128.650;    0.000;    0.000
276.108; 3394.650;    0.000;    0.000
276.174; 3190.650;    0.000;    0.000
276.240; 2834.650;    0.000;    0.000
276.306; 2708.650;    0.000;    0.000
276.372; 2756.650;    0.000;    0.000
276.437; 3373.650;    0.000;    0.000
276.503; 3565.650;    0.000;    0.000
276.569; 3095.650;    0.000;    0.000
276.635; 2688.650;    0.000;    0.000
276.701; 2472.650;    0.000;    0.000
276.767; 2396.650;    0.000;    0.000
276.833; 2470.650;    0.000;    0.000
276.899; 2377.650;    0.000;    0.000
276.964; 2138.650;    0.000;    0.000
277.030; 2136.650;    0.000;    0.000
277.096; 2032.650;    0.000;    0.000
277.162; 2063.650;    0.000;    0.000
277.228; 1992.650;    0.000;    0.000
277.293; 2163.650;    0.000;    0.000
277.359; 2202.650;    0.000;    0.000
277.425; 2338.650;    0.000;    0.000
277.491; 2447.650;    0.000;    0.000
277.557; 2284.650;    0.000;    0.000
277.622; 2097.650;    0.000;    0.000
277.688; 2237.650;    0.000;    0.000
277.754; 2289.650;    0.000;    0.000
277.820; 2425.650;    0.000;    0.000
277.885; 2472.650;    0.000;    0.000
277.951; 2426.650;    0.000;    0.000
278.017; 2520.650;    0.000;    0.000
278.083; 2626.650;    0.000;    0.000
278.148; 2522.650;    0.000;    0.000
278.214; 2460.650;    0.000;    0.000
278.280; 2501.650;    0.000;    0.000
278.345; 2494.650;    0.000;    0.000
278.411; 2653.650;    0.000;    0.000
278.477; 2761.650;    0.000;    0.000
278.542; 2746.650;    0.000;    0.000
278.608; 2930.650;    0.000;    0.000
278.674; 3043.650;    0.000;    0.000
278.739; 3156.650;    0.000;    0.000
278.805; 3326.650;    0.000;    0.000
278.871; 3041.650;    0.000;    0.000
278.936; 2827.650;    0.000;    0.000
279.002; 2833.650;    0.000;    0.000
279.067; 2820.650;    0.000;    0.000
279.133; 2741.650;    0.000;    0.000
279.199; 2626.650;    0.000;    0.000
279.264; 2555.650;    0.000;    0.000
279.330; 2474.650;    0.000;    0.000
279.395; 2648.650;    0.000;    0.000
279.461; 2986.650;    0.000;    0.000
279.527; 3501.650;    0.000;    0.000
279.592; 3507.650;    0.000;    0.000
279.658; 3115.650;    0.000;    0.000
279.723; 3212.650;    0.000;    0.000
279.789; 3127.650;    0.000;    0.000
279.854; 3242.650;    0.000;    0.000
279.920; 3379.650;    0.000;    0.000
279.985; 3855.650;    0.000;    0.000
280.051; 4620.650;    0.000;    0.000
280.116; 4605.650;    0.000;    0.000
280.182; 4601.650;    0.000;    0.000
280.247; 4599.650;    0.000;    0.000
280.313; 4545.650;    0.000;    0.000
280.378; 4552.650;    0.000;    0.000
280.444; 6044.650;    0.000;    0.000
280.509; 7382.650;    0.000;    0.000
280.574; 6545.650;    0.000;    0.000
280.640; 5624.650;    0.000;    0.000
280.705; 4868.650;    0.000;    0.000
280.771; 4516.650;    0.000;    0.000
280.836; 4657.650;    0.000;    0.000
280.902; 5054.650;    0.000;    0.000
280.967; 6852.650;    0.000;    0.000
281.032; 8948.650;    0.000;    0.000
281.098; 7818.650;    0.000;    0.000
281.163; 6006.650;    0.000;    0.000
281.229; 5147.650;    0.000;    0.000
281.294; 4626.650;    0.000;    0.000
281.359; 4212.650;    0.000;    0.000
281.425; 4183.650;    0.000;    0.000
281.490; 4157.650;    0.000;    0.000
281.555; 4521.650;    0.000;    0.000
281.621; 4937.650;    0.000;    0.000
281.686; 5740.650;    0.000;    0.000
281.751; 7907.650;    0.000;    0.000
281.816; 9202.650;    0.000;    0.000
281.882; 8056.650;    0.000;    0.000
281.947; 6924.650;    0.000;    0.000
282.012; 6598.650;    0.000;    0.000
282.078; 6055.650;    0.000;    0.000
282.143; 5497.650;    0.000;    0.000
282.208; 5230.650;    0.000;    0.000
282.273; 4734.650;    0.000;    0.000
282.339; 4353.650;    0.000;    0.000
282.404; 4147.650;    0.000;    0.000
282.469; 4226.650;    0.000;    0.000
282.534; 4271.650;    0.000;    0.000
282.600; 4765.650;    0.000;    0.000
282.665; 5848.650;    0.000;    0.000
282.730; 8435.650;    0.000;    0.000
282.795;12021.650;    0.000;    0.000
282.860;13303.650;    0.000;    0.000
282.926;10792.650;    0.000;    0.000
282.991; 8562.650;    0.000;    0.000
283.056; 7341.650;    0.000;    0.000
283.121; 7362.650;    0.000;    0.000
283.186; 8969.650;    0.000;    0.000
283.251; 7820.650;    0.000;    0.000
283.316; 5567.650;    0.000;    0.000
283.382; 5504.650;    0.000;    0.000
283.447; 5527.650;    0.000;    0.000
283.512; 4984.650;    0.000;    0.000
283.577; 5186.650;    0.000;    0.000
283.642; 5559.650;    0.000;    0.000
283.707; 5402.650;    0.000;    0.000
283.772; 4763.650;    0.000;    0.000
283.837; 4410.650;    0.000;    0.000
283.902; 4751.650;    0.000;    0.000
283.967; 5245.650;    0.000;    0.000
284.032; 5613.650;    0.000;    0.000
284.097; 6665.650;    0.000;    0.000
284.163; 9587.650;    0.000;    0.000
284.228; 8091.650;    0.000;    0.000
284.293; 4612.650;    0.000;    0.000
284.358; 4008.650;    0.000;    0.000
284.423; 3916.650;    0.000;    0.000
284.488; 4129.650;    0.000;    0.000
284.553; 4777.650;    0.000;    0.000
284.618; 5336.650;    0.000;    0.000
284.683; 5002.650;    0.000;    0.000
284.748; 4662.650;    0.000;    0.000
284.812; 4210.650;    0.000;    0.000
284.877; 3864.650;    0.000;    0.000
284.942; 3924.650;    0.000;    0.000
285.007; 4337.650;    0.000;    0.000
285.072; 6159.650;    0.000;    0.000
285.137; 6017.650;    0.000;    0.000
285.202; 4526.650;    0.000;    0.000
285.267; 4118.650;    0.000;    0.000
285.332; 4594.650;    0.000;    0.000
285.397; 4937.650;    0.000;    0.000
285.462; 4764.650;    0.000;    0.000
285.527; 4825.650;    0.000;    0.000
285.591; 6293.650;    0.000;    0.000
285.656; 6993.650;    0.000;    0.000
285.721; 6690.650;    0.000;    0.000
285.786; 6892.650;    0.000;    0.000
285.851; 6368.650;    0.000;    0.000
285.916; 5342.650;    0.000;    0.000
285.981; 5050.650;    0.000;    0.000
286.045; 5487.650;    0.000;    0.000
286.110; 6552.650;    0.000;    0.000
286.175; 9224.650;    0.000;    0.000
286.240;10165.650;    0.000;    0.000
286.305; 7989.650;    0.000;    0.000
286.369; 6041.650;    0.000;    0.000
286.434; 5508.650;    0.000;    0.000
286.499; 5076.650;    0.000;    0.000
286.564; 4662.650;    0.000;    0.000
286.628; 4424.650;    0.000;    0.000
286.693; 4494.650;    0.000;    0.000
286.758; 4832.650;    0.000;    0.000
286.823; 6408.650;    0.000;    0.000
286.887; 7409.650;    0.000;    0.000
286.952; 7316.650;    0.000;    0.000
287.017; 7211.650;    0.000;    0.000
287.082; 6542.650;    0.000;    0.000
287.146; 5696.650;    0.000;    0.000
287.211; 5294.650;    0.000;    0.000
287.276; 4822.650;    0.000;    0.000
287.340; 4923.650;    0.000;    0.000
287.405; 5017.650;    0.000;    0.000
287.470; 5716.650;    0.000;    0.000
287.534; 6725.650;    0.000;    0.000
287.599; 7469.650;    0.000;    0.000
287.663; 9077.650;    0.000;    0.000
287.728;12262.650;    0.000;    0.000
287.793;10690.650;    0.000;    0.000
287.857; 6754.650;    0.000;    0.000
287.922; 5610.650;    0.000;    0.000
287.987; 5348.650;    0.000;    0.000
288.051; 4983.650;    0.000;    0.000
288.116; 4613.650;    0.000;    0.000
288.180; 4657.650;    0.000;    0.000
288.245; 5123.650;    0.000;    0.000
288.309; 6512.650;    0.000;    0.000
288.374;11943.650;    0.000;    0.000
288.439;12524.650;    0.000;    0.000
288.503; 7392.650;    0.000;    0.000
288.568; 5179.650;    0.000;    0.000
288.632; 4566.650;    0.000;    0.000
288.697; 4751.650;    0.000;    0.000
288.761; 5408.650;    0.000;    0.000
288.826; 7124.650;    0.000;    0.000
288.890; 8333.650;    0.000;    0.000
288.955; 7697.650;    0.000;    0.000
289.019; 7767.650;    0.000;    0.000
289.084; 8934.650;    0.000;    0.000
289.148; 8424.650;    0.000;    0.000
289.212; 7680.650;    0.000;    0.000
289.277; 7672.650;    0.000;    0.000
289.341; 6247.650;    0.000;    0.000
289.406; 4565.650;    0.000;    0.000
289.470; 3854.650;    0.000;    0.000
289.535; 4100.650;    0.000;    0.000
289.599; 3950.650;    0.000;    0.000
289.663; 3699.650;    0.000;    0.000
289.728; 3610.650;    0.000;    0.000
289.792; 3701.650;    0.000;    0.000
289.857; 3660.650;    0.000;    0.000
289.921; 3475.650;    0.000;    0.000
289.985; 3399.650;    0.000;    0.000
290.050; 3297.650;    0.000;    0.000
290.114; 3316.650;    0.000;    0.000
290.178; 3384.650;    0.000;    0.000
290.243; 3793.650;    0.000;    0.000
290.307; 4129.650;    0.000;    0.000
290.371; 4030.650;    0.000;    0.000
290.436; 3948.650;    0.000;    0.000
290.500; 4276.650;    0.000;    0.000
290.564; 5514.650;    0.000;    0.000
290.629; 7340.650;    0.000;    0.000
290.693; 8077.650;    0.000;    0.000
290.757; 7968.650;    0.000;    0.000
290.821; 9110.650;    0.000;    0.000
290.886; 9525.650;    0.000;    0.000
290.950; 8556.650;    0.000;    0.000
291.014; 7908.650;    0.000;    0.000
291.078; 6934.650;    0.000;    0.000
291.143; 6453.650;    0.000;    0.000
291.207; 6304.650;    0.000;    0.000
291.271; 6004.650;    0.000;    0.000
291.335; 6130.650;    0.000;    0.000
291.399; 6001.650;    0.000;    0.000
291.464; 6186.650;    0.000;    0.000
291.528; 6640.650;    0.000;    0.000
291.592; 6700.650;    0.000;    0.000
291.656; 6415.650;    0.000;    0.000
291.720; 5622.650;    0.000;    0.000
291.784; 5289.650;    0.000;    0.000
291.849; 5202.650;    0.000;    0.000
291.913; 5354.650;    0.000;    0.000
291.977; 5931.650;    0.000;    0.000
292.041; 6083.650;    0.000;    0.000
292.105; 5534.650;    0.000;    0.000
292.169; 5297.650;    0.000;    0.000
292.233; 5785.650;    0.000;    0.000
292.297; 7111.650;    0.000;    0.000
292.361;10159.650;    0.000;    0.000
292.425;11401.650;    0.000;    0.000
292.490; 8464.650;    0.000;    0.000
292.554; 6230.650;    0.000;    0.000
292.618; 6347.650;    0.000;    0.000
292.682; 6737.650;    0.000;    0.000
292.746; 6960.650;    0.000;    0.000
292.810; 8034.650;    0.000;    0.000
292.874; 8285.650;    0.000;    0.000
292.938; 7521.650;    0.000;    0.000
293.002; 7642.650;    0.000;    0.000
293.066; 9494.650;    0.000;    0.000
293.130;10193.650;    0.000;    0.000
293.194; 8898.650;    0.000;    0.000
293.258; 7634.650;    0.000;    0.000
293.322; 6783.650;    0.000;    0.000
293.386; 6629.650;    0.000;    0.000
293.450; 6342.650;    0.000;    0.000
293.514; 6571.650;    0.000;    0.000
293.577; 8205.650;    0.000;    0.000
293.641; 8925.650;    0.000;    0.000
293.705; 8506.650;    0.000;    0.000
293.769; 8425.650;    0.000;    0.000
293.833; 9755.650;    0.000;    0.000
293.897;10168.650;    0.000;    0.000
293.961; 8898.650;    0.000;    0.000
294.025; 8449.650;    0.000;    0.000
294.089; 9930.650;    0.000;    0.000
294.152;13029.650;    0.000;    0.000
294.216;13726.650;    0.000;    0.000
294.280;12339.650;    0.000;    0.000
294.344;11242.650;    0.000;    0.000
294.408;10955.650;    0.000;    0.000
294.472;12336.650;    0.000;    0.000
294.536;13411.650;    0.000;    0.000
294.599;12527.650;    0.000;    0.000
294.663;10331.650;    0.000;    0.000
294.727; 9369.650;    0.000;    0.000
294.791; 9436.650;    0.000;    0.000
294.855; 9011.650;    0.000;    0.000
294.918; 7335.650;    0.000;    0.000
294.982; 6707.650;    0.000;    0.000
295.046; 6504.650;    0.000;    0.000
295.110; 6426.650;    0.000;    0.000
295.173; 7243.650;    0.000;    0.000
295.237; 6973.650;    0.000;    0.000
295.301; 6821.650;    0.000;    0.000
295.364; 7668.650;    0.000;    0.000
295.428;10057.650;    0.000;    0.000
295.492;11801.650;    0.000;    0.000
295.556;11952.650;    0.000;    0.000
295.619;11488.650;    0.000;    0.000
295.683; 9830.650;    0.000;    0.000
295.747; 8948.650;    0.000;    0.000
295.810; 9642.650;    0.000;    0.000
295.874;11492.650;    0.000;    0.000
295.938;11514.650;    0.000;    0.000
296.001;10227.650;    0.000;    0.000
296.065; 8764.650;    0.000;    0.000
296.128; 7613.650;    0.000;    0.000
296.192; 6908.650;    0.000;    0.000
296.256; 6327.650;    0.000;    0.000
296.319; 5853.650;    0.000;    0.000
296.383; 5612.650;    0.000;    0.000
296.447; 5372.650;    0.000;    0.000
296.510; 5566.650;    0.000;    0.000
296.574; 5523.650;    0.000;    0.000
296.637; 5378.650;    0.000;    0.000
296.701; 5628.650;    0.000;    0.000
296.764; 6140.650;    0.000;    0.000
296.828; 6527.650;    0.000;    0.000
296.891; 5611.650;    0.000;    0.000
296.955; 4895.650;    0.000;    0.000
297.018; 4958.650;    0.000;    0.000
297.082; 4652.650;    0.000;    0.000
297.145; 5179.650;    0.000;    0.000
297.209; 5449.650;    0.000;    0.000
297.272; 5149.650;    0.000;    0.000
297.336; 4825.650;    0.000;    0.000
297.399; 4798.650;    0.000;    0.000
297.463; 4891.650;    0.000;    0.000
297.526; 5332.650;    0.000;    0.000
297.590; 6420.650;    0.000;    0.000
297.653; 6560.650;    0.000;    0.000
297.717; 6255.650;    0.000;    0.000
297.780; 6363.650;    0.000;    0.000
297.843; 6476.650;    0.000;    0.000
297.907; 6884.650;    0.000;    0.000
297.970; 7036.650;    0.000;    0.000
298.034; 6781.650;    0.000;    0.000
298.097; 6777.650;    0.000;    0.000
298.160; 7016.650;    0.000;    0.000
298.224; 7510.650;    0.000;    0.000
298.287; 8736.650;    0.000;    0.000
298.350;10192.650;    0.000;    0.000
298.414;11518.650;    0.000;    0.000
298.477;11208.650;    0.000;    0.000
298.540; 9235.650;    0.000;    0.000
298.604; 7212.650;    0.000;    0.000
298.667; 6426.650;    0.000;    0.000
298.730; 5841.650;    0.000;    0.000
298.794; 5368.650;    0.000;    0.000
298.857; 5137.650;    0.000;    0.000
298.920; 5010.650;    0.000;    0.000
298.984; 5585.650;    0.000;    0.000
299.047; 5400.650;    0.000;    0.000
299.110; 4908.650;    0.000;    0.000
299.173; 4372.650;    0.000;    0.000
299.237; 4123.650;    0.000;    0.000
299.300; 4040.650;    0.000;    0.000
299.363; 3824.650;    0.000;    0.000
299.426; 4002.650;    0.000;    0.000
299.489; 4014.650;    0.000;    0.000
299.553; 4319.650;    0.000;    0.000
299.616; 4344.650;    0.000;    0.000
299.679; 3898.650;    0.000;    0.000
299.742; 3607.650;    0.000;    0.000
299.805; 3527.650;    0.000;    0.000
299.868; 3423.650;    0.000;    0.000
299.932; 3360.650;    0.000;    0.000
299.995; 3645.650;    0.000;    0.000
300.058; 4565.650;    0.000;    0.000
300.121; 4901.650;    0.000;    0.000
300.184; 4035.650;    0.000;    0.000
300.247; 3560.650;    0.000;    0.000
300.310; 3652.650;    0.000;    0.000
300.374; 3494.650;    0.000;    0.000
300.437; 3218.650;    0.000;    0.000
300.500; 3237.650;    0.000;    0.000
300.563; 3282.650;    0.000;    0.000
300.626; 3116.650;    0.000;    0.000
300.689; 3247.650;    0.000;    0.000
300.752; 3263.650;    0.000;    0.000
300.815; 3558.650;    0.000;    0.000
300.878; 3425.650;    0.000;    0.000
300.941; 3052.650;    0.000;    0.000
301.004; 3105.650;    0.000;    0.000
301.067; 3023.650;    0.000;    0.000
301.130; 3167.650;    0.000;    0.000
301.193; 3280.650;    0.000;    0.000
301.256; 3446.650;    0.000;    0.000
301.319; 3576.650;    0.000;    0.000
301.382; 3549.650;    0.000;    0.000
301.445; 3985.650;    0.000;    0.000
301.508; 4294.650;    0.000;    0.000
301.571; 4597.650;    0.000;    0.000
301.634; 7482.650;    0.000;    0.000
301.697;12170.650;    0.000;    0.000
301.760;11466.650;    0.000;    0.000
301.823; 6941.650;    0.000;    0.000
301.885; 5278.650;    0.000;    0.000
301.948; 4411.650;    0.000;    0.000
302.011; 4173.650;    0.000;    0.000
302.074; 4165.650;    0.000;    0.000
302.137; 4202.650;    0.000;    0.000
302.200; 4681.650;    0.000;    0.000
302.263; 5601.650;    0.000;    0.000
302.326; 6204.650;    0.000;    0.000
302.388; 6384.650;    0.000;    0.000
302.451; 5857.650;    0.000;    0.000
302.514; 5512.650;    0.000;    0.000
302.577; 4802.650;    0.000;    0.000
302.640; 4678.650;    0.000;    0.000
302.703; 4376.650;    0.000;    0.000
302.765; 4622.650;    0.000;    0.000
302.828; 5080.650;    0.000;    0.000
302.891; 7065.650;    0.000;    0.000
302.954;11475.650;    0.000;    0.000
303.016;10696.650;    0.000;    0.000
303.079; 6735.650;    0.000;    0.000
303.142; 5260.650;    0.000;    0.000
303.205; 4700.650;    0.000;    0.000
303.267; 5135.650;    0.000;    0.000
303.330; 6234.650;    0.000;    0.000
303.393; 5963.650;    0.000;    0.000
303.456; 4560.650;    0.000;    0.000
303.518; 3926.650;    0.000;    0.000
303.581; 3715.650;    0.000;    0.000
303.644; 3927.650;    0.000;    0.000
303.706; 3821.650;    0.000;    0.000
303.769; 4010.650;    0.000;    0.000
303.832; 4607.650;    0.000;    0.000
303.894; 4715.650;    0.000;    0.000
303.957; 4441.650;    0.000;    0.000
304.020; 4016.650;    0.000;    0.000
304.082; 4119.650;    0.000;    0.000
304.145; 4343.650;    0.000;    0.000
304.207; 4765.650;    0.000;    0.000
304.270; 5154.650;    0.000;    0.000
304.333; 5826.650;    0.000;    0.000
304.395; 6315.650;    0.000;    0.000
304.458; 6605.650;    0.000;    0.000
304.520; 7248.650;    0.000;    0.000
304.583; 8175.650;    0.000;    0.000
304.646;10183.650;    0.000;    0.000
304.708; 9809.650;    0.000;    0.000
304.771; 8300.650;    0.000;    0.000
304.833; 8752.650;    0.000;    0.000
304.896; 7843.650;    0.000;    0.000
304.958; 6111.650;    0.000;    0.000
305.021; 5540.650;    0.000;    0.000
305.083; 5324.650;    0.000;    0.000
305.146; 5182.650;    0.000;    0.000
305.208; 5227.650;    0.000;    0.000
305.271; 5849.650;    0.000;    0.000
305.333; 6848.650;    0.000;    0.000
305.396; 7000.650;    0.000;    0.000
305.458; 6295.650;    0.000;    0.000
305.520; 6529.650;    0.000;    0.000
305.583; 7658.650;    0.000;    0.000
305.645;11378.650;    0.000;    0.000
305.708;14194.650;    0.000;    0.000
305.770;17837.650;    0.000;    0.000
305.833;17720.650;    0.000;    0.000
305.895;13693.650;    0.000;    0.000
305.957;12567.650;    0.000;    0.000
306.020;10997.650;    0.000;    0.000
306.082; 8770.650;    0.000;    0.000
306.144; 7788.650;    0.000;    0.000
306.207; 7944.650;    0.000;    0.000
306.269; 9365.650;    0.000;    0.000
306.331;10772.650;    0.000;    0.000
306.394;11015.650;    0.000;    0.000
306.456;11000.650;    0.000;    0.000
306.518;15226.650;    0.000;    0.000
306.581;26608.650;    0.000;    0.000
306.643;27886.650;    0.000;    0.000
306.705;17109.650;    0.000;    0.000
306.768;10628.650;    0.000;    0.000
306.830; 9041.650;    0.000;    0.000
306.892; 8938.650;    0.000;    0.000
306.954; 9149.650;    0.000;    0.000
307.017;10138.650;    0.000;    0.000
307.079;14556.650;    0.000;    0.000
307.141;22760.650;    0.000;    0.000
307.203;29829.650;    0.000;    0.000
307.266;33664.648;    0.000;    0.000
307.328;27309.650;    0.000;    0.000
307.390;20054.650;    0.000;    0.000
307.452;28284.650;    0.000;    0.000
307.514;34012.648;    0.000;    0.000
307.577;24666.650;    0.000;    0.000
307.639;15412.650;    0.000;    0.000
307.701;15567.650;    0.000;    0.000
307.763;23024.650;    0.000;    0.000
307.825;36798.648;    0.000;    0.000
307.887;34969.648;    0.000;    0.000
307.949;19836.650;    0.000;    0.000
308.012;13717.650;    0.000;    0.000
308.074;12480.650;    0.000;    0.000
308.136;12671.650;    0.000;    0.000
308.198;13544.650;    0.000;    0.000
308.260;12652.650;    0.000;    0.000
308.322;10966.650;    0.000;    0.000
308.384;10808.650;    0.000;    0.000
308.446;10553.650;    0.000;    0.000
308.508;10978.650;    0.000;    0.000
308.570;12252.650;    0.000;    0.000
308.632;15727.650;    0.000;    0.000
308.694;25102.650;    0.000;    0.000
308.756;42488.648;    0.000;    0.000
308.818;43823.648;    0.000;    0.000
308.880;33214.648;    0.000;    0.000
308.942;27627.650;    0.000;    0.000
309.004;20107.650;    0.000;    0.000
309.066;14184.650;    0.000;    0.000
309.128;11873.650;    0.000;    0.000
309.190;12469.650;    0.000;    0.000
309.252;17725.650;    0.000;    0.000
309.314;18027.650;    0.000;    0.000
309.376;12824.650;    0.000;    0.000
309.438; 9662.650;    0.000;    0.000
309.500; 8408.650;    0.000;    0.000
309.562; 8566.650;    0.000;    0.000
309.624;11159.650;    0.000;    0.000
309.686;16674.650;    0.000;    0.000
309.747;15267.650;    0.000;    0.000
309.809; 9062.650;    0.000;    0.000
309.871; 7235.650;    0.000;    0.000
309.933; 6739.650;    0.000;    0.000
309.995; 7201.650;    0.000;    0.000
310.057; 8507.650;    0.000;    0.000
310.119;10059.650;    0.000;    0.000
310.180;13983.650;    0.000;    0.000
310.242;16035.650;    0.000;    0.000
310.304;20432.650;    0.000;    0.000
310.366;26447.650;    0.000;    0.000
310.428;25225.650;    0.000;    0.000
310.489;22549.650;    0.000;    0.000
310.551;24673.650;    0.000;    0.000
310.613;24978.650;    0.000;    0.000
310.675;18105.650;    0.000;    0.000
310.737;10246.650;    0.000;    0.000
310.798; 8272.650;    0.000;    0.000
310.860; 7744.650;    0.000;    0.000
310.922; 8157.650;    0.000;    0.000
310.983;11390.650;    0.000;    0.000
311.045;14757.650;    0.000;    0.000
311.107;12618.650;    0.000;    0.000
311.169; 9178.650;    0.000;    0.000
311.230; 8118.650;    0.000;    0.000
311.292; 6515.650;    0.000;    0.000
311.354; 6156.650;    0.000;    0.000
311.415; 5923.650;    0.000;    0.000
311.477; 5735.650;    0.000;    0.000
311.539; 5893.650;    0.000;    0.000
311.600; 6511.650;    0.000;    0.000
311.662; 9044.650;    0.000;    0.000
311.724;15611.650;    0.000;    0.000
311.785;18221.650;    0.000;    0.000
311.847;13886.650;    0.000;    0.000
311.908;14569.650;    0.000;    0.000
311.970;16444.650;    0.000;    0.000
312.032;13183.650;    0.000;    0.000
312.093; 9160.650;    0.000;    0.000
312.155; 8077.650;    0.000;    0.000
312.216; 7706.650;    0.000;    0.000
312.278; 7440.650;    0.000;    0.000
312.339; 6861.650;    0.000;    0.000
312.401; 6074.650;    0.000;    0.000
312.462; 7592.650;    0.000;    0.000
312.524; 8727.650;    0.000;    0.000
312.585; 8124.650;    0.000;    0.000
312.647; 7014.650;    0.000;    0.000
312.708; 6625.650;    0.000;    0.000
312.770; 8054.650;    0.000;    0.000
312.831; 9335.650;    0.000;    0.000
312.893; 9526.650;    0.000;    0.000
312.954; 9963.650;    0.000;    0.000
313.016;13100.650;    0.000;    0.000
313.077;13045.650;    0.000;    0.000
313.139; 8953.650;    0.000;    0.000
313.200; 6377.650;    0.000;    0.000
313.261; 6401.650;    0.000;    0.000
313.323; 6430.650;    0.000;    0.000
313.384; 6002.650;    0.000;    0.000
313.446; 6298.650;    0.000;    0.000
313.507; 6326.650;    0.000;    0.000
313.568; 5870.650;    0.000;    0.000
313.630; 5851.650;    0.000;    0.000
313.691; 5275.650;    0.000;    0.000
313.752; 4899.650;    0.000;    0.000
313.814; 4699.650;    0.000;    0.000
313.875; 4937.650;    0.000;    0.000
313.936; 5465.650;    0.000;    0.000
313.998; 5289.650;    0.000;    0.000
314.059; 5001.650;    0.000;    0.000
314.120; 5661.650;    0.000;    0.000
314.182; 6598.650;    0.000;    0.000
314.243; 7044.650;    0.000;    0.000
314.304; 9166.650;    0.000;    0.000
314.365;10096.650;    0.000;    0.000
314.427; 7984.650;    0.000;    0.000
314.488; 5985.650;    0.000;    0.000
314.549; 5754.650;    0.000;    0.000
314.610; 5675.650;    0.000;    0.000
314.672; 6132.650;    0.000;    0.000
314.733; 9528.650;    0.000;    0.000
314.794;11056.650;    0.000;    0.000
314.855; 7887.650;    0.000;    0.000
314.917; 5263.650;    0.000;    0.000
314.978; 4974.650;    0.000;    0.000
315.039; 5034.650;    0.000;    0.000
315.100; 5826.650;    0.000;    0.000
315.161; 9747.650;    0.000;    0.000
315.222;12461.650;    0.000;    0.000
315.283;10365.650;    0.000;    0.000
315.345; 9737.650;    0.000;    0.000
315.406;12371.650;    0.000;    0.000
315.467;12031.650;    0.000;    0.000
315.528;13008.650;    0.000;    0.000
315.589;12778.650;    0.000;    0.000
315.650; 8836.650;    0.000;    0.000
315.711; 7409.650;    0.000;    0.000
315.772; 6939.650;    0.000;    0.000
315.833; 6552.650;    0.000;    0.000
315.894; 6873.650;    0.000;    0.000
315.955; 8032.650;    0.000;    0.000
316.016;11310.650;    0.000;    0.000
316.078;22013.650;    0.000;    0.000
316.139;34396.648;    0.000;    0.000
316.200;39740.648;    0.000;    0.000
316.261;35672.648;    0.000;    0.000
316.322;24153.650;    0.000;    0.000
316.383;15258.650;    0.000;    0.000
316.444;14498.650;    0.000;    0.000
316.504;13638.650;    0.000;    0.000
316.565;11104.650;    0.000;    0.000
316.626;10048.650;    0.000;    0.000
316.687;11113.650;    0.000;    0.000
316.748;16497.650;    0.000;    0.000
316.809;31125.650;    0.000;    0.000
316.870;34798.648;    0.000;    0.000
316.931;22566.650;    0.000;    0.000
316.992;13312.650;    0.000;    0.000
317.053; 9838.650;    0.000;    0.000
317.114; 8062.650;    0.000;    0.000
317.175; 7179.650;    0.000;    0.000
317.235; 6603.650;    0.000;    0.000
317.296; 6328.650;    0.000;    0.000
317.357; 6513.650;    0.000;    0.000
317.418; 7623.650;    0.000;    0.000
317.479; 8247.650;    0.000;    0.000
317.540; 7149.650;    0.000;    0.000
317.601; 6134.650;    0.000;    0.000
317.661; 5642.650;    0.000;    0.000
317.722; 5521.650;    0.000;    0.000
317.783; 5461.650;    0.000;    0.000
317.844; 5840.650;    0.000;    0.000
317.904; 5913.650;    0.000;    0.000
317.965; 6145.650;    0.000;    0.000
318.026; 6284.650;    0.000;    0.000
318.087; 6346.650;    0.000;    0.000
318.148; 6866.650;    0.000;    0.000
318.208; 7712.650;    0.000;    0.000
318.269; 8348.650;    0.000;    0.000
318.330; 8942.650;    0.000;    0.000
318.390; 8887.650;    0.000;    0.000
318.451; 8131.650;    0.000;    0.000
318.512; 8024.650;    0.000;    0.000
318.572; 9358.650;    0.000;    0.000
318.633;10561.650;    0.000;    0.000
318.694;10781.650;    0.000;    0.000
318.754;10763.650;    0.000;    0.000
318.815;12100.650;    0.000;    0.000
318.876;13291.650;    0.000;    0.000
318.936;16614.650;    0.000;    0.000
318.997;28454.650;    0.000;    0.000
319.058;42783.648;    0.000;    0.000
319.118;38384.648;    0.000;    0.000
319.179;24209.650;    0.000;    0.000
319.239;17755.650;    0.000;    0.000
319.300;13651.650;    0.000;    0.000
319.361;12519.650;    0.000;    0.000
319.421;13320.650;    0.000;    0.000
319.482;14568.650;    0.000;    0.000
319.542;13927.650;    0.000;    0.000
319.603;12385.650;    0.000;    0.000
319.663;10979.650;    0.000;    0.000
319.724;10908.650;    0.000;    0.000
319.784;10120.650;    0.000;    0.000
319.845; 8985.650;    0.000;    0.000
319.905;10438.650;    0.000;    0.000
319.966;13477.650;    0.000;    0.000
320.026;13866.650;    0.000;    0.000
320.087;13226.650;    0.000;    0.000
320.147;19602.650;    0.000;    0.000
320.208;33717.648;    0.000;    0.000
320.268;34522.648;    0.000;    0.000
320.329;21789.650;    0.000;    0.000
320.389;13991.650;    0.000;    0.000
320.449;10497.650;    0.000;    0.000
320.510; 9216.650;    0.000;    0.000
320.570; 8631.650;    0.000;    0.000
320.631; 8152.650;    0.000;    0.000
320.691; 7593.650;    0.000;    0.000
320.751; 7424.650;    0.000;    0.000
320.812; 7500.650;    0.000;    0.000
320.872; 7439.650;    0.000;    0.000
320.932; 7278.650;    0.000;    0.000
320.993; 6984.650;    0.000;    0.000
321.053; 7088.650;    0.000;    0.000
321.113; 7306.650;    0.000;    0.000
321.174; 7577.650;    0.000;    0.000
321.234; 8097.650;    0.000;    0.000
321.294; 9090.650;    0.000;    0.000
321.355;10548.650;    0.000;    0.000
321.415;13863.650;    0.000;    0.000
321.475;14696.650;    0.000;    0.000
321.535;13660.650;    0.000;    0.000
321.596;17339.650;    0.000;    0.000
321.656;30160.650;    0.000;    0.000
321.716;33725.648;    0.000;    0.000
321.776;31996.650;    0.000;    0.000
321.837;30382.650;    0.000;    0.000
321.897;21655.650;    0.000;    0.000
321.957;15078.650;    0.000;    0.000
322.017;13650.650;    0.000;    0.000
322.077;14116.650;    0.000;    0.000
322.138;16267.650;    0.000;    0.000
322.198;25301.650;    0.000;    0.000
322.258;35341.648;    0.000;    0.000
322.318;34007.648;    0.000;    0.000
322.378;33040.648;    0.000;    0.000
322.438;32539.650;    0.000;    0.000
322.499;22998.650;    0.000;    0.000
322.559;17174.650;    0.000;    0.000
322.619;17431.650;    0.000;    0.000
322.679;17710.650;    0.000;    0.000
322.739;20073.650;    0.000;    0.000
322.799;32057.650;    0.000;    0.000
322.859;46747.648;    0.000;    0.000
322.919;49187.648;    0.000;    0.000
322.979;36915.648;    0.000;    0.000
323.039;25398.650;    0.000;    0.000
323.099;24928.650;    0.000;    0.000
323.159;31453.650;    0.000;    0.000
323.219;37037.648;    0.000;    0.000
323.279;38057.648;    0.000;    0.000
323.339;44355.648;    0.000;    0.000
323.399;64168.648;    0.000;    0.000
323.459;65295.648;    0.000;    0.000
323.519;54276.648;    0.000;    0.000
323.579;59062.648;    0.000;    0.000
323.639;65123.648;    0.000;    0.000
323.699;51810.648;    0.000;    0.000
323.759;38541.648;    0.000;    0.000
323.819;45810.648;    0.000;    0.000
323.879;58925.648;    0.000;    0.000
323.939;55011.648;    0.000;    0.000
323.999;38491.648;    0.000;    0.000
324.059;30672.650;    0.000;    0.000
324.119;40541.648;    0.000;    0.000
324.178;48586.648;    0.000;    0.000
324.238;37953.648;    0.000;    0.000
324.298;21749.650;    0.000;    0.000
324.358;16326.650;    0.000;    0.000
324.418;13800.650;    0.000;    0.000
324.478;12865.650;    0.000;    0.000
324.538;12752.650;    0.000;    0.000
324.597;13270.650;    0.000;    0.000
324.657;15041.650;    0.000;    0.000
324.717;19438.650;    0.000;    0.000
324.777;33596.648;    0.000;    0.000
324.837;46304.648;    0.000;    0.000
324.896;40085.648;    0.000;    0.000
324.956;24414.650;    0.000;    0.000
325.016;19157.650;    0.000;    0.000
325.076;21028.650;    0.000;    0.000
325.135;31582.650;    0.000;    0.000
325.195;40588.648;    0.000;    0.000
325.255;44885.648;    0.000;    0.000
325.315;40914.648;    0.000;    0.000
325.374;35786.648;    0.000;    0.000
325.434;30369.650;    0.000;    0.000
325.494;19346.650;    0.000;    0.000
325.553;13350.650;    0.000;    0.000
325.613;11599.650;    0.000;    0.000
325.673;11315.650;    0.000;    0.000
325.732;11586.650;    0.000;    0.000
325.792;12027.650;    0.000;    0.000
325.852;12333.650;    0.000;    0.000
325.911;13849.650;    0.000;    0.000
325.971;18127.650;    0.000;    0.000
326.031;25433.650;    0.000;    0.000
326.090;42553.648;    0.000;    0.000
326.150;51150.648;    0.000;    0.000
326.209;37756.648;    0.000;    0.000
326.269;21969.650;    0.000;    0.000
326.328;17798.650;    0.000;    0.000
326.388;14994.650;    0.000;    0.000
326.448;11579.650;    0.000;    0.000
326.507;10014.650;    0.000;    0.000
326.567; 9110.650;    0.000;    0.000
326.626; 8915.650;    0.000;    0.000
326.686; 9573.650;    0.000;    0.000
326.745;10783.650;    0.000;    0.000
326.805; 9999.650;    0.000;    0.000
326.864; 8551.650;    0.000;    0.000
326.924; 9001.650;    0.000;    0.000
326.983;10286.650;    0.000;    0.000
327.043;15455.650;    0.000;    0.000
327.102;26611.650;    0.000;    0.000
327.161;34349.648;    0.000;    0.000
327.221;26744.650;    0.000;    0.000
327.280;15119.650;    0.000;    0.000
327.340;10655.650;    0.000;    0.000
327.399;10155.650;    0.000;    0.000
327.459;10954.650;    0.000;    0.000
327.518;12610.650;    0.000;    0.000
327.577;15563.650;    0.000;    0.000
327.637;18291.650;    0.000;    0.000
327.696;18813.650;    0.000;    0.000
327.755;25101.650;    0.000;    0.000
327.815;34611.648;    0.000;    0.000
327.874;35067.648;    0.000;    0.000
327.933;24791.650;    0.000;    0.000
327.993;16820.650;    0.000;    0.000
328.052;13550.650;    0.000;    0.000
328.111;13455.650;    0.000;    0.000
328.171;20393.650;    0.000;    0.000
328.230;22709.650;    0.000;    0.000
328.289;15574.650;    0.000;    0.000
328.349;10187.650;    0.000;    0.000
328.408; 9265.650;    0.000;    0.000
328.467; 9556.650;    0.000;    0.000
328.526;10424.650;    0.000;    0.000
328.586;12611.650;    0.000;    0.000
328.645;18769.650;    0.000;    0.000
328.704;33348.648;    0.000;    0.000
328.763;39666.648;    0.000;    0.000
328.822;30134.650;    0.000;    0.000
328.882;18407.650;    0.000;    0.000
328.941;11446.650;    0.000;    0.000
329.000; 8980.650;    0.000;    0.000
329.059; 7741.650;    0.000;    0.000
329.118; 7287.650;    0.000;    0.000
329.177; 7357.650;    0.000;    0.000
329.237; 6833.650;    0.000;    0.000
329.296; 5936.650;    0.000;    0.000
329.355; 5642.650;    0.000;    0.000
329.414; 5423.650;    0.000;    0.000
329.473; 5406.650;    0.000;    0.000
329.532; 5248.650;    0.000;    0.000
329.591; 5094.650;    0.000;    0.000
329.650; 4917.650;    0.000;    0.000
329.709; 4847.650;    0.000;    0.000
329.768; 4937.650;    0.000;    0.000
329.827; 5028.650;    0.000;    0.000
329.886; 5233.650;    0.000;    0.000
329.945; 5174.650;    0.000;    0.000
330.004; 4871.650;    0.000;    0.000
330.063; 4754.650;    0.000;    0.000
330.122; 5124.650;    0.000;    0.000
330.181; 5536.650;    0.000;    0.000
330.240; 5067.650;    0.000;    0.000
330.299; 4697.650;    0.000;    0.000
330.358; 4573.650;    0.000;    0.000
330.417; 4670.650;    0.000;    0.000
330.476; 4638.650;    0.000;    0.000
330.535; 4847.650;    0.000;    0.000
330.594; 5124.650;    0.000;    0.000
330.653; 5508.650;    0.000;    0.000
330.712; 5749.650;    0.000;    0.000
330.771; 6837.650;    0.000;    0.000
330.830;10793.650;    0.000;    0.000
330.889;12538.650;    0.000;    0.000
330.948;10108.650;    0.000;    0.000
331.006; 7312.650;    0.000;    0.000
331.065; 5860.650;    0.000;    0.000
331.124; 5586.650;    0.000;    0.000
331.183; 5577.650;    0.000;    0.000
331.242; 5836.650;    0.000;    0.000
331.301; 6140.650;    0.000;    0.000
331.359; 7152.650;    0.000;    0.000
331.418; 9993.650;    0.000;    0.000
331.477;14640.650;    0.000;    0.000
331.536;14054.650;    0.000;    0.000
331.595; 9474.650;    0.000;    0.000
331.653; 7518.650;    0.000;    0.000
331.712; 9458.650;    0.000;    0.000
331.771;13432.650;    0.000;    0.000
331.830;13569.650;    0.000;    0.000
331.888; 9809.650;    0.000;    0.000
331.947; 8901.650;    0.000;    0.000
332.006; 9945.650;    0.000;    0.000
332.065;14558.650;    0.000;    0.000
332.123;22978.650;    0.000;    0.000
332.182;27072.650;    0.000;    0.000
332.241;34570.648;    0.000;    0.000
332.299;38134.648;    0.000;    0.000
332.358;27793.650;    0.000;    0.000
332.417;17301.650;    0.000;    0.000
332.475;12914.650;    0.000;    0.000
332.534;11631.650;    0.000;    0.000
332.592;12989.650;    0.000;    0.000
332.651;16510.650;    0.000;    0.000
332.710;15570.650;    0.000;    0.000
332.768;12655.650;    0.000;    0.000
332.827;14909.650;    0.000;    0.000
332.885;26728.650;    0.000;    0.000
332.944;32625.650;    0.000;    0.000
333.003;25675.650;    0.000;    0.000
333.061;18541.650;    0.000;    0.000
333.120;21680.650;    0.000;    0.000
333.178;27508.650;    0.000;    0.000
333.237;23690.650;    0.000;    0.000
333.295;14767.650;    0.000;    0.000
333.354;12728.650;    0.000;    0.000
333.412;15320.650;    0.000;    0.000
333.471;25386.650;    0.000;    0.000
333.529;28199.650;    0.000;    0.000
333.588;20107.650;    0.000;    0.000
333.646;14038.650;    0.000;    0.000
333.705;13044.650;    0.000;    0.000
333.763;13251.650;    0.000;    0.000
333.822;13689.650;    0.000;    0.000
333.880;14171.650;    0.000;    0.000
333.938;19399.650;    0.000;    0.000
333.997;29374.650;    0.000;    0.000
334.055;36049.648;    0.000;    0.000
334.114;43600.648;    0.000;    0.000
334.172;48189.648;    0.000;    0.000
334.230;37321.648;    0.000;    0.000
334.289;24661.650;    0.000;    0.000
334.347;22090.650;    0.000;    0.000
334.405;20082.650;    0.000;    0.000
334.464;16696.650;    0.000;    0.000
334.522;16380.650;    0.000;    0.000
334.580;19320.650;    0.000;    0.000
334.639;24831.650;    0.000;    0.000
334.697;29461.650;    0.000;    0.000
334.755;33754.648;    0.000;    0.000
334.814;49188.648;    0.000;    0.000
334.872;65295.648;    0.000;    0.000
334.930;65295.648;    0.000;    0.000
334.988;51728.648;    0.000;    0.000
335.047;33855.648;    0.000;    0.000
335.105;25888.650;    0.000;    0.000
335.163;22084.650;    0.000;    0.000
335.221;19267.650;    0.000;    0.000
335.280;16168.650;    0.000;    0.000
335.338;14401.650;    0.000;    0.000
335.396;15080.650;    0.000;    0.000
335.454;15212.650;    0.000;    0.000
335.512;13191.650;    0.000;    0.000
335.570;11682.650;    0.000;    0.000
335.629;11628.650;    0.000;    0.000
335.687;11560.650;    0.000;    0.000
335.745;12426.650;    0.000;    0.000
335.803;13993.650;    0.000;    0.000
335.861;15785.650;    0.000;    0.000
335.919;19576.650;    0.000;    0.000
335.977;27238.650;    0.000;    0.000
336.035;44621.648;    0.000;    0.000
336.094;57008.648;    0.000;    0.000
336.152;49462.648;    0.000;    0.000
336.210;30422.650;    0.000;    0.000
336.268;20399.650;    0.000;    0.000
336.326;15704.650;    0.000;    0.000
336.384;13524.650;    0.000;    0.000
336.442;12547.650;    0.000;    0.000
336.500;12403.650;    0.000;    0.000
336.558;13439.650;    0.000;    0.000
336.616;13474.650;    0.000;    0.000
336.674;11716.650;    0.000;    0.000
336.732;10423.650;    0.000;    0.000
336.790;10453.650;    0.000;    0.000
336.848;11653.650;    0.000;    0.000
336.906;12543.650;    0.000;    0.000
336.964;14120.650;    0.000;    0.000
337.022;16311.650;    0.000;    0.000
337.080;20990.650;    0.000;    0.000
337.138;29282.650;    0.000;    0.000
337.195;44521.648;    0.000;    0.000
337.253;54472.648;    0.000;    0.000
337.311;44343.648;    0.000;    0.000
337.369;27887.650;    0.000;    0.000
337.427;19723.650;    0.000;    0.000
337.485;15404.650;    0.000;    0.000
337.543;12288.650;    0.000;    0.000
337.601;11049.650;    0.000;    0.000
337.658;10981.650;    0.000;    0.000
337.716;12215.650;    0.000;    0.000
337.774;12328.650;    0.000;    0.000
337.832;11288.650;    0.000;    0.000
337.890;13402.650;    0.000;    0.000
337.947;22392.650;    0.000;    0.000
338.005;28343.650;    0.000;    0.000
338.063;23336.650;    0.000;    0.000
338.121;16226.650;    0.000;    0.000
338.178;16871.650;    0.000;    0.000
338.236;22506.650;    0.000;    0.000
338.294;37929.648;    0.000;    0.000
338.352;48298.648;    0.000;    0.000
338.409;39621.648;    0.000;    0.000
338.467;22817.650;    0.000;    0.000
338.525;17033.650;    0.000;    0.000
338.583;15410.650;    0.000;    0.000
338.640;15185.650;    0.000;    0.000
338.698;22424.650;    0.000;    0.000
338.756;29992.650;    0.000;    0.000
338.813;26132.650;    0.000;    0.000
338.871;15733.650;    0.000;    0.000
338.928;11174.650;    0.000;    0.000
338.986; 8816.650;    0.000;    0.000
339.044; 7822.650;    0.000;    0.000
339.101; 7166.650;    0.000;    0.000
339.159; 7178.650;    0.000;    0.000
339.216; 7731.650;    0.000;    0.000
339.274; 8752.650;    0.000;    0.000
339.332;11649.650;    0.000;    0.000
339.389;21109.650;    0.000;    0.000
339.447;24383.650;    0.000;    0.000
339.504;16637.650;    0.000;    0.000
339.562; 8720.650;    0.000;    0.000
339.619; 6578.650;    0.000;    0.000
339.677; 5916.650;    0.000;    0.000
339.734; 5359.650;    0.000;    0.000
339.792; 5276.650;    0.000;    0.000
339.849; 5120.650;    0.000;    0.000
339.907; 4955.650;    0.000;    0.000
339.964; 4754.650;    0.000;    0.000
340.022; 4805.650;    0.000;    0.000
340.079; 5046.650;    0.000;    0.000
340.137; 5570.650;    0.000;    0.000
340.194; 7901.650;    0.000;    0.000
340.252; 8255.650;    0.000;    0.000
340.309; 6348.650;    0.000;    0.000
340.366; 4971.650;    0.000;    0.000
340.424; 4709.650;    0.000;    0.000
340.481; 4614.650;    0.000;    0.000
340.538; 4353.650;    0.000;    0.000
340.596; 4508.650;    0.000;    0.000
340.653; 5069.650;    0.000;    0.000
340.711; 5436.650;    0.000;    0.000
340.768; 4783.650;    0.000;    0.000
340.825; 4266.650;    0.000;    0.000
340.883; 4810.650;    0.000;    0.000
340.940; 5550.650;    0.000;    0.000
340.997; 5368.650;    0.000;    0.000
341.054; 4497.650;    0.000;    0.000
341.112; 4171.650;    0.000;    0.000
341.169; 4099.650;    0.000;    0.000
341.226; 4033.650;    0.000;    0.000
341.284; 3926.650;    0.000;    0.000
341.341; 3898.650;    0.000;    0.000
341.398; 3847.650;    0.000;    0.000
341.455; 3867.650;    0.000;    0.000
341.512; 3946.650;    0.000;    0.000
341.570; 4045.650;    0.000;    0.000
341.627; 4689.650;    0.000;    0.000
341.684; 4949.650;    0.000;    0.000
341.741; 4677.650;    0.000;    0.000
341.798; 4045.650;    0.000;    0.000
341.856; 3858.650;    0.000;    0.000
341.913; 3796.650;    0.000;    0.000
341.970; 3678.650;    0.000;    0.000
342.027; 3744.650;    0.000;    0.000
342.084; 3732.650;    0.000;    0.000
342.141; 3649.650;    0.000;    0.000
342.198; 3758.650;    0.000;    0.000
342.255; 3721.650;    0.000;    0.000
342.313; 3660.650;    0.000;    0.000
342.370; 3570.650;    0.000;    0.000
342.427; 3604.650;    0.000;    0.000
342.484; 3651.650;    0.000;    0.000
342.541; 3650.650;    0.000;    0.000
342.598; 3602.650;    0.000;    0.000
342.655; 3501.650;    0.000;    0.000
342.712; 3602.650;    0.000;    0.000
342.769; 3627.650;    0.000;    0.000
342.826; 3685.650;    0.000;    0.000
342.883; 3657.650;    0.000;    0.000
342.940; 3652.650;    0.000;    0.000
342.997; 3775.650;    0.000;    0.000
343.054; 3727.650;    0.000;    0.000
343.111; 3976.650;    0.000;    0.000
343.168; 4162.650;    0.000;    0.000
343.225; 4168.650;    0.000;    0.000
343.282; 4141.650;    0.000;    0.000
343.339; 4067.650;    0.000;    0.000
343.395; 4004.650;    0.000;    0.000
343.452; 4093.650;    0.000;    0.000
343.509; 4194.650;    0.000;    0.000
343.566; 3998.650;    0.000;    0.000
343.623; 4047.650;    0.000;    0.000
343.680; 4074.650;    0.000;    0.000
343.737; 4156.650;    0.000;    0.000
343.794; 4127.650;    0.000;    0.000
343.850; 4333.650;    0.000;    0.000
343.907; 4393.650;    0.000;    0.000
343.964; 4407.650;    0.000;    0.000
344.021; 4474.650;    0.000;    0.000
344.078; 4507.650;    0.000;    0.000
344.134; 4904.650;    0.000;    0.000
344.191; 5116.650;    0.000;    0.000
344.248; 6153.650;    0.000;    0.000
344.305; 8549.650;    0.000;    0.000
344.361;15511.650;    0.000;    0.000
344.418;20062.650;    0.000;    0.000
344.475;16532.650;    0.000;    0.000
344.532; 9398.650;    0.000;    0.000
344.588; 6798.650;    0.000;    0.000
344.645; 5727.650;    0.000;    0.000
344.702; 5231.650;    0.000;    0.000
344.758; 5086.650;    0.000;    0.000
344.815; 4877.650;    0.000;    0.000
344.872; 4729.650;    0.000;    0.000
344.928; 4867.650;    0.000;    0.000
344.985; 5109.650;    0.000;    0.000
345.042; 5507.650;    0.000;    0.000
345.098; 6100.650;    0.000;    0.000
345.155; 8374.650;    0.000;    0.000
345.212;11379.650;    0.000;    0.000
345.268;10892.650;    0.000;    0.000
345.325; 7765.650;    0.000;    0.000
345.381; 6840.650;    0.000;    0.000
345.438; 6973.650;    0.000;    0.000
345.495; 8393.650;    0.000;    0.000
345.551;13946.650;    0.000;    0.000
345.608;19952.650;    0.000;    0.000
345.664;18308.650;    0.000;    0.000
345.721;11050.650;    0.000;    0.000
345.777; 7622.650;    0.000;    0.000
345.834; 6563.650;    0.000;    0.000
345.890; 6184.650;    0.000;    0.000
345.947; 6242.650;    0.000;    0.000
346.003; 6895.650;    0.000;    0.000
346.060;11161.650;    0.000;    0.000
346.116;18205.650;    0.000;    0.000
346.173;18230.650;    0.000;    0.000
346.229;11191.650;    0.000;    0.000
346.285; 7457.650;    0.000;    0.000
346.342; 6264.650;    0.000;    0.000
346.398; 5980.650;    0.000;    0.000
346.455; 6679.650;    0.000;    0.000
346.511; 8303.650;    0.000;    0.000
346.567; 8080.650;    0.000;    0.000
346.624; 6144.650;    0.000;    0.000
346.680; 5398.650;    0.000;    0.000
346.737; 4995.650;    0.000;    0.000
346.793; 4601.650;    0.000;    0.000
346.849; 4470.650;    0.000;    0.000
346.906; 4446.650;    0.000;    0.000
346.962; 4299.650;    0.000;    0.000
347.018; 4257.650;    0.000;    0.000
347.074; 4260.650;    0.000;    0.000
347.131; 4249.650;    0.000;    0.000
347.187; 4239.650;    0.000;    0.000
347.243; 4319.650;    0.000;    0.000
347.300; 4366.650;    0.000;    0.000
347.356; 4360.650;    0.000;    0.000
347.412; 4554.650;    0.000;    0.000
347.468; 4725.650;    0.000;    0.000
347.524; 5131.650;    0.000;    0.000
347.581; 6253.650;    0.000;    0.000
347.637;11676.650;    0.000;    0.000
347.693;17317.650;    0.000;    0.000
347.749;15868.650;    0.000;    0.000
347.805; 9483.650;    0.000;    0.000
347.862; 6868.650;    0.000;    0.000
347.918; 6102.650;    0.000;    0.000
347.974; 6140.650;    0.000;    0.000
348.030; 6766.650;    0.000;    0.000
348.086; 6691.650;    0.000;    0.000
348.142; 5566.650;    0.000;    0.000
348.198; 5545.650;    0.000;    0.000
348.254; 5712.650;    0.000;    0.000
348.311; 6541.650;    0.000;    0.000
348.367; 7509.650;    0.000;    0.000
348.423; 7521.650;    0.000;    0.000
348.479; 7208.650;    0.000;    0.000
348.535; 7004.650;    0.000;    0.000
348.591; 6476.650;    0.000;    0.000
348.647; 6378.650;    0.000;    0.000
348.703; 6196.650;    0.000;    0.000
348.759; 6196.650;    0.000;    0.000
348.815; 6348.650;    0.000;    0.000
348.871; 6890.650;    0.000;    0.000
348.927; 8093.650;    0.000;    0.000
348.983; 9654.650;    0.000;    0.000
349.039;13708.650;    0.000;    0.000
349.095;16858.650;    0.000;    0.000
349.151;14513.650;    0.000;    0.000
349.207;10516.650;    0.000;    0.000
349.263; 9381.650;    0.000;    0.000
349.319; 8598.650;    0.000;    0.000
349.374; 7633.650;    0.000;    0.000
349.430; 7188.650;    0.000;    0.000
349.486; 6968.650;    0.000;    0.000
349.542; 6812.650;    0.000;    0.000
349.598; 6791.650;    0.000;    0.000
349.654; 6466.650;    0.000;    0.000
349.710; 6538.650;    0.000;    0.000
349.766; 6514.650;    0.000;    0.000
349.821; 6702.650;    0.000;    0.000
349.877; 6829.650;    0.000;    0.000
349.933; 7315.650;    0.000;    0.000
349.989; 8211.650;    0.000;    0.000
350.045; 8645.650;    0.000;    0.000
350.100; 8541.650;    0.000;    0.000
350.156; 9022.650;    0.000;    0.000
350.212;10293.650;    0.000;    0.000
350.268;12717.650;    0.000;    0.000
350.323;17268.650;    0.000;    0.000
350.379;28164.650;    0.000;    0.000
350.435;44367.648;    0.000;    0.000
350.491;44980.648;    0.000;    0.000
350.546;30148.650;    0.000;    0.000
350.602;18274.650;    0.000;    0.000
350.658;13882.650;    0.000;    0.000
350.713;12293.650;    0.000;    0.000
350.769;11674.650;    0.000;    0.000
350.825;12276.650;    0.000;    0.000
350.880;14497.650;    0.000;    0.000
350.936;20181.650;    0.000;    0.000
350.992;32082.650;    0.000;    0.000
351.047;42643.648;    0.000;    0.000
351.103;37092.648;    0.000;    0.000
351.158;21322.650;    0.000;    0.000
351.214;13402.650;    0.000;    0.000
351.270;10343.650;    0.000;    0.000
351.325; 8801.650;    0.000;    0.000
351.381; 7918.650;    0.000;    0.000
351.436; 7391.650;    0.000;    0.000
351.492; 7007.650;    0.000;    0.000
351.547; 6977.650;    0.000;    0.000
351.603; 7010.650;    0.000;    0.000
351.658; 7873.650;    0.000;    0.000
351.714; 8079.650;    0.000;    0.000
351.769; 7995.650;    0.000;    0.000
351.825; 8050.650;    0.000;    0.000
351.880; 9553.650;    0.000;    0.000
351.936;15234.650;    0.000;    0.000
351.991;22107.650;    0.000;    0.000
352.047;20481.650;    0.000;    0.000
352.102;12483.650;    0.000;    0.000
352.158; 8744.650;    0.000;    0.000
352.213; 7193.650;    0.000;    0.000
352.268; 6673.650;    0.000;    0.000
352.324; 6086.650;    0.000;    0.000
352.379; 6103.650;    0.000;    0.000
352.434; 6118.650;    0.000;    0.000
352.490; 5932.650;    0.000;    0.000
352.545; 5620.650;    0.000;    0.000
352.601; 5451.650;    0.000;    0.000
352.656; 5203.650;    0.000;    0.000
352.711; 5125.650;    0.000;    0.000
352.767; 5056.650;    0.000;    0.000
352.822; 4970.650;    0.000;    0.000
352.877; 5121.650;    0.000;    0.000
352.932; 5225.650;    0.000;    0.000
352.988; 5794.650;    0.000;    0.000
353.043; 6108.650;    0.000;    0.000
353.098; 6165.650;    0.000;    0.000
353.153; 5942.650;    0.000;    0.000
353.209; 6190.650;    0.000;    0.000
353.264; 6931.650;    0.000;    0.000
353.319; 8502.650;    0.000;    0.000
353.374;10680.650;    0.000;    0.000
353.430;15575.650;    0.000;    0.000
353.485;26017.650;    0.000;    0.000
353.540;28637.650;    0.000;    0.000
353.595;19705.650;    0.000;    0.000
353.650;11752.650;    0.000;    0.000
353.705; 8709.650;    0.000;    0.000
353.761; 7200.650;    0.000;    0.000
353.816; 6494.650;    0.000;    0.000
353.871; 5868.650;    0.000;    0.000
353.926; 5622.650;    0.000;    0.000
353.981; 5292.650;    0.000;    0.000
354.036; 5198.650;    0.000;    0.000
354.091; 5051.650;    0.000;    0.000
354.146; 4966.650;    0.000;    0.000
354.201; 4943.650;    0.000;    0.000
354.256; 4930.650;    0.000;    0.000
354.311; 4887.650;    0.000;    0.000
354.367; 4679.650;    0.000;    0.000
354.422; 4969.650;    0.000;    0.000
354.477; 5697.650;    0.000;    0.000
354.532; 5535.650;    0.000;    0.000
354.587; 4941.650;    0.000;    0.000
354.642; 4919.650;    0.000;    0.000
354.697; 5136.650;    0.000;    0.000
354.751; 4782.650;    0.000;    0.000
354.806; 4401.650;    0.000;    0.000
354.861; 4398.650;    0.000;    0.000
354.916; 4399.650;    0.000;    0.000
354.971; 4318.650;    0.000;    0.000
355.026; 4369.650;    0.000;    0.000
355.081; 4266.650;    0.000;    0.000
355.136; 4277.650;    0.000;    0.000
355.191; 4245.650;    0.000;    0.000
355.246; 4489.650;    0.000;    0.000
355.301; 4450.650;    0.000;    0.000
355.355; 4361.650;    0.000;    0.000
355.410; 4334.650;    0.000;    0.000
355.465; 4386.650;    0.000;    0.000
355.520; 4534.650;    0.000;    0.000
355.575; 5287.650;    0.000;    0.000
355.630; 6344.650;    0.000;    0.000
355.684; 6337.650;    0.000;    0.000
355.739; 5327.650;    0.000;    0.000
355.794; 4591.650;    0.000;    0.000
355.849; 4541.650;    0.000;    0.000
355.904; 4464.650;    0.000;    0.000
355.958; 4628.650;    0.000;    0.000
356.013; 4745.650;    0.000;    0.000
356.068; 5289.650;    0.000;    0.000
356.123; 6058.650;    0.000;    0.000
356.177; 6044.650;    0.000;    0.000
356.232; 5172.650;    0.000;    0.000
356.287; 4738.650;    0.000;    0.000
356.341; 4636.650;    0.000;    0.000
356.396; 4887.650;    0.000;    0.000
356.451; 5592.650;    0.000;    0.000
356.505; 6640.650;    0.000;    0.000
356.560; 7703.650;    0.000;    0.000
356.615; 6892.650;    0.000;    0.000
356.669; 5631.650;    0.000;    0.000
356.724; 5004.650;    0.000;    0.000
356.778; 4690.650;    0.000;    0.000
356.833; 4625.650;    0.000;    0.000
356.888; 4764.650;    0.000;    0.000
356.942; 4915.650;    0.000;    0.000
356.997; 5056.650;    0.000;    0.000
357.051; 5071.650;    0.000;    0.000
357.106; 5072.650;    0.000;    0.000
357.160; 5084.650;    0.000;    0.000
357.215; 5339.650;    0.000;    0.000
357.269; 6490.650;    0.000;    0.000
357.324; 8405.650;    0.000;    0.000
357.378; 8782.650;    0.000;    0.000
357.433; 6666.650;    0.000;    0.000
357.487; 5475.650;    0.000;    0.000
357.542; 5095.650;    0.000;    0.000
357.596; 4944.650;    0.000;    0.000
357.651; 4885.650;    0.000;    0.000
357.705; 4847.650;    0.000;    0.000
357.760; 4795.650;    0.000;    0.000
357.814; 4891.650;    0.000;    0.000
357.868; 4800.650;    0.000;    0.000
357.923; 4748.650;    0.000;    0.000
357.977; 4765.650;    0.000;    0.000
358.032; 4785.650;    0.000;    0.000
358.086; 4871.650;    0.000;    0.000
358.140; 4766.650;    0.000;    0.000
358.195; 4866.650;    0.000;    0.000
358.249; 4864.650;    0.000;    0.000
358.303; 5000.650;    0.000;    0.000
358.358; 5047.650;    0.000;    0.000
358.412; 5131.650;    0.000;    0.000
358.466; 5273.650;    0.000;    0.000
358.521; 5426.650;    0.000;    0.000
358.575; 5818.650;    0.000;    0.000
358.629; 7275.650;    0.000;    0.000
358.683; 8193.650;    0.000;    0.000
358.738; 7630.650;    0.000;    0.000
358.792; 5897.650;    0.000;    0.000
358.846; 5585.650;    0.000;    0.000
358.900; 6183.650;    0.000;    0.000
358.954; 6324.650;    0.000;    0.000
359.009; 5989.650;    0.000;    0.000
359.063; 5356.650;    0.000;    0.000
359.117; 5820.650;    0.000;    0.000
359.171; 6433.650;    0.000;    0.000
359.225; 6590.650;    0.000;    0.000
359.280; 6624.650;    0.000;    0.000
359.334; 6576.650;    0.000;    0.000
359.388; 6092.650;    0.000;    0.000
359.442; 6288.650;    0.000;    0.000
359.496; 8593.650;    0.000;    0.000
359.550;13190.650;    0.000;    0.000
359.604;13936.650;    0.000;    0.000
359.658; 9306.650;    0.000;    0.000
359.712; 6146.650;    0.000;    0.000
359.766; 5362.650;    0.000;    0.000
359.820; 5569.650;    0.000;    0.000
359.875; 5304.650;    0.000;    0.000
359.929; 4955.650;    0.000;    0.000
359.983; 4525.650;    0.000;    0.000
360.037; 4463.650;    0.000;    0.000
360.091; 4450.650;    0.000;    0.000
360.145; 4446.650;    0.000;    0.000
360.199; 4487.650;    0.000;    0.000
360.253; 4432.650;    0.000;    0.000
360.306; 4419.650;    0.000;    0.000
360.360; 4427.650;    0.000;    0.000
360.414; 4345.650;    0.000;    0.000
360.468; 4451.650;    0.000;    0.000
360.522; 4382.650;    0.000;    0.000
360.576; 4457.650;    0.000;    0.000
360.630; 4539.650;    0.000;    0.000
360.684; 4626.650;    0.000;    0.000
360.738; 4385.650;    0.000;    0.000
360.792; 4391.650;    0.000;    0.000
360.846; 4512.650;    0.000;    0.000
360.899; 4707.650;    0.000;    0.000
360.953; 5605.650;    0.000;    0.000
361.007; 6012.650;    0.000;    0.000
361.061; 5181.650;    0.000;    0.000
361.115; 4474.650;    0.000;    0.000
361.168; 4527.650;    0.000;    0.000
361.222; 4528.650;    0.000;    0.000
361.276; 4822.650;    0.000;    0.000
361.330; 4852.650;    0.000;    0.000
361.384; 4835.650;    0.000;    0.000
361.437; 4721.650;    0.000;    0.000
361.491; 4642.650;    0.000;    0.000
361.545; 4675.650;    0.000;    0.000
361.599; 4386.650;    0.000;    0.000
361.652; 4547.650;    0.000;    0.000
361.706; 4542.650;    0.000;    0.000
361.760; 4455.650;    0.000;    0.000
361.813; 4627.650;    0.000;    0.000
361.867; 4827.650;    0.000;    0.000
361.921; 4703.650;    0.000;    0.000
361.974; 4547.650;    0.000;    0.000
362.028; 4561.650;    0.000;    0.000
362.082; 4833.650;    0.000;    0.000
362.135; 5009.650;    0.000;    0.000
362.189; 5119.650;    0.000;    0.000
362.242; 5493.650;    0.000;    0.000
362.296; 5928.650;    0.000;    0.000
362.350; 7200.650;    0.000;    0.000
362.403;12482.650;    0.000;    0.000
362.457;16187.650;    0.000;    0.000
362.510;13848.650;    0.000;    0.000
362.564; 8304.650;    0.000;    0.000
362.617; 6040.650;    0.000;    0.000
362.671; 5285.650;    0.000;    0.000
362.724; 5023.650;    0.000;    0.000
362.778; 4844.650;    0.000;    0.000
362.831; 4574.650;    0.000;    0.000
362.885; 4282.650;    0.000;    0.000
362.938; 4194.650;    0.000;    0.000
362.992;  323.650;    0.000;    0.000
363.045;  262.650;    0.000;    0.000
363.099;  267.650;    0.000;    0.000
363.152;  307.650;    0.000;    0.000
363.205;  277.650;    0.000;    0.000
363.259;  249.650;    0.000;    0.000
363.312;  293.650;    0.000;    0.000
363.366;  289.650;    0.000;    0.000
363.419;  291.650;    0.000;    0.000
363.472;  274.650;    0.000;    0.000
363.526;  284.650;    0.000;    0.000
363.579;  264.650;    0.000;    0.000
363.632;  280.650;    0.000;    0.000
363.686;  291.650;    0.000;    0.000
363.739;  309.650;    0.000;    0.000
363.792;  284.650;    0.000;    0.000

