
Integration time [ms]:   1.000
Averaging Nr. [scans]: 1
Smoothing Nr. [pixels]: 0
Data measured with spectrometer [name]: VIS
Wave   ;Sample   ;Dark     ;Reference
[nm]   ;[counts] ;[counts] ;[counts] 

450.961;  176.375;    0.000;    0.000
451.100;  224.375;    0.000;    0.000
451.239;  206.375;    0.000;    0.000
451.377;  213.375;    0.000;    0.000
451.516;  204.375;    0.000;    0.000
451.655;  236.375;    0.000;    0.000
451.794;  212.375;    0.000;    0.000
451.932;  207.375;    0.000;    0.000
452.071;  215.375;    0.000;    0.000
452.210;  228.375;    0.000;    0.000
452.348;  242.375;    0.000;    0.000
452.487;  222.375;    0.000;    0.000
452.626;  216.375;    0.000;    0.000
452.764;  212.375;    0.000;    0.000
452.903;  228.375;    0.000;    0.000
453.042;  941.375;    0.000;    0.000
453.180;41185.375;    0.000;    0.000
453.319;54124.375;    0.000;    0.000
453.458;48040.375;    0.000;    0.000
453.596;31554.375;    0.000;    0.000
453.735;19613.375;    0.000;    0.000
453.873;15487.375;    0.000;    0.000
454.012;14316.375;    0.000;    0.000
454.150;14834.375;    0.000;    0.000
454.289;16797.375;    0.000;    0.000
454.427;18185.375;    0.000;    0.000
454.566;22084.375;    0.000;    0.000
454.704;36610.375;    0.000;    0.000
454.843;52357.375;    0.000;    0.000
454.981;51095.375;    0.000;    0.000
455.120;36675.375;    0.000;    0.000
455.258;26204.375;    0.000;    0.000
455.397;21769.375;    0.000;    0.000
455.535;19201.375;    0.000;    0.000
455.674;17284.375;    0.000;    0.000
455.812;16322.375;    0.000;    0.000
455.951;17382.375;    0.000;    0.000
456.089;22529.375;    0.000;    0.000
456.227;30537.375;    0.000;    0.000
456.366;32204.375;    0.000;    0.000
456.504;25921.375;    0.000;    0.000
456.642;20379.375;    0.000;    0.000
456.781;20725.375;    0.000;    0.000
456.919;28675.375;    0.000;    0.000
457.057;42634.375;    0.000;    0.000
457.196;48779.375;    0.000;    0.000
457.334;38142.375;    0.000;    0.000
457.472;23333.375;    0.000;    0.000
457.610;18230.375;    0.000;    0.000
457.749;16763.375;    0.000;    0.000
457.887;16396.375;    0.000;    0.000
458.025;16043.375;    0.000;    0.000
458.163;15885.375;    0.000;    0.000
458.301;15573.375;    0.000;    0.000
458.440;15734.375;    0.000;    0.000
458.578;15994.375;    0.000;    0.000
458.716;17020.375;    0.000;    0.000
458.854;18139.375;    0.000;    0.000
458.992;18683.375;    0.000;    0.000
459.130;17733.375;    0.000;    0.000
459.269;16699.375;    0.000;    0.000
459.407;16250.375;    0.000;    0.000
459.545;16424.375;    0.000;    0.000
459.683;16482.375;    0.000;    0.000
459.821;16937.375;    0.000;    0.000
459.959;17546.375;    0.000;    0.000
460.097;17305.375;    0.000;    0.000
460.235;17330.375;    0.000;    0.000
460.373;17201.375;    0.000;    0.000
460.511;17499.375;    0.000;    0.000
460.649;17741.375;    0.000;    0.000
460.787;17645.375;    0.000;    0.000
460.925;17637.375;    0.000;    0.000
461.063;17917.375;    0.000;    0.000
461.201;17674.375;    0.000;    0.000
461.339;18277.375;    0.000;    0.000
461.477;20501.375;    0.000;    0.000
461.615;23659.375;    0.000;    0.000
461.753;24353.375;    0.000;    0.000
461.891;21561.375;    0.000;    0.000
462.029;20677.375;    0.000;    0.000
462.166;22069.375;    0.000;    0.000
462.304;23004.375;    0.000;    0.000
462.442;21893.375;    0.000;    0.000
462.580;20453.375;    0.000;    0.000
462.718;21777.375;    0.000;    0.000
462.856;22667.375;    0.000;    0.000
462.993;22638.375;    0.000;    0.000
463.131;21655.375;    0.000;    0.000
463.269;20903.375;    0.000;    0.000
463.407;20643.375;    0.000;    0.000
463.545;20650.375;    0.000;    0.000
463.682;22611.375;    0.000;    0.000
463.820;25824.375;    0.000;    0.000
463.958;27158.375;    0.000;    0.000
464.095;24664.375;    0.000;    0.000
464.233;21703.375;    0.000;    0.000
464.371;21372.375;    0.000;    0.000
464.509;21428.375;    0.000;    0.000
464.646;20745.375;    0.000;    0.000
464.784;20444.375;    0.000;    0.000
464.921;20316.375;    0.000;    0.000
465.059;19654.375;    0.000;    0.000
465.197;19120.375;    0.000;    0.000
465.334;19429.375;    0.000;    0.000
465.472;20716.375;    0.000;    0.000
465.609;21976.375;    0.000;    0.000
465.747;20793.375;    0.000;    0.000
465.885;18538.375;    0.000;    0.000
466.022;17991.375;    0.000;    0.000
466.160;17902.375;    0.000;    0.000
466.297;17860.375;    0.000;    0.000
466.435;18273.375;    0.000;    0.000
466.572;19569.375;    0.000;    0.000
466.710;20948.375;    0.000;    0.000
466.847;20091.375;    0.000;    0.000
466.985;18012.375;    0.000;    0.000
467.122;17675.375;    0.000;    0.000
467.260;17559.375;    0.000;    0.000
467.397;17906.375;    0.000;    0.000
467.534;18072.375;    0.000;    0.000
467.672;17786.375;    0.000;    0.000
467.809;17856.375;    0.000;    0.000
467.947;18924.375;    0.000;    0.000
468.084;20547.375;    0.000;    0.000
468.221;20864.375;    0.000;    0.000
468.359;18873.375;    0.000;    0.000
468.496;17590.375;    0.000;    0.000
468.633;17372.375;    0.000;    0.000
468.771;17968.375;    0.000;    0.000
468.908;18442.375;    0.000;    0.000
469.045;19091.375;    0.000;    0.000
469.183;19151.375;    0.000;    0.000
469.320;18142.375;    0.000;    0.000
469.457;17834.375;    0.000;    0.000
469.594;18331.375;    0.000;    0.000
469.732;19296.375;    0.000;    0.000
469.869;19766.375;    0.000;    0.000
470.006;19129.375;    0.000;    0.000
470.143;18171.375;    0.000;    0.000
470.280;18236.375;    0.000;    0.000
470.417;18154.375;    0.000;    0.000
470.555;18315.375;    0.000;    0.000
470.692;18809.375;    0.000;    0.000
470.829;19934.375;    0.000;    0.000
470.966;20340.375;    0.000;    0.000
471.103;19329.375;    0.000;    0.000
471.240;18400.375;    0.000;    0.000
471.377;18041.375;    0.000;    0.000
471.514;17929.375;    0.000;    0.000
471.651;17752.375;    0.000;    0.000
471.789;17525.375;    0.000;    0.000
471.926;17648.375;    0.000;    0.000
472.063;17855.375;    0.000;    0.000
472.200;18259.375;    0.000;    0.000
472.337;18140.375;    0.000;    0.000
472.474;17505.375;    0.000;    0.000
472.611;17140.375;    0.000;    0.000
472.748;17202.375;    0.000;    0.000
472.884;17264.375;    0.000;    0.000
473.021;17922.375;    0.000;    0.000
473.158;18043.375;    0.000;    0.000
473.295;17982.375;    0.000;    0.000
473.432;17731.375;    0.000;    0.000
473.569;17356.375;    0.000;    0.000
473.706;17125.375;    0.000;    0.000
473.843;17256.375;    0.000;    0.000
473.980;17867.375;    0.000;    0.000
474.117;19764.375;    0.000;    0.000
474.253;21298.375;    0.000;    0.000
474.390;20045.375;    0.000;    0.000
474.527;17904.375;    0.000;    0.000
474.664;17704.375;    0.000;    0.000
474.801;17576.375;    0.000;    0.000
474.937;17657.375;    0.000;    0.000
475.074;17375.375;    0.000;    0.000
475.211;17566.375;    0.000;    0.000
475.348;17668.375;    0.000;    0.000
475.484;18854.375;    0.000;    0.000
475.621;22459.375;    0.000;    0.000
475.758;29186.375;    0.000;    0.000
475.894;31501.375;    0.000;    0.000
476.031;26202.375;    0.000;    0.000
476.168;20725.375;    0.000;    0.000
476.304;19874.375;    0.000;    0.000
476.441;19989.375;    0.000;    0.000
476.578;19287.375;    0.000;    0.000
476.714;18739.375;    0.000;    0.000
476.851;18915.375;    0.000;    0.000
476.987;18851.375;    0.000;    0.000
477.124;18773.375;    0.000;    0.000
477.261;18738.375;    0.000;    0.000
477.397;19114.375;    0.000;    0.000
477.534;19660.375;    0.000;    0.000
477.670;21218.375;    0.000;    0.000
477.807;24025.375;    0.000;    0.000
477.943;26773.375;    0.000;    0.000
478.080;24819.375;    0.000;    0.000
478.216;21902.375;    0.000;    0.000
478.353;20209.375;    0.000;    0.000
478.489;20085.375;    0.000;    0.000
478.626;20017.375;    0.000;    0.000
478.762;20122.375;    0.000;    0.000
478.898;20455.375;    0.000;    0.000
479.035;20745.375;    0.000;    0.000
479.171;21855.375;    0.000;    0.000
479.308;21959.375;    0.000;    0.000
479.444;21359.375;    0.000;    0.000
479.580;21554.375;    0.000;    0.000
479.717;22813.375;    0.000;    0.000
479.853;23978.375;    0.000;    0.000
479.989;24960.375;    0.000;    0.000
480.126;24414.375;    0.000;    0.000
480.262;27309.375;    0.000;    0.000
480.398;33693.375;    0.000;    0.000
480.535;35693.375;    0.000;    0.000
480.671;30136.375;    0.000;    0.000
480.807;23519.375;    0.000;    0.000
480.943;22409.375;    0.000;    0.000
481.080;21569.375;    0.000;    0.000
481.216;21283.375;    0.000;    0.000
481.352;20648.375;    0.000;    0.000
481.488;19906.375;    0.000;    0.000
481.624;20027.375;    0.000;    0.000
481.760;20259.375;    0.000;    0.000
481.897;21634.375;    0.000;    0.000
482.033;22860.375;    0.000;    0.000
482.169;21913.375;    0.000;    0.000
482.305;19668.375;    0.000;    0.000
482.441;19354.375;    0.000;    0.000
482.577;19349.375;    0.000;    0.000
482.713;19558.375;    0.000;    0.000
482.849;19281.375;    0.000;    0.000
482.985;18990.375;    0.000;    0.000
483.121;19419.375;    0.000;    0.000
483.258;19547.375;    0.000;    0.000
483.394;19421.375;    0.000;    0.000
483.530;19655.375;    0.000;    0.000
483.665;20113.375;    0.000;    0.000
483.801;20698.375;    0.000;    0.000
483.937;22924.375;    0.000;    0.000
484.073;25481.375;    0.000;    0.000
484.209;23500.375;    0.000;    0.000
484.345;20381.375;    0.000;    0.000
484.481;20083.375;    0.000;    0.000
484.617;20468.375;    0.000;    0.000
484.753;21239.375;    0.000;    0.000
484.889;21668.375;    0.000;    0.000
485.025;20823.375;    0.000;    0.000
485.161;21054.375;    0.000;    0.000
485.296;21902.375;    0.000;    0.000
485.432;25966.375;    0.000;    0.000
485.568;30800.375;    0.000;    0.000
485.704;28706.375;    0.000;    0.000
485.840;22799.375;    0.000;    0.000
485.975;20763.375;    0.000;    0.000
486.111;20541.375;    0.000;    0.000
486.247;21126.375;    0.000;    0.000
486.383;21867.375;    0.000;    0.000
486.518;22548.375;    0.000;    0.000
486.654;24218.375;    0.000;    0.000
486.790;28147.375;    0.000;    0.000
486.926;31175.375;    0.000;    0.000
487.061;29876.375;    0.000;    0.000
487.197;27634.375;    0.000;    0.000
487.333;28497.375;    0.000;    0.000
487.468;28166.375;    0.000;    0.000
487.604;24336.375;    0.000;    0.000
487.740;21410.375;    0.000;    0.000
487.875;21135.375;    0.000;    0.000
488.011;21727.375;    0.000;    0.000
488.146;22549.375;    0.000;    0.000
488.282;24886.375;    0.000;    0.000
488.417;29357.375;    0.000;    0.000
488.553;30146.375;    0.000;    0.000
488.688;25072.375;    0.000;    0.000
488.824;20465.375;    0.000;    0.000
488.960;20607.375;    0.000;    0.000
489.095;20655.375;    0.000;    0.000
489.230;21133.375;    0.000;    0.000
489.366;20828.375;    0.000;    0.000
489.501;20693.375;    0.000;    0.000
489.637;20732.375;    0.000;    0.000
489.772;22972.375;    0.000;    0.000
489.908;27907.375;    0.000;    0.000
490.043;29350.375;    0.000;    0.000
490.178;24673.375;    0.000;    0.000
490.314;21274.375;    0.000;    0.000
490.449;21186.375;    0.000;    0.000
490.585;21482.375;    0.000;    0.000
490.720;22159.375;    0.000;    0.000
490.855;25021.375;    0.000;    0.000
490.991;30815.375;    0.000;    0.000
491.126;35259.375;    0.000;    0.000
491.261;34677.375;    0.000;    0.000
491.396;30514.375;    0.000;    0.000
491.532;25387.375;    0.000;    0.000
491.667;21562.375;    0.000;    0.000
491.802;21632.375;    0.000;    0.000
491.937;23461.375;    0.000;    0.000
492.073;24963.375;    0.000;    0.000
492.208;24196.375;    0.000;    0.000
492.343;22251.375;    0.000;    0.000
492.478;20958.375;    0.000;    0.000
492.613;21817.375;    0.000;    0.000
492.749;23048.375;    0.000;    0.000
492.884;23358.375;    0.000;    0.000
493.019;21814.375;    0.000;    0.000
493.154;20165.375;    0.000;    0.000
493.289;19761.375;    0.000;    0.000
493.424;20132.375;    0.000;    0.000
493.559;20543.375;    0.000;    0.000
493.694;21605.375;    0.000;    0.000
493.829;22507.375;    0.000;    0.000
493.964;21749.375;    0.000;    0.000
494.099;20932.375;    0.000;    0.000
494.234;20760.375;    0.000;    0.000
494.369;20565.375;    0.000;    0.000
494.504;20388.375;    0.000;    0.000
494.639;20587.375;    0.000;    0.000
494.774;20782.375;    0.000;    0.000
494.909;20798.375;    0.000;    0.000
495.044;20345.375;    0.000;    0.000
495.179;20180.375;    0.000;    0.000
495.314;20374.375;    0.000;    0.000
495.449;20433.375;    0.000;    0.000
495.584;20909.375;    0.000;    0.000
495.719;21019.375;    0.000;    0.000
495.854;21228.375;    0.000;    0.000
495.988;21235.375;    0.000;    0.000
496.123;21333.375;    0.000;    0.000
496.258;21651.375;    0.000;    0.000
496.393;21746.375;    0.000;    0.000
496.528;22330.375;    0.000;    0.000
496.663;22268.375;    0.000;    0.000
496.797;22619.375;    0.000;    0.000
496.932;22582.375;    0.000;    0.000
497.067;22637.375;    0.000;    0.000
497.202;23111.375;    0.000;    0.000
497.336;24628.375;    0.000;    0.000
497.471;26388.375;    0.000;    0.000
497.606;27039.375;    0.000;    0.000
497.740;27315.375;    0.000;    0.000
497.875;29866.375;    0.000;    0.000
498.010;42026.375;    0.000;    0.000
498.144;57618.375;    0.000;    0.000
498.279;51284.375;    0.000;    0.000
498.414;32448.375;    0.000;    0.000
498.548;27945.375;    0.000;    0.000
498.683;28461.375;    0.000;    0.000
498.817;33157.375;    0.000;    0.000
498.952;45706.375;    0.000;    0.000
499.087;58602.375;    0.000;    0.000
499.221;51099.375;    0.000;    0.000
499.356;36017.375;    0.000;    0.000
499.490;34119.375;    0.000;    0.000
499.625;36823.375;    0.000;    0.000
499.759;45653.375;    0.000;    0.000
499.894;59196.375;    0.000;    0.000
500.028;60753.375;    0.000;    0.000
500.162;49664.375;    0.000;    0.000
500.297;43230.375;    0.000;    0.000
500.431;44065.375;    0.000;    0.000
500.566;51052.375;    0.000;    0.000
500.700;58919.375;    0.000;    0.000
500.835;53110.375;    0.000;    0.000
500.969;42113.375;    0.000;    0.000
501.103;39653.375;    0.000;    0.000
501.238;45694.375;    0.000;    0.000
501.372;56990.375;    0.000;    0.000
501.506;54671.375;    0.000;    0.000
501.641;41709.375;    0.000;    0.000
501.775;34529.375;    0.000;    0.000
501.909;35019.375;    0.000;    0.000
502.043;37015.375;    0.000;    0.000
502.178;36822.375;    0.000;    0.000
502.312;38091.375;    0.000;    0.000
502.446;39601.375;    0.000;    0.000
502.580;35448.375;    0.000;    0.000
502.715;28896.375;    0.000;    0.000
502.849;24711.375;    0.000;    0.000
502.983;23438.375;    0.000;    0.000
503.117;23273.375;    0.000;    0.000
503.251;23334.375;    0.000;    0.000
503.385;27656.375;    0.000;    0.000
503.520;41052.375;    0.000;    0.000
503.654;48957.375;    0.000;    0.000
503.788;44939.375;    0.000;    0.000
503.922;38321.375;    0.000;    0.000
504.056;32222.375;    0.000;    0.000
504.190;24984.375;    0.000;    0.000
504.324;23079.375;    0.000;    0.000
504.458;22570.375;    0.000;    0.000
504.592;21611.375;    0.000;    0.000
504.726;20863.375;    0.000;    0.000
504.860;20192.375;    0.000;    0.000
504.994;19786.375;    0.000;    0.000
505.128;20151.375;    0.000;    0.000
505.262;21076.375;    0.000;    0.000
505.396;20522.375;    0.000;    0.000
505.530;19030.375;    0.000;    0.000
505.664;18527.375;    0.000;    0.000
505.798;18274.375;    0.000;    0.000
505.932;17870.375;    0.000;    0.000
506.066;18565.375;    0.000;    0.000
506.199;20065.375;    0.000;    0.000
506.333;24114.375;    0.000;    0.000
506.467;27253.375;    0.000;    0.000
506.601;23983.375;    0.000;    0.000
506.735;19471.375;    0.000;    0.000
506.869;20117.375;    0.000;    0.000
507.002;21271.375;    0.000;    0.000
507.136;22963.375;    0.000;    0.000
507.270;22378.375;    0.000;    0.000
507.404;19280.375;    0.000;    0.000
507.537;17259.375;    0.000;    0.000
507.671;16740.375;    0.000;    0.000
507.805;16466.375;    0.000;    0.000
507.939;16257.375;    0.000;    0.000
508.072;16184.375;    0.000;    0.000
508.206;16052.375;    0.000;    0.000
508.340;16128.375;    0.000;    0.000
508.473;16673.375;    0.000;    0.000
508.607;17479.375;    0.000;    0.000
508.740;17616.375;    0.000;    0.000
508.874;16656.375;    0.000;    0.000
509.008;15886.375;    0.000;    0.000
509.141;15819.375;    0.000;    0.000
509.275;15564.375;    0.000;    0.000
509.408;15416.375;    0.000;    0.000
509.542;15418.375;    0.000;    0.000
509.675;15337.375;    0.000;    0.000
509.809;15472.375;    0.000;    0.000
509.942;15720.375;    0.000;    0.000
510.076;15472.375;    0.000;    0.000
510.209;15667.375;    0.000;    0.000
510.343;15331.375;    0.000;    0.000
510.476;15208.375;    0.000;    0.000
510.610;15058.375;    0.000;    0.000
510.743;15198.375;    0.000;    0.000
510.877;15534.375;    0.000;    0.000
511.010;15448.375;    0.000;    0.000
511.143;15794.375;    0.000;    0.000
511.277;16881.375;    0.000;    0.000
511.410;16885.375;    0.000;    0.000
511.543;15747.375;    0.000;    0.000
511.677;15244.375;    0.000;    0.000
511.810;16393.375;    0.000;    0.000
511.943;19021.375;    0.000;    0.000
512.077;20219.375;    0.000;    0.000
512.210;17244.375;    0.000;    0.000
512.343;15622.375;    0.000;    0.000
512.476;15377.375;    0.000;    0.000
512.610;16129.375;    0.000;    0.000
512.743;18904.375;    0.000;    0.000
512.876;22222.375;    0.000;    0.000
513.009;20753.375;    0.000;    0.000
513.142;16883.375;    0.000;    0.000
513.276;15547.375;    0.000;    0.000
513.409;15004.375;    0.000;    0.000
513.542;14661.375;    0.000;    0.000
513.675;14733.375;    0.000;    0.000
513.808;14510.375;    0.000;    0.000
513.941;14718.375;    0.000;    0.000
514.074;14588.375;    0.000;    0.000
514.207;14783.375;    0.000;    0.000
514.340;15461.375;    0.000;    0.000
514.474;17341.375;    0.000;    0.000
514.607;18129.375;    0.000;    0.000
514.740;17284.375;    0.000;    0.000
514.873;15954.375;    0.000;    0.000
515.006;15603.375;    0.000;    0.000
515.139;16581.375;    0.000;    0.000
515.272;18283.375;    0.000;    0.000
515.404;18270.375;    0.000;    0.000
515.537;17405.375;    0.000;    0.000
515.670;15782.375;    0.000;    0.000
515.803;15463.375;    0.000;    0.000
515.936;15280.375;    0.000;    0.000
516.069;15447.375;    0.000;    0.000
516.202;15197.375;    0.000;    0.000
516.335;15529.375;    0.000;    0.000
516.468;15574.375;    0.000;    0.000
516.600;15934.375;    0.000;    0.000
516.733;16202.375;    0.000;    0.000
516.866;16855.375;    0.000;    0.000
516.999;17077.375;    0.000;    0.000
517.132;18005.375;    0.000;    0.000
517.264;21927.375;    0.000;    0.000
517.397;24341.375;    0.000;    0.000
517.530;20582.375;    0.000;    0.000
517.663;17945.375;    0.000;    0.000
517.795;17919.375;    0.000;    0.000
517.928;17670.375;    0.000;    0.000
518.061;17529.375;    0.000;    0.000
518.193;17793.375;    0.000;    0.000
518.326;18833.375;    0.000;    0.000
518.459;21464.375;    0.000;    0.000
518.591;24313.375;    0.000;    0.000
518.724;27321.375;    0.000;    0.000
518.857;30509.375;    0.000;    0.000
518.989;26933.375;    0.000;    0.000
519.122;22306.375;    0.000;    0.000
519.254;25465.375;    0.000;    0.000
519.387;23329.375;    0.000;    0.000
519.519;17615.375;    0.000;    0.000
519.652;15535.375;    0.000;    0.000
519.784;15081.375;    0.000;    0.000
519.917;14759.375;    0.000;    0.000
520.049;15031.375;    0.000;    0.000
520.182;15172.375;    0.000;    0.000
520.314;14852.375;    0.000;    0.000
520.447;15023.375;    0.000;    0.000
520.579;15710.375;    0.000;    0.000
520.712;15870.375;    0.000;    0.000
520.844;17492.375;    0.000;    0.000
520.976;23768.375;    0.000;    0.000
521.109;24790.375;    0.000;    0.000
521.241;18947.375;    0.000;    0.000
521.373;15317.375;    0.000;    0.000
521.506;14112.375;    0.000;    0.000
521.638;14020.375;    0.000;    0.000
521.770;14149.375;    0.000;    0.000
521.903;14372.375;    0.000;    0.000
522.035;14511.375;    0.000;    0.000
522.167;15212.375;    0.000;    0.000
522.300;18708.375;    0.000;    0.000
522.432;24313.375;    0.000;    0.000
522.564;27086.375;    0.000;    0.000
522.696;25000.375;    0.000;    0.000
522.828;19004.375;    0.000;    0.000
522.961;15564.375;    0.000;    0.000
523.093;14537.375;    0.000;    0.000
523.225;13835.375;    0.000;    0.000
523.357;13556.375;    0.000;    0.000
523.489;13206.375;    0.000;    0.000
523.621;13042.375;    0.000;    0.000
523.753;13263.375;    0.000;    0.000
523.885;13578.375;    0.000;    0.000
524.018;13376.375;    0.000;    0.000
524.150;13059.375;    0.000;    0.000
524.282;12797.375;    0.000;    0.000
524.414;12998.375;    0.000;    0.000
524.546;13507.375;    0.000;    0.000
524.678;13928.375;    0.000;    0.000
524.810;13580.375;    0.000;    0.000
524.942;12919.375;    0.000;    0.000
525.074;13329.375;    0.000;    0.000
525.206;13300.375;    0.000;    0.000
525.338;13154.375;    0.000;    0.000
525.469;13102.375;    0.000;    0.000
525.601;13184.375;    0.000;    0.000
525.733;13217.375;    0.000;    0.000
525.865;13198.375;    0.000;    0.000
525.997;13445.375;    0.000;    0.000
526.129;13827.375;    0.000;    0.000
526.261;14108.375;    0.000;    0.000
526.393;13951.375;    0.000;    0.000
526.524;14481.375;    0.000;    0.000
526.656;14715.375;    0.000;    0.000
526.788;14544.375;    0.000;    0.000
526.920;14442.375;    0.000;    0.000
527.052;13592.375;    0.000;    0.000
527.183;12835.375;    0.000;    0.000
527.315;12642.375;    0.000;    0.000
527.447;12432.375;    0.000;    0.000
527.578;12405.375;    0.000;    0.000
527.710;12282.375;    0.000;    0.000
527.842;12316.375;    0.000;    0.000
527.973;12365.375;    0.000;    0.000
528.105;12576.375;    0.000;    0.000
528.237;13517.375;    0.000;    0.000
528.368;14071.375;    0.000;    0.000
528.500;13112.375;    0.000;    0.000
528.632;12483.375;    0.000;    0.000
528.763;12448.375;    0.000;    0.000
528.895;12561.375;    0.000;    0.000
529.026;12322.375;    0.000;    0.000
529.158;12194.375;    0.000;    0.000
529.289;12138.375;    0.000;    0.000
529.421;12606.375;    0.000;    0.000
529.552;13035.375;    0.000;    0.000
529.684;14271.375;    0.000;    0.000
529.815;14391.375;    0.000;    0.000
529.947;13407.375;    0.000;    0.000
530.078;12635.375;    0.000;    0.000
530.210;12364.375;    0.000;    0.000
530.341;12204.375;    0.000;    0.000
530.472;12210.375;    0.000;    0.000
530.604;11996.375;    0.000;    0.000
530.735;12200.375;    0.000;    0.000
530.867;12192.375;    0.000;    0.000
530.998;11914.375;    0.000;    0.000
531.129;12069.375;    0.000;    0.000
531.260;12130.375;    0.000;    0.000
531.392;12168.375;    0.000;    0.000
531.523;12178.375;    0.000;    0.000
531.654;12215.375;    0.000;    0.000
531.786;12325.375;    0.000;    0.000
531.917;12121.375;    0.000;    0.000
532.048;11982.375;    0.000;    0.000
532.179;11915.375;    0.000;    0.000
532.311;11940.375;    0.000;    0.000
532.442;12033.375;    0.000;    0.000
532.573;12001.375;    0.000;    0.000
532.704;11981.375;    0.000;    0.000
532.835;11888.375;    0.000;    0.000
532.966;12032.375;    0.000;    0.000
533.097;12051.375;    0.000;    0.000
533.229;12079.375;    0.000;    0.000
533.360;12161.375;    0.000;    0.000
533.491;13104.375;    0.000;    0.000
533.622;15724.375;    0.000;    0.000
533.753;15790.375;    0.000;    0.000
533.884;13546.375;    0.000;    0.000
534.015;12541.375;    0.000;    0.000
534.146;12210.375;    0.000;    0.000
534.277;12138.375;    0.000;    0.000
534.408;11815.375;    0.000;    0.000
534.539;11865.375;    0.000;    0.000
534.670;11541.375;    0.000;    0.000
534.801;11611.375;    0.000;    0.000
534.932;11801.375;    0.000;    0.000
535.063;12142.375;    0.000;    0.000
535.194;12505.375;    0.000;    0.000
535.324;11919.375;    0.000;    0.000
535.455;11670.375;    0.000;    0.000
535.586;11733.375;    0.000;    0.000
535.717;11621.375;    0.000;    0.000
535.848;11453.375;    0.000;    0.000
535.979;11350.375;    0.000;    0.000
536.109;11371.375;    0.000;    0.000
536.240;11421.375;    0.000;    0.000
536.371;11191.375;    0.000;    0.000
536.502;11427.375;    0.000;    0.000
536.632;11515.375;    0.000;    0.000
536.763;11666.375;    0.000;    0.000
536.894;12213.375;    0.000;    0.000
537.025;12176.375;    0.000;    0.000
537.155;11452.375;    0.000;    0.000
537.286;11378.375;    0.000;    0.000
537.417;11407.375;    0.000;    0.000
537.547;11479.375;    0.000;    0.000
537.678;11456.375;    0.000;    0.000
537.808;11528.375;    0.000;    0.000
537.939;11995.375;    0.000;    0.000
538.070;13218.375;    0.000;    0.000
538.200;12870.375;    0.000;    0.000
538.331;11880.375;    0.000;    0.000
538.461;11552.375;    0.000;    0.000
538.592;11374.375;    0.000;    0.000
538.722;11371.375;    0.000;    0.000
538.853;11879.375;    0.000;    0.000
538.983;12090.375;    0.000;    0.000
539.114;12068.375;    0.000;    0.000
539.244;11609.375;    0.000;    0.000
539.375;11296.375;    0.000;    0.000
539.505;11750.375;    0.000;    0.000
539.636;12525.375;    0.000;    0.000
539.766;12482.375;    0.000;    0.000
539.896;11475.375;    0.000;    0.000
540.027;11234.375;    0.000;    0.000
540.157;11575.375;    0.000;    0.000
540.287;11583.375;    0.000;    0.000
540.418;11727.375;    0.000;    0.000
540.548;11426.375;    0.000;    0.000
540.678;11623.375;    0.000;    0.000
540.809;11660.375;    0.000;    0.000
540.939;12202.375;    0.000;    0.000
541.069;12038.375;    0.000;    0.000
541.200;11343.375;    0.000;    0.000
541.330;11298.375;    0.000;    0.000
541.460;11352.375;    0.000;    0.000
541.590;11359.375;    0.000;    0.000
541.720;11799.375;    0.000;    0.000
541.851;12668.375;    0.000;    0.000
541.981;12487.375;    0.000;    0.000
542.111;11642.375;    0.000;    0.000
542.241;11622.375;    0.000;    0.000
542.371;11462.375;    0.000;    0.000
542.501;11404.375;    0.000;    0.000
542.631;11370.375;    0.000;    0.000
542.761;11725.375;    0.000;    0.000
542.891;12211.375;    0.000;    0.000
543.021;11873.375;    0.000;    0.000
543.151;11248.375;    0.000;    0.000
543.281;11337.375;    0.000;    0.000
543.411;11325.375;    0.000;    0.000
543.542;11352.375;    0.000;    0.000
543.671;11519.375;    0.000;    0.000
543.801;11528.375;    0.000;    0.000
543.931;11509.375;    0.000;    0.000
544.061;11435.375;    0.000;    0.000
544.191;11348.375;    0.000;    0.000
544.321;11274.375;    0.000;    0.000
544.451;11328.375;    0.000;    0.000
544.581;11765.375;    0.000;    0.000
544.711;11932.375;    0.000;    0.000
544.841;12220.375;    0.000;    0.000
544.970;12177.375;    0.000;    0.000
545.100;11982.375;    0.000;    0.000
545.230;12181.375;    0.000;    0.000
545.360;12186.375;    0.000;    0.000
545.490;12160.375;    0.000;    0.000
545.619;12067.375;    0.000;    0.000
545.749;12111.375;    0.000;    0.000
545.879;11983.375;    0.000;    0.000
546.009;12165.375;    0.000;    0.000
546.138;12274.375;    0.000;    0.000
546.268;11852.375;    0.000;    0.000
546.398;11944.375;    0.000;    0.000
546.527;12218.375;    0.000;    0.000
546.657;12069.375;    0.000;    0.000
546.786;12049.375;    0.000;    0.000
546.916;12024.375;    0.000;    0.000
547.046;12564.375;    0.000;    0.000
547.175;12519.375;    0.000;    0.000
547.305;13147.375;    0.000;    0.000
547.434;13425.375;    0.000;    0.000
547.564;12986.375;    0.000;    0.000
547.693;13456.375;    0.000;    0.000
547.823;13688.375;    0.000;    0.000
547.953;13170.375;    0.000;    0.000
548.082;13945.375;    0.000;    0.000
548.211;13951.375;    0.000;    0.000
548.341;13290.375;    0.000;    0.000
548.470;12570.375;    0.000;    0.000
548.600;12725.375;    0.000;    0.000
548.729;13223.375;    0.000;    0.000
548.859;14210.375;    0.000;    0.000
548.988;15029.375;    0.000;    0.000
549.117;14575.375;    0.000;    0.000
549.247;13225.375;    0.000;    0.000
549.376;12964.375;    0.000;    0.000
549.505;12845.375;    0.000;    0.000
549.635;12937.375;    0.000;    0.000
549.764;12786.375;    0.000;    0.000
549.893;12861.375;    0.000;    0.000
550.023;12822.375;    0.000;    0.000
550.152;12871.375;    0.000;    0.000
550.281;14009.375;    0.000;    0.000
550.410;14569.375;    0.000;    0.000
550.539;13591.375;    0.000;    0.000
550.669;12665.375;    0.000;    0.000
550.798;12924.375;    0.000;    0.000
550.927;12725.375;    0.000;    0.000
551.056;13591.375;    0.000;    0.000
551.185;17816.375;    0.000;    0.000
551.314;21747.375;    0.000;    0.000
551.443;22042.375;    0.000;    0.000
551.573;17929.375;    0.000;    0.000
551.702;13140.375;    0.000;    0.000
551.831;12976.375;    0.000;    0.000
551.960;12820.375;    0.000;    0.000
552.089;12955.375;    0.000;    0.000
552.218;12893.375;    0.000;    0.000
552.347;13254.375;    0.000;    0.000
552.476;13200.375;    0.000;    0.000
552.605;13278.375;    0.000;    0.000
552.734;13488.375;    0.000;    0.000
552.863;13711.375;    0.000;    0.000
552.992;13893.375;    0.000;    0.000
553.121;14420.375;    0.000;    0.000
553.249;14039.375;    0.000;    0.000
553.378;14068.375;    0.000;    0.000
553.507;13776.375;    0.000;    0.000
553.636;13813.375;    0.000;    0.000
553.765;13766.375;    0.000;    0.000
553.894;13762.375;    0.000;    0.000
554.023;13496.375;    0.000;    0.000
554.151;13342.375;    0.000;    0.000
554.280;13177.375;    0.000;    0.000
554.409;13205.375;    0.000;    0.000
554.538;13343.375;    0.000;    0.000
554.666;13278.375;    0.000;    0.000
554.795;13093.375;    0.000;    0.000
554.924;12827.375;    0.000;    0.000
555.052;12805.375;    0.000;    0.000
555.181;12842.375;    0.000;    0.000
555.310;12607.375;    0.000;    0.000
555.439;12635.375;    0.000;    0.000
555.567;12378.375;    0.000;    0.000
555.696;12631.375;    0.000;    0.000
555.824;12471.375;    0.000;    0.000
555.953;12464.375;    0.000;    0.000
556.082;12356.375;    0.000;    0.000
556.210;12505.375;    0.000;    0.000
556.339;12564.375;    0.000;    0.000
556.467;13906.375;    0.000;    0.000
556.596;14338.375;    0.000;    0.000
556.724;12910.375;    0.000;    0.000
556.853;12309.375;    0.000;    0.000
556.981;12256.375;    0.000;    0.000
557.110;12131.375;    0.000;    0.000
557.238;12237.375;    0.000;    0.000
557.367;12253.375;    0.000;    0.000
557.495;12255.375;    0.000;    0.000
557.623;12268.375;    0.000;    0.000
557.752;12384.375;    0.000;    0.000
557.880;12459.375;    0.000;    0.000
558.008;12599.375;    0.000;    0.000
558.137;12420.375;    0.000;    0.000
558.265;12694.375;    0.000;    0.000
558.393;12796.375;    0.000;    0.000
558.522;12700.375;    0.000;    0.000
558.650;12692.375;    0.000;    0.000
558.778;12458.375;    0.000;    0.000
558.906;12219.375;    0.000;    0.000
559.035;12078.375;    0.000;    0.000
559.163;12340.375;    0.000;    0.000
559.291;12222.375;    0.000;    0.000
559.419;12295.375;    0.000;    0.000
559.548;12210.375;    0.000;    0.000
559.676;12495.375;    0.000;    0.000
559.804;12742.375;    0.000;    0.000
559.932;12873.375;    0.000;    0.000
560.060;12528.375;    0.000;    0.000
560.188;12693.375;    0.000;    0.000
560.316;12584.375;    0.000;    0.000
560.444;12589.375;    0.000;    0.000
560.572;12485.375;    0.000;    0.000
560.700;12452.375;    0.000;    0.000
560.828;12635.375;    0.000;    0.000
560.956;12472.375;    0.000;    0.000
561.085;12737.375;    0.000;    0.000
561.212;12563.375;    0.000;    0.000
561.340;12592.375;    0.000;    0.000
561.468;12666.375;    0.000;    0.000
561.596;12730.375;    0.000;    0.000
561.724;12619.375;    0.000;    0.000
561.852;12734.375;    0.000;    0.000
561.980;12682.375;    0.000;    0.000
562.108;12781.375;    0.000;    0.000
562.236;12773.375;    0.000;    0.000
562.364;13110.375;    0.000;    0.000
562.492;13261.375;    0.000;    0.000
562.619;13237.375;    0.000;    0.000
562.747;13399.375;    0.000;    0.000
562.875;13323.375;    0.000;    0.000
563.003;13455.375;    0.000;    0.000
563.130;13409.375;    0.000;    0.000
563.258;13193.375;    0.000;    0.000
563.386;13448.375;    0.000;    0.000
563.514;13492.375;    0.000;    0.000
563.641;13742.375;    0.000;    0.000
563.769;13833.375;    0.000;    0.000
563.897;13689.375;    0.000;    0.000
564.024;13816.375;    0.000;    0.000
564.152;14328.375;    0.000;    0.000
564.280;16319.375;    0.000;    0.000
564.407;18865.375;    0.000;    0.000
564.535;17347.375;    0.000;    0.000
564.662;14908.375;    0.000;    0.000
564.790;15520.375;    0.000;    0.000
564.917;15682.375;    0.000;    0.000
565.045;15091.375;    0.000;    0.000
565.173;14992.375;    0.000;    0.000
565.300;15120.375;    0.000;    0.000
565.428;15692.375;    0.000;    0.000
565.555;15745.375;    0.000;    0.000
565.682;16018.375;    0.000;    0.000
565.810;16466.375;    0.000;    0.000
565.937;16842.375;    0.000;    0.000
566.065;18030.375;    0.000;    0.000
566.192;20555.375;    0.000;    0.000
566.320;21281.375;    0.000;    0.000
566.447;19591.375;    0.000;    0.000
566.574;19405.375;    0.000;    0.000
566.702;19805.375;    0.000;    0.000
566.829;19878.375;    0.000;    0.000
566.956;19933.375;    0.000;    0.000
567.083;20266.375;    0.000;    0.000
567.211;20829.375;    0.000;    0.000
567.338;21247.375;    0.000;    0.000
567.465;23315.375;    0.000;    0.000
567.593;23613.375;    0.000;    0.000
567.720;23009.375;    0.000;    0.000
567.847;22535.375;    0.000;    0.000
567.974;22224.375;    0.000;    0.000
568.101;21470.375;    0.000;    0.000
568.228;20491.375;    0.000;    0.000
568.356;19449.375;    0.000;    0.000
568.483;18854.375;    0.000;    0.000
568.610;18254.375;    0.000;    0.000
568.737;17755.375;    0.000;    0.000
568.864;18024.375;    0.000;    0.000
568.991;17849.375;    0.000;    0.000
569.118;17163.375;    0.000;    0.000
569.245;16481.375;    0.000;    0.000
569.372;16242.375;    0.000;    0.000
569.499;15772.375;    0.000;    0.000
569.626;15685.375;    0.000;    0.000
569.753;15932.375;    0.000;    0.000
569.880;16003.375;    0.000;    0.000
570.007;15495.375;    0.000;    0.000
570.134;15454.375;    0.000;    0.000
570.261;16577.375;    0.000;    0.000
570.388;16472.375;    0.000;    0.000
570.515;15538.375;    0.000;    0.000
570.642;15704.375;    0.000;    0.000
570.768;15865.375;    0.000;    0.000
570.895;15651.375;    0.000;    0.000
571.022;15448.375;    0.000;    0.000
571.149;15553.375;    0.000;    0.000
571.276;15684.375;    0.000;    0.000
571.402;15909.375;    0.000;    0.000
571.529;16234.375;    0.000;    0.000
571.656;15526.375;    0.000;    0.000
571.783;14731.375;    0.000;    0.000
571.909;14348.375;    0.000;    0.000
572.036;14357.375;    0.000;    0.000
572.163;14283.375;    0.000;    0.000
572.289;13895.375;    0.000;    0.000
572.416;13952.375;    0.000;    0.000
572.543;14238.375;    0.000;    0.000
572.669;14835.375;    0.000;    0.000
572.796;14506.375;    0.000;    0.000
572.922;13450.375;    0.000;    0.000
573.049;13662.375;    0.000;    0.000
573.176;13639.375;    0.000;    0.000
573.302;13520.375;    0.000;    0.000
573.429;13629.375;    0.000;    0.000
573.555;13501.375;    0.000;    0.000
573.682;13473.375;    0.000;    0.000
573.808;14012.375;    0.000;    0.000
573.935;14800.375;    0.000;    0.000
574.061;14683.375;    0.000;    0.000
574.188;13545.375;    0.000;    0.000
574.314;13579.375;    0.000;    0.000
574.440;13506.375;    0.000;    0.000
574.567;13506.375;    0.000;    0.000
574.693;13194.375;    0.000;    0.000
574.820;13427.375;    0.000;    0.000
574.946;13424.375;    0.000;    0.000
575.072;13183.375;    0.000;    0.000
575.198;13233.375;    0.000;    0.000
575.325;13417.375;    0.000;    0.000
575.451;13308.375;    0.000;    0.000
575.577;13578.375;    0.000;    0.000
575.704;13604.375;    0.000;    0.000
575.830;13425.375;    0.000;    0.000
575.956;13397.375;    0.000;    0.000
576.082;13790.375;    0.000;    0.000
576.208;14147.375;    0.000;    0.000
576.335;14034.375;    0.000;    0.000
576.461;14069.375;    0.000;    0.000
576.587;14369.375;    0.000;    0.000
576.713;13989.375;    0.000;    0.000
576.839;13618.375;    0.000;    0.000
576.965;13661.375;    0.000;    0.000
577.091;13635.375;    0.000;    0.000
577.217;13921.375;    0.000;    0.000
577.343;14443.375;    0.000;    0.000
577.469;14345.375;    0.000;    0.000
577.596;13693.375;    0.000;    0.000
577.722;13346.375;    0.000;    0.000
577.848;13197.375;    0.000;    0.000
577.974;13534.375;    0.000;    0.000
578.099;13577.375;    0.000;    0.000
578.225;13495.375;    0.000;    0.000
578.351;13495.375;    0.000;    0.000
578.477;14241.375;    0.000;    0.000
578.603;14573.375;    0.000;    0.000
578.729;13879.375;    0.000;    0.000
578.855;13478.375;    0.000;    0.000
578.981;13386.375;    0.000;    0.000
579.107;13343.375;    0.000;    0.000
579.232;13447.375;    0.000;    0.000
579.358;13310.375;    0.000;    0.000
579.484;13315.375;    0.000;    0.000
579.610;13311.375;    0.000;    0.000
579.735;13436.375;    0.000;    0.000
579.861;13358.375;    0.000;    0.000
579.987;13303.375;    0.000;    0.000
580.113;13442.375;    0.000;    0.000
580.238;13774.375;    0.000;    0.000
580.364;14108.375;    0.000;    0.000
580.490;14481.375;    0.000;    0.000
580.615;13796.375;    0.000;    0.000
580.741;13631.375;    0.000;    0.000
580.867;13827.375;    0.000;    0.000
580.992;13654.375;    0.000;    0.000
581.118;13569.375;    0.000;    0.000
581.243;13656.375;    0.000;    0.000
581.369;13310.375;    0.000;    0.000
581.494;13132.375;    0.000;    0.000
581.620;13407.375;    0.000;    0.000
581.745;13183.375;    0.000;    0.000
581.871;13356.375;    0.000;    0.000
581.996;13197.375;    0.000;    0.000
582.122;13288.375;    0.000;    0.000
582.247;13540.375;    0.000;    0.000
582.373;13456.375;    0.000;    0.000
582.498;13526.375;    0.000;    0.000
582.624;13361.375;    0.000;    0.000
582.749;13288.375;    0.000;    0.000
582.874;13182.375;    0.000;    0.000
583.000;13260.375;    0.000;    0.000
583.125;13439.375;    0.000;    0.000
583.250;13363.375;    0.000;    0.000
583.376;13414.375;    0.000;    0.000
583.501;13479.375;    0.000;    0.000
583.626;13250.375;    0.000;    0.000
583.751;13394.375;    0.000;    0.000
583.877;13606.375;    0.000;    0.000
584.002;13623.375;    0.000;    0.000
584.127;13784.375;    0.000;    0.000
584.252;13469.375;    0.000;    0.000
584.377;13455.375;    0.000;    0.000
584.503;13453.375;    0.000;    0.000
584.628;13496.375;    0.000;    0.000
584.753;13430.375;    0.000;    0.000
584.878;13571.375;    0.000;    0.000
585.003;13428.375;    0.000;    0.000
585.128;13489.375;    0.000;    0.000
585.253;13538.375;    0.000;    0.000
585.378;13669.375;    0.000;    0.000
585.503;13612.375;    0.000;    0.000
585.628;13404.375;    0.000;    0.000
585.753;13577.375;    0.000;    0.000
585.878;13327.375;    0.000;    0.000
586.003;13469.375;    0.000;    0.000
586.128;13594.375;    0.000;    0.000
586.253;13684.375;    0.000;    0.000
586.378;13941.375;    0.000;    0.000
586.503;15668.375;    0.000;    0.000
586.628;18753.375;    0.000;    0.000
586.753;17253.375;    0.000;    0.000
586.878;14130.375;    0.000;    0.000
587.003;13951.375;    0.000;    0.000
587.127;13752.375;    0.000;    0.000
587.252;13929.375;    0.000;    0.000
587.377;14057.375;    0.000;    0.000
587.502;13969.375;    0.000;    0.000
587.627;14146.375;    0.000;    0.000
587.751;14344.375;    0.000;    0.000
587.876;14643.375;    0.000;    0.000
588.001;14577.375;    0.000;    0.000
588.125;14669.375;    0.000;    0.000
588.250;14649.375;    0.000;    0.000
588.375;14850.375;    0.000;    0.000
588.499;14940.375;    0.000;    0.000
588.624;15427.375;    0.000;    0.000
588.749;16569.375;    0.000;    0.000
588.873;19507.375;    0.000;    0.000
588.998;22223.375;    0.000;    0.000
589.122;20372.375;    0.000;    0.000
589.247;17470.375;    0.000;    0.000
589.372;16957.375;    0.000;    0.000
589.496;18736.375;    0.000;    0.000
589.621;19566.375;    0.000;    0.000
589.745;18710.375;    0.000;    0.000
589.870;19277.375;    0.000;    0.000
589.994;18559.375;    0.000;    0.000
590.118;16458.375;    0.000;    0.000
590.243;15881.375;    0.000;    0.000
590.367;15963.375;    0.000;    0.000
590.492;15769.375;    0.000;    0.000
590.616;15486.375;    0.000;    0.000
590.740;15479.375;    0.000;    0.000
590.865;15521.375;    0.000;    0.000
590.989;15682.375;    0.000;    0.000
591.114;15559.375;    0.000;    0.000
591.238;15625.375;    0.000;    0.000
591.362;15750.375;    0.000;    0.000
591.486;15891.375;    0.000;    0.000
591.611;16151.375;    0.000;    0.000
591.735;16744.375;    0.000;    0.000
591.859;16905.375;    0.000;    0.000
591.983;16857.375;    0.000;    0.000
592.107;17702.375;    0.000;    0.000
592.232;18408.375;    0.000;    0.000
592.356;17844.375;    0.000;    0.000
592.480;17735.375;    0.000;    0.000
592.604;17837.375;    0.000;    0.000
592.728;18073.375;    0.000;    0.000
592.852;18356.375;    0.000;    0.000
592.976;18912.375;    0.000;    0.000
593.100;19124.375;    0.000;    0.000
593.224;18863.375;    0.000;    0.000
593.349;18987.375;    0.000;    0.000
593.473;18936.375;    0.000;    0.000
593.597;19084.375;    0.000;    0.000
593.721;19636.375;    0.000;    0.000
593.844;19864.375;    0.000;    0.000
593.968;20112.375;    0.000;    0.000
594.092;20676.375;    0.000;    0.000
594.216;20592.375;    0.000;    0.000
594.340;19534.375;    0.000;    0.000
594.464;18826.375;    0.000;    0.000
594.588;18550.375;    0.000;    0.000
594.712;18122.375;    0.000;    0.000
594.836;17982.375;    0.000;    0.000
594.959;17917.375;    0.000;    0.000
595.083;17893.375;    0.000;    0.000
595.207;20173.375;    0.000;    0.000
595.331;21529.375;    0.000;    0.000
595.455;19485.375;    0.000;    0.000
595.578;17599.375;    0.000;    0.000
595.702;17261.375;    0.000;    0.000
595.826;17241.375;    0.000;    0.000
595.949;16651.375;    0.000;    0.000
596.073;16507.375;    0.000;    0.000
596.197;16580.375;    0.000;    0.000
596.320;16759.375;    0.000;    0.000
596.444;18119.375;    0.000;    0.000
596.568;19820.375;    0.000;    0.000
596.691;18924.375;    0.000;    0.000
596.815;16916.375;    0.000;    0.000
596.938;17060.375;    0.000;    0.000
597.062;17218.375;    0.000;    0.000
597.186;17306.375;    0.000;    0.000
597.309;17366.375;    0.000;    0.000
597.433;17304.375;    0.000;    0.000
597.556;17212.375;    0.000;    0.000
597.680;18023.375;    0.000;    0.000
597.803;20127.375;    0.000;    0.000
597.926;20111.375;    0.000;    0.000
598.050;17888.375;    0.000;    0.000
598.173;17280.375;    0.000;    0.000
598.297;17214.375;    0.000;    0.000
598.420;17480.375;    0.000;    0.000
598.543;17768.375;    0.000;    0.000
598.667;18040.375;    0.000;    0.000
598.790;18430.375;    0.000;    0.000
598.913;18869.375;    0.000;    0.000
599.037;19096.375;    0.000;    0.000
599.160;18696.375;    0.000;    0.000
599.283;19036.375;    0.000;    0.000
599.406;19343.375;    0.000;    0.000
599.530;20083.375;    0.000;    0.000
599.653;19996.375;    0.000;    0.000
599.776;20330.375;    0.000;    0.000
599.899;20918.375;    0.000;    0.000
600.022;21186.375;    0.000;    0.000
600.145;20590.375;    0.000;    0.000
600.269;20354.375;    0.000;    0.000
600.392;20185.375;    0.000;    0.000
600.515;19943.375;    0.000;    0.000
600.638;19411.375;    0.000;    0.000
600.761;19115.375;    0.000;    0.000
600.884;18695.375;    0.000;    0.000
601.007;18481.375;    0.000;    0.000
601.130;18500.375;    0.000;    0.000
601.253;19132.375;    0.000;    0.000
601.376;19218.375;    0.000;    0.000
601.499;18534.375;    0.000;    0.000
601.622;18393.375;    0.000;    0.000
601.745;18176.375;    0.000;    0.000
601.868;18078.375;    0.000;    0.000
601.991;17741.375;    0.000;    0.000
602.113;17827.375;    0.000;    0.000
602.236;17791.375;    0.000;    0.000
602.359;17752.375;    0.000;    0.000
602.482;18025.375;    0.000;    0.000
602.605;18101.375;    0.000;    0.000
602.728;18454.375;    0.000;    0.000
602.850;18740.375;    0.000;    0.000
602.973;19284.375;    0.000;    0.000
603.096;19675.375;    0.000;    0.000
603.219;20237.375;    0.000;    0.000
603.341;20613.375;    0.000;    0.000
603.464;20382.375;    0.000;    0.000
603.587;20016.375;    0.000;    0.000
603.709;19706.375;    0.000;    0.000
603.832;19763.375;    0.000;    0.000
603.955;19851.375;    0.000;    0.000
604.077;19975.375;    0.000;    0.000
604.200;19502.375;    0.000;    0.000
604.323;19225.375;    0.000;    0.000
604.445;18926.375;    0.000;    0.000
604.568;18620.375;    0.000;    0.000
604.690;18412.375;    0.000;    0.000
604.813;18007.375;    0.000;    0.000
604.935;17769.375;    0.000;    0.000
605.058;17261.375;    0.000;    0.000
605.180;17102.375;    0.000;    0.000
605.303;16986.375;    0.000;    0.000
605.425;16726.375;    0.000;    0.000
605.547;16821.375;    0.000;    0.000
605.670;16701.375;    0.000;    0.000
605.792;16685.375;    0.000;    0.000
605.915;16365.375;    0.000;    0.000
606.037;16265.375;    0.000;    0.000
606.159;16153.375;    0.000;    0.000
606.282;16173.375;    0.000;    0.000
606.404;16847.375;    0.000;    0.000
606.526;16805.375;    0.000;    0.000
606.648;16715.375;    0.000;    0.000
606.771;16785.375;    0.000;    0.000
606.893;16709.375;    0.000;    0.000
607.015;16770.375;    0.000;    0.000
607.137;16845.375;    0.000;    0.000
607.260;16582.375;    0.000;    0.000
607.382;16569.375;    0.000;    0.000
607.504;16533.375;    0.000;    0.000
607.626;16561.375;    0.000;    0.000
607.748;16497.375;    0.000;    0.000
607.870;16337.375;    0.000;    0.000
607.992;16339.375;    0.000;    0.000
608.114;16307.375;    0.000;    0.000
608.237;15971.375;    0.000;    0.000
608.359;15911.375;    0.000;    0.000
608.481;16479.375;    0.000;    0.000
608.603;15844.375;    0.000;    0.000
608.725;15108.375;    0.000;    0.000
608.847;15056.375;    0.000;    0.000
608.969;16204.375;    0.000;    0.000
609.090;17170.375;    0.000;    0.000
609.212;16424.375;    0.000;    0.000
609.334;14930.375;    0.000;    0.000
609.456;14306.375;    0.000;    0.000
609.578;14008.375;    0.000;    0.000
609.700;14117.375;    0.000;    0.000
609.822;14528.375;    0.000;    0.000
609.944;14823.375;    0.000;    0.000
610.065;14215.375;    0.000;    0.000
610.187;13976.375;    0.000;    0.000
610.309;14023.375;    0.000;    0.000
610.431;14104.375;    0.000;    0.000
610.552;14264.375;    0.000;    0.000
610.674;14058.375;    0.000;    0.000
610.796;14058.375;    0.000;    0.000
610.918;13970.375;    0.000;    0.000
611.039;13824.375;    0.000;    0.000
611.161;13776.375;    0.000;    0.000
611.282;13683.375;    0.000;    0.000
611.404;13439.375;    0.000;    0.000
611.526;13239.375;    0.000;    0.000
611.647;13508.375;    0.000;    0.000
611.769;13418.375;    0.000;    0.000
611.890;13712.375;    0.000;    0.000
612.012;13734.375;    0.000;    0.000
612.133;13468.375;    0.000;    0.000
612.255;13204.375;    0.000;    0.000
612.377;13243.375;    0.000;    0.000
612.498;13850.375;    0.000;    0.000
612.619;14391.375;    0.000;    0.000
612.741;13818.375;    0.000;    0.000
612.862;13256.375;    0.000;    0.000
612.984;13004.375;    0.000;    0.000
613.105;13003.375;    0.000;    0.000
613.226;13080.375;    0.000;    0.000
613.348;13245.375;    0.000;    0.000
613.469;13290.375;    0.000;    0.000
613.590;13246.375;    0.000;    0.000
613.712;13134.375;    0.000;    0.000
613.833;13282.375;    0.000;    0.000
613.954;13365.375;    0.000;    0.000
614.076;13255.375;    0.000;    0.000
614.197;13299.375;    0.000;    0.000
614.318;13495.375;    0.000;    0.000
614.439;13333.375;    0.000;    0.000
614.560;13539.375;    0.000;    0.000
614.682;13346.375;    0.000;    0.000
614.803;13390.375;    0.000;    0.000
614.924;13688.375;    0.000;    0.000
615.045;13253.375;    0.000;    0.000
615.166;13066.375;    0.000;    0.000
615.287;12963.375;    0.000;    0.000
615.408;13053.375;    0.000;    0.000
615.529;13142.375;    0.000;    0.000
615.650;13091.375;    0.000;    0.000
615.771;13237.375;    0.000;    0.000
615.892;13464.375;    0.000;    0.000
616.013;13069.375;    0.000;    0.000
616.134;13145.375;    0.000;    0.000
616.255;13122.375;    0.000;    0.000
616.376;13179.375;    0.000;    0.000
616.497;13248.375;    0.000;    0.000
616.618;13159.375;    0.000;    0.000
616.739;13245.375;    0.000;    0.000
616.860;13133.375;    0.000;    0.000
616.981;13210.375;    0.000;    0.000
617.102;13054.375;    0.000;    0.000
617.222;13216.375;    0.000;    0.000
617.343;13305.375;    0.000;    0.000
617.464;13307.375;    0.000;    0.000
617.585;13303.375;    0.000;    0.000
617.705;13487.375;    0.000;    0.000
617.826;13376.375;    0.000;    0.000
617.947;13443.375;    0.000;    0.000
618.068;13180.375;    0.000;    0.000
618.188;13008.375;    0.000;    0.000
618.309;13212.375;    0.000;    0.000
618.430;13088.375;    0.000;    0.000
618.550;13286.375;    0.000;    0.000
618.671;13194.375;    0.000;    0.000
618.791;13052.375;    0.000;    0.000
618.912;13034.375;    0.000;    0.000
619.033;13042.375;    0.000;    0.000
619.153;12841.375;    0.000;    0.000
619.274;12933.375;    0.000;    0.000
619.394;12886.375;    0.000;    0.000
619.515;12633.375;    0.000;    0.000
619.635;12641.375;    0.000;    0.000
619.756;12399.375;    0.000;    0.000
619.876;12653.375;    0.000;    0.000
619.996;12575.375;    0.000;    0.000
620.117;12605.375;    0.000;    0.000
620.237;12507.375;    0.000;    0.000
620.358;12438.375;    0.000;    0.000
620.478;12275.375;    0.000;    0.000
620.598;12364.375;    0.000;    0.000
620.719;12271.375;    0.000;    0.000
620.839;12132.375;    0.000;    0.000
620.959;12431.375;    0.000;    0.000
621.079;12440.375;    0.000;    0.000
621.200;12410.375;    0.000;    0.000
621.320;12982.375;    0.000;    0.000
621.440;13828.375;    0.000;    0.000
621.560;14400.375;    0.000;    0.000
621.681;13536.375;    0.000;    0.000
621.801;13209.375;    0.000;    0.000
621.921;13263.375;    0.000;    0.000
622.041;14140.375;    0.000;    0.000
622.161;14256.375;    0.000;    0.000
622.281;13692.375;    0.000;    0.000
622.401;13329.375;    0.000;    0.000
622.521;13040.375;    0.000;    0.000
622.641;12726.375;    0.000;    0.000
622.761;12798.375;    0.000;    0.000
622.882;12742.375;    0.000;    0.000
623.002;12913.375;    0.000;    0.000
623.121;13022.375;    0.000;    0.000
623.241;13187.375;    0.000;    0.000
623.361;12965.375;    0.000;    0.000
623.481;13223.375;    0.000;    0.000
623.601;13003.375;    0.000;    0.000
623.721;13095.375;    0.000;    0.000
623.841;13102.375;    0.000;    0.000
623.961;13069.375;    0.000;    0.000
624.081;13168.375;    0.000;    0.000
624.201;13622.375;    0.000;    0.000
624.320;13774.375;    0.000;    0.000
624.440;13797.375;    0.000;    0.000
624.560;13343.375;    0.000;    0.000
624.680;12944.375;    0.000;    0.000
624.799;13041.375;    0.000;    0.000
624.919;12939.375;    0.000;    0.000
625.039;13025.375;    0.000;    0.000
625.159;13204.375;    0.000;    0.000
625.278;12934.375;    0.000;    0.000
625.398;13075.375;    0.000;    0.000
625.518;13118.375;    0.000;    0.000
625.637;14955.375;    0.000;    0.000
625.757;23364.375;    0.000;    0.000
625.876;26741.375;    0.000;    0.000
625.996;22248.375;    0.000;    0.000
626.115;18681.375;    0.000;    0.000
626.235;16072.375;    0.000;    0.000
626.354;12938.375;    0.000;    0.000
626.474;12425.375;    0.000;    0.000
626.594;12446.375;    0.000;    0.000
626.713;12351.375;    0.000;    0.000
626.832;12300.375;    0.000;    0.000
626.952;12147.375;    0.000;    0.000
627.071;12185.375;    0.000;    0.000
627.191;12069.375;    0.000;    0.000
627.310;11918.375;    0.000;    0.000
627.429;12176.375;    0.000;    0.000
627.549;12028.375;    0.000;    0.000
627.668;12085.375;    0.000;    0.000
627.787;12093.375;    0.000;    0.000
627.907;11949.375;    0.000;    0.000
628.026;11766.375;    0.000;    0.000
628.145;11922.375;    0.000;    0.000
628.264;12001.375;    0.000;    0.000
628.384;11979.375;    0.000;    0.000
628.503;12127.375;    0.000;    0.000
628.622;11991.375;    0.000;    0.000
628.741;11741.375;    0.000;    0.000
628.860;11689.375;    0.000;    0.000
628.980;11566.375;    0.000;    0.000
629.099;11604.375;    0.000;    0.000
629.218;11774.375;    0.000;    0.000
629.337;11973.375;    0.000;    0.000
629.456;11701.375;    0.000;    0.000
629.575;12005.375;    0.000;    0.000
629.694;11946.375;    0.000;    0.000
629.813;11869.375;    0.000;    0.000
629.932;11597.375;    0.000;    0.000
630.051;11521.375;    0.000;    0.000
630.170;11569.375;    0.000;    0.000
630.289;11935.375;    0.000;    0.000
630.408;12025.375;    0.000;    0.000
630.527;11821.375;    0.000;    0.000
630.646;11631.375;    0.000;    0.000
630.764;11811.375;    0.000;    0.000
630.883;11716.375;    0.000;    0.000
631.002;11917.375;    0.000;    0.000
631.121;12217.375;    0.000;    0.000
631.240;12506.375;    0.000;    0.000
631.359;12226.375;    0.000;    0.000
631.477;11910.375;    0.000;    0.000
631.596;11769.375;    0.000;    0.000
631.715;11701.375;    0.000;    0.000
631.834;11883.375;    0.000;    0.000
631.952;11711.375;    0.000;    0.000
632.071;11573.375;    0.000;    0.000
632.190;11323.375;    0.000;    0.000
632.308;11495.375;    0.000;    0.000
632.427;11444.375;    0.000;    0.000
632.546;11112.375;    0.000;    0.000
632.664;11375.375;    0.000;    0.000
632.783;11044.375;    0.000;    0.000
632.901;11002.375;    0.000;    0.000
633.020;10900.375;    0.000;    0.000
633.138;11092.375;    0.000;    0.000
633.257;10968.375;    0.000;    0.000
633.375;10970.375;    0.000;    0.000
633.494;11077.375;    0.000;    0.000
633.612;11142.375;    0.000;    0.000
633.731;10942.375;    0.000;    0.000
633.849;10758.375;    0.000;    0.000
633.968;10851.375;    0.000;    0.000
634.086;10747.375;    0.000;    0.000
634.204;10779.375;    0.000;    0.000
634.323;10707.375;    0.000;    0.000
634.441;10873.375;    0.000;    0.000
634.559;10714.375;    0.000;    0.000
634.678;10784.375;    0.000;    0.000
634.796;10704.375;    0.000;    0.000
634.914;10628.375;    0.000;    0.000
635.032;10641.375;    0.000;    0.000
635.151;10763.375;    0.000;    0.000
635.269;10656.375;    0.000;    0.000
635.387;10632.375;    0.000;    0.000
635.505;10534.375;    0.000;    0.000
635.623;10683.375;    0.000;    0.000
635.742;10536.375;    0.000;    0.000
635.860;10646.375;    0.000;    0.000
635.978;10550.375;    0.000;    0.000
636.096;10401.375;    0.000;    0.000
636.214;10622.375;    0.000;    0.000
636.332;10428.375;    0.000;    0.000
636.450;10195.375;    0.000;    0.000
636.568;10549.375;    0.000;    0.000
636.686;10485.375;    0.000;    0.000
636.804;10385.375;    0.000;    0.000
636.922;10144.375;    0.000;    0.000
637.040;10406.375;    0.000;    0.000
637.158;10353.375;    0.000;    0.000
637.276;10135.375;    0.000;    0.000
637.394;10013.375;    0.000;    0.000
637.512;10190.375;    0.000;    0.000
637.629;10137.375;    0.000;    0.000
637.747; 9947.375;    0.000;    0.000
637.865;10100.375;    0.000;    0.000
637.983;10045.375;    0.000;    0.000
638.101;10049.375;    0.000;    0.000
638.218;10331.375;    0.000;    0.000
638.336;10140.375;    0.000;    0.000
638.454;10008.375;    0.000;    0.000
638.572; 9993.375;    0.000;    0.000
638.689; 9889.375;    0.000;    0.000
638.807; 9988.375;    0.000;    0.000
638.925; 9870.375;    0.000;    0.000
639.042; 9874.375;    0.000;    0.000
639.160; 9631.375;    0.000;    0.000
639.278; 9729.375;    0.000;    0.000
639.395; 9914.375;    0.000;    0.000
639.513;10013.375;    0.000;    0.000
639.630; 9855.375;    0.000;    0.000
639.748; 9764.375;    0.000;    0.000
639.865; 9915.375;    0.000;    0.000
639.983; 9787.375;    0.000;    0.000
640.100; 9835.375;    0.000;    0.000
640.218; 9678.375;    0.000;    0.000
640.335; 9542.375;    0.000;    0.000
640.453; 9426.375;    0.000;    0.000
640.570; 9728.375;    0.000;    0.000
640.688; 9658.375;    0.000;    0.000
640.805; 9811.375;    0.000;    0.000
640.922; 9517.375;    0.000;    0.000
641.040; 9549.375;    0.000;    0.000
641.157; 9550.375;    0.000;    0.000
641.274; 9429.375;    0.000;    0.000
641.391; 9568.375;    0.000;    0.000
641.509; 9575.375;    0.000;    0.000
641.626; 9827.375;    0.000;    0.000
641.743; 9675.375;    0.000;    0.000
641.860; 9703.375;    0.000;    0.000
641.978; 9800.375;    0.000;    0.000
642.095; 9458.375;    0.000;    0.000
642.212; 9498.375;    0.000;    0.000
642.329; 9398.375;    0.000;    0.000
642.446; 9498.375;    0.000;    0.000
642.563; 9376.375;    0.000;    0.000
642.681; 9419.375;    0.000;    0.000
642.798; 9453.375;    0.000;    0.000
642.915; 9469.375;    0.000;    0.000
643.032; 9449.375;    0.000;    0.000
643.149; 9602.375;    0.000;    0.000
643.266; 9556.375;    0.000;    0.000
643.383; 9449.375;    0.000;    0.000
643.500; 9421.375;    0.000;    0.000
643.617; 9659.375;    0.000;    0.000
643.734; 9469.375;    0.000;    0.000
643.850; 9660.375;    0.000;    0.000
643.967; 9741.375;    0.000;    0.000
644.084; 9609.375;    0.000;    0.000
644.201; 9570.375;    0.000;    0.000
644.318; 9383.375;    0.000;    0.000
644.435; 9724.375;    0.000;    0.000
644.552; 9599.375;    0.000;    0.000
644.668; 9797.375;    0.000;    0.000
644.785; 9749.375;    0.000;    0.000
644.902; 9778.375;    0.000;    0.000
645.019; 9624.375;    0.000;    0.000
645.135; 9786.375;    0.000;    0.000
645.252; 9705.375;    0.000;    0.000
645.369; 9779.375;    0.000;    0.000
645.485; 9653.375;    0.000;    0.000
645.602; 9782.375;    0.000;    0.000
645.719; 9559.375;    0.000;    0.000
645.835; 9577.375;    0.000;    0.000
645.952; 9536.375;    0.000;    0.000
646.068; 9699.375;    0.000;    0.000
646.185; 9727.375;    0.000;    0.000
646.302; 9636.375;    0.000;    0.000
646.418; 9701.375;    0.000;    0.000
646.535; 9650.375;    0.000;    0.000
646.651; 9856.375;    0.000;    0.000
646.768; 9674.375;    0.000;    0.000
646.884; 9622.375;    0.000;    0.000
647.000; 9917.375;    0.000;    0.000
647.117; 9781.375;    0.000;    0.000
647.233; 9850.375;    0.000;    0.000
647.350; 9945.375;    0.000;    0.000
647.466;10025.375;    0.000;    0.000
647.582;10089.375;    0.000;    0.000
647.699; 9991.375;    0.000;    0.000
647.815;10063.375;    0.000;    0.000
647.931;10199.375;    0.000;    0.000
648.047;10227.375;    0.000;    0.000
648.164;10423.375;    0.000;    0.000
648.280;10296.375;    0.000;    0.000
648.396;10160.375;    0.000;    0.000
648.512;10322.375;    0.000;    0.000
648.629;10360.375;    0.000;    0.000
648.745;10330.375;    0.000;    0.000
648.861;10396.375;    0.000;    0.000
648.977;10694.375;    0.000;    0.000
649.093;11017.375;    0.000;    0.000
649.209;10896.375;    0.000;    0.000
649.325;10431.375;    0.000;    0.000
649.441;10124.375;    0.000;    0.000
649.557;10109.375;    0.000;    0.000
649.673;10183.375;    0.000;    0.000
649.789;10204.375;    0.000;    0.000
649.905; 9984.375;    0.000;    0.000
650.021;10004.375;    0.000;    0.000
650.137; 9971.375;    0.000;    0.000
650.253;10098.375;    0.000;    0.000
650.369; 9882.375;    0.000;    0.000
650.485; 9814.375;    0.000;    0.000
650.601;10064.375;    0.000;    0.000
650.717;10088.375;    0.000;    0.000
650.833;10195.375;    0.000;    0.000
650.948;10171.375;    0.000;    0.000
651.064;10213.375;    0.000;    0.000
651.180;10280.375;    0.000;    0.000
651.296;10662.375;    0.000;    0.000
651.411;10610.375;    0.000;    0.000
651.527;10382.375;    0.000;    0.000
651.643;10343.375;    0.000;    0.000
651.759;10424.375;    0.000;    0.000
651.874;10361.375;    0.000;    0.000
651.990;10365.375;    0.000;    0.000
652.105;10417.375;    0.000;    0.000
652.221;10392.375;    0.000;    0.000
652.337;10532.375;    0.000;    0.000
652.452;10445.375;    0.000;    0.000
652.568;10575.375;    0.000;    0.000
652.683;10683.375;    0.000;    0.000
652.799;10490.375;    0.000;    0.000
652.914;10654.375;    0.000;    0.000
653.030;10609.375;    0.000;    0.000
653.145;10898.375;    0.000;    0.000
653.261;10942.375;    0.000;    0.000
653.376;11013.375;    0.000;    0.000
653.492;10963.375;    0.000;    0.000
653.607;11201.375;    0.000;    0.000
653.722;11367.375;    0.000;    0.000
653.838;11453.375;    0.000;    0.000
653.953;11431.375;    0.000;    0.000
654.068;11814.375;    0.000;    0.000
654.184;11873.375;    0.000;    0.000
654.299;12190.375;    0.000;    0.000
654.414;12463.375;    0.000;    0.000
654.530;12942.375;    0.000;    0.000
654.645;13333.375;    0.000;    0.000
654.760;13269.375;    0.000;    0.000
654.875;13541.375;    0.000;    0.000
654.990;13524.375;    0.000;    0.000
655.106;13907.375;    0.000;    0.000
655.221;14591.375;    0.000;    0.000
655.336;15415.375;    0.000;    0.000
655.451;16605.375;    0.000;    0.000
655.566;17654.375;    0.000;    0.000
655.681;17744.375;    0.000;    0.000
655.796;17624.375;    0.000;    0.000
655.911;18516.375;    0.000;    0.000
656.026;19057.375;    0.000;    0.000
656.141;19915.375;    0.000;    0.000
656.256;20690.375;    0.000;    0.000
656.371;20886.375;    0.000;    0.000
656.486;20898.375;    0.000;    0.000
656.601;20561.375;    0.000;    0.000
656.716;19964.375;    0.000;    0.000
656.831;19237.375;    0.000;    0.000
656.946;18345.375;    0.000;    0.000
657.060;17771.375;    0.000;    0.000
657.175;17083.375;    0.000;    0.000
657.290;16574.375;    0.000;    0.000
657.405;16307.375;    0.000;    0.000
657.520;15953.375;    0.000;    0.000
657.634;15294.375;    0.000;    0.000
657.749;14982.375;    0.000;    0.000
657.864;14411.375;    0.000;    0.000
657.979;14398.375;    0.000;    0.000
658.093;13873.375;    0.000;    0.000
658.208;13675.375;    0.000;    0.000
658.323;13417.375;    0.000;    0.000
658.437;13074.375;    0.000;    0.000
658.552;12981.375;    0.000;    0.000
658.666;12811.375;    0.000;    0.000
658.781;12682.375;    0.000;    0.000
658.895;12415.375;    0.000;    0.000
659.010;12393.375;    0.000;    0.000
659.125;12115.375;    0.000;    0.000
659.239;12082.375;    0.000;    0.000
659.353;12051.375;    0.000;    0.000
659.468;11816.375;    0.000;    0.000
659.582;12039.375;    0.000;    0.000
659.697;11970.375;    0.000;    0.000
659.811;11827.375;    0.000;    0.000
659.926;12064.375;    0.000;    0.000
660.040;12146.375;    0.000;    0.000
660.154;11852.375;    0.000;    0.000
660.269;11865.375;    0.000;    0.000
660.383;11834.375;    0.000;    0.000
660.497;12108.375;    0.000;    0.000
660.612;12235.375;    0.000;    0.000
660.726;11884.375;    0.000;    0.000
660.840;11787.375;    0.000;    0.000
660.954;11495.375;    0.000;    0.000
661.068;11454.375;    0.000;    0.000
661.183;11386.375;    0.000;    0.000
661.297;11012.375;    0.000;    0.000
661.411;11050.375;    0.000;    0.000
661.525;11078.375;    0.000;    0.000
661.639;10861.375;    0.000;    0.000
661.753;11001.375;    0.000;    0.000
661.867;10790.375;    0.000;    0.000
661.981;10859.375;    0.000;    0.000
662.095;10657.375;    0.000;    0.000
662.209;10501.375;    0.000;    0.000
662.323;10475.375;    0.000;    0.000
662.437;10287.375;    0.000;    0.000
662.551;10236.375;    0.000;    0.000
662.665;10275.375;    0.000;    0.000
662.779;10105.375;    0.000;    0.000
662.893;10012.375;    0.000;    0.000
663.007;10016.375;    0.000;    0.000
663.121; 9866.375;    0.000;    0.000
663.235; 9770.375;    0.000;    0.000
663.349; 9571.375;    0.000;    0.000
663.462; 9628.375;    0.000;    0.000
663.576; 9738.375;    0.000;    0.000
663.690; 9677.375;    0.000;    0.000
663.804; 9615.375;    0.000;    0.000
663.917; 9420.375;    0.000;    0.000
664.031; 9496.375;    0.000;    0.000
664.145; 9553.375;    0.000;    0.000
664.258; 9335.375;    0.000;    0.000
664.372; 9260.375;    0.000;    0.000
664.486; 9338.375;    0.000;    0.000
664.599; 9388.375;    0.000;    0.000
664.713; 9303.375;    0.000;    0.000
664.827; 9356.375;    0.000;    0.000
664.940; 9286.375;    0.000;    0.000
665.054; 9229.375;    0.000;    0.000
665.167; 9396.375;    0.000;    0.000
665.281; 9430.375;    0.000;    0.000
665.394; 9336.375;    0.000;    0.000
665.508; 9279.375;    0.000;    0.000
665.621; 9223.375;    0.000;    0.000
665.735; 9330.375;    0.000;    0.000
665.848; 9203.375;    0.000;    0.000
665.961; 9162.375;    0.000;    0.000
666.075; 9008.375;    0.000;    0.000
666.188; 9322.375;    0.000;    0.000
666.301; 9091.375;    0.000;    0.000
666.415; 9198.375;    0.000;    0.000
666.528; 9537.375;    0.000;    0.000
666.641; 9622.375;    0.000;    0.000
666.755; 9999.375;    0.000;    0.000
666.868; 9848.375;    0.000;    0.000
666.981; 9471.375;    0.000;    0.000
667.094; 9027.375;    0.000;    0.000
667.207; 8971.375;    0.000;    0.000
667.321; 8862.375;    0.000;    0.000
667.434; 8730.375;    0.000;    0.000
667.547; 8830.375;    0.000;    0.000
667.660; 8884.375;    0.000;    0.000
667.773; 9044.375;    0.000;    0.000
667.886; 8945.375;    0.000;    0.000
667.999; 9051.375;    0.000;    0.000
668.112; 9017.375;    0.000;    0.000
668.225; 8726.375;    0.000;    0.000
668.338; 8732.375;    0.000;    0.000
668.451; 8597.375;    0.000;    0.000
668.564; 8558.375;    0.000;    0.000
668.677; 8409.375;    0.000;    0.000
668.790; 8269.375;    0.000;    0.000
668.903; 8418.375;    0.000;    0.000
669.016; 8311.375;    0.000;    0.000
669.129; 8425.375;    0.000;    0.000
669.242; 8285.375;    0.000;    0.000
669.354; 8261.375;    0.000;    0.000
669.467; 8309.375;    0.000;    0.000
669.580; 8204.375;    0.000;    0.000
669.693; 8191.375;    0.000;    0.000
669.806; 8137.375;    0.000;    0.000
669.918; 8117.375;    0.000;    0.000
670.031; 8069.375;    0.000;    0.000
670.144; 8206.375;    0.000;    0.000
670.256; 8158.375;    0.000;    0.000
670.369; 8163.375;    0.000;    0.000
670.482; 8127.375;    0.000;    0.000
670.594; 7977.375;    0.000;    0.000
670.707; 8079.375;    0.000;    0.000
670.820; 8075.375;    0.000;    0.000
670.932; 7996.375;    0.000;    0.000
671.045; 8120.375;    0.000;    0.000
671.157; 7985.375;    0.000;    0.000
671.270; 8220.375;    0.000;    0.000
671.382; 8132.375;    0.000;    0.000
671.495; 8498.375;    0.000;    0.000
671.607; 8612.375;    0.000;    0.000
671.720; 8695.375;    0.000;    0.000
671.832; 8710.375;    0.000;    0.000
671.944; 8408.375;    0.000;    0.000
672.057; 8125.375;    0.000;    0.000
672.169; 8078.375;    0.000;    0.000
672.281; 8148.375;    0.000;    0.000
672.394; 8065.375;    0.000;    0.000
672.506; 7994.375;    0.000;    0.000
672.618; 7943.375;    0.000;    0.000
672.731; 8115.375;    0.000;    0.000
672.843; 7958.375;    0.000;    0.000
672.955; 8045.375;    0.000;    0.000
673.067; 8035.375;    0.000;    0.000
673.180; 8064.375;    0.000;    0.000
673.292; 7956.375;    0.000;    0.000
673.404; 7869.375;    0.000;    0.000
673.516; 7963.375;    0.000;    0.000
673.628; 7902.375;    0.000;    0.000
673.740; 7812.375;    0.000;    0.000
673.852; 7948.375;    0.000;    0.000
673.964; 7907.375;    0.000;    0.000
674.076; 7912.375;    0.000;    0.000
674.188; 8263.375;    0.000;    0.000
674.300; 8584.375;    0.000;    0.000
674.412; 8496.375;    0.000;    0.000
674.524; 8258.375;    0.000;    0.000
674.636; 7952.375;    0.000;    0.000
674.748; 7964.375;    0.000;    0.000
674.860; 7944.375;    0.000;    0.000
674.972; 7916.375;    0.000;    0.000
675.084; 7959.375;    0.000;    0.000
675.196; 7774.375;    0.000;    0.000
675.307; 7848.375;    0.000;    0.000
675.419; 7854.375;    0.000;    0.000
675.531; 7696.375;    0.000;    0.000
675.643; 7638.375;    0.000;    0.000
675.755; 7725.375;    0.000;    0.000
675.866; 7590.375;    0.000;    0.000
675.978; 7695.375;    0.000;    0.000
676.090; 7782.375;    0.000;    0.000
676.201; 7573.375;    0.000;    0.000
676.313; 7715.375;    0.000;    0.000
676.425; 7661.375;    0.000;    0.000
676.536; 7716.375;    0.000;    0.000
676.648; 7575.375;    0.000;    0.000
676.759; 7639.375;    0.000;    0.000
676.871; 7672.375;    0.000;    0.000
676.983; 7621.375;    0.000;    0.000
677.094; 7456.375;    0.000;    0.000
677.206; 7476.375;    0.000;    0.000
677.317; 7474.375;    0.000;    0.000
677.429; 7520.375;    0.000;    0.000
677.540; 7603.375;    0.000;    0.000
677.651; 7566.375;    0.000;    0.000
677.763; 7564.375;    0.000;    0.000
677.874; 7341.375;    0.000;    0.000
677.986; 7602.375;    0.000;    0.000
678.097; 7494.375;    0.000;    0.000
678.208; 7539.375;    0.000;    0.000
678.320; 7438.375;    0.000;    0.000
678.431; 7749.375;    0.000;    0.000
678.542; 7643.375;    0.000;    0.000
678.653; 7459.375;    0.000;    0.000
678.765; 7616.375;    0.000;    0.000
678.876; 7431.375;    0.000;    0.000
678.987; 7441.375;    0.000;    0.000
679.098; 7524.375;    0.000;    0.000
679.209; 7478.375;    0.000;    0.000
679.320; 7456.375;    0.000;    0.000
679.432; 7450.375;    0.000;    0.000
679.543; 7463.375;    0.000;    0.000
679.654; 7412.375;    0.000;    0.000
679.765; 7387.375;    0.000;    0.000
679.876; 7400.375;    0.000;    0.000
679.987; 7307.375;    0.000;    0.000
680.098; 7364.375;    0.000;    0.000
680.209; 7304.375;    0.000;    0.000
680.320; 7430.375;    0.000;    0.000
680.431; 7264.375;    0.000;    0.000
680.542; 7302.375;    0.000;    0.000
680.653; 7406.375;    0.000;    0.000
680.763; 7244.375;    0.000;    0.000
680.874; 7351.375;    0.000;    0.000
680.985; 7300.375;    0.000;    0.000
681.096; 7309.375;    0.000;    0.000
681.207; 7361.375;    0.000;    0.000
681.318; 7308.375;    0.000;    0.000
681.428; 7414.375;    0.000;    0.000
681.539; 7524.375;    0.000;    0.000
681.650; 7441.375;    0.000;    0.000
681.760; 7385.375;    0.000;    0.000
681.871; 7506.375;    0.000;    0.000
681.982; 7477.375;    0.000;    0.000
682.093; 7496.375;    0.000;    0.000
682.203; 7481.375;    0.000;    0.000
682.314; 7519.375;    0.000;    0.000
682.424; 7399.375;    0.000;    0.000
682.535; 7411.375;    0.000;    0.000
682.646; 7584.375;    0.000;    0.000
682.756; 7629.375;    0.000;    0.000
682.867; 7528.375;    0.000;    0.000
682.977; 7426.375;    0.000;    0.000
683.088; 7336.375;    0.000;    0.000
683.198; 7340.375;    0.000;    0.000
683.308; 7277.375;    0.000;    0.000
683.419; 7310.375;    0.000;    0.000
683.529; 7289.375;    0.000;    0.000
683.640; 7282.375;    0.000;    0.000
683.750; 7224.375;    0.000;    0.000
683.860; 7475.375;    0.000;    0.000
683.971; 7369.375;    0.000;    0.000
684.081; 7253.375;    0.000;    0.000
684.191; 7387.375;    0.000;    0.000
684.301; 7418.375;    0.000;    0.000
684.412; 7448.375;    0.000;    0.000
684.522; 7345.375;    0.000;    0.000
684.632; 7443.375;    0.000;    0.000
684.742; 7370.375;    0.000;    0.000
684.852; 7455.375;    0.000;    0.000
684.963; 7478.375;    0.000;    0.000
685.073; 7519.375;    0.000;    0.000
685.183; 7414.375;    0.000;    0.000
685.293; 7371.375;    0.000;    0.000
685.403; 7498.375;    0.000;    0.000
685.513; 7545.375;    0.000;    0.000
685.623; 7380.375;    0.000;    0.000
685.733; 7447.375;    0.000;    0.000
685.843; 7398.375;    0.000;    0.000
685.953; 7693.375;    0.000;    0.000
686.063; 7903.375;    0.000;    0.000
686.173; 7934.375;    0.000;    0.000
686.283; 7738.375;    0.000;    0.000
686.393; 7527.375;    0.000;    0.000
686.503; 7509.375;    0.000;    0.000
686.612; 7424.375;    0.000;    0.000
686.722; 7411.375;    0.000;    0.000
686.832; 7373.375;    0.000;    0.000
686.942; 7450.375;    0.000;    0.000
687.052; 7509.375;    0.000;    0.000
687.161; 7518.375;    0.000;    0.000
687.271; 7422.375;    0.000;    0.000
687.381; 7497.375;    0.000;    0.000
687.491; 7593.375;    0.000;    0.000
687.600; 7413.375;    0.000;    0.000
687.710; 7317.375;    0.000;    0.000
687.820; 7397.375;    0.000;    0.000
687.929; 7331.375;    0.000;    0.000
688.039; 7339.375;    0.000;    0.000
688.148; 7245.375;    0.000;    0.000
688.258; 7323.375;    0.000;    0.000
688.367; 7333.375;    0.000;    0.000
688.477; 7212.375;    0.000;    0.000
688.586; 7344.375;    0.000;    0.000
688.696; 7311.375;    0.000;    0.000
688.805; 7252.375;    0.000;    0.000
688.915; 7191.375;    0.000;    0.000
689.024; 7158.375;    0.000;    0.000
689.134; 7300.375;    0.000;    0.000
689.243; 7160.375;    0.000;    0.000
689.352; 7202.375;    0.000;    0.000
689.462; 7138.375;    0.000;    0.000
689.571; 7199.375;    0.000;    0.000
689.680; 7100.375;    0.000;    0.000
689.790; 7160.375;    0.000;    0.000
689.899; 7107.375;    0.000;    0.000
690.008; 7279.375;    0.000;    0.000
690.117; 7324.375;    0.000;    0.000
690.227; 7256.375;    0.000;    0.000
690.336; 7202.375;    0.000;    0.000
690.445; 7090.375;    0.000;    0.000
690.554; 7400.375;    0.000;    0.000
690.663; 7368.375;    0.000;    0.000
690.772; 7186.375;    0.000;    0.000
690.881; 7233.375;    0.000;    0.000
690.990; 7331.375;    0.000;    0.000
691.099; 7386.375;    0.000;    0.000
691.209; 7372.375;    0.000;    0.000
691.318; 7463.375;    0.000;    0.000
691.427; 7381.375;    0.000;    0.000
691.536; 7400.375;    0.000;    0.000
691.644; 7407.375;    0.000;    0.000
691.753; 7276.375;    0.000;    0.000
691.862; 7470.375;    0.000;    0.000
691.971; 7543.375;    0.000;    0.000
692.080; 7722.375;    0.000;    0.000
692.189; 7614.375;    0.000;    0.000
692.298; 7564.375;    0.000;    0.000
692.406; 7563.375;    0.000;    0.000
692.515; 7672.375;    0.000;    0.000
692.624; 7675.375;    0.000;    0.000
692.733; 7621.375;    0.000;    0.000
692.842; 7734.375;    0.000;    0.000
692.950; 7556.375;    0.000;    0.000
693.059; 7482.375;    0.000;    0.000
693.168; 7616.375;    0.000;    0.000
693.276; 7701.375;    0.000;    0.000
693.385; 7707.375;    0.000;    0.000
693.494; 7752.375;    0.000;    0.000
693.602; 7589.375;    0.000;    0.000
693.711; 7748.375;    0.000;    0.000
693.819; 7663.375;    0.000;    0.000
693.928; 7584.375;    0.000;    0.000
694.036; 7476.375;    0.000;    0.000
694.145; 7521.375;    0.000;    0.000
694.253; 7466.375;    0.000;    0.000
694.362; 7632.375;    0.000;    0.000
694.470; 7618.375;    0.000;    0.000
694.579; 7628.375;    0.000;    0.000
694.687; 7583.375;    0.000;    0.000
694.795; 7581.375;    0.000;    0.000
694.904; 7430.375;    0.000;    0.000
695.012; 7419.375;    0.000;    0.000
695.120; 7558.375;    0.000;    0.000
695.229; 7598.375;    0.000;    0.000
695.337; 7487.375;    0.000;    0.000
695.445; 7619.375;    0.000;    0.000
695.553; 7738.375;    0.000;    0.000
695.662; 7569.375;    0.000;    0.000
695.770; 7633.375;    0.000;    0.000
695.878; 7808.375;    0.000;    0.000
695.986; 7840.375;    0.000;    0.000
696.094; 7891.375;    0.000;    0.000
696.202; 7911.375;    0.000;    0.000
696.310; 8033.375;    0.000;    0.000
696.419; 7708.375;    0.000;    0.000
696.527; 7810.375;    0.000;    0.000
696.635; 7754.375;    0.000;    0.000
696.743; 7664.375;    0.000;    0.000
696.851; 7675.375;    0.000;    0.000
696.959; 7670.375;    0.000;    0.000
697.067; 7707.375;    0.000;    0.000
697.174; 7551.375;    0.000;    0.000
697.282; 7550.375;    0.000;    0.000
697.390; 7556.375;    0.000;    0.000
697.498; 7655.375;    0.000;    0.000
697.606; 7556.375;    0.000;    0.000
697.714; 7516.375;    0.000;    0.000
697.822; 7681.375;    0.000;    0.000
697.929; 7636.375;    0.000;    0.000
698.037; 7622.375;    0.000;    0.000
698.145; 7610.375;    0.000;    0.000
698.253; 7614.375;    0.000;    0.000
698.360; 7701.375;    0.000;    0.000
698.468; 7734.375;    0.000;    0.000
698.576; 7675.375;    0.000;    0.000
698.683; 7573.375;    0.000;    0.000
698.791; 7507.375;    0.000;    0.000
698.899; 7617.375;    0.000;    0.000
699.006; 7727.375;    0.000;    0.000
699.114; 7804.375;    0.000;    0.000
699.221; 7737.375;    0.000;    0.000
699.329; 7764.375;    0.000;    0.000
699.436; 7803.375;    0.000;    0.000
699.544; 7980.375;    0.000;    0.000
699.651; 8232.375;    0.000;    0.000
699.759; 8663.375;    0.000;    0.000
699.866; 8940.375;    0.000;    0.000
699.974; 8814.375;    0.000;    0.000
700.081; 8276.375;    0.000;    0.000
700.188; 8190.375;    0.000;    0.000
700.296; 8176.375;    0.000;    0.000
700.403; 8254.375;    0.000;    0.000
700.510; 8599.375;    0.000;    0.000
700.618; 8214.375;    0.000;    0.000
700.725; 8107.375;    0.000;    0.000
700.832; 7920.375;    0.000;    0.000
700.940; 7937.375;    0.000;    0.000
701.047; 7840.375;    0.000;    0.000
701.154; 7845.375;    0.000;    0.000
701.261; 7742.375;    0.000;    0.000
701.368; 7886.375;    0.000;    0.000
701.475; 7771.375;    0.000;    0.000
701.582; 7744.375;    0.000;    0.000
701.690; 7703.375;    0.000;    0.000
701.797; 7675.375;    0.000;    0.000
701.904; 7737.375;    0.000;    0.000
702.011; 7756.375;    0.000;    0.000
702.118; 7520.375;    0.000;    0.000
702.225; 7576.375;    0.000;    0.000
702.332; 7678.375;    0.000;    0.000
702.439; 7603.375;    0.000;    0.000
702.546; 7746.375;    0.000;    0.000
702.652; 7470.375;    0.000;    0.000
702.759; 7714.375;    0.000;    0.000
702.866; 7573.375;    0.000;    0.000
702.973; 7590.375;    0.000;    0.000
703.080; 7705.375;    0.000;    0.000
703.187; 7703.375;    0.000;    0.000
703.294; 7823.375;    0.000;    0.000
703.400; 7327.375;    0.000;    0.000
703.507; 1061.375;    0.000;    0.000
703.614;  323.375;    0.000;    0.000
703.720;  302.375;    0.000;    0.000
703.827;  310.375;    0.000;    0.000
703.934;  314.375;    0.000;    0.000
704.040;  293.375;    0.000;    0.000
704.147;  288.375;    0.000;    0.000
704.254;  305.375;    0.000;    0.000
704.360;  299.375;    0.000;    0.000
704.467;  331.375;    0.000;    0.000
704.573;  317.375;    0.000;    0.000
704.680;  334.375;    0.000;    0.000
704.786;  315.375;    0.000;    0.000
704.893;  310.375;    0.000;    0.000
704.999;  308.375;    0.000;    0.000
705.106;  317.375;    0.000;    0.000

