
Integration time [ms]:   1.000
Averaging Nr. [scans]: 1
Smoothing Nr. [pixels]: 0
Data measured with spectrometer [name]: VIS
Wave   ;Sample   ;Dark     ;Reference
[nm]   ;[counts] ;[counts] ;[counts] 

450.961;  185.825;    0.000;    0.000
451.100;  223.825;    0.000;    0.000
451.239;  169.825;    0.000;    0.000
451.377;  219.825;    0.000;    0.000
451.516;  195.825;    0.000;    0.000
451.655;  205.825;    0.000;    0.000
451.794;  228.825;    0.000;    0.000
451.932;  261.825;    0.000;    0.000
452.071;  220.825;    0.000;    0.000
452.210;  216.825;    0.000;    0.000
452.348;  189.825;    0.000;    0.000
452.487;  251.825;    0.000;    0.000
452.626;  207.825;    0.000;    0.000
452.764;  207.825;    0.000;    0.000
452.903;  243.825;    0.000;    0.000
453.042; 1053.825;    0.000;    0.000
453.180;49628.824;    0.000;    0.000
453.319;64716.824;    0.000;    0.000
453.458;58786.824;    0.000;    0.000
453.596;38288.824;    0.000;    0.000
453.735;22569.824;    0.000;    0.000
453.873;17069.824;    0.000;    0.000
454.012;15581.825;    0.000;    0.000
454.150;16206.825;    0.000;    0.000
454.289;18797.824;    0.000;    0.000
454.427;20895.824;    0.000;    0.000
454.566;25549.824;    0.000;    0.000
454.704;42585.824;    0.000;    0.000
454.843;61362.824;    0.000;    0.000
454.981;59459.824;    0.000;    0.000
455.120;42880.824;    0.000;    0.000
455.258;30021.824;    0.000;    0.000
455.397;24897.824;    0.000;    0.000
455.535;21810.824;    0.000;    0.000
455.674;18994.824;    0.000;    0.000
455.812;17827.824;    0.000;    0.000
455.951;18857.824;    0.000;    0.000
456.089;25331.824;    0.000;    0.000
456.227;34918.824;    0.000;    0.000
456.366;36906.824;    0.000;    0.000
456.504;29098.824;    0.000;    0.000
456.642;22121.824;    0.000;    0.000
456.781;22524.824;    0.000;    0.000
456.919;32398.824;    0.000;    0.000
457.057;49252.824;    0.000;    0.000
457.196;56218.824;    0.000;    0.000
457.334;43617.824;    0.000;    0.000
457.472;26199.824;    0.000;    0.000
457.610;19886.824;    0.000;    0.000
457.749;17861.824;    0.000;    0.000
457.887;17628.824;    0.000;    0.000
458.025;17239.824;    0.000;    0.000
458.163;16608.824;    0.000;    0.000
458.301;16522.824;    0.000;    0.000
458.440;16523.824;    0.000;    0.000
458.578;16975.824;    0.000;    0.000
458.716;17958.824;    0.000;    0.000
458.854;19687.824;    0.000;    0.000
458.992;19902.824;    0.000;    0.000
459.130;18724.824;    0.000;    0.000
459.269;17428.824;    0.000;    0.000
459.407;17070.824;    0.000;    0.000
459.545;16800.824;    0.000;    0.000
459.683;17450.824;    0.000;    0.000
459.821;17891.824;    0.000;    0.000
459.959;17829.824;    0.000;    0.000
460.097;17776.824;    0.000;    0.000
460.235;17655.824;    0.000;    0.000
460.373;17898.824;    0.000;    0.000
460.511;17650.824;    0.000;    0.000
460.649;17973.824;    0.000;    0.000
460.787;18081.824;    0.000;    0.000
460.925;18154.824;    0.000;    0.000
461.063;18192.824;    0.000;    0.000
461.201;18132.824;    0.000;    0.000
461.339;18759.824;    0.000;    0.000
461.477;21933.824;    0.000;    0.000
461.615;26070.824;    0.000;    0.000
461.753;26641.824;    0.000;    0.000
461.891;22933.824;    0.000;    0.000
462.029;21600.824;    0.000;    0.000
462.166;23731.824;    0.000;    0.000
462.304;24718.824;    0.000;    0.000
462.442;23141.824;    0.000;    0.000
462.580;21273.824;    0.000;    0.000
462.718;22059.824;    0.000;    0.000
462.856;23456.824;    0.000;    0.000
462.993;23208.824;    0.000;    0.000
463.131;21719.824;    0.000;    0.000
463.269;21137.824;    0.000;    0.000
463.407;21094.824;    0.000;    0.000
463.545;21403.824;    0.000;    0.000
463.682;24479.824;    0.000;    0.000
463.820;28602.824;    0.000;    0.000
463.958;30513.824;    0.000;    0.000
464.095;26664.824;    0.000;    0.000
464.233;22388.824;    0.000;    0.000
464.371;22124.824;    0.000;    0.000
464.509;22176.824;    0.000;    0.000
464.646;21507.824;    0.000;    0.000
464.784;21003.824;    0.000;    0.000
464.921;21177.824;    0.000;    0.000
465.059;20455.824;    0.000;    0.000
465.197;19635.824;    0.000;    0.000
465.334;20130.824;    0.000;    0.000
465.472;22364.824;    0.000;    0.000
465.609;23927.824;    0.000;    0.000
465.747;22452.824;    0.000;    0.000
465.885;19348.824;    0.000;    0.000
466.022;18580.824;    0.000;    0.000
466.160;18381.824;    0.000;    0.000
466.297;18368.824;    0.000;    0.000
466.435;18851.824;    0.000;    0.000
466.572;21089.824;    0.000;    0.000
466.710;23091.824;    0.000;    0.000
466.847;21709.824;    0.000;    0.000
466.985;18739.824;    0.000;    0.000
467.122;18170.824;    0.000;    0.000
467.260;18159.824;    0.000;    0.000
467.397;18520.824;    0.000;    0.000
467.534;18977.824;    0.000;    0.000
467.672;18782.824;    0.000;    0.000
467.809;18294.824;    0.000;    0.000
467.947;20120.824;    0.000;    0.000
468.084;22833.824;    0.000;    0.000
468.221;23313.824;    0.000;    0.000
468.359;20118.824;    0.000;    0.000
468.496;18254.824;    0.000;    0.000
468.633;18597.824;    0.000;    0.000
468.771;19023.824;    0.000;    0.000
468.908;19665.824;    0.000;    0.000
469.045;20638.824;    0.000;    0.000
469.183;20604.824;    0.000;    0.000
469.320;19209.824;    0.000;    0.000
469.457;18534.824;    0.000;    0.000
469.594;19197.824;    0.000;    0.000
469.732;20362.824;    0.000;    0.000
469.869;21227.824;    0.000;    0.000
470.006;20159.824;    0.000;    0.000
470.143;19000.824;    0.000;    0.000
470.280;18771.824;    0.000;    0.000
470.417;18642.824;    0.000;    0.000
470.555;18982.824;    0.000;    0.000
470.692;20072.824;    0.000;    0.000
470.829;21163.824;    0.000;    0.000
470.966;21772.824;    0.000;    0.000
471.103;20830.824;    0.000;    0.000
471.240;19282.824;    0.000;    0.000
471.377;18631.824;    0.000;    0.000
471.514;18782.824;    0.000;    0.000
471.651;18569.824;    0.000;    0.000
471.789;18236.824;    0.000;    0.000
471.926;18102.824;    0.000;    0.000
472.063;18818.824;    0.000;    0.000
472.200;19510.824;    0.000;    0.000
472.337;19217.824;    0.000;    0.000
472.474;18373.824;    0.000;    0.000
472.611;17768.824;    0.000;    0.000
472.748;18038.824;    0.000;    0.000
472.884;18272.824;    0.000;    0.000
473.021;18659.824;    0.000;    0.000
473.158;18995.824;    0.000;    0.000
473.295;19009.824;    0.000;    0.000
473.432;18712.824;    0.000;    0.000
473.569;18115.824;    0.000;    0.000
473.706;17782.824;    0.000;    0.000
473.843;17920.824;    0.000;    0.000
473.980;18975.824;    0.000;    0.000
474.117;21027.824;    0.000;    0.000
474.253;23208.824;    0.000;    0.000
474.390;21878.824;    0.000;    0.000
474.527;18753.824;    0.000;    0.000
474.664;18450.824;    0.000;    0.000
474.801;18518.824;    0.000;    0.000
474.937;18421.824;    0.000;    0.000
475.074;18134.824;    0.000;    0.000
475.211;18279.824;    0.000;    0.000
475.348;18542.824;    0.000;    0.000
475.484;19790.824;    0.000;    0.000
475.621;24995.824;    0.000;    0.000
475.758;33870.824;    0.000;    0.000
475.894;37280.824;    0.000;    0.000
476.031;29630.824;    0.000;    0.000
476.168;22124.824;    0.000;    0.000
476.304;21048.824;    0.000;    0.000
476.441;21414.824;    0.000;    0.000
476.578;20537.824;    0.000;    0.000
476.714;19894.824;    0.000;    0.000
476.851;19725.824;    0.000;    0.000
476.987;19965.824;    0.000;    0.000
477.124;19908.824;    0.000;    0.000
477.261;19513.824;    0.000;    0.000
477.397;19896.824;    0.000;    0.000
477.534;20451.824;    0.000;    0.000
477.670;22539.824;    0.000;    0.000
477.807;26213.824;    0.000;    0.000
477.943;28929.824;    0.000;    0.000
478.080;26821.824;    0.000;    0.000
478.216;23068.824;    0.000;    0.000
478.353;21110.824;    0.000;    0.000
478.489;20805.824;    0.000;    0.000
478.626;21065.824;    0.000;    0.000
478.762;20881.824;    0.000;    0.000
478.898;21055.824;    0.000;    0.000
479.035;22032.824;    0.000;    0.000
479.171;23167.824;    0.000;    0.000
479.308;23137.824;    0.000;    0.000
479.444;22889.824;    0.000;    0.000
479.580;22784.824;    0.000;    0.000
479.717;24619.824;    0.000;    0.000
479.853;26018.824;    0.000;    0.000
479.989;26901.824;    0.000;    0.000
480.126;26151.824;    0.000;    0.000
480.262;29417.824;    0.000;    0.000
480.398;37412.824;    0.000;    0.000
480.535;40274.824;    0.000;    0.000
480.671;33495.824;    0.000;    0.000
480.807;25744.824;    0.000;    0.000
480.943;23703.824;    0.000;    0.000
481.080;23019.824;    0.000;    0.000
481.216;22800.824;    0.000;    0.000
481.352;22014.824;    0.000;    0.000
481.488;21145.824;    0.000;    0.000
481.624;20896.824;    0.000;    0.000
481.760;21778.824;    0.000;    0.000
481.897;23903.824;    0.000;    0.000
482.033;25492.824;    0.000;    0.000
482.169;23591.824;    0.000;    0.000
482.305;20695.824;    0.000;    0.000
482.441;20328.824;    0.000;    0.000
482.577;20618.824;    0.000;    0.000
482.713;20591.824;    0.000;    0.000
482.849;20538.824;    0.000;    0.000
482.985;20176.824;    0.000;    0.000
483.121;20533.824;    0.000;    0.000
483.258;20790.824;    0.000;    0.000
483.394;20384.824;    0.000;    0.000
483.530;21012.824;    0.000;    0.000
483.665;21207.824;    0.000;    0.000
483.801;21997.824;    0.000;    0.000
483.937;25368.824;    0.000;    0.000
484.073;29085.824;    0.000;    0.000
484.209;26313.824;    0.000;    0.000
484.345;21760.824;    0.000;    0.000
484.481;21107.824;    0.000;    0.000
484.617;21745.824;    0.000;    0.000
484.753;22585.824;    0.000;    0.000
484.889;23291.824;    0.000;    0.000
485.025;22405.824;    0.000;    0.000
485.161;22036.824;    0.000;    0.000
485.296;23485.824;    0.000;    0.000
485.432;29041.824;    0.000;    0.000
485.568;35132.824;    0.000;    0.000
485.704;32297.824;    0.000;    0.000
485.840;24383.824;    0.000;    0.000
485.975;22071.824;    0.000;    0.000
486.111;21679.824;    0.000;    0.000
486.247;22221.824;    0.000;    0.000
486.383;23493.824;    0.000;    0.000
486.518;24284.824;    0.000;    0.000
486.654;26628.824;    0.000;    0.000
486.790;32436.824;    0.000;    0.000
486.926;36269.824;    0.000;    0.000
487.061;34331.824;    0.000;    0.000
487.197;31241.824;    0.000;    0.000
487.333;31433.824;    0.000;    0.000
487.468;31103.824;    0.000;    0.000
487.604;26529.824;    0.000;    0.000
487.740;23156.824;    0.000;    0.000
487.875;22413.824;    0.000;    0.000
488.011;23481.824;    0.000;    0.000
488.146;24604.824;    0.000;    0.000
488.282;27731.824;    0.000;    0.000
488.417;33409.824;    0.000;    0.000
488.553;35121.824;    0.000;    0.000
488.688;27709.824;    0.000;    0.000
488.824;21955.824;    0.000;    0.000
488.960;21650.824;    0.000;    0.000
489.095;21719.824;    0.000;    0.000
489.230;22139.824;    0.000;    0.000
489.366;22063.824;    0.000;    0.000
489.501;21550.824;    0.000;    0.000
489.637;21828.824;    0.000;    0.000
489.772;25212.824;    0.000;    0.000
489.908;31992.824;    0.000;    0.000
490.043;33414.824;    0.000;    0.000
490.178;27124.824;    0.000;    0.000
490.314;22737.824;    0.000;    0.000
490.449;22433.824;    0.000;    0.000
490.585;22477.824;    0.000;    0.000
490.720;23556.824;    0.000;    0.000
490.855;27379.824;    0.000;    0.000
490.991;33517.824;    0.000;    0.000
491.126;39589.824;    0.000;    0.000
491.261;39479.824;    0.000;    0.000
491.396;34853.824;    0.000;    0.000
491.532;28056.824;    0.000;    0.000
491.667;23263.824;    0.000;    0.000
491.802;23167.824;    0.000;    0.000
491.937;25510.824;    0.000;    0.000
492.073;27911.824;    0.000;    0.000
492.208;26781.824;    0.000;    0.000
492.343;23968.824;    0.000;    0.000
492.478;22288.824;    0.000;    0.000
492.613;23586.824;    0.000;    0.000
492.749;25282.824;    0.000;    0.000
492.884;25479.824;    0.000;    0.000
493.019;22899.824;    0.000;    0.000
493.154;21201.824;    0.000;    0.000
493.289;20992.824;    0.000;    0.000
493.424;21026.824;    0.000;    0.000
493.559;21768.824;    0.000;    0.000
493.694;23060.824;    0.000;    0.000
493.829;24163.824;    0.000;    0.000
493.964;23269.824;    0.000;    0.000
494.099;22008.824;    0.000;    0.000
494.234;21665.824;    0.000;    0.000
494.369;21533.824;    0.000;    0.000
494.504;21196.824;    0.000;    0.000
494.639;21313.824;    0.000;    0.000
494.774;21603.824;    0.000;    0.000
494.909;21451.824;    0.000;    0.000
495.044;21141.824;    0.000;    0.000
495.179;20951.824;    0.000;    0.000
495.314;21043.824;    0.000;    0.000
495.449;21086.824;    0.000;    0.000
495.584;21446.824;    0.000;    0.000
495.719;21595.824;    0.000;    0.000
495.854;22250.824;    0.000;    0.000
495.988;22200.824;    0.000;    0.000
496.123;22018.824;    0.000;    0.000
496.258;22338.824;    0.000;    0.000
496.393;22952.824;    0.000;    0.000
496.528;23568.824;    0.000;    0.000
496.663;23305.824;    0.000;    0.000
496.797;23736.824;    0.000;    0.000
496.932;23832.824;    0.000;    0.000
497.067;23725.824;    0.000;    0.000
497.202;24303.824;    0.000;    0.000
497.336;26469.824;    0.000;    0.000
497.471;28841.824;    0.000;    0.000
497.606;29689.824;    0.000;    0.000
497.740;29803.824;    0.000;    0.000
497.875;33054.824;    0.000;    0.000
498.010;48293.824;    0.000;    0.000
498.144;65269.824;    0.000;    0.000
498.279;60233.824;    0.000;    0.000
498.414;35486.824;    0.000;    0.000
498.548;29172.824;    0.000;    0.000
498.683;29933.824;    0.000;    0.000
498.817;35793.824;    0.000;    0.000
498.952;52931.824;    0.000;    0.000
499.087;65269.824;    0.000;    0.000
499.221;58749.824;    0.000;    0.000
499.356;38033.824;    0.000;    0.000
499.490;35663.824;    0.000;    0.000
499.625;38954.824;    0.000;    0.000
499.759;49645.824;    0.000;    0.000
499.894;65269.824;    0.000;    0.000
500.028;65269.824;    0.000;    0.000
500.162;53570.824;    0.000;    0.000
500.297;44892.824;    0.000;    0.000
500.431;45225.824;    0.000;    0.000
500.566;54635.824;    0.000;    0.000
500.700;65143.824;    0.000;    0.000
500.835;58522.824;    0.000;    0.000
500.969;44197.824;    0.000;    0.000
501.103;41815.824;    0.000;    0.000
501.238;50974.824;    0.000;    0.000
501.372;65269.824;    0.000;    0.000
501.506;63428.824;    0.000;    0.000
501.641;46909.824;    0.000;    0.000
501.775;37550.824;    0.000;    0.000
501.909;39366.824;    0.000;    0.000
502.043;41800.824;    0.000;    0.000
502.178;41797.824;    0.000;    0.000
502.312;44023.824;    0.000;    0.000
502.446;46230.824;    0.000;    0.000
502.580;41098.824;    0.000;    0.000
502.715;31825.824;    0.000;    0.000
502.849;25971.824;    0.000;    0.000
502.983;24770.824;    0.000;    0.000
503.117;24394.824;    0.000;    0.000
503.251;24652.824;    0.000;    0.000
503.385;30953.824;    0.000;    0.000
503.520;48908.824;    0.000;    0.000
503.654;59518.824;    0.000;    0.000
503.788;54190.824;    0.000;    0.000
503.922;45723.824;    0.000;    0.000
504.056;36853.824;    0.000;    0.000
504.190;27337.824;    0.000;    0.000
504.324;24158.824;    0.000;    0.000
504.458;24122.824;    0.000;    0.000
504.592;22578.824;    0.000;    0.000
504.726;21733.824;    0.000;    0.000
504.860;21251.824;    0.000;    0.000
504.994;20680.824;    0.000;    0.000
505.128;21426.824;    0.000;    0.000
505.262;22692.824;    0.000;    0.000
505.396;22215.824;    0.000;    0.000
505.530;19814.824;    0.000;    0.000
505.664;19215.824;    0.000;    0.000
505.798;19040.824;    0.000;    0.000
505.932;18969.824;    0.000;    0.000
506.066;19618.824;    0.000;    0.000
506.199;21922.824;    0.000;    0.000
506.333;27362.824;    0.000;    0.000
506.467;31835.824;    0.000;    0.000
506.601;26839.824;    0.000;    0.000
506.735;21258.824;    0.000;    0.000
506.869;21970.824;    0.000;    0.000
507.002;23166.824;    0.000;    0.000
507.136;25178.824;    0.000;    0.000
507.270;24168.824;    0.000;    0.000
507.404;20614.824;    0.000;    0.000
507.537;18150.824;    0.000;    0.000
507.671;17618.824;    0.000;    0.000
507.805;17148.824;    0.000;    0.000
507.939;16823.824;    0.000;    0.000
508.072;16886.824;    0.000;    0.000
508.206;17034.824;    0.000;    0.000
508.340;17062.824;    0.000;    0.000
508.473;17585.824;    0.000;    0.000
508.607;18902.824;    0.000;    0.000
508.740;18798.824;    0.000;    0.000
508.874;17306.824;    0.000;    0.000
509.008;16608.824;    0.000;    0.000
509.141;16491.824;    0.000;    0.000
509.275;16230.825;    0.000;    0.000
509.408;16288.825;    0.000;    0.000
509.542;16356.825;    0.000;    0.000
509.675;16145.825;    0.000;    0.000
509.809;16316.825;    0.000;    0.000
509.942;16124.825;    0.000;    0.000
510.076;16253.825;    0.000;    0.000
510.209;16155.825;    0.000;    0.000
510.343;16225.825;    0.000;    0.000
510.476;15957.825;    0.000;    0.000
510.610;16023.825;    0.000;    0.000
510.743;15827.825;    0.000;    0.000
510.877;16144.825;    0.000;    0.000
511.010;16237.825;    0.000;    0.000
511.143;16727.824;    0.000;    0.000
511.277;18276.824;    0.000;    0.000
511.410;18358.824;    0.000;    0.000
511.543;16589.824;    0.000;    0.000
511.677;16089.825;    0.000;    0.000
511.810;17562.824;    0.000;    0.000
511.943;21447.824;    0.000;    0.000
512.077;22752.824;    0.000;    0.000
512.210;18957.824;    0.000;    0.000
512.343;16473.824;    0.000;    0.000
512.476;16318.825;    0.000;    0.000
512.610;17390.824;    0.000;    0.000
512.743;20441.824;    0.000;    0.000
512.876;24533.824;    0.000;    0.000
513.009;22261.824;    0.000;    0.000
513.142;17766.824;    0.000;    0.000
513.276;16420.824;    0.000;    0.000
513.409;15817.825;    0.000;    0.000
513.542;15201.825;    0.000;    0.000
513.675;15307.825;    0.000;    0.000
513.808;15332.825;    0.000;    0.000
513.941;15239.825;    0.000;    0.000
514.074;15265.825;    0.000;    0.000
514.207;15461.825;    0.000;    0.000
514.340;16234.825;    0.000;    0.000
514.474;19075.824;    0.000;    0.000
514.607;20308.824;    0.000;    0.000
514.740;19201.824;    0.000;    0.000
514.873;17055.824;    0.000;    0.000
515.006;16404.824;    0.000;    0.000
515.139;17878.824;    0.000;    0.000
515.272;19539.824;    0.000;    0.000
515.404;19915.824;    0.000;    0.000
515.537;18366.824;    0.000;    0.000
515.670;16413.824;    0.000;    0.000
515.803;15774.825;    0.000;    0.000
515.936;16018.825;    0.000;    0.000
516.069;15738.825;    0.000;    0.000
516.202;15976.825;    0.000;    0.000
516.335;16021.825;    0.000;    0.000
516.468;16182.825;    0.000;    0.000
516.600;16490.824;    0.000;    0.000
516.733;16992.824;    0.000;    0.000
516.866;17307.824;    0.000;    0.000
516.999;18027.824;    0.000;    0.000
517.132;19284.824;    0.000;    0.000
517.264;24860.824;    0.000;    0.000
517.397;27843.824;    0.000;    0.000
517.530;22540.824;    0.000;    0.000
517.663;18634.824;    0.000;    0.000
517.795;18453.824;    0.000;    0.000
517.928;18357.824;    0.000;    0.000
518.061;18334.824;    0.000;    0.000
518.193;18581.824;    0.000;    0.000
518.326;19986.824;    0.000;    0.000
518.459;23257.824;    0.000;    0.000
518.591;26671.824;    0.000;    0.000
518.724;30452.824;    0.000;    0.000
518.857;34441.824;    0.000;    0.000
518.989;30482.824;    0.000;    0.000
519.122;25263.824;    0.000;    0.000
519.254;29954.824;    0.000;    0.000
519.387;27253.824;    0.000;    0.000
519.519;18907.824;    0.000;    0.000
519.652;16444.824;    0.000;    0.000
519.784;15876.825;    0.000;    0.000
519.917;15808.825;    0.000;    0.000
520.049;15881.825;    0.000;    0.000
520.182;15942.825;    0.000;    0.000
520.314;15509.825;    0.000;    0.000
520.447;16097.825;    0.000;    0.000
520.579;16911.824;    0.000;    0.000
520.712;17051.824;    0.000;    0.000
520.844;19600.824;    0.000;    0.000
520.976;28117.824;    0.000;    0.000
521.109;29481.824;    0.000;    0.000
521.241;21074.824;    0.000;    0.000
521.373;16758.824;    0.000;    0.000
521.506;14963.825;    0.000;    0.000
521.638;14619.825;    0.000;    0.000
521.770;14801.825;    0.000;    0.000
521.903;15768.825;    0.000;    0.000
522.035;15814.825;    0.000;    0.000
522.167;16682.824;    0.000;    0.000
522.300;21666.824;    0.000;    0.000
522.432;29061.824;    0.000;    0.000
522.564;31871.824;    0.000;    0.000
522.696;28324.824;    0.000;    0.000
522.828;21326.824;    0.000;    0.000
522.961;16764.824;    0.000;    0.000
523.093;15231.825;    0.000;    0.000
523.225;14676.825;    0.000;    0.000
523.357;14381.825;    0.000;    0.000
523.489;14028.825;    0.000;    0.000
523.621;13835.825;    0.000;    0.000
523.753;14192.825;    0.000;    0.000
523.885;14543.825;    0.000;    0.000
524.018;14147.825;    0.000;    0.000
524.150;13559.825;    0.000;    0.000
524.282;13610.825;    0.000;    0.000
524.414;13555.825;    0.000;    0.000
524.546;14292.825;    0.000;    0.000
524.678;15230.825;    0.000;    0.000
524.810;14414.825;    0.000;    0.000
524.942;13640.825;    0.000;    0.000
525.074;13998.825;    0.000;    0.000
525.206;14551.825;    0.000;    0.000
525.338;14074.825;    0.000;    0.000
525.469;13872.825;    0.000;    0.000
525.601;14263.825;    0.000;    0.000
525.733;14082.825;    0.000;    0.000
525.865;13822.825;    0.000;    0.000
525.997;14314.825;    0.000;    0.000
526.129;14595.825;    0.000;    0.000
526.261;14940.825;    0.000;    0.000
526.393;15158.825;    0.000;    0.000
526.524;15886.825;    0.000;    0.000
526.656;16428.824;    0.000;    0.000
526.788;15814.825;    0.000;    0.000
526.920;15413.825;    0.000;    0.000
527.052;14390.825;    0.000;    0.000
527.183;13760.825;    0.000;    0.000
527.315;13237.825;    0.000;    0.000
527.447;12826.825;    0.000;    0.000
527.578;12977.825;    0.000;    0.000
527.710;12832.825;    0.000;    0.000
527.842;12925.825;    0.000;    0.000
527.973;12969.825;    0.000;    0.000
528.105;13412.825;    0.000;    0.000
528.237;14779.825;    0.000;    0.000
528.368;15323.825;    0.000;    0.000
528.500;14041.825;    0.000;    0.000
528.632;13021.825;    0.000;    0.000
528.763;12915.825;    0.000;    0.000
528.895;13180.825;    0.000;    0.000
529.026;12880.825;    0.000;    0.000
529.158;12827.825;    0.000;    0.000
529.289;12833.825;    0.000;    0.000
529.421;13012.825;    0.000;    0.000
529.552;13989.825;    0.000;    0.000
529.684;15521.825;    0.000;    0.000
529.815;15838.825;    0.000;    0.000
529.947;14219.825;    0.000;    0.000
530.078;13163.825;    0.000;    0.000
530.210;12773.825;    0.000;    0.000
530.341;12685.825;    0.000;    0.000
530.472;12640.825;    0.000;    0.000
530.604;12516.825;    0.000;    0.000
530.735;12598.825;    0.000;    0.000
530.867;12633.825;    0.000;    0.000
530.998;12633.825;    0.000;    0.000
531.129;12491.825;    0.000;    0.000
531.260;12807.825;    0.000;    0.000
531.392;12612.825;    0.000;    0.000
531.523;12575.825;    0.000;    0.000
531.654;12565.825;    0.000;    0.000
531.786;12396.825;    0.000;    0.000
531.917;12440.825;    0.000;    0.000
532.048;12341.825;    0.000;    0.000
532.179;12372.825;    0.000;    0.000
532.311;12557.825;    0.000;    0.000
532.442;12519.825;    0.000;    0.000
532.573;12417.825;    0.000;    0.000
532.704;12359.825;    0.000;    0.000
532.835;12523.825;    0.000;    0.000
532.966;12535.825;    0.000;    0.000
533.097;12582.825;    0.000;    0.000
533.229;12479.825;    0.000;    0.000
533.360;12734.825;    0.000;    0.000
533.491;13860.825;    0.000;    0.000
533.622;16870.824;    0.000;    0.000
533.753;17012.824;    0.000;    0.000
533.884;14320.825;    0.000;    0.000
534.015;13160.825;    0.000;    0.000
534.146;13071.825;    0.000;    0.000
534.277;12760.825;    0.000;    0.000
534.408;12529.825;    0.000;    0.000
534.539;12339.825;    0.000;    0.000
534.670;12137.825;    0.000;    0.000
534.801;12234.825;    0.000;    0.000
534.932;12377.825;    0.000;    0.000
535.063;13181.825;    0.000;    0.000
535.194;13220.825;    0.000;    0.000
535.324;12503.825;    0.000;    0.000
535.455;12140.825;    0.000;    0.000
535.586;12251.825;    0.000;    0.000
535.717;11889.825;    0.000;    0.000
535.848;11999.825;    0.000;    0.000
535.979;11868.825;    0.000;    0.000
536.109;11985.825;    0.000;    0.000
536.240;11952.825;    0.000;    0.000
536.371;11995.825;    0.000;    0.000
536.502;11908.825;    0.000;    0.000
536.632;12099.825;    0.000;    0.000
536.763;12209.825;    0.000;    0.000
536.894;12743.825;    0.000;    0.000
537.025;12822.825;    0.000;    0.000
537.155;12021.825;    0.000;    0.000
537.286;11852.825;    0.000;    0.000
537.417;11905.825;    0.000;    0.000
537.547;11764.825;    0.000;    0.000
537.678;11790.825;    0.000;    0.000
537.808;12095.825;    0.000;    0.000
537.939;12657.825;    0.000;    0.000
538.070;14139.825;    0.000;    0.000
538.200;13739.825;    0.000;    0.000
538.331;12388.825;    0.000;    0.000
538.461;12066.825;    0.000;    0.000
538.592;11983.825;    0.000;    0.000
538.722;12210.825;    0.000;    0.000
538.853;12602.825;    0.000;    0.000
538.983;12817.825;    0.000;    0.000
539.114;12526.825;    0.000;    0.000
539.244;12090.825;    0.000;    0.000
539.375;11964.825;    0.000;    0.000
539.505;12274.825;    0.000;    0.000
539.636;13235.825;    0.000;    0.000
539.766;13262.825;    0.000;    0.000
539.896;11940.825;    0.000;    0.000
540.027;11937.825;    0.000;    0.000
540.157;11902.825;    0.000;    0.000
540.287;12034.825;    0.000;    0.000
540.418;12200.825;    0.000;    0.000
540.548;12107.825;    0.000;    0.000
540.678;12135.825;    0.000;    0.000
540.809;12524.825;    0.000;    0.000
540.939;13276.825;    0.000;    0.000
541.069;12857.825;    0.000;    0.000
541.200;11816.825;    0.000;    0.000
541.330;11748.825;    0.000;    0.000
541.460;11917.825;    0.000;    0.000
541.590;11975.825;    0.000;    0.000
541.720;12481.825;    0.000;    0.000
541.851;13395.825;    0.000;    0.000
541.981;13241.825;    0.000;    0.000
542.111;12349.825;    0.000;    0.000
542.241;12096.825;    0.000;    0.000
542.371;11997.825;    0.000;    0.000
542.501;12080.825;    0.000;    0.000
542.631;12031.825;    0.000;    0.000
542.761;12423.825;    0.000;    0.000
542.891;12939.825;    0.000;    0.000
543.021;12565.825;    0.000;    0.000
543.151;11903.825;    0.000;    0.000
543.281;11908.825;    0.000;    0.000
543.411;11796.825;    0.000;    0.000
543.542;11956.825;    0.000;    0.000
543.671;12177.825;    0.000;    0.000
543.801;11990.825;    0.000;    0.000
543.931;12015.825;    0.000;    0.000
544.061;11925.825;    0.000;    0.000
544.191;11713.825;    0.000;    0.000
544.321;11745.825;    0.000;    0.000
544.451;12010.825;    0.000;    0.000
544.581;12264.825;    0.000;    0.000
544.711;12683.825;    0.000;    0.000
544.841;12839.825;    0.000;    0.000
544.970;12885.825;    0.000;    0.000
545.100;12518.825;    0.000;    0.000
545.230;12769.825;    0.000;    0.000
545.360;13136.825;    0.000;    0.000
545.490;12838.825;    0.000;    0.000
545.619;12655.825;    0.000;    0.000
545.749;12534.825;    0.000;    0.000
545.879;12743.825;    0.000;    0.000
546.009;12893.825;    0.000;    0.000
546.138;12774.825;    0.000;    0.000
546.268;12424.825;    0.000;    0.000
546.398;12562.825;    0.000;    0.000
546.527;12976.825;    0.000;    0.000
546.657;12767.825;    0.000;    0.000
546.786;12742.825;    0.000;    0.000
546.916;12765.825;    0.000;    0.000
547.046;13402.825;    0.000;    0.000
547.175;13751.825;    0.000;    0.000
547.305;14326.825;    0.000;    0.000
547.434;14608.825;    0.000;    0.000
547.564;13971.825;    0.000;    0.000
547.693;14500.825;    0.000;    0.000
547.823;14972.825;    0.000;    0.000
547.953;14212.825;    0.000;    0.000
548.082;15155.825;    0.000;    0.000
548.211;15460.825;    0.000;    0.000
548.341;13893.825;    0.000;    0.000
548.470;13255.825;    0.000;    0.000
548.600;13459.825;    0.000;    0.000
548.729;14264.825;    0.000;    0.000
548.859;15483.825;    0.000;    0.000
548.988;16633.824;    0.000;    0.000
549.117;15990.825;    0.000;    0.000
549.247;14378.825;    0.000;    0.000
549.376;13583.825;    0.000;    0.000
549.505;13702.825;    0.000;    0.000
549.635;13489.825;    0.000;    0.000
549.764;13380.825;    0.000;    0.000
549.893;13468.825;    0.000;    0.000
550.023;13344.825;    0.000;    0.000
550.152;13550.825;    0.000;    0.000
550.281;14951.825;    0.000;    0.000
550.410;15941.825;    0.000;    0.000
550.539;14859.825;    0.000;    0.000
550.669;13321.825;    0.000;    0.000
550.798;13322.825;    0.000;    0.000
550.927;13510.825;    0.000;    0.000
551.056;14713.825;    0.000;    0.000
551.185;20452.824;    0.000;    0.000
551.314;26481.824;    0.000;    0.000
551.443;26570.824;    0.000;    0.000
551.573;20336.824;    0.000;    0.000
551.702;14129.825;    0.000;    0.000
551.831;13647.825;    0.000;    0.000
551.960;13531.825;    0.000;    0.000
552.089;13556.825;    0.000;    0.000
552.218;13463.825;    0.000;    0.000
552.347;13565.825;    0.000;    0.000
552.476;13618.825;    0.000;    0.000
552.605;13814.825;    0.000;    0.000
552.734;13947.825;    0.000;    0.000
552.863;14252.825;    0.000;    0.000
552.992;14791.825;    0.000;    0.000
553.121;15154.825;    0.000;    0.000
553.249;14860.825;    0.000;    0.000
553.378;14608.825;    0.000;    0.000
553.507;14387.825;    0.000;    0.000
553.636;14270.825;    0.000;    0.000
553.765;14308.825;    0.000;    0.000
553.894;14209.825;    0.000;    0.000
554.023;14195.825;    0.000;    0.000
554.151;13910.825;    0.000;    0.000
554.280;13714.825;    0.000;    0.000
554.409;13673.825;    0.000;    0.000
554.538;14065.825;    0.000;    0.000
554.666;14036.825;    0.000;    0.000
554.795;13638.825;    0.000;    0.000
554.924;13396.825;    0.000;    0.000
555.052;13381.825;    0.000;    0.000
555.181;13263.825;    0.000;    0.000
555.310;13195.825;    0.000;    0.000
555.439;13176.825;    0.000;    0.000
555.567;13019.825;    0.000;    0.000
555.696;12967.825;    0.000;    0.000
555.824;13012.825;    0.000;    0.000
555.953;13088.825;    0.000;    0.000
556.082;12941.825;    0.000;    0.000
556.210;13074.825;    0.000;    0.000
556.339;13380.825;    0.000;    0.000
556.467;15279.825;    0.000;    0.000
556.596;15933.825;    0.000;    0.000
556.724;13743.825;    0.000;    0.000
556.853;12880.825;    0.000;    0.000
556.981;13027.825;    0.000;    0.000
557.110;12826.825;    0.000;    0.000
557.238;12759.825;    0.000;    0.000
557.367;12726.825;    0.000;    0.000
557.495;13015.825;    0.000;    0.000
557.623;12882.825;    0.000;    0.000
557.752;12912.825;    0.000;    0.000
557.880;13256.825;    0.000;    0.000
558.008;13056.825;    0.000;    0.000
558.137;13198.825;    0.000;    0.000
558.265;13388.825;    0.000;    0.000
558.393;13665.825;    0.000;    0.000
558.522;13569.825;    0.000;    0.000
558.650;13173.825;    0.000;    0.000
558.778;13070.825;    0.000;    0.000
558.906;12939.825;    0.000;    0.000
559.035;12923.825;    0.000;    0.000
559.163;12933.825;    0.000;    0.000
559.291;12851.825;    0.000;    0.000
559.419;12946.825;    0.000;    0.000
559.548;12838.825;    0.000;    0.000
559.676;13190.825;    0.000;    0.000
559.804;13795.825;    0.000;    0.000
559.932;13668.825;    0.000;    0.000
560.060;13658.825;    0.000;    0.000
560.188;13372.825;    0.000;    0.000
560.316;13232.825;    0.000;    0.000
560.444;13376.825;    0.000;    0.000
560.572;13371.825;    0.000;    0.000
560.700;13386.825;    0.000;    0.000
560.828;13363.825;    0.000;    0.000
560.956;13203.825;    0.000;    0.000
561.085;13349.825;    0.000;    0.000
561.212;13232.825;    0.000;    0.000
561.340;13242.825;    0.000;    0.000
561.468;13324.825;    0.000;    0.000
561.596;13478.825;    0.000;    0.000
561.724;13383.825;    0.000;    0.000
561.852;13459.825;    0.000;    0.000
561.980;13398.825;    0.000;    0.000
562.108;13369.825;    0.000;    0.000
562.236;13472.825;    0.000;    0.000
562.364;13930.825;    0.000;    0.000
562.492;14148.825;    0.000;    0.000
562.619;14112.825;    0.000;    0.000
562.747;14491.825;    0.000;    0.000
562.875;14585.825;    0.000;    0.000
563.003;14218.825;    0.000;    0.000
563.130;14149.825;    0.000;    0.000
563.258;13871.825;    0.000;    0.000
563.386;14086.825;    0.000;    0.000
563.514;14447.825;    0.000;    0.000
563.641;14634.825;    0.000;    0.000
563.769;14477.825;    0.000;    0.000
563.897;14698.825;    0.000;    0.000
564.024;14654.825;    0.000;    0.000
564.152;15000.825;    0.000;    0.000
564.280;18216.824;    0.000;    0.000
564.407;21603.824;    0.000;    0.000
564.535;19168.824;    0.000;    0.000
564.662;15978.825;    0.000;    0.000
564.790;16777.824;    0.000;    0.000
564.917;16867.824;    0.000;    0.000
565.045;16206.825;    0.000;    0.000
565.173;15693.825;    0.000;    0.000
565.300;15968.825;    0.000;    0.000
565.428;16373.825;    0.000;    0.000
565.555;16392.824;    0.000;    0.000
565.682;16912.824;    0.000;    0.000
565.810;17219.824;    0.000;    0.000
565.937;17291.824;    0.000;    0.000
566.065;19327.824;    0.000;    0.000
566.192;22849.824;    0.000;    0.000
566.320;23407.824;    0.000;    0.000
566.447;20708.824;    0.000;    0.000
566.574;20098.824;    0.000;    0.000
566.702;20448.824;    0.000;    0.000
566.829;20469.824;    0.000;    0.000
566.956;20648.824;    0.000;    0.000
567.083;21155.824;    0.000;    0.000
567.211;21504.824;    0.000;    0.000
567.338;22233.824;    0.000;    0.000
567.465;24095.824;    0.000;    0.000
567.593;24891.824;    0.000;    0.000
567.720;23234.824;    0.000;    0.000
567.847;22749.824;    0.000;    0.000
567.974;22909.824;    0.000;    0.000
568.101;22066.824;    0.000;    0.000
568.228;20830.824;    0.000;    0.000
568.356;19776.824;    0.000;    0.000
568.483;19465.824;    0.000;    0.000
568.610;18719.824;    0.000;    0.000
568.737;18582.824;    0.000;    0.000
568.864;19218.824;    0.000;    0.000
568.991;19255.824;    0.000;    0.000
569.118;17913.824;    0.000;    0.000
569.245;17018.824;    0.000;    0.000
569.372;16710.824;    0.000;    0.000
569.499;16458.824;    0.000;    0.000
569.626;16432.824;    0.000;    0.000
569.753;16999.824;    0.000;    0.000
569.880;17094.824;    0.000;    0.000
570.007;16128.825;    0.000;    0.000
570.134;16164.825;    0.000;    0.000
570.261;17661.824;    0.000;    0.000
570.388;17602.824;    0.000;    0.000
570.515;16626.824;    0.000;    0.000
570.642;16495.824;    0.000;    0.000
570.768;17051.824;    0.000;    0.000
570.895;16601.824;    0.000;    0.000
571.022;15994.825;    0.000;    0.000
571.149;16432.824;    0.000;    0.000
571.276;16466.824;    0.000;    0.000
571.402;17168.824;    0.000;    0.000
571.529;17611.824;    0.000;    0.000
571.656;16678.824;    0.000;    0.000
571.783;15221.825;    0.000;    0.000
571.909;15250.825;    0.000;    0.000
572.036;15209.825;    0.000;    0.000
572.163;14956.825;    0.000;    0.000
572.289;14598.825;    0.000;    0.000
572.416;14531.825;    0.000;    0.000
572.543;14988.825;    0.000;    0.000
572.669;15941.825;    0.000;    0.000
572.796;15621.825;    0.000;    0.000
572.922;14422.825;    0.000;    0.000
573.049;14402.825;    0.000;    0.000
573.176;14443.825;    0.000;    0.000
573.302;14359.825;    0.000;    0.000
573.429;14291.825;    0.000;    0.000
573.555;14348.825;    0.000;    0.000
573.682;14434.825;    0.000;    0.000
573.808;14984.825;    0.000;    0.000
573.935;16226.825;    0.000;    0.000
574.061;15794.825;    0.000;    0.000
574.188;14615.825;    0.000;    0.000
574.314;14266.825;    0.000;    0.000
574.440;14141.825;    0.000;    0.000
574.567;14096.825;    0.000;    0.000
574.693;14004.825;    0.000;    0.000
574.820;13990.825;    0.000;    0.000
574.946;13920.825;    0.000;    0.000
575.072;13833.825;    0.000;    0.000
575.198;14083.825;    0.000;    0.000
575.325;14237.825;    0.000;    0.000
575.451;14118.825;    0.000;    0.000
575.577;14183.825;    0.000;    0.000
575.704;14371.825;    0.000;    0.000
575.830;14338.825;    0.000;    0.000
575.956;14439.825;    0.000;    0.000
576.082;14804.825;    0.000;    0.000
576.208;15372.825;    0.000;    0.000
576.335;15274.825;    0.000;    0.000
576.461;15164.825;    0.000;    0.000
576.587;15554.825;    0.000;    0.000
576.713;15311.825;    0.000;    0.000
576.839;14633.825;    0.000;    0.000
576.965;14558.825;    0.000;    0.000
577.091;14757.825;    0.000;    0.000
577.217;15190.825;    0.000;    0.000
577.343;15802.825;    0.000;    0.000
577.469;15607.825;    0.000;    0.000
577.596;14594.825;    0.000;    0.000
577.722;14289.825;    0.000;    0.000
577.848;14220.825;    0.000;    0.000
577.974;14256.825;    0.000;    0.000
578.099;14436.825;    0.000;    0.000
578.225;14378.825;    0.000;    0.000
578.351;14713.825;    0.000;    0.000
578.477;15823.825;    0.000;    0.000
578.603;15917.825;    0.000;    0.000
578.729;15225.825;    0.000;    0.000
578.855;14370.825;    0.000;    0.000
578.981;14371.825;    0.000;    0.000
579.107;14196.825;    0.000;    0.000
579.232;14217.825;    0.000;    0.000
579.358;14075.825;    0.000;    0.000
579.484;14064.825;    0.000;    0.000
579.610;14328.825;    0.000;    0.000
579.735;14349.825;    0.000;    0.000
579.861;14499.825;    0.000;    0.000
579.987;14170.825;    0.000;    0.000
580.113;14289.825;    0.000;    0.000
580.238;14563.825;    0.000;    0.000
580.364;15329.825;    0.000;    0.000
580.490;15758.825;    0.000;    0.000
580.615;15318.825;    0.000;    0.000
580.741;14851.825;    0.000;    0.000
580.867;15048.825;    0.000;    0.000
580.992;14671.825;    0.000;    0.000
581.118;14548.825;    0.000;    0.000
581.243;14574.825;    0.000;    0.000
581.369;14446.825;    0.000;    0.000
581.494;14129.825;    0.000;    0.000
581.620;14288.825;    0.000;    0.000
581.745;14115.825;    0.000;    0.000
581.871;14204.825;    0.000;    0.000
581.996;14078.825;    0.000;    0.000
582.122;14121.825;    0.000;    0.000
582.247;14297.825;    0.000;    0.000
582.373;14612.825;    0.000;    0.000
582.498;14255.825;    0.000;    0.000
582.624;14134.825;    0.000;    0.000
582.749;14295.825;    0.000;    0.000
582.874;14209.825;    0.000;    0.000
583.000;14309.825;    0.000;    0.000
583.125;14422.825;    0.000;    0.000
583.250;14438.825;    0.000;    0.000
583.376;14400.825;    0.000;    0.000
583.501;14243.825;    0.000;    0.000
583.626;14299.825;    0.000;    0.000
583.751;14448.825;    0.000;    0.000
583.877;14634.825;    0.000;    0.000
584.002;14551.825;    0.000;    0.000
584.127;14600.825;    0.000;    0.000
584.252;14644.825;    0.000;    0.000
584.377;14407.825;    0.000;    0.000
584.503;14244.825;    0.000;    0.000
584.628;14528.825;    0.000;    0.000
584.753;14643.825;    0.000;    0.000
584.878;14527.825;    0.000;    0.000
585.003;14228.825;    0.000;    0.000
585.128;14459.825;    0.000;    0.000
585.253;14315.825;    0.000;    0.000
585.378;14418.825;    0.000;    0.000
585.503;14670.825;    0.000;    0.000
585.628;14495.825;    0.000;    0.000
585.753;14346.825;    0.000;    0.000
585.878;14164.825;    0.000;    0.000
586.003;14550.825;    0.000;    0.000
586.128;14400.825;    0.000;    0.000
586.253;14768.825;    0.000;    0.000
586.378;14836.825;    0.000;    0.000
586.503;17769.824;    0.000;    0.000
586.628;21992.824;    0.000;    0.000
586.753;20045.824;    0.000;    0.000
586.878;15197.825;    0.000;    0.000
587.003;14767.825;    0.000;    0.000
587.127;14933.825;    0.000;    0.000
587.252;14913.825;    0.000;    0.000
587.377;14885.825;    0.000;    0.000
587.502;14897.825;    0.000;    0.000
587.627;15134.825;    0.000;    0.000
587.751;15557.825;    0.000;    0.000
587.876;15817.825;    0.000;    0.000
588.001;16045.825;    0.000;    0.000
588.125;16003.825;    0.000;    0.000
588.250;15672.825;    0.000;    0.000
588.375;16153.825;    0.000;    0.000
588.499;16537.824;    0.000;    0.000
588.624;16851.824;    0.000;    0.000
588.749;18864.824;    0.000;    0.000
588.873;26043.824;    0.000;    0.000
588.998;32685.824;    0.000;    0.000
589.122;27819.824;    0.000;    0.000
589.247;20180.824;    0.000;    0.000
589.372;19249.824;    0.000;    0.000
589.496;24164.824;    0.000;    0.000
589.621;26653.824;    0.000;    0.000
589.745;23234.824;    0.000;    0.000
589.870;22045.824;    0.000;    0.000
589.994;21421.824;    0.000;    0.000
590.118;18191.824;    0.000;    0.000
590.243;17337.824;    0.000;    0.000
590.367;17166.824;    0.000;    0.000
590.492;17009.824;    0.000;    0.000
590.616;16801.824;    0.000;    0.000
590.740;16546.824;    0.000;    0.000
590.865;16471.824;    0.000;    0.000
590.989;16592.824;    0.000;    0.000
591.114;16517.824;    0.000;    0.000
591.238;16719.824;    0.000;    0.000
591.362;17138.824;    0.000;    0.000
591.486;17388.824;    0.000;    0.000
591.611;17331.824;    0.000;    0.000
591.735;17907.824;    0.000;    0.000
591.859;18586.824;    0.000;    0.000
591.983;18378.824;    0.000;    0.000
592.107;19321.824;    0.000;    0.000
592.232;20150.824;    0.000;    0.000
592.356;19296.824;    0.000;    0.000
592.480;18646.824;    0.000;    0.000
592.604;18848.824;    0.000;    0.000
592.728;19025.824;    0.000;    0.000
592.852;19616.824;    0.000;    0.000
592.976;19789.824;    0.000;    0.000
593.100;20122.824;    0.000;    0.000
593.224;20135.824;    0.000;    0.000
593.349;20257.824;    0.000;    0.000
593.473;19881.824;    0.000;    0.000
593.597;20251.824;    0.000;    0.000
593.721;21008.824;    0.000;    0.000
593.844;21154.824;    0.000;    0.000
593.968;21229.824;    0.000;    0.000
594.092;22083.824;    0.000;    0.000
594.216;22140.824;    0.000;    0.000
594.340;20893.824;    0.000;    0.000
594.464;19984.824;    0.000;    0.000
594.588;19431.824;    0.000;    0.000
594.712;19140.824;    0.000;    0.000
594.836;19059.824;    0.000;    0.000
594.959;19049.824;    0.000;    0.000
595.083;19415.824;    0.000;    0.000
595.207;22518.824;    0.000;    0.000
595.331;24603.824;    0.000;    0.000
595.455;21796.824;    0.000;    0.000
595.578;18943.824;    0.000;    0.000
595.702;18588.824;    0.000;    0.000
595.826;18406.824;    0.000;    0.000
595.949;17942.824;    0.000;    0.000
596.073;17889.824;    0.000;    0.000
596.197;17626.824;    0.000;    0.000
596.320;17929.824;    0.000;    0.000
596.444;20068.824;    0.000;    0.000
596.568;22346.824;    0.000;    0.000
596.691;21275.824;    0.000;    0.000
596.815;18390.824;    0.000;    0.000
596.938;18203.824;    0.000;    0.000
597.062;18341.824;    0.000;    0.000
597.186;18882.824;    0.000;    0.000
597.309;18938.824;    0.000;    0.000
597.433;18604.824;    0.000;    0.000
597.556;18442.824;    0.000;    0.000
597.680;19559.824;    0.000;    0.000
597.803;22654.824;    0.000;    0.000
597.926;22444.824;    0.000;    0.000
598.050;19727.824;    0.000;    0.000
598.173;18574.824;    0.000;    0.000
598.297;18848.824;    0.000;    0.000
598.420;18774.824;    0.000;    0.000
598.543;19083.824;    0.000;    0.000
598.667;19400.824;    0.000;    0.000
598.790;20232.824;    0.000;    0.000
598.913;20445.824;    0.000;    0.000
599.037;20622.824;    0.000;    0.000
599.160;20288.824;    0.000;    0.000
599.283;20697.824;    0.000;    0.000
599.406;21095.824;    0.000;    0.000
599.530;21735.824;    0.000;    0.000
599.653;21848.824;    0.000;    0.000
599.776;22227.824;    0.000;    0.000
599.899;23433.824;    0.000;    0.000
600.022;23636.824;    0.000;    0.000
600.145;22776.824;    0.000;    0.000
600.269;22717.824;    0.000;    0.000
600.392;22176.824;    0.000;    0.000
600.515;21435.824;    0.000;    0.000
600.638;20891.824;    0.000;    0.000
600.761;20805.824;    0.000;    0.000
600.884;20209.824;    0.000;    0.000
601.007;20141.824;    0.000;    0.000
601.130;20016.824;    0.000;    0.000
601.253;20552.824;    0.000;    0.000
601.376;20481.824;    0.000;    0.000
601.499;20135.824;    0.000;    0.000
601.622;19899.824;    0.000;    0.000
601.745;19999.824;    0.000;    0.000
601.868;19597.824;    0.000;    0.000
601.991;19249.824;    0.000;    0.000
602.113;19248.824;    0.000;    0.000
602.236;19462.824;    0.000;    0.000
602.359;19288.824;    0.000;    0.000
602.482;19541.824;    0.000;    0.000
602.605;19699.824;    0.000;    0.000
602.728;19913.824;    0.000;    0.000
602.850;20254.824;    0.000;    0.000
602.973;21041.824;    0.000;    0.000
603.096;21681.824;    0.000;    0.000
603.219;22334.824;    0.000;    0.000
603.341;22511.824;    0.000;    0.000
603.464;21968.824;    0.000;    0.000
603.587;21679.824;    0.000;    0.000
603.709;21339.824;    0.000;    0.000
603.832;21392.824;    0.000;    0.000
603.955;21908.824;    0.000;    0.000
604.077;21489.824;    0.000;    0.000
604.200;21562.824;    0.000;    0.000
604.323;20870.824;    0.000;    0.000
604.445;20815.824;    0.000;    0.000
604.568;20135.824;    0.000;    0.000
604.690;19667.824;    0.000;    0.000
604.813;19386.824;    0.000;    0.000
604.935;19194.824;    0.000;    0.000
605.058;18580.824;    0.000;    0.000
605.180;18368.824;    0.000;    0.000
605.303;18296.824;    0.000;    0.000
605.425;18132.824;    0.000;    0.000
605.547;17934.824;    0.000;    0.000
605.670;17763.824;    0.000;    0.000
605.792;17905.824;    0.000;    0.000
605.915;17877.824;    0.000;    0.000
606.037;17575.824;    0.000;    0.000
606.159;17368.824;    0.000;    0.000
606.282;17632.824;    0.000;    0.000
606.404;18089.824;    0.000;    0.000
606.526;18549.824;    0.000;    0.000
606.648;18082.824;    0.000;    0.000
606.771;18079.824;    0.000;    0.000
606.893;17979.824;    0.000;    0.000
607.015;18059.824;    0.000;    0.000
607.137;17751.824;    0.000;    0.000
607.260;17836.824;    0.000;    0.000
607.382;18036.824;    0.000;    0.000
607.504;17832.824;    0.000;    0.000
607.626;17820.824;    0.000;    0.000
607.748;17838.824;    0.000;    0.000
607.870;17859.824;    0.000;    0.000
607.992;17719.824;    0.000;    0.000
608.114;17681.824;    0.000;    0.000
608.237;17255.824;    0.000;    0.000
608.359;17190.824;    0.000;    0.000
608.481;17900.824;    0.000;    0.000
608.603;17518.824;    0.000;    0.000
608.725;16125.825;    0.000;    0.000
608.847;16208.825;    0.000;    0.000
608.969;18116.824;    0.000;    0.000
609.090;19635.824;    0.000;    0.000
609.212;18320.824;    0.000;    0.000
609.334;16151.825;    0.000;    0.000
609.456;15391.825;    0.000;    0.000
609.578;15099.825;    0.000;    0.000
609.700;15332.825;    0.000;    0.000
609.822;15993.825;    0.000;    0.000
609.944;16170.825;    0.000;    0.000
610.065;15282.825;    0.000;    0.000
610.187;15098.825;    0.000;    0.000
610.309;15177.825;    0.000;    0.000
610.431;15191.825;    0.000;    0.000
610.552;15202.825;    0.000;    0.000
610.674;15102.825;    0.000;    0.000
610.796;15326.825;    0.000;    0.000
610.918;14945.825;    0.000;    0.000
611.039;14884.825;    0.000;    0.000
611.161;15020.825;    0.000;    0.000
611.282;14744.825;    0.000;    0.000
611.404;14422.825;    0.000;    0.000
611.526;14073.825;    0.000;    0.000
611.647;14507.825;    0.000;    0.000
611.769;14243.825;    0.000;    0.000
611.890;14809.825;    0.000;    0.000
612.012;14974.825;    0.000;    0.000
612.133;14725.825;    0.000;    0.000
612.255;14378.825;    0.000;    0.000
612.377;14078.825;    0.000;    0.000
612.498;15115.825;    0.000;    0.000
612.619;16096.825;    0.000;    0.000
612.741;15315.825;    0.000;    0.000
612.862;14058.825;    0.000;    0.000
612.984;13850.825;    0.000;    0.000
613.105;13968.825;    0.000;    0.000
613.226;13837.825;    0.000;    0.000
613.348;14102.825;    0.000;    0.000
613.469;14332.825;    0.000;    0.000
613.590;14074.825;    0.000;    0.000
613.712;14203.825;    0.000;    0.000
613.833;14159.825;    0.000;    0.000
613.954;14136.825;    0.000;    0.000
614.076;14155.825;    0.000;    0.000
614.197;14228.825;    0.000;    0.000
614.318;14142.825;    0.000;    0.000
614.439;14460.825;    0.000;    0.000
614.560;14485.825;    0.000;    0.000
614.682;14592.825;    0.000;    0.000
614.803;14263.825;    0.000;    0.000
614.924;14522.825;    0.000;    0.000
615.045;14261.825;    0.000;    0.000
615.166;13983.825;    0.000;    0.000
615.287;13871.825;    0.000;    0.000
615.408;13848.825;    0.000;    0.000
615.529;14276.825;    0.000;    0.000
615.650;13979.825;    0.000;    0.000
615.771;14266.825;    0.000;    0.000
615.892;14422.825;    0.000;    0.000
616.013;14069.825;    0.000;    0.000
616.134;14189.825;    0.000;    0.000
616.255;14310.825;    0.000;    0.000
616.376;14148.825;    0.000;    0.000
616.497;14298.825;    0.000;    0.000
616.618;14007.825;    0.000;    0.000
616.739;14225.825;    0.000;    0.000
616.860;14038.825;    0.000;    0.000
616.981;14119.825;    0.000;    0.000
617.102;14194.825;    0.000;    0.000
617.222;13992.825;    0.000;    0.000
617.343;14227.825;    0.000;    0.000
617.464;14426.825;    0.000;    0.000
617.585;14378.825;    0.000;    0.000
617.705;14428.825;    0.000;    0.000
617.826;14329.825;    0.000;    0.000
617.947;14260.825;    0.000;    0.000
618.068;14200.825;    0.000;    0.000
618.188;14254.825;    0.000;    0.000
618.309;14133.825;    0.000;    0.000
618.430;14291.825;    0.000;    0.000
618.550;14287.825;    0.000;    0.000
618.671;14455.825;    0.000;    0.000
618.791;14202.825;    0.000;    0.000
618.912;13897.825;    0.000;    0.000
619.033;13840.825;    0.000;    0.000
619.153;13886.825;    0.000;    0.000
619.274;13936.825;    0.000;    0.000
619.394;13996.825;    0.000;    0.000
619.515;13693.825;    0.000;    0.000
619.635;13529.825;    0.000;    0.000
619.756;13482.825;    0.000;    0.000
619.876;13627.825;    0.000;    0.000
619.996;13741.825;    0.000;    0.000
620.117;13417.825;    0.000;    0.000
620.237;13395.825;    0.000;    0.000
620.358;13318.825;    0.000;    0.000
620.478;13198.825;    0.000;    0.000
620.598;13267.825;    0.000;    0.000
620.719;13145.825;    0.000;    0.000
620.839;13106.825;    0.000;    0.000
620.959;13164.825;    0.000;    0.000
621.079;13518.825;    0.000;    0.000
621.200;13752.825;    0.000;    0.000
621.320;14271.825;    0.000;    0.000
621.440;15516.825;    0.000;    0.000
621.560;16199.825;    0.000;    0.000
621.681;15374.825;    0.000;    0.000
621.801;14369.825;    0.000;    0.000
621.921;14648.825;    0.000;    0.000
622.041;16121.825;    0.000;    0.000
622.161;16242.825;    0.000;    0.000
622.281;15220.825;    0.000;    0.000
622.401;14655.825;    0.000;    0.000
622.521;14267.825;    0.000;    0.000
622.641;14261.825;    0.000;    0.000
622.761;13922.825;    0.000;    0.000
622.882;13881.825;    0.000;    0.000
623.002;14194.825;    0.000;    0.000
623.121;14338.825;    0.000;    0.000
623.241;14061.825;    0.000;    0.000
623.361;14242.825;    0.000;    0.000
623.481;14069.825;    0.000;    0.000
623.601;14230.825;    0.000;    0.000
623.721;14182.825;    0.000;    0.000
623.841;14103.825;    0.000;    0.000
623.961;13982.825;    0.000;    0.000
624.081;14323.825;    0.000;    0.000
624.201;14766.825;    0.000;    0.000
624.320;15376.825;    0.000;    0.000
624.440;15084.825;    0.000;    0.000
624.560;14498.825;    0.000;    0.000
624.680;14262.825;    0.000;    0.000
624.799;14150.825;    0.000;    0.000
624.919;13977.825;    0.000;    0.000
625.039;14191.825;    0.000;    0.000
625.159;13876.825;    0.000;    0.000
625.278;14188.825;    0.000;    0.000
625.398;13984.825;    0.000;    0.000
625.518;14339.825;    0.000;    0.000
625.637;17034.824;    0.000;    0.000
625.757;29277.824;    0.000;    0.000
625.876;33733.824;    0.000;    0.000
625.996;27577.824;    0.000;    0.000
626.115;22362.824;    0.000;    0.000
626.235;18806.824;    0.000;    0.000
626.354;14361.825;    0.000;    0.000
626.474;13623.825;    0.000;    0.000
626.594;13337.825;    0.000;    0.000
626.713;13460.825;    0.000;    0.000
626.832;13468.825;    0.000;    0.000
626.952;13323.825;    0.000;    0.000
627.071;12942.825;    0.000;    0.000
627.191;12913.825;    0.000;    0.000
627.310;13023.825;    0.000;    0.000
627.429;13171.825;    0.000;    0.000
627.549;13006.825;    0.000;    0.000
627.668;12876.825;    0.000;    0.000
627.787;12935.825;    0.000;    0.000
627.907;12852.825;    0.000;    0.000
628.026;12818.825;    0.000;    0.000
628.145;12766.825;    0.000;    0.000
628.264;12847.825;    0.000;    0.000
628.384;12976.825;    0.000;    0.000
628.503;12951.825;    0.000;    0.000
628.622;12818.825;    0.000;    0.000
628.741;12602.825;    0.000;    0.000
628.860;12602.825;    0.000;    0.000
628.980;12589.825;    0.000;    0.000
629.099;12552.825;    0.000;    0.000
629.218;12690.825;    0.000;    0.000
629.337;12780.825;    0.000;    0.000
629.456;12638.825;    0.000;    0.000
629.575;12787.825;    0.000;    0.000
629.694;12919.825;    0.000;    0.000
629.813;12648.825;    0.000;    0.000
629.932;12441.825;    0.000;    0.000
630.051;12292.825;    0.000;    0.000
630.170;12382.825;    0.000;    0.000
630.289;12890.825;    0.000;    0.000
630.408;12989.825;    0.000;    0.000
630.527;12919.825;    0.000;    0.000
630.646;12555.825;    0.000;    0.000
630.764;12724.825;    0.000;    0.000
630.883;12678.825;    0.000;    0.000
631.002;12831.825;    0.000;    0.000
631.121;13044.825;    0.000;    0.000
631.240;13432.825;    0.000;    0.000
631.359;13167.825;    0.000;    0.000
631.477;12744.825;    0.000;    0.000
631.596;12546.825;    0.000;    0.000
631.715;12671.825;    0.000;    0.000
631.834;12781.825;    0.000;    0.000
631.952;12536.825;    0.000;    0.000
632.071;12427.825;    0.000;    0.000
632.190;12316.825;    0.000;    0.000
632.308;12146.825;    0.000;    0.000
632.427;12239.825;    0.000;    0.000
632.546;12291.825;    0.000;    0.000
632.664;12106.825;    0.000;    0.000
632.783;12087.825;    0.000;    0.000
632.901;11822.825;    0.000;    0.000
633.020;11900.825;    0.000;    0.000
633.138;11656.825;    0.000;    0.000
633.257;11748.825;    0.000;    0.000
633.375;11536.825;    0.000;    0.000
633.494;11848.825;    0.000;    0.000
633.612;12037.825;    0.000;    0.000
633.731;11777.825;    0.000;    0.000
633.849;11651.825;    0.000;    0.000
633.968;11521.825;    0.000;    0.000
634.086;11425.825;    0.000;    0.000
634.204;11543.825;    0.000;    0.000
634.323;11437.825;    0.000;    0.000
634.441;11592.825;    0.000;    0.000
634.559;11451.825;    0.000;    0.000
634.678;11353.825;    0.000;    0.000
634.796;11320.825;    0.000;    0.000
634.914;11207.825;    0.000;    0.000
635.032;11373.825;    0.000;    0.000
635.151;11166.825;    0.000;    0.000
635.269;11325.825;    0.000;    0.000
635.387;11181.825;    0.000;    0.000
635.505;11296.825;    0.000;    0.000
635.623;11395.825;    0.000;    0.000
635.742;11138.825;    0.000;    0.000
635.860;11283.825;    0.000;    0.000
635.978;11453.825;    0.000;    0.000
636.096;11297.825;    0.000;    0.000
636.214;11108.825;    0.000;    0.000
636.332;11172.825;    0.000;    0.000
636.450;11158.825;    0.000;    0.000
636.568;11453.825;    0.000;    0.000
636.686;11329.825;    0.000;    0.000
636.804;11017.825;    0.000;    0.000
636.922;11081.825;    0.000;    0.000
637.040;11180.825;    0.000;    0.000
637.158;11057.825;    0.000;    0.000
637.276;10961.825;    0.000;    0.000
637.394;10677.825;    0.000;    0.000
637.512;10729.825;    0.000;    0.000
637.629;10749.825;    0.000;    0.000
637.747;10615.825;    0.000;    0.000
637.865;10675.825;    0.000;    0.000
637.983;10857.825;    0.000;    0.000
638.101;10935.825;    0.000;    0.000
638.218;10927.825;    0.000;    0.000
638.336;10922.825;    0.000;    0.000
638.454;10698.825;    0.000;    0.000
638.572;10567.825;    0.000;    0.000
638.689;10610.825;    0.000;    0.000
638.807;10522.825;    0.000;    0.000
638.925;10476.825;    0.000;    0.000
639.042;10666.825;    0.000;    0.000
639.160;10444.825;    0.000;    0.000
639.278;10620.825;    0.000;    0.000
639.395;10490.825;    0.000;    0.000
639.513;10585.825;    0.000;    0.000
639.630;10620.825;    0.000;    0.000
639.748;10437.825;    0.000;    0.000
639.865;10341.825;    0.000;    0.000
639.983;10336.825;    0.000;    0.000
640.100;10433.825;    0.000;    0.000
640.218;10473.825;    0.000;    0.000
640.335;10347.825;    0.000;    0.000
640.453;10311.825;    0.000;    0.000
640.570;10125.825;    0.000;    0.000
640.688;10193.825;    0.000;    0.000
640.805;10293.825;    0.000;    0.000
640.922;10242.825;    0.000;    0.000
641.040;10136.825;    0.000;    0.000
641.157;10141.825;    0.000;    0.000
641.274;10109.825;    0.000;    0.000
641.391;10177.825;    0.000;    0.000
641.509;10146.825;    0.000;    0.000
641.626;10217.825;    0.000;    0.000
641.743;10227.825;    0.000;    0.000
641.860;10313.825;    0.000;    0.000
641.978;10465.825;    0.000;    0.000
642.095;10260.825;    0.000;    0.000
642.212;10237.825;    0.000;    0.000
642.329;10038.825;    0.000;    0.000
642.446; 9985.825;    0.000;    0.000
642.563;10169.825;    0.000;    0.000
642.681;10201.825;    0.000;    0.000
642.798;10029.825;    0.000;    0.000
642.915;10114.825;    0.000;    0.000
643.032;10323.825;    0.000;    0.000
643.149;10165.825;    0.000;    0.000
643.266;10295.825;    0.000;    0.000
643.383;10211.825;    0.000;    0.000
643.500;10234.825;    0.000;    0.000
643.617;10256.825;    0.000;    0.000
643.734;10253.825;    0.000;    0.000
643.850;10458.825;    0.000;    0.000
643.967;10464.825;    0.000;    0.000
644.084;10626.825;    0.000;    0.000
644.201;10305.825;    0.000;    0.000
644.318;10227.825;    0.000;    0.000
644.435;10390.825;    0.000;    0.000
644.552;10509.825;    0.000;    0.000
644.668;10522.825;    0.000;    0.000
644.785;10609.825;    0.000;    0.000
644.902;10670.825;    0.000;    0.000
645.019;10508.825;    0.000;    0.000
645.135;10361.825;    0.000;    0.000
645.252;10598.825;    0.000;    0.000
645.369;10465.825;    0.000;    0.000
645.485;10382.825;    0.000;    0.000
645.602;10399.825;    0.000;    0.000
645.719;10173.825;    0.000;    0.000
645.835;10224.825;    0.000;    0.000
645.952;10177.825;    0.000;    0.000
646.068;10366.825;    0.000;    0.000
646.185;10206.825;    0.000;    0.000
646.302;10547.825;    0.000;    0.000
646.418;10489.825;    0.000;    0.000
646.535;10301.825;    0.000;    0.000
646.651;10234.825;    0.000;    0.000
646.768;10534.825;    0.000;    0.000
646.884;10482.825;    0.000;    0.000
647.000;10357.825;    0.000;    0.000
647.117;10437.825;    0.000;    0.000
647.233;10440.825;    0.000;    0.000
647.350;10622.825;    0.000;    0.000
647.466;10470.825;    0.000;    0.000
647.582;10723.825;    0.000;    0.000
647.699;10669.825;    0.000;    0.000
647.815;10877.825;    0.000;    0.000
647.931;10920.825;    0.000;    0.000
648.047;10854.825;    0.000;    0.000
648.164;11000.825;    0.000;    0.000
648.280;11041.825;    0.000;    0.000
648.396;11035.825;    0.000;    0.000
648.512;11103.825;    0.000;    0.000
648.629;10894.825;    0.000;    0.000
648.745;10911.825;    0.000;    0.000
648.861;10947.825;    0.000;    0.000
648.977;11322.825;    0.000;    0.000
649.093;11970.825;    0.000;    0.000
649.209;11868.825;    0.000;    0.000
649.325;11518.825;    0.000;    0.000
649.441;10946.825;    0.000;    0.000
649.557;10802.825;    0.000;    0.000
649.673;10954.825;    0.000;    0.000
649.789;11131.825;    0.000;    0.000
649.905;10730.825;    0.000;    0.000
650.021;10714.825;    0.000;    0.000
650.137;10862.825;    0.000;    0.000
650.253;10758.825;    0.000;    0.000
650.369;10818.825;    0.000;    0.000
650.485;10746.825;    0.000;    0.000
650.601;11034.825;    0.000;    0.000
650.717;11076.825;    0.000;    0.000
650.833;11136.825;    0.000;    0.000
650.948;11288.825;    0.000;    0.000
651.064;11074.825;    0.000;    0.000
651.180;11406.825;    0.000;    0.000
651.296;11785.825;    0.000;    0.000
651.411;11673.825;    0.000;    0.000
651.527;11269.825;    0.000;    0.000
651.643;11564.825;    0.000;    0.000
651.759;11338.825;    0.000;    0.000
651.874;11337.825;    0.000;    0.000
651.990;11573.825;    0.000;    0.000
652.105;11427.825;    0.000;    0.000
652.221;11429.825;    0.000;    0.000
652.337;11508.825;    0.000;    0.000
652.452;11633.825;    0.000;    0.000
652.568;11689.825;    0.000;    0.000
652.683;11660.825;    0.000;    0.000
652.799;11785.825;    0.000;    0.000
652.914;11773.825;    0.000;    0.000
653.030;12153.825;    0.000;    0.000
653.145;12217.825;    0.000;    0.000
653.261;12275.825;    0.000;    0.000
653.376;12399.825;    0.000;    0.000
653.492;12383.825;    0.000;    0.000
653.607;12527.825;    0.000;    0.000
653.722;12699.825;    0.000;    0.000
653.838;12848.825;    0.000;    0.000
653.953;12818.825;    0.000;    0.000
654.068;13254.825;    0.000;    0.000
654.184;13608.825;    0.000;    0.000
654.299;13954.825;    0.000;    0.000
654.414;14281.825;    0.000;    0.000
654.530;15160.825;    0.000;    0.000
654.645;15860.825;    0.000;    0.000
654.760;15725.825;    0.000;    0.000
654.875;15484.825;    0.000;    0.000
654.990;15971.825;    0.000;    0.000
655.106;16169.825;    0.000;    0.000
655.221;16837.824;    0.000;    0.000
655.336;18149.824;    0.000;    0.000
655.451;19981.824;    0.000;    0.000
655.566;20840.824;    0.000;    0.000
655.681;21153.824;    0.000;    0.000
655.796;21127.824;    0.000;    0.000
655.911;21455.824;    0.000;    0.000
656.026;22823.824;    0.000;    0.000
656.141;23617.824;    0.000;    0.000
656.256;24389.824;    0.000;    0.000
656.371;24790.824;    0.000;    0.000
656.486;24756.824;    0.000;    0.000
656.601;24324.824;    0.000;    0.000
656.716;23661.824;    0.000;    0.000
656.831;22589.824;    0.000;    0.000
656.946;21942.824;    0.000;    0.000
657.060;21009.824;    0.000;    0.000
657.175;20215.824;    0.000;    0.000
657.290;19369.824;    0.000;    0.000
657.405;18993.824;    0.000;    0.000
657.520;18418.824;    0.000;    0.000
657.634;17821.824;    0.000;    0.000
657.749;17556.824;    0.000;    0.000
657.864;17095.824;    0.000;    0.000
657.979;16617.824;    0.000;    0.000
658.093;16228.825;    0.000;    0.000
658.208;15945.825;    0.000;    0.000
658.323;15683.825;    0.000;    0.000
658.437;15246.825;    0.000;    0.000
658.552;15151.825;    0.000;    0.000
658.666;14759.825;    0.000;    0.000
658.781;14479.825;    0.000;    0.000
658.895;14324.825;    0.000;    0.000
659.010;14160.825;    0.000;    0.000
659.125;13888.825;    0.000;    0.000
659.239;13814.825;    0.000;    0.000
659.353;13788.825;    0.000;    0.000
659.468;13535.825;    0.000;    0.000
659.582;13437.825;    0.000;    0.000
659.697;13355.825;    0.000;    0.000
659.811;13574.825;    0.000;    0.000
659.926;13725.825;    0.000;    0.000
660.040;13548.825;    0.000;    0.000
660.154;13453.825;    0.000;    0.000
660.269;13168.825;    0.000;    0.000
660.383;12928.825;    0.000;    0.000
660.497;13393.825;    0.000;    0.000
660.612;13457.825;    0.000;    0.000
660.726;13579.825;    0.000;    0.000
660.840;13079.825;    0.000;    0.000
660.954;12727.825;    0.000;    0.000
661.068;12503.825;    0.000;    0.000
661.183;12281.825;    0.000;    0.000
661.297;12248.825;    0.000;    0.000
661.411;12258.825;    0.000;    0.000
661.525;12122.825;    0.000;    0.000
661.639;11902.825;    0.000;    0.000
661.753;11843.825;    0.000;    0.000
661.867;11901.825;    0.000;    0.000
661.981;11890.825;    0.000;    0.000
662.095;11854.825;    0.000;    0.000
662.209;11854.825;    0.000;    0.000
662.323;11588.825;    0.000;    0.000
662.437;11333.825;    0.000;    0.000
662.551;11322.825;    0.000;    0.000
662.665;11202.825;    0.000;    0.000
662.779;11192.825;    0.000;    0.000
662.893;11041.825;    0.000;    0.000
663.007;10981.825;    0.000;    0.000
663.121;10928.825;    0.000;    0.000
663.235;10582.825;    0.000;    0.000
663.349;10535.825;    0.000;    0.000
663.462;10687.825;    0.000;    0.000
663.576;10745.825;    0.000;    0.000
663.690;10411.825;    0.000;    0.000
663.804;10470.825;    0.000;    0.000
663.917;10224.825;    0.000;    0.000
664.031;10362.825;    0.000;    0.000
664.145;10267.825;    0.000;    0.000
664.258;10256.825;    0.000;    0.000
664.372;10254.825;    0.000;    0.000
664.486;10165.825;    0.000;    0.000
664.599;10112.825;    0.000;    0.000
664.713;10270.825;    0.000;    0.000
664.827;10119.825;    0.000;    0.000
664.940;10178.825;    0.000;    0.000
665.054;10417.825;    0.000;    0.000
665.167;10267.825;    0.000;    0.000
665.281;10468.825;    0.000;    0.000
665.394;10114.825;    0.000;    0.000
665.508;10002.825;    0.000;    0.000
665.621;10245.825;    0.000;    0.000
665.735;10038.825;    0.000;    0.000
665.848;10023.825;    0.000;    0.000
665.961; 9946.825;    0.000;    0.000
666.075;10014.825;    0.000;    0.000
666.188;10205.825;    0.000;    0.000
666.301;10092.825;    0.000;    0.000
666.415; 9912.825;    0.000;    0.000
666.528;10556.825;    0.000;    0.000
666.641;11068.825;    0.000;    0.000
666.755;11253.825;    0.000;    0.000
666.868;11125.825;    0.000;    0.000
666.981;10699.825;    0.000;    0.000
667.094;10117.825;    0.000;    0.000
667.207; 9841.825;    0.000;    0.000
667.321; 9771.825;    0.000;    0.000
667.434; 9639.825;    0.000;    0.000
667.547; 9598.825;    0.000;    0.000
667.660; 9661.825;    0.000;    0.000
667.773; 9959.825;    0.000;    0.000
667.886;10074.825;    0.000;    0.000
667.999;10020.825;    0.000;    0.000
668.112; 9964.825;    0.000;    0.000
668.225; 9609.825;    0.000;    0.000
668.338; 9372.825;    0.000;    0.000
668.451; 9574.825;    0.000;    0.000
668.564; 9285.825;    0.000;    0.000
668.677; 9363.825;    0.000;    0.000
668.790; 9139.825;    0.000;    0.000
668.903; 9227.825;    0.000;    0.000
669.016; 9288.825;    0.000;    0.000
669.129; 9157.825;    0.000;    0.000
669.242; 9016.825;    0.000;    0.000
669.354; 9076.825;    0.000;    0.000
669.467; 9138.825;    0.000;    0.000
669.580; 9073.825;    0.000;    0.000
669.693; 8985.825;    0.000;    0.000
669.806; 8913.825;    0.000;    0.000
669.918; 8971.825;    0.000;    0.000
670.031; 9030.825;    0.000;    0.000
670.144; 8883.825;    0.000;    0.000
670.256; 8813.825;    0.000;    0.000
670.369; 8937.825;    0.000;    0.000
670.482; 8880.825;    0.000;    0.000
670.594; 8954.825;    0.000;    0.000
670.707; 9058.825;    0.000;    0.000
670.820; 8885.825;    0.000;    0.000
670.932; 8919.825;    0.000;    0.000
671.045; 8821.825;    0.000;    0.000
671.157; 8790.825;    0.000;    0.000
671.270; 8672.825;    0.000;    0.000
671.382; 8919.825;    0.000;    0.000
671.495; 9030.825;    0.000;    0.000
671.607; 9295.825;    0.000;    0.000
671.720; 9610.825;    0.000;    0.000
671.832; 9425.825;    0.000;    0.000
671.944; 9306.825;    0.000;    0.000
672.057; 8960.825;    0.000;    0.000
672.169; 8976.825;    0.000;    0.000
672.281; 8970.825;    0.000;    0.000
672.394; 8911.825;    0.000;    0.000
672.506; 8842.825;    0.000;    0.000
672.618; 8691.825;    0.000;    0.000
672.731; 8647.825;    0.000;    0.000
672.843; 8690.825;    0.000;    0.000
672.955; 8662.825;    0.000;    0.000
673.067; 8534.825;    0.000;    0.000
673.180; 8682.825;    0.000;    0.000
673.292; 8700.825;    0.000;    0.000
673.404; 8784.825;    0.000;    0.000
673.516; 8398.825;    0.000;    0.000
673.628; 8522.825;    0.000;    0.000
673.740; 8522.825;    0.000;    0.000
673.852; 8387.825;    0.000;    0.000
673.964; 8545.825;    0.000;    0.000
674.076; 8826.825;    0.000;    0.000
674.188; 9244.825;    0.000;    0.000
674.300; 9690.825;    0.000;    0.000
674.412; 9700.825;    0.000;    0.000
674.524; 9135.825;    0.000;    0.000
674.636; 8972.825;    0.000;    0.000
674.748; 8909.825;    0.000;    0.000
674.860; 8642.825;    0.000;    0.000
674.972; 8671.825;    0.000;    0.000
675.084; 8480.825;    0.000;    0.000
675.196; 8629.825;    0.000;    0.000
675.307; 8425.825;    0.000;    0.000
675.419; 8492.825;    0.000;    0.000
675.531; 8528.825;    0.000;    0.000
675.643; 8297.825;    0.000;    0.000
675.755; 8467.825;    0.000;    0.000
675.866; 8259.825;    0.000;    0.000
675.978; 8493.825;    0.000;    0.000
676.090; 8351.825;    0.000;    0.000
676.201; 8451.825;    0.000;    0.000
676.313; 8408.825;    0.000;    0.000
676.425; 8518.825;    0.000;    0.000
676.536; 8445.825;    0.000;    0.000
676.648; 8282.825;    0.000;    0.000
676.759; 8330.825;    0.000;    0.000
676.871; 8239.825;    0.000;    0.000
676.983; 8198.825;    0.000;    0.000
677.094; 8235.825;    0.000;    0.000
677.206; 8148.825;    0.000;    0.000
677.317; 8140.825;    0.000;    0.000
677.429; 8118.825;    0.000;    0.000
677.540; 8212.825;    0.000;    0.000
677.651; 8198.825;    0.000;    0.000
677.763; 8371.825;    0.000;    0.000
677.874; 8233.825;    0.000;    0.000
677.986; 8156.825;    0.000;    0.000
678.097; 8193.825;    0.000;    0.000
678.208; 8302.825;    0.000;    0.000
678.320; 8410.825;    0.000;    0.000
678.431; 8361.825;    0.000;    0.000
678.542; 8341.825;    0.000;    0.000
678.653; 8353.825;    0.000;    0.000
678.765; 8136.825;    0.000;    0.000
678.876; 8168.825;    0.000;    0.000
678.987; 8095.825;    0.000;    0.000
679.098; 8191.825;    0.000;    0.000
679.209; 8157.825;    0.000;    0.000
679.320; 8223.825;    0.000;    0.000
679.432; 8173.825;    0.000;    0.000
679.543; 8216.825;    0.000;    0.000
679.654; 8082.825;    0.000;    0.000
679.765; 8151.825;    0.000;    0.000
679.876; 8088.825;    0.000;    0.000
679.987; 8041.825;    0.000;    0.000
680.098; 7999.825;    0.000;    0.000
680.209; 7892.825;    0.000;    0.000
680.320; 7792.825;    0.000;    0.000
680.431; 7759.825;    0.000;    0.000
680.542; 7919.825;    0.000;    0.000
680.653; 8066.825;    0.000;    0.000
680.763; 8007.825;    0.000;    0.000
680.874; 8169.825;    0.000;    0.000
680.985; 7914.825;    0.000;    0.000
681.096; 7890.825;    0.000;    0.000
681.207; 8044.825;    0.000;    0.000
681.318; 7900.825;    0.000;    0.000
681.428; 7935.825;    0.000;    0.000
681.539; 8074.825;    0.000;    0.000
681.650; 7984.825;    0.000;    0.000
681.760; 8137.825;    0.000;    0.000
681.871; 7947.825;    0.000;    0.000
681.982; 7948.825;    0.000;    0.000
682.093; 7884.825;    0.000;    0.000
682.203; 8087.825;    0.000;    0.000
682.314; 8009.825;    0.000;    0.000
682.424; 7946.825;    0.000;    0.000
682.535; 7989.825;    0.000;    0.000
682.646; 8233.825;    0.000;    0.000
682.756; 8400.825;    0.000;    0.000
682.867; 8097.825;    0.000;    0.000
682.977; 8142.825;    0.000;    0.000
683.088; 7847.825;    0.000;    0.000
683.198; 7929.825;    0.000;    0.000
683.308; 7919.825;    0.000;    0.000
683.419; 7913.825;    0.000;    0.000
683.529; 7892.825;    0.000;    0.000
683.640; 7876.825;    0.000;    0.000
683.750; 7863.825;    0.000;    0.000
683.860; 7836.825;    0.000;    0.000
683.971; 7935.825;    0.000;    0.000
684.081; 7857.825;    0.000;    0.000
684.191; 7815.825;    0.000;    0.000
684.301; 7952.825;    0.000;    0.000
684.412; 7973.825;    0.000;    0.000
684.522; 7820.825;    0.000;    0.000
684.632; 8033.825;    0.000;    0.000
684.742; 8064.825;    0.000;    0.000
684.852; 8075.825;    0.000;    0.000
684.963; 8203.825;    0.000;    0.000
685.073; 8093.825;    0.000;    0.000
685.183; 8223.825;    0.000;    0.000
685.293; 7873.825;    0.000;    0.000
685.403; 8102.825;    0.000;    0.000
685.513; 8150.825;    0.000;    0.000
685.623; 7981.825;    0.000;    0.000
685.733; 8028.825;    0.000;    0.000
685.843; 7979.825;    0.000;    0.000
685.953; 8196.825;    0.000;    0.000
686.063; 8658.825;    0.000;    0.000
686.173; 8639.825;    0.000;    0.000
686.283; 8445.825;    0.000;    0.000
686.393; 8162.825;    0.000;    0.000
686.503; 7923.825;    0.000;    0.000
686.612; 8066.825;    0.000;    0.000
686.722; 7982.825;    0.000;    0.000
686.832; 8053.825;    0.000;    0.000
686.942; 7886.825;    0.000;    0.000
687.052; 7912.825;    0.000;    0.000
687.161; 8052.825;    0.000;    0.000
687.271; 8098.825;    0.000;    0.000
687.381; 8147.825;    0.000;    0.000
687.491; 8088.825;    0.000;    0.000
687.600; 8021.825;    0.000;    0.000
687.710; 7947.825;    0.000;    0.000
687.820; 7794.825;    0.000;    0.000
687.929; 7848.825;    0.000;    0.000
688.039; 7737.825;    0.000;    0.000
688.148; 7815.825;    0.000;    0.000
688.258; 7724.825;    0.000;    0.000
688.367; 7888.825;    0.000;    0.000
688.477; 7907.825;    0.000;    0.000
688.586; 7669.825;    0.000;    0.000
688.696; 8004.825;    0.000;    0.000
688.805; 7673.825;    0.000;    0.000
688.915; 7753.825;    0.000;    0.000
689.024; 7594.825;    0.000;    0.000
689.134; 7645.825;    0.000;    0.000
689.243; 7695.825;    0.000;    0.000
689.352; 7689.825;    0.000;    0.000
689.462; 7619.825;    0.000;    0.000
689.571; 7772.825;    0.000;    0.000
689.680; 7665.825;    0.000;    0.000
689.790; 7714.825;    0.000;    0.000
689.899; 7721.825;    0.000;    0.000
690.008; 7710.825;    0.000;    0.000
690.117; 7661.825;    0.000;    0.000
690.227; 7671.825;    0.000;    0.000
690.336; 7684.825;    0.000;    0.000
690.445; 7707.825;    0.000;    0.000
690.554; 7668.825;    0.000;    0.000
690.663; 7709.825;    0.000;    0.000
690.772; 7752.825;    0.000;    0.000
690.881; 7833.825;    0.000;    0.000
690.990; 7848.825;    0.000;    0.000
691.099; 7869.825;    0.000;    0.000
691.209; 7975.825;    0.000;    0.000
691.318; 8169.825;    0.000;    0.000
691.427; 8063.825;    0.000;    0.000
691.536; 7885.825;    0.000;    0.000
691.644; 7991.825;    0.000;    0.000
691.753; 7862.825;    0.000;    0.000
691.862; 7895.825;    0.000;    0.000
691.971; 8054.825;    0.000;    0.000
692.080; 8053.825;    0.000;    0.000
692.189; 8212.825;    0.000;    0.000
692.298; 8220.825;    0.000;    0.000
692.406; 8050.825;    0.000;    0.000
692.515; 8214.825;    0.000;    0.000
692.624; 8207.825;    0.000;    0.000
692.733; 8283.825;    0.000;    0.000
692.842; 8147.825;    0.000;    0.000
692.950; 8018.825;    0.000;    0.000
693.059; 7940.825;    0.000;    0.000
693.168; 8206.825;    0.000;    0.000
693.276; 8300.825;    0.000;    0.000
693.385; 8332.825;    0.000;    0.000
693.494; 8280.825;    0.000;    0.000
693.602; 8335.825;    0.000;    0.000
693.711; 8256.825;    0.000;    0.000
693.819; 8191.825;    0.000;    0.000
693.928; 8079.825;    0.000;    0.000
694.036; 7975.825;    0.000;    0.000
694.145; 8044.825;    0.000;    0.000
694.253; 8139.825;    0.000;    0.000
694.362; 8204.825;    0.000;    0.000
694.470; 8198.825;    0.000;    0.000
694.579; 8150.825;    0.000;    0.000
694.687; 8231.825;    0.000;    0.000
694.795; 8086.825;    0.000;    0.000
694.904; 7835.825;    0.000;    0.000
695.012; 7902.825;    0.000;    0.000
695.120; 8068.825;    0.000;    0.000
695.229; 8012.825;    0.000;    0.000
695.337; 8092.825;    0.000;    0.000
695.445; 8090.825;    0.000;    0.000
695.553; 8024.825;    0.000;    0.000
695.662; 8215.825;    0.000;    0.000
695.770; 8233.825;    0.000;    0.000
695.878; 8395.825;    0.000;    0.000
695.986; 8354.825;    0.000;    0.000
696.094; 8477.825;    0.000;    0.000
696.202; 8442.825;    0.000;    0.000
696.310; 8389.825;    0.000;    0.000
696.419; 8442.825;    0.000;    0.000
696.527; 8286.825;    0.000;    0.000
696.635; 8317.825;    0.000;    0.000
696.743; 8294.825;    0.000;    0.000
696.851; 8187.825;    0.000;    0.000
696.959; 8068.825;    0.000;    0.000
697.067; 8106.825;    0.000;    0.000
697.174; 8113.825;    0.000;    0.000
697.282; 8040.825;    0.000;    0.000
697.390; 8156.825;    0.000;    0.000
697.498; 8075.825;    0.000;    0.000
697.606; 8070.825;    0.000;    0.000
697.714; 8043.825;    0.000;    0.000
697.822; 8147.825;    0.000;    0.000
697.929; 8125.825;    0.000;    0.000
698.037; 8122.825;    0.000;    0.000
698.145; 8102.825;    0.000;    0.000
698.253; 8082.825;    0.000;    0.000
698.360; 8112.825;    0.000;    0.000
698.468; 8017.825;    0.000;    0.000
698.576; 8092.825;    0.000;    0.000
698.683; 8130.825;    0.000;    0.000
698.791; 8150.825;    0.000;    0.000
698.899; 8093.825;    0.000;    0.000
699.006; 8085.825;    0.000;    0.000
699.114; 8169.825;    0.000;    0.000
699.221; 8180.825;    0.000;    0.000
699.329; 8260.825;    0.000;    0.000
699.436; 8369.825;    0.000;    0.000
699.544; 8475.825;    0.000;    0.000
699.651; 8773.825;    0.000;    0.000
699.759; 9279.825;    0.000;    0.000
699.866; 9667.825;    0.000;    0.000
699.974; 9439.825;    0.000;    0.000
700.081; 8978.825;    0.000;    0.000
700.188; 8777.825;    0.000;    0.000
700.296; 8666.825;    0.000;    0.000
700.403; 8988.825;    0.000;    0.000
700.510; 9068.825;    0.000;    0.000
700.618; 8790.825;    0.000;    0.000
700.725; 8471.825;    0.000;    0.000
700.832; 8322.825;    0.000;    0.000
700.940; 8579.825;    0.000;    0.000
701.047; 8227.825;    0.000;    0.000
701.154; 8350.825;    0.000;    0.000
701.261; 8260.825;    0.000;    0.000
701.368; 8382.825;    0.000;    0.000
701.475; 8238.825;    0.000;    0.000
701.582; 8152.825;    0.000;    0.000
701.690; 8020.825;    0.000;    0.000
701.797; 8117.825;    0.000;    0.000
701.904; 8230.825;    0.000;    0.000
702.011; 8116.825;    0.000;    0.000
702.118; 8091.825;    0.000;    0.000
702.225; 8037.825;    0.000;    0.000
702.332; 8019.825;    0.000;    0.000
702.439; 8024.825;    0.000;    0.000
702.546; 8047.825;    0.000;    0.000
702.652; 8072.825;    0.000;    0.000
702.759; 8023.825;    0.000;    0.000
702.866; 8024.825;    0.000;    0.000
702.973; 8029.825;    0.000;    0.000
703.080; 8098.825;    0.000;    0.000
703.187; 8183.825;    0.000;    0.000
703.294; 8352.825;    0.000;    0.000
703.400; 7897.825;    0.000;    0.000
703.507; 1101.825;    0.000;    0.000
703.614;  338.825;    0.000;    0.000
703.720;  308.825;    0.000;    0.000
703.827;  313.825;    0.000;    0.000
703.934;  297.825;    0.000;    0.000
704.040;  283.825;    0.000;    0.000
704.147;  326.825;    0.000;    0.000
704.254;  295.825;    0.000;    0.000
704.360;  305.825;    0.000;    0.000
704.467;  335.825;    0.000;    0.000
704.573;  326.825;    0.000;    0.000
704.680;  306.825;    0.000;    0.000
704.786;  298.825;    0.000;    0.000
704.893;  347.825;    0.000;    0.000
704.999;  318.825;    0.000;    0.000
705.106;  310.825;    0.000;    0.000

