Titanio_posicion1_Burst5-n5
Integration time [ms]:   1.000
Averaging Nr. [scans]: 1
Smoothing Nr. [pixels]: 0
Data measured with spectrometer [name]: VIS
Wave   ;Sample   ;Dark     ;Reference
[nm]   ;[counts] ;[counts] ;[counts] 

450.961;  220.075;    0.000;    0.000
451.100;  200.075;    0.000;    0.000
451.239;  175.075;    0.000;    0.000
451.377;  207.075;    0.000;    0.000
451.516;  197.075;    0.000;    0.000
451.655;  211.075;    0.000;    0.000
451.794;  201.075;    0.000;    0.000
451.932;  230.075;    0.000;    0.000
452.071;  214.075;    0.000;    0.000
452.210;  219.075;    0.000;    0.000
452.348;  224.075;    0.000;    0.000
452.487;  227.075;    0.000;    0.000
452.626;  242.075;    0.000;    0.000
452.764;  212.075;    0.000;    0.000
452.903;  212.075;    0.000;    0.000
453.042;  863.075;    0.000;    0.000
453.180;39014.075;    0.000;    0.000
453.319;50302.075;    0.000;    0.000
453.458;44987.075;    0.000;    0.000
453.596;29715.075;    0.000;    0.000
453.735;18762.075;    0.000;    0.000
453.873;15162.075;    0.000;    0.000
454.012;14008.075;    0.000;    0.000
454.150;14592.075;    0.000;    0.000
454.289;16150.075;    0.000;    0.000
454.427;17938.075;    0.000;    0.000
454.566;21328.075;    0.000;    0.000
454.705;34525.075;    0.000;    0.000
454.843;49375.075;    0.000;    0.000
454.981;48042.075;    0.000;    0.000
455.120;34820.075;    0.000;    0.000
455.258;25235.075;    0.000;    0.000
455.397;21055.075;    0.000;    0.000
455.535;18840.075;    0.000;    0.000
455.674;17224.075;    0.000;    0.000
455.812;16165.075;    0.000;    0.000
455.950;17106.075;    0.000;    0.000
456.089;21904.075;    0.000;    0.000
456.227;29055.075;    0.000;    0.000
456.366;30863.075;    0.000;    0.000
456.504;24965.075;    0.000;    0.000
456.642;19844.075;    0.000;    0.000
456.781;20209.075;    0.000;    0.000
456.919;27728.075;    0.000;    0.000
457.057;40282.075;    0.000;    0.000
457.196;45911.075;    0.000;    0.000
457.334;36125.075;    0.000;    0.000
457.472;23299.075;    0.000;    0.000
457.610;18149.075;    0.000;    0.000
457.749;16694.075;    0.000;    0.000
457.887;16196.075;    0.000;    0.000
458.025;16347.075;    0.000;    0.000
458.163;15940.075;    0.000;    0.000
458.301;15913.075;    0.000;    0.000
458.440;15900.075;    0.000;    0.000
458.578;16101.075;    0.000;    0.000
458.716;17058.075;    0.000;    0.000
458.854;18275.075;    0.000;    0.000
458.992;18707.075;    0.000;    0.000
459.130;17753.075;    0.000;    0.000
459.269;16687.075;    0.000;    0.000
459.407;16832.075;    0.000;    0.000
459.545;16888.075;    0.000;    0.000
459.683;16990.075;    0.000;    0.000
459.821;17351.075;    0.000;    0.000
459.959;17752.075;    0.000;    0.000
460.097;17475.075;    0.000;    0.000
460.235;17683.075;    0.000;    0.000
460.373;17788.075;    0.000;    0.000
460.511;17708.075;    0.000;    0.000
460.649;17907.075;    0.000;    0.000
460.787;18146.075;    0.000;    0.000
460.925;17882.075;    0.000;    0.000
461.063;18063.075;    0.000;    0.000
461.201;18103.075;    0.000;    0.000
461.339;18700.075;    0.000;    0.000
461.477;20546.075;    0.000;    0.000
461.615;23580.075;    0.000;    0.000
461.753;23770.075;    0.000;    0.000
461.891;21558.075;    0.000;    0.000
462.029;20659.075;    0.000;    0.000
462.166;22442.075;    0.000;    0.000
462.304;22745.075;    0.000;    0.000
462.442;22022.075;    0.000;    0.000
462.580;20872.075;    0.000;    0.000
462.718;21872.075;    0.000;    0.000
462.856;22802.075;    0.000;    0.000
462.993;23061.075;    0.000;    0.000
463.131;22024.075;    0.000;    0.000
463.269;21301.075;    0.000;    0.000
463.407;20973.075;    0.000;    0.000
463.545;20834.075;    0.000;    0.000
463.682;22477.075;    0.000;    0.000
463.820;25647.075;    0.000;    0.000
463.958;27075.075;    0.000;    0.000
464.095;24645.075;    0.000;    0.000
464.233;22224.075;    0.000;    0.000
464.371;21867.075;    0.000;    0.000
464.509;21624.075;    0.000;    0.000
464.646;21026.075;    0.000;    0.000
464.784;20723.075;    0.000;    0.000
464.921;20513.075;    0.000;    0.000
465.059;20046.075;    0.000;    0.000
465.197;19585.075;    0.000;    0.000
465.334;19398.075;    0.000;    0.000
465.472;20828.075;    0.000;    0.000
465.609;21975.075;    0.000;    0.000
465.747;20588.075;    0.000;    0.000
465.885;18881.075;    0.000;    0.000
466.022;18336.075;    0.000;    0.000
466.160;18253.075;    0.000;    0.000
466.297;18442.075;    0.000;    0.000
466.435;18617.075;    0.000;    0.000
466.572;19603.075;    0.000;    0.000
466.710;20945.075;    0.000;    0.000
466.847;20155.075;    0.000;    0.000
466.985;18328.075;    0.000;    0.000
467.122;17953.075;    0.000;    0.000
467.260;17918.075;    0.000;    0.000
467.397;18169.075;    0.000;    0.000
467.534;18308.075;    0.000;    0.000
467.672;18215.075;    0.000;    0.000
467.809;17953.075;    0.000;    0.000
467.947;18944.075;    0.000;    0.000
468.084;20785.075;    0.000;    0.000
468.221;21119.075;    0.000;    0.000
468.359;19022.075;    0.000;    0.000
468.496;17755.075;    0.000;    0.000
468.633;18039.075;    0.000;    0.000
468.771;18187.075;    0.000;    0.000
468.908;18628.075;    0.000;    0.000
469.045;19626.075;    0.000;    0.000
469.183;19236.075;    0.000;    0.000
469.320;18486.075;    0.000;    0.000
469.457;18072.075;    0.000;    0.000
469.594;18671.075;    0.000;    0.000
469.732;19390.075;    0.000;    0.000
469.869;19879.075;    0.000;    0.000
470.006;19426.075;    0.000;    0.000
470.143;18745.075;    0.000;    0.000
470.280;18600.075;    0.000;    0.000
470.417;18712.075;    0.000;    0.000
470.555;18692.075;    0.000;    0.000
470.692;19228.075;    0.000;    0.000
470.829;20037.075;    0.000;    0.000
470.966;20605.075;    0.000;    0.000
471.103;19675.075;    0.000;    0.000
471.240;18651.075;    0.000;    0.000
471.377;18391.075;    0.000;    0.000
471.514;18387.075;    0.000;    0.000
471.651;18321.075;    0.000;    0.000
471.789;18176.075;    0.000;    0.000
471.926;18030.075;    0.000;    0.000
472.063;18256.075;    0.000;    0.000
472.200;18526.075;    0.000;    0.000
472.337;18587.075;    0.000;    0.000
472.474;18019.075;    0.000;    0.000
472.611;17590.075;    0.000;    0.000
472.748;17517.075;    0.000;    0.000
472.884;17982.075;    0.000;    0.000
473.021;18244.075;    0.000;    0.000
473.158;18382.075;    0.000;    0.000
473.295;18386.075;    0.000;    0.000
473.432;18099.075;    0.000;    0.000
473.569;17824.075;    0.000;    0.000
473.706;17397.075;    0.000;    0.000
473.843;17520.075;    0.000;    0.000
473.980;18076.075;    0.000;    0.000
474.117;19730.075;    0.000;    0.000
474.253;20983.075;    0.000;    0.000
474.390;20023.075;    0.000;    0.000
474.527;18161.075;    0.000;    0.000
474.664;18183.075;    0.000;    0.000
474.801;18086.075;    0.000;    0.000
474.937;17952.075;    0.000;    0.000
475.074;17968.075;    0.000;    0.000
475.211;17975.075;    0.000;    0.000
475.348;18112.075;    0.000;    0.000
475.484;18714.075;    0.000;    0.000
475.621;22401.075;    0.000;    0.000
475.758;27979.075;    0.000;    0.000
475.894;30248.075;    0.000;    0.000
476.031;25379.075;    0.000;    0.000
476.168;20634.075;    0.000;    0.000
476.304;20193.075;    0.000;    0.000
476.441;20234.075;    0.000;    0.000
476.578;19751.075;    0.000;    0.000
476.714;19122.075;    0.000;    0.000
476.851;18938.075;    0.000;    0.000
476.987;19089.075;    0.000;    0.000
477.124;19206.075;    0.000;    0.000
477.261;19390.075;    0.000;    0.000
477.397;19270.075;    0.000;    0.000
477.534;19998.075;    0.000;    0.000
477.670;21613.075;    0.000;    0.000
477.807;24028.075;    0.000;    0.000
477.943;26256.075;    0.000;    0.000
478.080;24830.075;    0.000;    0.000
478.216;22056.075;    0.000;    0.000
478.353;20705.075;    0.000;    0.000
478.489;20427.075;    0.000;    0.000
478.626;20383.075;    0.000;    0.000
478.762;20414.075;    0.000;    0.000
478.898;20639.075;    0.000;    0.000
479.035;21487.075;    0.000;    0.000
479.171;21936.075;    0.000;    0.000
479.308;21928.075;    0.000;    0.000
479.444;21704.075;    0.000;    0.000
479.580;21800.075;    0.000;    0.000
479.717;22830.075;    0.000;    0.000
479.853;23993.075;    0.000;    0.000
479.989;24403.075;    0.000;    0.000
480.126;24381.075;    0.000;    0.000
480.262;27141.075;    0.000;    0.000
480.398;32934.075;    0.000;    0.000
480.535;34609.075;    0.000;    0.000
480.671;29674.075;    0.000;    0.000
480.807;23991.075;    0.000;    0.000
480.943;22463.075;    0.000;    0.000
481.080;22026.075;    0.000;    0.000
481.216;21529.075;    0.000;    0.000
481.352;20984.075;    0.000;    0.000
481.488;20288.075;    0.000;    0.000
481.624;20218.075;    0.000;    0.000
481.761;20618.075;    0.000;    0.000
481.897;21945.075;    0.000;    0.000
482.033;23033.075;    0.000;    0.000
482.169;21863.075;    0.000;    0.000
482.305;20002.075;    0.000;    0.000
482.441;19718.075;    0.000;    0.000
482.577;19761.075;    0.000;    0.000
482.713;20039.075;    0.000;    0.000
482.849;19820.075;    0.000;    0.000
482.985;19730.075;    0.000;    0.000
483.121;19898.075;    0.000;    0.000
483.257;19885.075;    0.000;    0.000
483.394;19760.075;    0.000;    0.000
483.530;19817.075;    0.000;    0.000
483.666;20382.075;    0.000;    0.000
483.801;20872.075;    0.000;    0.000
483.937;23047.075;    0.000;    0.000
484.073;25429.075;    0.000;    0.000
484.209;23991.075;    0.000;    0.000
484.345;20942.075;    0.000;    0.000
484.481;20747.075;    0.000;    0.000
484.617;20934.075;    0.000;    0.000
484.753;21359.075;    0.000;    0.000
484.889;21924.075;    0.000;    0.000
485.025;21454.075;    0.000;    0.000
485.161;21348.075;    0.000;    0.000
485.296;22250.075;    0.000;    0.000
485.432;26150.075;    0.000;    0.000
485.568;30111.075;    0.000;    0.000
485.704;28336.075;    0.000;    0.000
485.840;22935.075;    0.000;    0.000
485.975;21450.075;    0.000;    0.000
486.111;20872.075;    0.000;    0.000
486.247;21600.075;    0.000;    0.000
486.383;22107.075;    0.000;    0.000
486.518;22678.075;    0.000;    0.000
486.654;23926.075;    0.000;    0.000
486.790;27809.075;    0.000;    0.000
486.926;30563.075;    0.000;    0.000
487.061;29306.075;    0.000;    0.000
487.197;27834.075;    0.000;    0.000
487.333;28244.075;    0.000;    0.000
487.468;27807.075;    0.000;    0.000
487.604;24508.075;    0.000;    0.000
487.739;22120.075;    0.000;    0.000
487.875;21606.075;    0.000;    0.000
488.011;21933.075;    0.000;    0.000
488.146;22322.075;    0.000;    0.000
488.282;24643.075;    0.000;    0.000
488.417;28841.075;    0.000;    0.000
488.553;29390.075;    0.000;    0.000
488.688;24739.075;    0.000;    0.000
488.824;20924.075;    0.000;    0.000
488.960;20940.075;    0.000;    0.000
489.095;20861.075;    0.000;    0.000
489.230;21346.075;    0.000;    0.000
489.366;21168.075;    0.000;    0.000
489.501;20911.075;    0.000;    0.000
489.637;21191.075;    0.000;    0.000
489.772;23227.075;    0.000;    0.000
489.908;27524.075;    0.000;    0.000
490.043;28413.075;    0.000;    0.000
490.179;24586.075;    0.000;    0.000
490.314;21614.075;    0.000;    0.000
490.449;21492.075;    0.000;    0.000
490.585;21763.075;    0.000;    0.000
490.720;22421.075;    0.000;    0.000
490.855;25180.075;    0.000;    0.000
490.991;30168.075;    0.000;    0.000
491.126;34519.075;    0.000;    0.000
491.261;33524.075;    0.000;    0.000
491.396;29685.075;    0.000;    0.000
491.532;25133.075;    0.000;    0.000
491.667;21793.075;    0.000;    0.000
491.802;22108.075;    0.000;    0.000
491.937;23691.075;    0.000;    0.000
492.073;24851.075;    0.000;    0.000
492.208;24215.075;    0.000;    0.000
492.343;22281.075;    0.000;    0.000
492.478;21523.075;    0.000;    0.000
492.613;22048.075;    0.000;    0.000
492.749;23502.075;    0.000;    0.000
492.884;23482.075;    0.000;    0.000
493.019;21743.075;    0.000;    0.000
493.154;20708.075;    0.000;    0.000
493.289;20607.075;    0.000;    0.000
493.424;20644.075;    0.000;    0.000
493.559;21088.075;    0.000;    0.000
493.694;21790.075;    0.000;    0.000
493.829;22641.075;    0.000;    0.000
493.964;22010.075;    0.000;    0.000
494.099;21311.075;    0.000;    0.000
494.234;21109.075;    0.000;    0.000
494.369;20980.075;    0.000;    0.000
494.504;20935.075;    0.000;    0.000
494.639;20960.075;    0.000;    0.000
494.774;21216.075;    0.000;    0.000
494.909;20863.075;    0.000;    0.000
495.044;20739.075;    0.000;    0.000
495.179;20442.075;    0.000;    0.000
495.314;20627.075;    0.000;    0.000
495.449;20929.075;    0.000;    0.000
495.584;21138.075;    0.000;    0.000
495.719;21234.075;    0.000;    0.000
495.854;21584.075;    0.000;    0.000
495.988;21722.075;    0.000;    0.000
496.123;21511.075;    0.000;    0.000
496.258;21788.075;    0.000;    0.000
496.393;22366.075;    0.000;    0.000
496.528;22425.075;    0.000;    0.000
496.663;22644.075;    0.000;    0.000
496.797;22796.075;    0.000;    0.000
496.932;22959.075;    0.000;    0.000
497.067;23144.075;    0.000;    0.000
497.202;23609.075;    0.000;    0.000
497.336;24723.075;    0.000;    0.000
497.471;26249.075;    0.000;    0.000
497.606;27164.075;    0.000;    0.000
497.740;27061.075;    0.000;    0.000
497.875;29621.075;    0.000;    0.000
498.010;40922.075;    0.000;    0.000
498.144;55371.075;    0.000;    0.000
498.279;49233.075;    0.000;    0.000
498.414;32259.075;    0.000;    0.000
498.548;28085.075;    0.000;    0.000
498.683;28768.075;    0.000;    0.000
498.817;33072.075;    0.000;    0.000
498.952;44745.075;    0.000;    0.000
499.087;57096.075;    0.000;    0.000
499.221;50173.075;    0.000;    0.000
499.356;36421.075;    0.000;    0.000
499.490;34479.075;    0.000;    0.000
499.625;37485.075;    0.000;    0.000
499.759;45671.075;    0.000;    0.000
499.894;58315.075;    0.000;    0.000
500.028;59725.075;    0.000;    0.000
500.162;49648.075;    0.000;    0.000
500.297;44149.075;    0.000;    0.000
500.431;44532.075;    0.000;    0.000
500.566;51024.075;    0.000;    0.000
500.700;57939.075;    0.000;    0.000
500.835;52789.075;    0.000;    0.000
500.969;42283.075;    0.000;    0.000
501.103;39939.075;    0.000;    0.000
501.238;45345.075;    0.000;    0.000
501.372;55612.075;    0.000;    0.000
501.506;53143.075;    0.000;    0.000
501.641;41152.075;    0.000;    0.000
501.775;34410.075;    0.000;    0.000
501.909;35013.075;    0.000;    0.000
502.043;36569.075;    0.000;    0.000
502.178;36608.075;    0.000;    0.000
502.312;37401.075;    0.000;    0.000
502.446;38698.075;    0.000;    0.000
502.580;35161.075;    0.000;    0.000
502.715;28903.075;    0.000;    0.000
502.849;25069.075;    0.000;    0.000
502.983;24193.075;    0.000;    0.000
503.117;23550.075;    0.000;    0.000
503.251;23439.075;    0.000;    0.000
503.385;27596.075;    0.000;    0.000
503.520;39461.075;    0.000;    0.000
503.654;46399.075;    0.000;    0.000
503.788;43092.075;    0.000;    0.000
503.922;37110.075;    0.000;    0.000
504.056;31481.075;    0.000;    0.000
504.190;25209.075;    0.000;    0.000
504.324;23302.075;    0.000;    0.000
504.458;22813.075;    0.000;    0.000
504.592;22044.075;    0.000;    0.000
504.726;20999.075;    0.000;    0.000
504.860;20747.075;    0.000;    0.000
504.994;20416.075;    0.000;    0.000
505.128;20607.075;    0.000;    0.000
505.262;21237.075;    0.000;    0.000
505.396;20794.075;    0.000;    0.000
505.530;19300.075;    0.000;    0.000
505.664;18451.075;    0.000;    0.000
505.798;18394.075;    0.000;    0.000
505.932;18209.075;    0.000;    0.000
506.066;18884.075;    0.000;    0.000
506.199;20291.075;    0.000;    0.000
506.333;23796.075;    0.000;    0.000
506.467;26734.075;    0.000;    0.000
506.601;23385.075;    0.000;    0.000
506.735;20045.075;    0.000;    0.000
506.869;19986.075;    0.000;    0.000
507.002;21179.075;    0.000;    0.000
507.136;22648.075;    0.000;    0.000
507.270;22029.075;    0.000;    0.000
507.404;19341.075;    0.000;    0.000
507.537;17716.075;    0.000;    0.000
507.671;17240.075;    0.000;    0.000
507.805;16779.075;    0.000;    0.000
507.939;16589.075;    0.000;    0.000
508.072;16601.075;    0.000;    0.000
508.206;16547.075;    0.000;    0.000
508.340;16707.075;    0.000;    0.000
508.473;16898.075;    0.000;    0.000
508.607;17919.075;    0.000;    0.000
508.740;17645.075;    0.000;    0.000
508.874;16548.075;    0.000;    0.000
509.008;16062.075;    0.000;    0.000
509.141;15892.075;    0.000;    0.000
509.275;15932.075;    0.000;    0.000
509.408;16047.075;    0.000;    0.000
509.542;15719.075;    0.000;    0.000
509.675;15960.075;    0.000;    0.000
509.809;15757.075;    0.000;    0.000
509.942;15851.075;    0.000;    0.000
510.076;15804.075;    0.000;    0.000
510.209;15846.075;    0.000;    0.000
510.343;15451.075;    0.000;    0.000
510.476;15725.075;    0.000;    0.000
510.610;15464.075;    0.000;    0.000
510.743;15795.075;    0.000;    0.000
510.877;15628.075;    0.000;    0.000
511.010;15652.075;    0.000;    0.000
511.143;16105.075;    0.000;    0.000
511.277;17039.075;    0.000;    0.000
511.410;17034.075;    0.000;    0.000
511.543;15961.075;    0.000;    0.000
511.677;15635.075;    0.000;    0.000
511.810;16323.075;    0.000;    0.000
511.943;19000.075;    0.000;    0.000
512.077;19700.075;    0.000;    0.000
512.210;17317.075;    0.000;    0.000
512.343;16012.075;    0.000;    0.000
512.476;15994.075;    0.000;    0.000
512.610;16457.075;    0.000;    0.000
512.743;18747.075;    0.000;    0.000
512.876;21673.075;    0.000;    0.000
513.009;20257.075;    0.000;    0.000
513.142;16774.075;    0.000;    0.000
513.276;15493.075;    0.000;    0.000
513.409;15344.075;    0.000;    0.000
513.542;15083.075;    0.000;    0.000
513.675;14989.075;    0.000;    0.000
513.808;14880.075;    0.000;    0.000
513.941;14857.075;    0.000;    0.000
514.074;14971.075;    0.000;    0.000
514.207;14878.075;    0.000;    0.000
514.340;15475.075;    0.000;    0.000
514.474;17341.075;    0.000;    0.000
514.607;18193.075;    0.000;    0.000
514.740;17548.075;    0.000;    0.000
514.873;16144.075;    0.000;    0.000
515.006;15646.075;    0.000;    0.000
515.139;16811.075;    0.000;    0.000
515.272;17953.075;    0.000;    0.000
515.404;18395.075;    0.000;    0.000
515.537;17313.075;    0.000;    0.000
515.670;15970.075;    0.000;    0.000
515.803;15690.075;    0.000;    0.000
515.936;15601.075;    0.000;    0.000
516.069;15672.075;    0.000;    0.000
516.202;15645.075;    0.000;    0.000
516.335;16068.075;    0.000;    0.000
516.468;16184.075;    0.000;    0.000
516.600;16461.075;    0.000;    0.000
516.733;16625.075;    0.000;    0.000
516.866;16963.075;    0.000;    0.000
516.999;17439.075;    0.000;    0.000
517.132;18503.075;    0.000;    0.000
517.264;22099.075;    0.000;    0.000
517.397;24199.075;    0.000;    0.000
517.530;20902.075;    0.000;    0.000
517.663;18334.075;    0.000;    0.000
517.795;18248.075;    0.000;    0.000
517.928;18194.075;    0.000;    0.000
518.061;18090.075;    0.000;    0.000
518.193;18248.075;    0.000;    0.000
518.326;18864.075;    0.000;    0.000
518.459;21267.075;    0.000;    0.000
518.591;23782.075;    0.000;    0.000
518.724;26704.075;    0.000;    0.000
518.857;29169.075;    0.000;    0.000
518.989;25923.075;    0.000;    0.000
519.122;22118.075;    0.000;    0.000
519.254;24772.075;    0.000;    0.000
519.387;22957.075;    0.000;    0.000
519.519;17353.075;    0.000;    0.000
519.652;15592.075;    0.000;    0.000
519.784;15346.075;    0.000;    0.000
519.917;15019.075;    0.000;    0.000
520.049;15251.075;    0.000;    0.000
520.182;15077.075;    0.000;    0.000
520.314;15181.075;    0.000;    0.000
520.447;15024.075;    0.000;    0.000
520.579;15532.075;    0.000;    0.000
520.712;15710.075;    0.000;    0.000
520.844;17361.075;    0.000;    0.000
520.976;23453.075;    0.000;    0.000
521.109;24261.075;    0.000;    0.000
521.241;18779.075;    0.000;    0.000
521.373;15544.075;    0.000;    0.000
521.506;14303.075;    0.000;    0.000
521.638;14121.075;    0.000;    0.000
521.770;14383.075;    0.000;    0.000
521.903;14784.075;    0.000;    0.000
522.035;14679.075;    0.000;    0.000
522.167;15072.075;    0.000;    0.000
522.300;18367.075;    0.000;    0.000
522.432;23130.075;    0.000;    0.000
522.564;25477.075;    0.000;    0.000
522.696;23558.075;    0.000;    0.000
522.828;18787.075;    0.000;    0.000
522.961;15410.075;    0.000;    0.000
523.093;14546.075;    0.000;    0.000
523.225;14139.075;    0.000;    0.000
523.357;13634.075;    0.000;    0.000
523.489;13276.075;    0.000;    0.000
523.621;13178.075;    0.000;    0.000
523.753;13416.075;    0.000;    0.000
523.886;13684.075;    0.000;    0.000
524.018;13470.075;    0.000;    0.000
524.150;13407.075;    0.000;    0.000
524.282;13068.075;    0.000;    0.000
524.414;13139.075;    0.000;    0.000
524.546;13515.075;    0.000;    0.000
524.678;13882.075;    0.000;    0.000
524.810;13486.075;    0.000;    0.000
524.942;12931.075;    0.000;    0.000
525.074;13314.075;    0.000;    0.000
525.206;13622.075;    0.000;    0.000
525.338;13256.075;    0.000;    0.000
525.470;13316.075;    0.000;    0.000
525.601;13324.075;    0.000;    0.000
525.733;13284.075;    0.000;    0.000
525.865;13310.075;    0.000;    0.000
525.997;13641.075;    0.000;    0.000
526.129;13781.075;    0.000;    0.000
526.261;14157.075;    0.000;    0.000
526.393;13987.075;    0.000;    0.000
526.524;14340.075;    0.000;    0.000
526.656;14779.075;    0.000;    0.000
526.788;14489.075;    0.000;    0.000
526.920;14289.075;    0.000;    0.000
527.052;13706.075;    0.000;    0.000
527.183;13165.075;    0.000;    0.000
527.315;12724.075;    0.000;    0.000
527.447;12625.075;    0.000;    0.000
527.578;12747.075;    0.000;    0.000
527.710;12560.075;    0.000;    0.000
527.842;12525.075;    0.000;    0.000
527.973;12713.075;    0.000;    0.000
528.105;12909.075;    0.000;    0.000
528.237;13606.075;    0.000;    0.000
528.368;14131.075;    0.000;    0.000
528.500;13239.075;    0.000;    0.000
528.632;12713.075;    0.000;    0.000
528.763;12535.075;    0.000;    0.000
528.895;12832.075;    0.000;    0.000
529.026;12688.075;    0.000;    0.000
529.158;12330.075;    0.000;    0.000
529.289;12331.075;    0.000;    0.000
529.421;12688.075;    0.000;    0.000
529.552;13323.075;    0.000;    0.000
529.684;14019.075;    0.000;    0.000
529.815;14344.075;    0.000;    0.000
529.947;13444.075;    0.000;    0.000
530.078;12865.075;    0.000;    0.000
530.210;12544.075;    0.000;    0.000
530.341;12458.075;    0.000;    0.000
530.472;12435.075;    0.000;    0.000
530.604;12189.075;    0.000;    0.000
530.735;12277.075;    0.000;    0.000
530.867;12439.075;    0.000;    0.000
530.998;12304.075;    0.000;    0.000
531.129;12494.075;    0.000;    0.000
531.261;12503.075;    0.000;    0.000
531.392;12487.075;    0.000;    0.000
531.523;12358.075;    0.000;    0.000
531.654;12381.075;    0.000;    0.000
531.786;12394.075;    0.000;    0.000
531.917;12284.075;    0.000;    0.000
532.048;12132.075;    0.000;    0.000
532.179;12254.075;    0.000;    0.000
532.311;12193.075;    0.000;    0.000
532.442;12104.075;    0.000;    0.000
532.573;12041.075;    0.000;    0.000
532.704;12137.075;    0.000;    0.000
532.835;12086.075;    0.000;    0.000
532.966;12243.075;    0.000;    0.000
533.097;12225.075;    0.000;    0.000
533.229;12427.075;    0.000;    0.000
533.360;12259.075;    0.000;    0.000
533.491;13412.075;    0.000;    0.000
533.622;15502.075;    0.000;    0.000
533.753;15693.075;    0.000;    0.000
533.884;13592.075;    0.000;    0.000
534.015;12606.075;    0.000;    0.000
534.146;12429.075;    0.000;    0.000
534.277;12298.075;    0.000;    0.000
534.408;12153.075;    0.000;    0.000
534.539;11895.075;    0.000;    0.000
534.670;11920.075;    0.000;    0.000
534.801;11887.075;    0.000;    0.000
534.932;12104.075;    0.000;    0.000
535.063;12509.075;    0.000;    0.000
535.194;12684.075;    0.000;    0.000
535.324;12057.075;    0.000;    0.000
535.455;11906.075;    0.000;    0.000
535.586;11845.075;    0.000;    0.000
535.717;11719.075;    0.000;    0.000
535.848;11791.075;    0.000;    0.000
535.979;11869.075;    0.000;    0.000
536.109;11704.075;    0.000;    0.000
536.240;11729.075;    0.000;    0.000
536.371;11808.075;    0.000;    0.000
536.502;11716.075;    0.000;    0.000
536.632;11735.075;    0.000;    0.000
536.763;11953.075;    0.000;    0.000
536.894;12293.075;    0.000;    0.000
537.025;12233.075;    0.000;    0.000
537.155;11771.075;    0.000;    0.000
537.286;11686.075;    0.000;    0.000
537.417;11539.075;    0.000;    0.000
537.547;11707.075;    0.000;    0.000
537.678;11667.075;    0.000;    0.000
537.808;11802.075;    0.000;    0.000
537.939;12304.075;    0.000;    0.000
538.070;13242.075;    0.000;    0.000
538.200;13004.075;    0.000;    0.000
538.331;12102.075;    0.000;    0.000
538.461;11576.075;    0.000;    0.000
538.592;11603.075;    0.000;    0.000
538.722;11552.075;    0.000;    0.000
538.853;11989.075;    0.000;    0.000
538.983;12406.075;    0.000;    0.000
539.114;12027.075;    0.000;    0.000
539.244;11756.075;    0.000;    0.000
539.375;11677.075;    0.000;    0.000
539.505;11863.075;    0.000;    0.000
539.636;12312.075;    0.000;    0.000
539.766;12260.075;    0.000;    0.000
539.896;11579.075;    0.000;    0.000
540.027;11431.075;    0.000;    0.000
540.157;11738.075;    0.000;    0.000
540.287;11699.075;    0.000;    0.000
540.418;11769.075;    0.000;    0.000
540.548;11756.075;    0.000;    0.000
540.678;11708.075;    0.000;    0.000
540.809;11930.075;    0.000;    0.000
540.939;12516.075;    0.000;    0.000
541.069;11975.075;    0.000;    0.000
541.199;11631.075;    0.000;    0.000
541.330;11463.075;    0.000;    0.000
541.460;11510.075;    0.000;    0.000
541.590;11567.075;    0.000;    0.000
541.720;12032.075;    0.000;    0.000
541.851;12608.075;    0.000;    0.000
541.981;12478.075;    0.000;    0.000
542.111;11968.075;    0.000;    0.000
542.241;11758.075;    0.000;    0.000
542.371;11713.075;    0.000;    0.000
542.501;11653.075;    0.000;    0.000
542.631;11792.075;    0.000;    0.000
542.761;12025.075;    0.000;    0.000
542.891;12130.075;    0.000;    0.000
543.021;12071.075;    0.000;    0.000
543.151;11645.075;    0.000;    0.000
543.281;11815.075;    0.000;    0.000
543.411;11599.075;    0.000;    0.000
543.541;11466.075;    0.000;    0.000
543.671;11742.075;    0.000;    0.000
543.801;11593.075;    0.000;    0.000
543.931;11706.075;    0.000;    0.000
544.061;11700.075;    0.000;    0.000
544.191;11742.075;    0.000;    0.000
544.321;11676.075;    0.000;    0.000
544.451;11609.075;    0.000;    0.000
544.581;11954.075;    0.000;    0.000
544.711;12315.075;    0.000;    0.000
544.841;12380.075;    0.000;    0.000
544.970;12429.075;    0.000;    0.000
545.100;12299.075;    0.000;    0.000
545.230;12186.075;    0.000;    0.000
545.360;12532.075;    0.000;    0.000
545.490;12379.075;    0.000;    0.000
545.619;12369.075;    0.000;    0.000
545.749;12214.075;    0.000;    0.000
545.879;12290.075;    0.000;    0.000
546.009;12273.075;    0.000;    0.000
546.138;12392.075;    0.000;    0.000
546.268;12265.075;    0.000;    0.000
546.398;12122.075;    0.000;    0.000
546.527;12164.075;    0.000;    0.000
546.657;12415.075;    0.000;    0.000
546.787;12333.075;    0.000;    0.000
546.916;12523.075;    0.000;    0.000
547.046;12694.075;    0.000;    0.000
547.175;12927.075;    0.000;    0.000
547.305;13224.075;    0.000;    0.000
547.434;13449.075;    0.000;    0.000
547.564;13002.075;    0.000;    0.000
547.694;13424.075;    0.000;    0.000
547.823;13634.075;    0.000;    0.000
547.953;13357.075;    0.000;    0.000
548.082;14023.075;    0.000;    0.000
548.211;14020.075;    0.000;    0.000
548.341;13173.075;    0.000;    0.000
548.470;12630.075;    0.000;    0.000
548.600;12911.075;    0.000;    0.000
548.729;13360.075;    0.000;    0.000
548.859;14125.075;    0.000;    0.000
548.988;14975.075;    0.000;    0.000
549.117;14462.075;    0.000;    0.000
549.247;13514.075;    0.000;    0.000
549.376;13309.075;    0.000;    0.000
549.505;13183.075;    0.000;    0.000
549.635;13114.075;    0.000;    0.000
549.764;12926.075;    0.000;    0.000
549.893;13064.075;    0.000;    0.000
550.023;12891.075;    0.000;    0.000
550.152;12958.075;    0.000;    0.000
550.281;13970.075;    0.000;    0.000
550.410;14600.075;    0.000;    0.000
550.539;13769.075;    0.000;    0.000
550.669;13030.075;    0.000;    0.000
550.798;12970.075;    0.000;    0.000
550.927;12886.075;    0.000;    0.000
551.056;13883.075;    0.000;    0.000
551.185;17605.075;    0.000;    0.000
551.314;20864.075;    0.000;    0.000
551.443;21294.075;    0.000;    0.000
551.573;17344.075;    0.000;    0.000
551.702;13478.075;    0.000;    0.000
551.831;13289.075;    0.000;    0.000
551.960;13179.075;    0.000;    0.000
552.089;13166.075;    0.000;    0.000
552.218;13191.075;    0.000;    0.000
552.347;13380.075;    0.000;    0.000
552.476;13529.075;    0.000;    0.000
552.605;13594.075;    0.000;    0.000
552.734;13814.075;    0.000;    0.000
552.863;13972.075;    0.000;    0.000
552.992;14325.075;    0.000;    0.000
553.121;14555.075;    0.000;    0.000
553.249;14414.075;    0.000;    0.000
553.378;14146.075;    0.000;    0.000
553.507;13897.075;    0.000;    0.000
553.636;14119.075;    0.000;    0.000
553.765;14026.075;    0.000;    0.000
553.894;14128.075;    0.000;    0.000
554.023;13506.075;    0.000;    0.000
554.151;13531.075;    0.000;    0.000
554.280;13420.075;    0.000;    0.000
554.409;13424.075;    0.000;    0.000
554.538;13555.075;    0.000;    0.000
554.666;13446.075;    0.000;    0.000
554.795;13362.075;    0.000;    0.000
554.924;13129.075;    0.000;    0.000
555.053;13035.075;    0.000;    0.000
555.181;12850.075;    0.000;    0.000
555.310;12950.075;    0.000;    0.000
555.439;12852.075;    0.000;    0.000
555.567;12731.075;    0.000;    0.000
555.696;12780.075;    0.000;    0.000
555.824;12782.075;    0.000;    0.000
555.953;12452.075;    0.000;    0.000
556.082;12583.075;    0.000;    0.000
556.210;12782.075;    0.000;    0.000
556.339;12919.075;    0.000;    0.000
556.467;14120.075;    0.000;    0.000
556.596;14301.075;    0.000;    0.000
556.724;12976.075;    0.000;    0.000
556.853;12596.075;    0.000;    0.000
556.981;12476.075;    0.000;    0.000
557.110;12345.075;    0.000;    0.000
557.238;12547.075;    0.000;    0.000
557.367;12509.075;    0.000;    0.000
557.495;12567.075;    0.000;    0.000
557.623;12587.075;    0.000;    0.000
557.752;12611.075;    0.000;    0.000
557.880;12736.075;    0.000;    0.000
558.008;12605.075;    0.000;    0.000
558.137;12774.075;    0.000;    0.000
558.265;12610.075;    0.000;    0.000
558.393;12928.075;    0.000;    0.000
558.522;12763.075;    0.000;    0.000
558.650;12775.075;    0.000;    0.000
558.778;12402.075;    0.000;    0.000
558.907;12558.075;    0.000;    0.000
559.035;12473.075;    0.000;    0.000
559.163;12578.075;    0.000;    0.000
559.291;12594.075;    0.000;    0.000
559.419;12422.075;    0.000;    0.000
559.548;12406.075;    0.000;    0.000
559.676;12617.075;    0.000;    0.000
559.804;13000.075;    0.000;    0.000
559.932;13048.075;    0.000;    0.000
560.060;12986.075;    0.000;    0.000
560.188;12856.075;    0.000;    0.000
560.316;12735.075;    0.000;    0.000
560.444;12809.075;    0.000;    0.000
560.572;12907.075;    0.000;    0.000
560.700;12786.075;    0.000;    0.000
560.828;12987.075;    0.000;    0.000
560.957;12812.075;    0.000;    0.000
561.085;12863.075;    0.000;    0.000
561.212;12724.075;    0.000;    0.000
561.340;12708.075;    0.000;    0.000
561.468;12864.075;    0.000;    0.000
561.596;12867.075;    0.000;    0.000
561.724;12972.075;    0.000;    0.000
561.852;13019.075;    0.000;    0.000
561.980;12949.075;    0.000;    0.000
562.108;13101.075;    0.000;    0.000
562.236;13298.075;    0.000;    0.000
562.364;13229.075;    0.000;    0.000
562.492;13490.075;    0.000;    0.000
562.619;13427.075;    0.000;    0.000
562.747;13443.075;    0.000;    0.000
562.875;13530.075;    0.000;    0.000
563.003;13405.075;    0.000;    0.000
563.130;13526.075;    0.000;    0.000
563.258;13602.075;    0.000;    0.000
563.386;13622.075;    0.000;    0.000
563.514;13904.075;    0.000;    0.000
563.641;14071.075;    0.000;    0.000
563.769;13998.075;    0.000;    0.000
563.897;14004.075;    0.000;    0.000
564.024;14046.075;    0.000;    0.000
564.152;14485.075;    0.000;    0.000
564.280;16266.075;    0.000;    0.000
564.407;18386.075;    0.000;    0.000
564.535;17185.075;    0.000;    0.000
564.662;15110.075;    0.000;    0.000
564.790;15563.075;    0.000;    0.000
564.917;15956.075;    0.000;    0.000
565.045;15524.075;    0.000;    0.000
565.173;15245.075;    0.000;    0.000
565.300;15626.075;    0.000;    0.000
565.428;15812.075;    0.000;    0.000
565.555;15931.075;    0.000;    0.000
565.682;16365.075;    0.000;    0.000
565.810;16907.075;    0.000;    0.000
565.937;16872.075;    0.000;    0.000
566.065;18281.075;    0.000;    0.000
566.192;20646.075;    0.000;    0.000
566.320;21079.075;    0.000;    0.000
566.447;20056.075;    0.000;    0.000
566.574;19865.075;    0.000;    0.000
566.702;20593.075;    0.000;    0.000
566.829;20392.075;    0.000;    0.000
566.956;20410.075;    0.000;    0.000
567.084;20583.075;    0.000;    0.000
567.211;21141.075;    0.000;    0.000
567.338;21721.075;    0.000;    0.000
567.465;23313.075;    0.000;    0.000
567.593;23928.075;    0.000;    0.000
567.720;23308.075;    0.000;    0.000
567.847;23115.075;    0.000;    0.000
567.974;22795.075;    0.000;    0.000
568.101;21687.075;    0.000;    0.000
568.228;20797.075;    0.000;    0.000
568.356;19899.075;    0.000;    0.000
568.483;19210.075;    0.000;    0.000
568.610;18678.075;    0.000;    0.000
568.737;18358.075;    0.000;    0.000
568.864;18233.075;    0.000;    0.000
568.991;18096.075;    0.000;    0.000
569.118;17318.075;    0.000;    0.000
569.245;16356.075;    0.000;    0.000
569.372;16362.075;    0.000;    0.000
569.499;15879.075;    0.000;    0.000
569.626;15937.075;    0.000;    0.000
569.753;16082.075;    0.000;    0.000
569.880;15879.075;    0.000;    0.000
570.007;15828.075;    0.000;    0.000
570.134;15654.075;    0.000;    0.000
570.261;16391.075;    0.000;    0.000
570.388;16220.075;    0.000;    0.000
570.515;15728.075;    0.000;    0.000
570.642;15547.075;    0.000;    0.000
570.768;15906.075;    0.000;    0.000
570.895;15898.075;    0.000;    0.000
571.022;15239.075;    0.000;    0.000
571.149;15617.075;    0.000;    0.000
571.276;15388.075;    0.000;    0.000
571.402;16058.075;    0.000;    0.000
571.529;16340.075;    0.000;    0.000
571.656;15574.075;    0.000;    0.000
571.783;14683.075;    0.000;    0.000
571.909;14477.075;    0.000;    0.000
572.036;14380.075;    0.000;    0.000
572.163;14275.075;    0.000;    0.000
572.289;13892.075;    0.000;    0.000
572.416;13816.075;    0.000;    0.000
572.543;14089.075;    0.000;    0.000
572.669;14373.075;    0.000;    0.000
572.796;14428.075;    0.000;    0.000
572.922;13797.075;    0.000;    0.000
573.049;13813.075;    0.000;    0.000
573.176;13817.075;    0.000;    0.000
573.302;13607.075;    0.000;    0.000
573.429;13733.075;    0.000;    0.000
573.555;13599.075;    0.000;    0.000
573.682;13471.075;    0.000;    0.000
573.808;14037.075;    0.000;    0.000
573.935;14990.075;    0.000;    0.000
574.061;14631.075;    0.000;    0.000
574.188;13772.075;    0.000;    0.000
574.314;13512.075;    0.000;    0.000
574.440;13479.075;    0.000;    0.000
574.567;13420.075;    0.000;    0.000
574.693;13408.075;    0.000;    0.000
574.820;13347.075;    0.000;    0.000
574.946;13421.075;    0.000;    0.000
575.072;13460.075;    0.000;    0.000
575.198;13553.075;    0.000;    0.000
575.325;13295.075;    0.000;    0.000
575.451;13352.075;    0.000;    0.000
575.577;13525.075;    0.000;    0.000
575.704;13521.075;    0.000;    0.000
575.830;13557.075;    0.000;    0.000
575.956;13524.075;    0.000;    0.000
576.082;13827.075;    0.000;    0.000
576.208;14249.075;    0.000;    0.000
576.335;14163.075;    0.000;    0.000
576.461;14001.075;    0.000;    0.000
576.587;14221.075;    0.000;    0.000
576.713;14248.075;    0.000;    0.000
576.839;13653.075;    0.000;    0.000
576.965;13408.075;    0.000;    0.000
577.091;13631.075;    0.000;    0.000
577.217;14105.075;    0.000;    0.000
577.343;14233.075;    0.000;    0.000
577.470;14269.075;    0.000;    0.000
577.596;13701.075;    0.000;    0.000
577.722;13372.075;    0.000;    0.000
577.848;13397.075;    0.000;    0.000
577.973;13495.075;    0.000;    0.000
578.099;13467.075;    0.000;    0.000
578.225;13357.075;    0.000;    0.000
578.351;13489.075;    0.000;    0.000
578.477;14295.075;    0.000;    0.000
578.603;14604.075;    0.000;    0.000
578.729;13908.075;    0.000;    0.000
578.855;13259.075;    0.000;    0.000
578.981;13421.075;    0.000;    0.000
579.107;13362.075;    0.000;    0.000
579.232;13319.075;    0.000;    0.000
579.358;13429.075;    0.000;    0.000
579.484;13214.075;    0.000;    0.000
579.610;13369.075;    0.000;    0.000
579.735;13464.075;    0.000;    0.000
579.861;13366.075;    0.000;    0.000
579.987;13205.075;    0.000;    0.000
580.113;13544.075;    0.000;    0.000
580.238;13667.075;    0.000;    0.000
580.364;14185.075;    0.000;    0.000
580.490;14360.075;    0.000;    0.000
580.615;14169.075;    0.000;    0.000
580.741;13663.075;    0.000;    0.000
580.867;13834.075;    0.000;    0.000
580.992;13457.075;    0.000;    0.000
581.118;13403.075;    0.000;    0.000
581.243;13537.075;    0.000;    0.000
581.369;13540.075;    0.000;    0.000
581.494;13180.075;    0.000;    0.000
581.620;13293.075;    0.000;    0.000
581.745;13412.075;    0.000;    0.000
581.871;13407.075;    0.000;    0.000
581.996;13277.075;    0.000;    0.000
582.122;13265.075;    0.000;    0.000
582.247;13369.075;    0.000;    0.000
582.373;13495.075;    0.000;    0.000
582.498;13308.075;    0.000;    0.000
582.624;13357.075;    0.000;    0.000
582.749;13249.075;    0.000;    0.000
582.874;13181.075;    0.000;    0.000
583.000;13460.075;    0.000;    0.000
583.125;13381.075;    0.000;    0.000
583.250;13513.075;    0.000;    0.000
583.376;13239.075;    0.000;    0.000
583.501;13515.075;    0.000;    0.000
583.626;13399.075;    0.000;    0.000
583.751;13609.075;    0.000;    0.000
583.877;13653.075;    0.000;    0.000
584.002;13798.075;    0.000;    0.000
584.127;13656.075;    0.000;    0.000
584.252;13522.075;    0.000;    0.000
584.377;13497.075;    0.000;    0.000
584.503;13489.075;    0.000;    0.000
584.628;13670.075;    0.000;    0.000
584.753;13553.075;    0.000;    0.000
584.878;13488.075;    0.000;    0.000
585.003;13599.075;    0.000;    0.000
585.128;13635.075;    0.000;    0.000
585.253;13712.075;    0.000;    0.000
585.378;13381.075;    0.000;    0.000
585.503;13375.075;    0.000;    0.000
585.628;13596.075;    0.000;    0.000
585.753;13416.075;    0.000;    0.000
585.878;13445.075;    0.000;    0.000
586.003;13573.075;    0.000;    0.000
586.128;13454.075;    0.000;    0.000
586.253;13643.075;    0.000;    0.000
586.378;13711.075;    0.000;    0.000
586.503;15599.075;    0.000;    0.000
586.628;17843.075;    0.000;    0.000
586.753;16888.075;    0.000;    0.000
586.878;13952.075;    0.000;    0.000
587.003;13854.075;    0.000;    0.000
587.127;13758.075;    0.000;    0.000
587.252;13796.075;    0.000;    0.000
587.377;13885.075;    0.000;    0.000
587.502;14113.075;    0.000;    0.000
587.627;13900.075;    0.000;    0.000
587.751;14276.075;    0.000;    0.000
587.876;14283.075;    0.000;    0.000
588.001;14385.075;    0.000;    0.000
588.125;14459.075;    0.000;    0.000
588.250;14081.075;    0.000;    0.000
588.375;14469.075;    0.000;    0.000
588.499;14476.075;    0.000;    0.000
588.624;14683.075;    0.000;    0.000
588.749;15308.075;    0.000;    0.000
588.873;17371.075;    0.000;    0.000
588.998;19111.075;    0.000;    0.000
589.122;17667.075;    0.000;    0.000
589.247;15868.075;    0.000;    0.000
589.372;15373.075;    0.000;    0.000
589.496;16694.075;    0.000;    0.000
589.621;17266.075;    0.000;    0.000
589.745;16736.075;    0.000;    0.000
589.870;17495.075;    0.000;    0.000
589.994;17605.075;    0.000;    0.000
590.118;15646.075;    0.000;    0.000
590.243;15622.075;    0.000;    0.000
590.367;15301.075;    0.000;    0.000
590.492;15352.075;    0.000;    0.000
590.616;15203.075;    0.000;    0.000
590.740;15112.075;    0.000;    0.000
590.865;15366.075;    0.000;    0.000
590.989;15339.075;    0.000;    0.000
591.114;15313.075;    0.000;    0.000
591.238;15538.075;    0.000;    0.000
591.362;15927.075;    0.000;    0.000
591.486;15880.075;    0.000;    0.000
591.611;16210.075;    0.000;    0.000
591.735;16701.075;    0.000;    0.000
591.859;16718.075;    0.000;    0.000
591.983;17030.075;    0.000;    0.000
592.107;17595.075;    0.000;    0.000
592.232;18332.075;    0.000;    0.000
592.356;17955.075;    0.000;    0.000
592.480;17524.075;    0.000;    0.000
592.604;18104.075;    0.000;    0.000
592.728;18106.075;    0.000;    0.000
592.852;18515.075;    0.000;    0.000
592.976;18912.075;    0.000;    0.000
593.100;19129.075;    0.000;    0.000
593.224;19267.075;    0.000;    0.000
593.349;19176.075;    0.000;    0.000
593.473;18916.075;    0.000;    0.000
593.597;19227.075;    0.000;    0.000
593.721;19729.075;    0.000;    0.000
593.844;20160.075;    0.000;    0.000
593.968;19961.075;    0.000;    0.000
594.092;20829.075;    0.000;    0.000
594.216;20616.075;    0.000;    0.000
594.340;19629.075;    0.000;    0.000
594.464;19007.075;    0.000;    0.000
594.588;18515.075;    0.000;    0.000
594.712;18233.075;    0.000;    0.000
594.836;18087.075;    0.000;    0.000
594.959;17955.075;    0.000;    0.000
595.083;17952.075;    0.000;    0.000
595.207;20006.075;    0.000;    0.000
595.331;21289.075;    0.000;    0.000
595.455;19028.075;    0.000;    0.000
595.578;17498.075;    0.000;    0.000
595.702;17429.075;    0.000;    0.000
595.826;17186.075;    0.000;    0.000
595.949;16721.075;    0.000;    0.000
596.073;16705.075;    0.000;    0.000
596.197;16596.075;    0.000;    0.000
596.320;16697.075;    0.000;    0.000
596.444;18116.075;    0.000;    0.000
596.568;19369.075;    0.000;    0.000
596.691;18547.075;    0.000;    0.000
596.815;17049.075;    0.000;    0.000
596.938;17125.075;    0.000;    0.000
597.062;16921.075;    0.000;    0.000
597.186;16935.075;    0.000;    0.000
597.309;17346.075;    0.000;    0.000
597.433;17369.075;    0.000;    0.000
597.556;17025.075;    0.000;    0.000
597.679;17805.075;    0.000;    0.000
597.803;19564.075;    0.000;    0.000
597.926;19340.075;    0.000;    0.000
598.050;17491.075;    0.000;    0.000
598.173;17185.075;    0.000;    0.000
598.297;17365.075;    0.000;    0.000
598.420;17153.075;    0.000;    0.000
598.543;17595.075;    0.000;    0.000
598.667;17902.075;    0.000;    0.000
598.790;18461.075;    0.000;    0.000
598.913;18627.075;    0.000;    0.000
599.037;18905.075;    0.000;    0.000
599.160;18664.075;    0.000;    0.000
599.283;18808.075;    0.000;    0.000
599.406;19019.075;    0.000;    0.000
599.530;19664.075;    0.000;    0.000
599.653;19717.075;    0.000;    0.000
599.776;19615.075;    0.000;    0.000
599.899;20495.075;    0.000;    0.000
600.022;20562.075;    0.000;    0.000
600.145;20245.075;    0.000;    0.000
600.269;20207.075;    0.000;    0.000
600.392;19986.075;    0.000;    0.000
600.515;19296.075;    0.000;    0.000
600.638;19208.075;    0.000;    0.000
600.761;18963.075;    0.000;    0.000
600.884;18584.075;    0.000;    0.000
601.007;18360.075;    0.000;    0.000
601.130;18307.075;    0.000;    0.000
601.253;18783.075;    0.000;    0.000
601.376;18730.075;    0.000;    0.000
601.499;18425.075;    0.000;    0.000
601.622;18237.075;    0.000;    0.000
601.745;18062.075;    0.000;    0.000
601.868;18024.075;    0.000;    0.000
601.991;17790.075;    0.000;    0.000
602.113;17847.075;    0.000;    0.000
602.236;17809.075;    0.000;    0.000
602.359;17960.075;    0.000;    0.000
602.482;17901.075;    0.000;    0.000
602.605;18022.075;    0.000;    0.000
602.728;18250.075;    0.000;    0.000
602.850;18303.075;    0.000;    0.000
602.973;18981.075;    0.000;    0.000
603.096;19641.075;    0.000;    0.000
603.219;20016.075;    0.000;    0.000
603.341;19990.075;    0.000;    0.000
603.464;19860.075;    0.000;    0.000
603.587;19641.075;    0.000;    0.000
603.709;19405.075;    0.000;    0.000
603.832;19437.075;    0.000;    0.000
603.955;19642.075;    0.000;    0.000
604.077;19659.075;    0.000;    0.000
604.200;19331.075;    0.000;    0.000
604.322;19199.075;    0.000;    0.000
604.445;18761.075;    0.000;    0.000
604.568;18464.075;    0.000;    0.000
604.690;18150.075;    0.000;    0.000
604.813;18040.075;    0.000;    0.000
604.935;17724.075;    0.000;    0.000
605.058;17383.075;    0.000;    0.000
605.180;17091.075;    0.000;    0.000
605.303;17010.075;    0.000;    0.000
605.425;17087.075;    0.000;    0.000
605.547;16395.075;    0.000;    0.000
605.670;16402.075;    0.000;    0.000
605.792;16566.075;    0.000;    0.000
605.915;16478.075;    0.000;    0.000
606.037;16270.075;    0.000;    0.000
606.159;16172.075;    0.000;    0.000
606.282;16212.075;    0.000;    0.000
606.404;16622.075;    0.000;    0.000
606.526;16832.075;    0.000;    0.000
606.648;16438.075;    0.000;    0.000
606.771;16583.075;    0.000;    0.000
606.893;16711.075;    0.000;    0.000
607.015;16612.075;    0.000;    0.000
607.137;16487.075;    0.000;    0.000
607.260;16402.075;    0.000;    0.000
607.382;16524.075;    0.000;    0.000
607.504;16348.075;    0.000;    0.000
607.626;16353.075;    0.000;    0.000
607.748;16344.075;    0.000;    0.000
607.870;16202.075;    0.000;    0.000
607.992;16015.075;    0.000;    0.000
608.114;16237.075;    0.000;    0.000
608.236;15961.075;    0.000;    0.000
608.359;15713.075;    0.000;    0.000
608.481;15928.075;    0.000;    0.000
608.603;15728.075;    0.000;    0.000
608.725;15005.075;    0.000;    0.000
608.847;15019.075;    0.000;    0.000
608.968;16099.075;    0.000;    0.000
609.090;16953.075;    0.000;    0.000
609.212;16201.075;    0.000;    0.000
609.334;14907.075;    0.000;    0.000
609.456;14316.075;    0.000;    0.000
609.578;14230.075;    0.000;    0.000
609.700;14267.075;    0.000;    0.000
609.822;14589.075;    0.000;    0.000
609.944;14692.075;    0.000;    0.000
610.065;14145.075;    0.000;    0.000
610.187;14062.075;    0.000;    0.000
610.309;14158.075;    0.000;    0.000
610.431;14129.075;    0.000;    0.000
610.552;14319.075;    0.000;    0.000
610.674;14055.075;    0.000;    0.000
610.796;14136.075;    0.000;    0.000
610.918;14162.075;    0.000;    0.000
611.039;13935.075;    0.000;    0.000
611.161;14024.075;    0.000;    0.000
611.282;13664.075;    0.000;    0.000
611.404;13621.075;    0.000;    0.000
611.526;13358.075;    0.000;    0.000
611.647;13442.075;    0.000;    0.000
611.769;13529.075;    0.000;    0.000
611.890;13551.075;    0.000;    0.000
612.012;13733.075;    0.000;    0.000
612.134;13452.075;    0.000;    0.000
612.255;13466.075;    0.000;    0.000
612.377;13357.075;    0.000;    0.000
612.498;13932.075;    0.000;    0.000
612.619;14331.075;    0.000;    0.000
612.741;13907.075;    0.000;    0.000
612.862;13346.075;    0.000;    0.000
612.984;13039.075;    0.000;    0.000
613.105;13233.075;    0.000;    0.000
613.226;13108.075;    0.000;    0.000
613.348;13268.075;    0.000;    0.000
613.469;13348.075;    0.000;    0.000
613.590;13260.075;    0.000;    0.000
613.712;13209.075;    0.000;    0.000
613.833;13157.075;    0.000;    0.000
613.954;13503.075;    0.000;    0.000
614.076;13431.075;    0.000;    0.000
614.197;13451.075;    0.000;    0.000
614.318;13415.075;    0.000;    0.000
614.439;13289.075;    0.000;    0.000
614.560;13468.075;    0.000;    0.000
614.682;13410.075;    0.000;    0.000
614.803;13476.075;    0.000;    0.000
614.924;13572.075;    0.000;    0.000
615.045;13253.075;    0.000;    0.000
615.166;13229.075;    0.000;    0.000
615.287;12976.075;    0.000;    0.000
615.408;13271.075;    0.000;    0.000
615.529;13275.075;    0.000;    0.000
615.650;13241.075;    0.000;    0.000
615.771;13339.075;    0.000;    0.000
615.892;13087.075;    0.000;    0.000
616.013;13174.075;    0.000;    0.000
616.134;13296.075;    0.000;    0.000
616.255;13401.075;    0.000;    0.000
616.376;13280.075;    0.000;    0.000
616.497;13264.075;    0.000;    0.000
616.618;13362.075;    0.000;    0.000
616.739;13131.075;    0.000;    0.000
616.860;13287.075;    0.000;    0.000
616.981;13161.075;    0.000;    0.000
617.101;13151.075;    0.000;    0.000
617.222;13230.075;    0.000;    0.000
617.343;13232.075;    0.000;    0.000
617.464;13224.075;    0.000;    0.000
617.585;13421.075;    0.000;    0.000
617.705;13310.075;    0.000;    0.000
617.826;13356.075;    0.000;    0.000
617.947;13409.075;    0.000;    0.000
618.068;13427.075;    0.000;    0.000
618.188;13075.075;    0.000;    0.000
618.309;13152.075;    0.000;    0.000
618.430;13377.075;    0.000;    0.000
618.550;13349.075;    0.000;    0.000
618.671;13354.075;    0.000;    0.000
618.791;13106.075;    0.000;    0.000
618.912;12999.075;    0.000;    0.000
619.033;13039.075;    0.000;    0.000
619.153;12941.075;    0.000;    0.000
619.274;12966.075;    0.000;    0.000
619.394;12866.075;    0.000;    0.000
619.515;12702.075;    0.000;    0.000
619.635;12706.075;    0.000;    0.000
619.756;12585.075;    0.000;    0.000
619.876;12860.075;    0.000;    0.000
619.996;12836.075;    0.000;    0.000
620.117;12594.075;    0.000;    0.000
620.237;12206.075;    0.000;    0.000
620.358;12491.075;    0.000;    0.000
620.478;12373.075;    0.000;    0.000
620.598;12377.075;    0.000;    0.000
620.719;12392.075;    0.000;    0.000
620.839;12330.075;    0.000;    0.000
620.959;12292.075;    0.000;    0.000
621.079;12183.075;    0.000;    0.000
621.200;12651.075;    0.000;    0.000
621.320;12979.075;    0.000;    0.000
621.440;13642.075;    0.000;    0.000
621.560;14287.075;    0.000;    0.000
621.681;13760.075;    0.000;    0.000
621.801;13054.075;    0.000;    0.000
621.921;13264.075;    0.000;    0.000
622.041;13864.075;    0.000;    0.000
622.161;14158.075;    0.000;    0.000
622.281;13401.075;    0.000;    0.000
622.401;13206.075;    0.000;    0.000
622.521;12899.075;    0.000;    0.000
622.641;12835.075;    0.000;    0.000
622.761;12834.075;    0.000;    0.000
622.882;12803.075;    0.000;    0.000
623.002;12798.075;    0.000;    0.000
623.121;12978.075;    0.000;    0.000
623.241;12954.075;    0.000;    0.000
623.361;12818.075;    0.000;    0.000
623.481;12870.075;    0.000;    0.000
623.601;12920.075;    0.000;    0.000
623.721;13002.075;    0.000;    0.000
623.841;13012.075;    0.000;    0.000
623.961;13078.075;    0.000;    0.000
624.081;12976.075;    0.000;    0.000
624.201;13517.075;    0.000;    0.000
624.320;13490.075;    0.000;    0.000
624.440;13561.075;    0.000;    0.000
624.560;13314.075;    0.000;    0.000
624.680;12997.075;    0.000;    0.000
624.799;13137.075;    0.000;    0.000
624.919;12992.075;    0.000;    0.000
625.039;13099.075;    0.000;    0.000
625.159;12908.075;    0.000;    0.000
625.278;13119.075;    0.000;    0.000
625.398;12913.075;    0.000;    0.000
625.518;13061.075;    0.000;    0.000
625.637;14888.075;    0.000;    0.000
625.757;22033.075;    0.000;    0.000
625.876;25288.075;    0.000;    0.000
625.996;21285.075;    0.000;    0.000
626.115;17845.075;    0.000;    0.000
626.235;16015.075;    0.000;    0.000
626.355;12893.075;    0.000;    0.000
626.474;12455.075;    0.000;    0.000
626.593;12339.075;    0.000;    0.000
626.713;12275.075;    0.000;    0.000
626.832;12336.075;    0.000;    0.000
626.952;12153.075;    0.000;    0.000
627.071;11980.075;    0.000;    0.000
627.191;12086.075;    0.000;    0.000
627.310;12038.075;    0.000;    0.000
627.429;11973.075;    0.000;    0.000
627.549;12203.075;    0.000;    0.000
627.668;12051.075;    0.000;    0.000
627.787;11760.075;    0.000;    0.000
627.907;11930.075;    0.000;    0.000
628.026;11895.075;    0.000;    0.000
628.145;11812.075;    0.000;    0.000
628.264;12094.075;    0.000;    0.000
628.384;11949.075;    0.000;    0.000
628.503;11848.075;    0.000;    0.000
628.622;11884.075;    0.000;    0.000
628.741;11817.075;    0.000;    0.000
628.860;11602.075;    0.000;    0.000
628.980;11705.075;    0.000;    0.000
629.099;11823.075;    0.000;    0.000
629.218;11885.075;    0.000;    0.000
629.337;11887.075;    0.000;    0.000
629.456;11802.075;    0.000;    0.000
629.575;11859.075;    0.000;    0.000
629.694;11854.075;    0.000;    0.000
629.813;11827.075;    0.000;    0.000
629.932;11562.075;    0.000;    0.000
630.051;11548.075;    0.000;    0.000
630.170;11804.075;    0.000;    0.000
630.289;11856.075;    0.000;    0.000
630.408;12048.075;    0.000;    0.000
630.527;11892.075;    0.000;    0.000
630.646;11701.075;    0.000;    0.000
630.764;11893.075;    0.000;    0.000
630.883;11845.075;    0.000;    0.000
631.002;11875.075;    0.000;    0.000
631.121;12273.075;    0.000;    0.000
631.240;12479.075;    0.000;    0.000
631.359;12189.075;    0.000;    0.000
631.477;11823.075;    0.000;    0.000
631.596;11708.075;    0.000;    0.000
631.715;11931.075;    0.000;    0.000
631.834;11894.075;    0.000;    0.000
631.952;11815.075;    0.000;    0.000
632.071;11636.075;    0.000;    0.000
632.190;11539.075;    0.000;    0.000
632.308;11488.075;    0.000;    0.000
632.427;11396.075;    0.000;    0.000
632.546;11508.075;    0.000;    0.000
632.664;11215.075;    0.000;    0.000
632.783;11318.075;    0.000;    0.000
632.901;11295.075;    0.000;    0.000
633.020;11153.075;    0.000;    0.000
633.138;11105.075;    0.000;    0.000
633.257;10964.075;    0.000;    0.000
633.375;11092.075;    0.000;    0.000
633.494;11112.075;    0.000;    0.000
633.612;11255.075;    0.000;    0.000
633.731;11293.075;    0.000;    0.000
633.849;10871.075;    0.000;    0.000
633.968;10807.075;    0.000;    0.000
634.086;10883.075;    0.000;    0.000
634.204;10930.075;    0.000;    0.000
634.323;10783.075;    0.000;    0.000
634.441;10936.075;    0.000;    0.000
634.559;10858.075;    0.000;    0.000
634.678;10722.075;    0.000;    0.000
634.796;10784.075;    0.000;    0.000
634.914;10750.075;    0.000;    0.000
635.032;10869.075;    0.000;    0.000
635.151;10662.075;    0.000;    0.000
635.269;10762.075;    0.000;    0.000
635.387;10747.075;    0.000;    0.000
635.505;10690.075;    0.000;    0.000
635.623;10707.075;    0.000;    0.000
635.742;10722.075;    0.000;    0.000
635.860;10666.075;    0.000;    0.000
635.978;10636.075;    0.000;    0.000
636.096;10624.075;    0.000;    0.000
636.214;10518.075;    0.000;    0.000
636.332;10460.075;    0.000;    0.000
636.450;10574.075;    0.000;    0.000
636.568;10817.075;    0.000;    0.000
636.686;10739.075;    0.000;    0.000
636.804;10548.075;    0.000;    0.000
636.922;10445.075;    0.000;    0.000
637.040;10294.075;    0.000;    0.000
637.158;10425.075;    0.000;    0.000
637.276;10188.075;    0.000;    0.000
637.394;10149.075;    0.000;    0.000
637.512;10301.075;    0.000;    0.000
637.629;10498.075;    0.000;    0.000
637.747;10175.075;    0.000;    0.000
637.865;10309.075;    0.000;    0.000
637.983;10223.075;    0.000;    0.000
638.101;10325.075;    0.000;    0.000
638.218;10328.075;    0.000;    0.000
638.336;10288.075;    0.000;    0.000
638.454;10253.075;    0.000;    0.000
638.572;10202.075;    0.000;    0.000
638.689;10191.075;    0.000;    0.000
638.807;10041.075;    0.000;    0.000
638.925;10017.075;    0.000;    0.000
639.042; 9995.075;    0.000;    0.000
639.160; 9946.075;    0.000;    0.000
639.278;10078.075;    0.000;    0.000
639.395;10059.075;    0.000;    0.000
639.513;10025.075;    0.000;    0.000
639.630; 9936.075;    0.000;    0.000
639.748; 9908.075;    0.000;    0.000
639.865; 9952.075;    0.000;    0.000
639.983; 9850.075;    0.000;    0.000
640.100; 9833.075;    0.000;    0.000
640.218; 9903.075;    0.000;    0.000
640.335; 9663.075;    0.000;    0.000
640.453; 9733.075;    0.000;    0.000
640.570; 9776.075;    0.000;    0.000
640.687; 9731.075;    0.000;    0.000
640.805; 9716.075;    0.000;    0.000
640.922; 9706.075;    0.000;    0.000
641.040; 9725.075;    0.000;    0.000
641.157; 9635.075;    0.000;    0.000
641.274; 9910.075;    0.000;    0.000
641.391; 9697.075;    0.000;    0.000
641.509; 9726.075;    0.000;    0.000
641.626; 9673.075;    0.000;    0.000
641.743; 9634.075;    0.000;    0.000
641.860; 9766.075;    0.000;    0.000
641.978; 9893.075;    0.000;    0.000
642.095; 9726.075;    0.000;    0.000
642.212; 9755.075;    0.000;    0.000
642.329; 9714.075;    0.000;    0.000
642.446; 9764.075;    0.000;    0.000
642.563; 9691.075;    0.000;    0.000
642.681; 9556.075;    0.000;    0.000
642.798; 9766.075;    0.000;    0.000
642.915; 9688.075;    0.000;    0.000
643.032; 9637.075;    0.000;    0.000
643.149; 9666.075;    0.000;    0.000
643.266; 9661.075;    0.000;    0.000
643.383; 9644.075;    0.000;    0.000
643.500; 9583.075;    0.000;    0.000
643.617; 9555.075;    0.000;    0.000
643.734; 9730.075;    0.000;    0.000
643.850; 9693.075;    0.000;    0.000
643.967; 9833.075;    0.000;    0.000
644.084; 9876.075;    0.000;    0.000
644.201; 9810.075;    0.000;    0.000
644.318; 9902.075;    0.000;    0.000
644.435; 9837.075;    0.000;    0.000
644.552; 9917.075;    0.000;    0.000
644.668;10137.075;    0.000;    0.000
644.785; 9964.075;    0.000;    0.000
644.902; 9970.075;    0.000;    0.000
645.019;10083.075;    0.000;    0.000
645.135; 9897.075;    0.000;    0.000
645.252;10007.075;    0.000;    0.000
645.369;10099.075;    0.000;    0.000
645.485; 9858.075;    0.000;    0.000
645.602; 9884.075;    0.000;    0.000
645.719; 9937.075;    0.000;    0.000
645.835; 9964.075;    0.000;    0.000
645.952; 9804.075;    0.000;    0.000
646.068; 9768.075;    0.000;    0.000
646.185; 9863.075;    0.000;    0.000
646.302; 9891.075;    0.000;    0.000
646.418; 9967.075;    0.000;    0.000
646.535; 9847.075;    0.000;    0.000
646.651;10015.075;    0.000;    0.000
646.768; 9958.075;    0.000;    0.000
646.884; 9898.075;    0.000;    0.000
647.000;10036.075;    0.000;    0.000
647.117; 9894.075;    0.000;    0.000
647.233;10066.075;    0.000;    0.000
647.350;10080.075;    0.000;    0.000
647.466;10062.075;    0.000;    0.000
647.582;10115.075;    0.000;    0.000
647.699;10488.075;    0.000;    0.000
647.815;10364.075;    0.000;    0.000
647.931;10513.075;    0.000;    0.000
648.047;10718.075;    0.000;    0.000
648.164;10546.075;    0.000;    0.000
648.280;10491.075;    0.000;    0.000
648.396;10635.075;    0.000;    0.000
648.512;10733.075;    0.000;    0.000
648.629;10616.075;    0.000;    0.000
648.745;10710.075;    0.000;    0.000
648.861;10570.075;    0.000;    0.000
648.977;10766.075;    0.000;    0.000
649.093;11161.075;    0.000;    0.000
649.209;11089.075;    0.000;    0.000
649.325;10772.075;    0.000;    0.000
649.441;10404.075;    0.000;    0.000
649.557;10402.075;    0.000;    0.000
649.673;10377.075;    0.000;    0.000
649.789;10425.075;    0.000;    0.000
649.905;10269.075;    0.000;    0.000
650.021;10373.075;    0.000;    0.000
650.137;10252.075;    0.000;    0.000
650.253;10041.075;    0.000;    0.000
650.369;10243.075;    0.000;    0.000
650.485;10295.075;    0.000;    0.000
650.601;10423.075;    0.000;    0.000
650.717;10487.075;    0.000;    0.000
650.833;10503.075;    0.000;    0.000
650.948;10496.075;    0.000;    0.000
651.064;10538.075;    0.000;    0.000
651.180;10730.075;    0.000;    0.000
651.296;10808.075;    0.000;    0.000
651.411;10870.075;    0.000;    0.000
651.527;10711.075;    0.000;    0.000
651.643;10758.075;    0.000;    0.000
651.759;10606.075;    0.000;    0.000
651.874;10923.075;    0.000;    0.000
651.990;10916.075;    0.000;    0.000
652.105;10878.075;    0.000;    0.000
652.221;10888.075;    0.000;    0.000
652.337;10952.075;    0.000;    0.000
652.452;10822.075;    0.000;    0.000
652.568;11029.075;    0.000;    0.000
652.683;10976.075;    0.000;    0.000
652.799;11281.075;    0.000;    0.000
652.914;11211.075;    0.000;    0.000
653.030;11270.075;    0.000;    0.000
653.145;11543.075;    0.000;    0.000
653.261;11601.075;    0.000;    0.000
653.376;11569.075;    0.000;    0.000
653.492;11650.075;    0.000;    0.000
653.607;11856.075;    0.000;    0.000
653.722;12044.075;    0.000;    0.000
653.838;12189.075;    0.000;    0.000
653.953;11993.075;    0.000;    0.000
654.068;12340.075;    0.000;    0.000
654.184;12783.075;    0.000;    0.000
654.299;13029.075;    0.000;    0.000
654.414;13437.075;    0.000;    0.000
654.530;13859.075;    0.000;    0.000
654.645;14281.075;    0.000;    0.000
654.760;14150.075;    0.000;    0.000
654.875;14513.075;    0.000;    0.000
654.990;14753.075;    0.000;    0.000
655.106;15008.075;    0.000;    0.000
655.221;15493.075;    0.000;    0.000
655.336;16614.075;    0.000;    0.000
655.451;17771.075;    0.000;    0.000
655.566;18567.075;    0.000;    0.000
655.681;18887.075;    0.000;    0.000
655.796;19251.075;    0.000;    0.000
655.911;20306.075;    0.000;    0.000
656.026;21168.075;    0.000;    0.000
656.141;22496.075;    0.000;    0.000
656.256;23368.075;    0.000;    0.000
656.371;23510.075;    0.000;    0.000
656.486;23288.075;    0.000;    0.000
656.601;22709.075;    0.000;    0.000
656.716;21839.075;    0.000;    0.000
656.831;21069.075;    0.000;    0.000
656.946;20132.075;    0.000;    0.000
657.060;19489.075;    0.000;    0.000
657.175;18509.075;    0.000;    0.000
657.290;18078.075;    0.000;    0.000
657.405;17571.075;    0.000;    0.000
657.520;16965.075;    0.000;    0.000
657.634;16651.075;    0.000;    0.000
657.749;16169.075;    0.000;    0.000
657.864;15674.075;    0.000;    0.000
657.979;15302.075;    0.000;    0.000
658.093;14883.075;    0.000;    0.000
658.208;14696.075;    0.000;    0.000
658.323;14377.075;    0.000;    0.000
658.437;14132.075;    0.000;    0.000
658.552;14190.075;    0.000;    0.000
658.666;13670.075;    0.000;    0.000
658.781;13463.075;    0.000;    0.000
658.895;13187.075;    0.000;    0.000
659.010;13089.075;    0.000;    0.000
659.125;12956.075;    0.000;    0.000
659.239;12900.075;    0.000;    0.000
659.353;12832.075;    0.000;    0.000
659.468;12636.075;    0.000;    0.000
659.582;12619.075;    0.000;    0.000
659.697;12525.075;    0.000;    0.000
659.811;12771.075;    0.000;    0.000
659.926;12711.075;    0.000;    0.000
660.040;12641.075;    0.000;    0.000
660.154;12336.075;    0.000;    0.000
660.269;12223.075;    0.000;    0.000
660.383;12398.075;    0.000;    0.000
660.497;12636.075;    0.000;    0.000
660.612;12519.075;    0.000;    0.000
660.726;12631.075;    0.000;    0.000
660.840;12338.075;    0.000;    0.000
660.954;12190.075;    0.000;    0.000
661.068;11911.075;    0.000;    0.000
661.183;11786.075;    0.000;    0.000
661.297;11738.075;    0.000;    0.000
661.411;11368.075;    0.000;    0.000
661.525;11442.075;    0.000;    0.000
661.639;11386.075;    0.000;    0.000
661.753;11250.075;    0.000;    0.000
661.867;11088.075;    0.000;    0.000
661.981;11041.075;    0.000;    0.000
662.095;11094.075;    0.000;    0.000
662.209;10896.075;    0.000;    0.000
662.323;10834.075;    0.000;    0.000
662.437;10697.075;    0.000;    0.000
662.551;10649.075;    0.000;    0.000
662.665;10442.075;    0.000;    0.000
662.779;10489.075;    0.000;    0.000
662.893;10430.075;    0.000;    0.000
663.007;10277.075;    0.000;    0.000
663.121;10105.075;    0.000;    0.000
663.235;10180.075;    0.000;    0.000
663.348; 9971.075;    0.000;    0.000
663.462;10168.075;    0.000;    0.000
663.576; 9921.075;    0.000;    0.000
663.690; 9889.075;    0.000;    0.000
663.804; 9733.075;    0.000;    0.000
663.917; 9750.075;    0.000;    0.000
664.031; 9729.075;    0.000;    0.000
664.145; 9817.075;    0.000;    0.000
664.258; 9599.075;    0.000;    0.000
664.372; 9611.075;    0.000;    0.000
664.486; 9650.075;    0.000;    0.000
664.599; 9589.075;    0.000;    0.000
664.713; 9625.075;    0.000;    0.000
664.827; 9490.075;    0.000;    0.000
664.940; 9594.075;    0.000;    0.000
665.054; 9472.075;    0.000;    0.000
665.167; 9557.075;    0.000;    0.000
665.281; 9581.075;    0.000;    0.000
665.394; 9706.075;    0.000;    0.000
665.508; 9470.075;    0.000;    0.000
665.621; 9397.075;    0.000;    0.000
665.735; 9483.075;    0.000;    0.000
665.848; 9331.075;    0.000;    0.000
665.961; 9348.075;    0.000;    0.000
666.075; 9392.075;    0.000;    0.000
666.188; 9279.075;    0.000;    0.000
666.301; 9240.075;    0.000;    0.000
666.415; 9298.075;    0.000;    0.000
666.528; 9477.075;    0.000;    0.000
666.641; 9857.075;    0.000;    0.000
666.755; 9996.075;    0.000;    0.000
666.868; 9923.075;    0.000;    0.000
666.981; 9582.075;    0.000;    0.000
667.094; 9323.075;    0.000;    0.000
667.207; 8979.075;    0.000;    0.000
667.321; 9089.075;    0.000;    0.000
667.434; 8754.075;    0.000;    0.000
667.547; 8944.075;    0.000;    0.000
667.660; 9026.075;    0.000;    0.000
667.773; 9278.075;    0.000;    0.000
667.886; 9123.075;    0.000;    0.000
667.999; 9270.075;    0.000;    0.000
668.112; 9005.075;    0.000;    0.000
668.225; 8936.075;    0.000;    0.000
668.338; 8888.075;    0.000;    0.000
668.451; 8784.075;    0.000;    0.000
668.564; 8814.075;    0.000;    0.000
668.677; 8593.075;    0.000;    0.000
668.790; 8545.075;    0.000;    0.000
668.903; 8643.075;    0.000;    0.000
669.016; 8615.075;    0.000;    0.000
669.129; 8560.075;    0.000;    0.000
669.242; 8355.075;    0.000;    0.000
669.355; 8383.075;    0.000;    0.000
669.467; 8410.075;    0.000;    0.000
669.580; 8422.075;    0.000;    0.000
669.693; 8405.075;    0.000;    0.000
669.806; 8378.075;    0.000;    0.000
669.918; 8328.075;    0.000;    0.000
670.031; 8398.075;    0.000;    0.000
670.144; 8250.075;    0.000;    0.000
670.256; 8205.075;    0.000;    0.000
670.369; 8278.075;    0.000;    0.000
670.482; 8265.075;    0.000;    0.000
670.594; 8222.075;    0.000;    0.000
670.707; 8154.075;    0.000;    0.000
670.820; 8091.075;    0.000;    0.000
670.932; 8104.075;    0.000;    0.000
671.045; 8307.075;    0.000;    0.000
671.157; 8196.075;    0.000;    0.000
671.270; 8224.075;    0.000;    0.000
671.382; 8316.075;    0.000;    0.000
671.495; 8399.075;    0.000;    0.000
671.607; 8612.075;    0.000;    0.000
671.720; 8929.075;    0.000;    0.000
671.832; 8853.075;    0.000;    0.000
671.944; 8579.075;    0.000;    0.000
672.057; 8380.075;    0.000;    0.000
672.169; 8243.075;    0.000;    0.000
672.282; 8357.075;    0.000;    0.000
672.394; 8391.075;    0.000;    0.000
672.506; 8042.075;    0.000;    0.000
672.618; 8133.075;    0.000;    0.000
672.731; 8100.075;    0.000;    0.000
672.843; 8109.075;    0.000;    0.000
672.955; 7974.075;    0.000;    0.000
673.067; 7990.075;    0.000;    0.000
673.180; 8117.075;    0.000;    0.000
673.292; 8067.075;    0.000;    0.000
673.404; 8075.075;    0.000;    0.000
673.516; 7924.075;    0.000;    0.000
673.628; 7982.075;    0.000;    0.000
673.740; 7913.075;    0.000;    0.000
673.852; 7954.075;    0.000;    0.000
673.964; 8026.075;    0.000;    0.000
674.076; 7997.075;    0.000;    0.000
674.188; 8204.075;    0.000;    0.000
674.300; 8695.075;    0.000;    0.000
674.412; 8454.075;    0.000;    0.000
674.524; 8408.075;    0.000;    0.000
674.636; 8143.075;    0.000;    0.000
674.748; 7947.075;    0.000;    0.000
674.860; 8002.075;    0.000;    0.000
674.972; 7940.075;    0.000;    0.000
675.084; 7825.075;    0.000;    0.000
675.196; 7814.075;    0.000;    0.000
675.307; 7914.075;    0.000;    0.000
675.419; 7774.075;    0.000;    0.000
675.531; 7935.075;    0.000;    0.000
675.643; 7749.075;    0.000;    0.000
675.755; 7812.075;    0.000;    0.000
675.866; 7852.075;    0.000;    0.000
675.978; 7876.075;    0.000;    0.000
676.090; 7800.075;    0.000;    0.000
676.201; 7843.075;    0.000;    0.000
676.313; 7963.075;    0.000;    0.000
676.425; 7761.075;    0.000;    0.000
676.536; 7813.075;    0.000;    0.000
676.648; 7799.075;    0.000;    0.000
676.759; 7812.075;    0.000;    0.000
676.871; 7570.075;    0.000;    0.000
676.983; 7557.075;    0.000;    0.000
677.094; 7637.075;    0.000;    0.000
677.206; 7788.075;    0.000;    0.000
677.317; 7735.075;    0.000;    0.000
677.429; 7758.075;    0.000;    0.000
677.540; 7675.075;    0.000;    0.000
677.651; 7721.075;    0.000;    0.000
677.763; 7603.075;    0.000;    0.000
677.874; 7494.075;    0.000;    0.000
677.986; 7532.075;    0.000;    0.000
678.097; 7598.075;    0.000;    0.000
678.208; 7599.075;    0.000;    0.000
678.320; 7626.075;    0.000;    0.000
678.431; 7624.075;    0.000;    0.000
678.542; 7733.075;    0.000;    0.000
678.653; 7490.075;    0.000;    0.000
678.765; 7622.075;    0.000;    0.000
678.876; 7556.075;    0.000;    0.000
678.987; 7535.075;    0.000;    0.000
679.098; 7573.075;    0.000;    0.000
679.209; 7644.075;    0.000;    0.000
679.320; 7486.075;    0.000;    0.000
679.432; 7591.075;    0.000;    0.000
679.543; 7636.075;    0.000;    0.000
679.654; 7543.075;    0.000;    0.000
679.765; 7339.075;    0.000;    0.000
679.876; 7398.075;    0.000;    0.000
679.987; 7430.075;    0.000;    0.000
680.098; 7511.075;    0.000;    0.000
680.209; 7388.075;    0.000;    0.000
680.320; 7484.075;    0.000;    0.000
680.431; 7436.075;    0.000;    0.000
680.542; 7568.075;    0.000;    0.000
680.653; 7500.075;    0.000;    0.000
680.763; 7443.075;    0.000;    0.000
680.874; 7567.075;    0.000;    0.000
680.985; 7411.075;    0.000;    0.000
681.096; 7373.075;    0.000;    0.000
681.207; 7323.075;    0.000;    0.000
681.318; 7464.075;    0.000;    0.000
681.428; 7500.075;    0.000;    0.000
681.539; 7598.075;    0.000;    0.000
681.650; 7505.075;    0.000;    0.000
681.761; 7608.075;    0.000;    0.000
681.871; 7455.075;    0.000;    0.000
681.982; 7393.075;    0.000;    0.000
682.093; 7416.075;    0.000;    0.000
682.203; 7601.075;    0.000;    0.000
682.314; 7451.075;    0.000;    0.000
682.424; 7492.075;    0.000;    0.000
682.535; 7433.075;    0.000;    0.000
682.645; 7699.075;    0.000;    0.000
682.756; 7591.075;    0.000;    0.000
682.867; 7622.075;    0.000;    0.000
682.977; 7549.075;    0.000;    0.000
683.087; 7469.075;    0.000;    0.000
683.198; 7454.075;    0.000;    0.000
683.308; 7398.075;    0.000;    0.000
683.419; 7350.075;    0.000;    0.000
683.529; 7335.075;    0.000;    0.000
683.640; 7473.075;    0.000;    0.000
683.750; 7298.075;    0.000;    0.000
683.860; 7348.075;    0.000;    0.000
683.971; 7544.075;    0.000;    0.000
684.081; 7308.075;    0.000;    0.000
684.191; 7445.075;    0.000;    0.000
684.301; 7316.075;    0.000;    0.000
684.412; 7509.075;    0.000;    0.000
684.522; 7397.075;    0.000;    0.000
684.632; 7359.075;    0.000;    0.000
684.742; 7507.075;    0.000;    0.000
684.852; 7477.075;    0.000;    0.000
684.963; 7673.075;    0.000;    0.000
685.073; 7573.075;    0.000;    0.000
685.183; 7766.075;    0.000;    0.000
685.293; 7462.075;    0.000;    0.000
685.403; 7499.075;    0.000;    0.000
685.513; 7491.075;    0.000;    0.000
685.623; 7453.075;    0.000;    0.000
685.733; 7542.075;    0.000;    0.000
685.843; 7486.075;    0.000;    0.000
685.953; 7544.075;    0.000;    0.000
686.063; 7770.075;    0.000;    0.000
686.173; 7913.075;    0.000;    0.000
686.283; 7806.075;    0.000;    0.000
686.393; 7612.075;    0.000;    0.000
686.503; 7627.075;    0.000;    0.000
686.612; 7464.075;    0.000;    0.000
686.722; 7549.075;    0.000;    0.000
686.832; 7580.075;    0.000;    0.000
686.942; 7593.075;    0.000;    0.000
687.052; 7474.075;    0.000;    0.000
687.161; 7523.075;    0.000;    0.000
687.271; 7525.075;    0.000;    0.000
687.381; 7727.075;    0.000;    0.000
687.491; 7675.075;    0.000;    0.000
687.600; 7478.075;    0.000;    0.000
687.710; 7314.075;    0.000;    0.000
687.820; 7367.075;    0.000;    0.000
687.929; 7260.075;    0.000;    0.000
688.039; 7406.075;    0.000;    0.000
688.148; 7348.075;    0.000;    0.000
688.258; 7296.075;    0.000;    0.000
688.367; 7456.075;    0.000;    0.000
688.477; 7461.075;    0.000;    0.000
688.586; 7346.075;    0.000;    0.000
688.696; 7331.075;    0.000;    0.000
688.805; 7323.075;    0.000;    0.000
688.915; 7439.075;    0.000;    0.000
689.024; 7419.075;    0.000;    0.000
689.134; 7328.075;    0.000;    0.000
689.243; 7202.075;    0.000;    0.000
689.352; 7312.075;    0.000;    0.000
689.462; 7234.075;    0.000;    0.000
689.571; 7258.075;    0.000;    0.000
689.680; 7341.075;    0.000;    0.000
689.790; 7264.075;    0.000;    0.000
689.899; 7209.075;    0.000;    0.000
690.008; 7222.075;    0.000;    0.000
690.117; 7320.075;    0.000;    0.000
690.227; 7341.075;    0.000;    0.000
690.336; 7187.075;    0.000;    0.000
690.445; 7237.075;    0.000;    0.000
690.554; 7418.075;    0.000;    0.000
690.663; 7393.075;    0.000;    0.000
690.772; 7527.075;    0.000;    0.000
690.881; 7448.075;    0.000;    0.000
690.990; 7407.075;    0.000;    0.000
691.100; 7174.075;    0.000;    0.000
691.209; 7503.075;    0.000;    0.000
691.318; 7632.075;    0.000;    0.000
691.427; 7553.075;    0.000;    0.000
691.535; 7438.075;    0.000;    0.000
691.644; 7448.075;    0.000;    0.000
691.753; 7390.075;    0.000;    0.000
691.862; 7503.075;    0.000;    0.000
691.971; 7545.075;    0.000;    0.000
692.080; 7640.075;    0.000;    0.000
692.189; 7635.075;    0.000;    0.000
692.298; 7642.075;    0.000;    0.000
692.407; 7590.075;    0.000;    0.000
692.515; 7669.075;    0.000;    0.000
692.624; 7589.075;    0.000;    0.000
692.733; 7708.075;    0.000;    0.000
692.842; 7688.075;    0.000;    0.000
692.950; 7754.075;    0.000;    0.000
693.059; 7591.075;    0.000;    0.000
693.168; 7559.075;    0.000;    0.000
693.276; 7679.075;    0.000;    0.000
693.385; 7695.075;    0.000;    0.000
693.494; 7616.075;    0.000;    0.000
693.602; 7742.075;    0.000;    0.000
693.711; 7694.075;    0.000;    0.000
693.819; 7674.075;    0.000;    0.000
693.928; 7580.075;    0.000;    0.000
694.036; 7429.075;    0.000;    0.000
694.145; 7626.075;    0.000;    0.000
694.253; 7680.075;    0.000;    0.000
694.362; 7756.075;    0.000;    0.000
694.470; 7735.075;    0.000;    0.000
694.579; 7613.075;    0.000;    0.000
694.687; 7498.075;    0.000;    0.000
694.795; 7631.075;    0.000;    0.000
694.904; 7531.075;    0.000;    0.000
695.012; 7638.075;    0.000;    0.000
695.120; 7643.075;    0.000;    0.000
695.229; 7640.075;    0.000;    0.000
695.337; 7602.075;    0.000;    0.000
695.445; 7802.075;    0.000;    0.000
695.553; 7698.075;    0.000;    0.000
695.662; 7708.075;    0.000;    0.000
695.770; 7777.075;    0.000;    0.000
695.878; 7870.075;    0.000;    0.000
695.986; 7964.075;    0.000;    0.000
696.094; 8012.075;    0.000;    0.000
696.202; 8043.075;    0.000;    0.000
696.310; 7955.075;    0.000;    0.000
696.419; 7902.075;    0.000;    0.000
696.527; 7821.075;    0.000;    0.000
696.635; 7889.075;    0.000;    0.000
696.743; 7752.075;    0.000;    0.000
696.851; 7844.075;    0.000;    0.000
696.959; 7776.075;    0.000;    0.000
697.067; 7643.075;    0.000;    0.000
697.174; 7733.075;    0.000;    0.000
697.282; 7647.075;    0.000;    0.000
697.390; 7709.075;    0.000;    0.000
697.498; 7673.075;    0.000;    0.000
697.606; 7682.075;    0.000;    0.000
697.714; 7617.075;    0.000;    0.000
697.822; 7736.075;    0.000;    0.000
697.929; 7651.075;    0.000;    0.000
698.037; 7503.075;    0.000;    0.000
698.145; 7570.075;    0.000;    0.000
698.253; 7821.075;    0.000;    0.000
698.360; 7885.075;    0.000;    0.000
698.468; 7656.075;    0.000;    0.000
698.576; 7744.075;    0.000;    0.000
698.683; 7586.075;    0.000;    0.000
698.791; 7743.075;    0.000;    0.000
698.899; 7843.075;    0.000;    0.000
699.006; 7775.075;    0.000;    0.000
699.114; 7731.075;    0.000;    0.000
699.221; 7708.075;    0.000;    0.000
699.329; 7876.075;    0.000;    0.000
699.436; 7890.075;    0.000;    0.000
699.544; 8064.075;    0.000;    0.000
699.651; 8230.075;    0.000;    0.000
699.759; 8647.075;    0.000;    0.000
699.866; 8893.075;    0.000;    0.000
699.974; 8476.075;    0.000;    0.000
700.081; 8277.075;    0.000;    0.000
700.188; 8184.075;    0.000;    0.000
700.296; 8256.075;    0.000;    0.000
700.403; 8451.075;    0.000;    0.000
700.510; 8499.075;    0.000;    0.000
700.618; 8223.075;    0.000;    0.000
700.725; 7951.075;    0.000;    0.000
700.832; 8047.075;    0.000;    0.000
700.940; 7916.075;    0.000;    0.000
701.047; 7874.075;    0.000;    0.000
701.154; 7958.075;    0.000;    0.000
701.261; 7890.075;    0.000;    0.000
701.368; 7844.075;    0.000;    0.000
701.475; 7725.075;    0.000;    0.000
701.582; 7750.075;    0.000;    0.000
701.690; 7762.075;    0.000;    0.000
701.797; 7768.075;    0.000;    0.000
701.904; 7817.075;    0.000;    0.000
702.011; 7703.075;    0.000;    0.000
702.118; 7696.075;    0.000;    0.000
702.225; 7700.075;    0.000;    0.000
702.332; 7803.075;    0.000;    0.000
702.439; 7579.075;    0.000;    0.000
702.546; 7672.075;    0.000;    0.000
702.652; 7653.075;    0.000;    0.000
702.759; 7743.075;    0.000;    0.000
702.866; 7566.075;    0.000;    0.000
702.973; 7650.075;    0.000;    0.000
703.080; 7789.075;    0.000;    0.000
703.187; 7845.075;    0.000;    0.000
703.293; 8014.075;    0.000;    0.000
703.400; 7344.075;    0.000;    0.000
703.507; 1036.075;    0.000;    0.000
703.614;  335.075;    0.000;    0.000
703.720;  311.075;    0.000;    0.000
703.827;  314.075;    0.000;    0.000
703.934;  325.075;    0.000;    0.000
704.040;  287.075;    0.000;    0.000
704.147;  332.075;    0.000;    0.000
704.254;  310.075;    0.000;    0.000
704.360;  320.075;    0.000;    0.000
704.467;  329.075;    0.000;    0.000
704.573;  308.075;    0.000;    0.000
704.680;  337.075;    0.000;    0.000
704.786;  346.075;    0.000;    0.000
704.893;  317.075;    0.000;    0.000
704.999;  315.075;    0.000;    0.000
705.106;  329.075;    0.000;    0.000

