
Integration time [ms]:   1.000
Averaging Nr. [scans]: 1
Smoothing Nr. [pixels]: 0
Data measured with spectrometer [name]: UV2
Wave   ;Sample   ;Dark     ;Reference
[nm]   ;[counts] ;[counts] ;[counts] 

353.533;  228.900;    0.000;    0.000
353.597;  251.900;    0.000;    0.000
353.660;  221.900;    0.000;    0.000
353.723;  186.900;    0.000;    0.000
353.786;  213.900;    0.000;    0.000
353.850;  261.900;    0.000;    0.000
353.913;  223.900;    0.000;    0.000
353.976;  220.900;    0.000;    0.000
354.039;  200.900;    0.000;    0.000
354.102;  198.900;    0.000;    0.000
354.166;  250.900;    0.000;    0.000
354.229;  211.900;    0.000;    0.000
354.292;  175.900;    0.000;    0.000
354.355;  167.900;    0.000;    0.000
354.418;  168.900;    0.000;    0.000
354.481;  238.900;    0.000;    0.000
354.545;  837.900;    0.000;    0.000
354.608;  823.900;    0.000;    0.000
354.671;  861.900;    0.000;    0.000
354.734;  823.900;    0.000;    0.000
354.797;  838.900;    0.000;    0.000
354.860;  862.900;    0.000;    0.000
354.923;  893.900;    0.000;    0.000
354.986;  892.900;    0.000;    0.000
355.050;  935.900;    0.000;    0.000
355.113;  908.900;    0.000;    0.000
355.176;  880.900;    0.000;    0.000
355.239;  934.900;    0.000;    0.000
355.302;  951.900;    0.000;    0.000
355.365;  987.900;    0.000;    0.000
355.428;  931.900;    0.000;    0.000
355.491; 1051.900;    0.000;    0.000
355.554; 1028.900;    0.000;    0.000
355.617; 1137.900;    0.000;    0.000
355.680; 1139.900;    0.000;    0.000
355.743; 1055.900;    0.000;    0.000
355.806;  993.900;    0.000;    0.000
355.869; 1047.900;    0.000;    0.000
355.932; 1024.900;    0.000;    0.000
355.995; 1097.900;    0.000;    0.000
356.058; 1149.900;    0.000;    0.000
356.121; 1228.900;    0.000;    0.000
356.184; 1175.900;    0.000;    0.000
356.247; 1161.900;    0.000;    0.000
356.310; 1116.900;    0.000;    0.000
356.373; 1128.900;    0.000;    0.000
356.436; 1183.900;    0.000;    0.000
356.498; 1243.900;    0.000;    0.000
356.561; 1286.900;    0.000;    0.000
356.624; 1191.900;    0.000;    0.000
356.687; 1221.900;    0.000;    0.000
356.750; 1121.900;    0.000;    0.000
356.813; 1099.900;    0.000;    0.000
356.876; 1126.900;    0.000;    0.000
356.939; 1181.900;    0.000;    0.000
357.001; 1116.900;    0.000;    0.000
357.064; 1154.900;    0.000;    0.000
357.127; 1173.900;    0.000;    0.000
357.190; 1114.900;    0.000;    0.000
357.253; 1314.900;    0.000;    0.000
357.316; 1385.900;    0.000;    0.000
357.378; 1414.900;    0.000;    0.000
357.441; 1324.900;    0.000;    0.000
357.504; 1198.900;    0.000;    0.000
357.567; 1128.900;    0.000;    0.000
357.629; 1206.900;    0.000;    0.000
357.692; 1146.900;    0.000;    0.000
357.755; 1201.900;    0.000;    0.000
357.818; 1100.900;    0.000;    0.000
357.880; 1125.900;    0.000;    0.000
357.943; 1188.900;    0.000;    0.000
358.006; 1218.900;    0.000;    0.000
358.069; 1212.900;    0.000;    0.000
358.131; 1149.900;    0.000;    0.000
358.194; 1142.900;    0.000;    0.000
358.257; 1149.900;    0.000;    0.000
358.319; 1218.900;    0.000;    0.000
358.382; 1277.900;    0.000;    0.000
358.445; 1258.900;    0.000;    0.000
358.507; 1306.900;    0.000;    0.000
358.570; 1324.900;    0.000;    0.000
358.633; 1458.900;    0.000;    0.000
358.695; 1478.900;    0.000;    0.000
358.758; 1414.900;    0.000;    0.000
358.821; 1300.900;    0.000;    0.000
358.883; 1289.900;    0.000;    0.000
358.946; 1400.900;    0.000;    0.000
359.008; 1352.900;    0.000;    0.000
359.071; 1302.900;    0.000;    0.000
359.134; 1407.900;    0.000;    0.000
359.196; 1368.900;    0.000;    0.000
359.259; 1421.900;    0.000;    0.000
359.321; 1491.900;    0.000;    0.000
359.384; 1448.900;    0.000;    0.000
359.446; 1463.900;    0.000;    0.000
359.509; 1755.900;    0.000;    0.000
359.571; 2062.900;    0.000;    0.000
359.634; 1919.900;    0.000;    0.000
359.696; 1449.900;    0.000;    0.000
359.759; 1345.900;    0.000;    0.000
359.821; 1385.900;    0.000;    0.000
359.884; 1310.900;    0.000;    0.000
359.946; 1315.900;    0.000;    0.000
360.009; 1278.900;    0.000;    0.000
360.071; 1222.900;    0.000;    0.000
360.134; 1308.900;    0.000;    0.000
360.196; 1220.900;    0.000;    0.000
360.259; 1293.900;    0.000;    0.000
360.321; 1276.900;    0.000;    0.000
360.384; 1282.900;    0.000;    0.000
360.446; 1301.900;    0.000;    0.000
360.508; 1337.900;    0.000;    0.000
360.571; 1282.900;    0.000;    0.000
360.633; 1277.900;    0.000;    0.000
360.696; 1270.900;    0.000;    0.000
360.758; 1354.900;    0.000;    0.000
360.820; 1352.900;    0.000;    0.000
360.883; 1338.900;    0.000;    0.000
360.945; 1476.900;    0.000;    0.000
361.007; 1462.900;    0.000;    0.000
361.070; 1372.900;    0.000;    0.000
361.132; 1381.900;    0.000;    0.000
361.194; 1452.900;    0.000;    0.000
361.257; 1381.900;    0.000;    0.000
361.319; 1428.900;    0.000;    0.000
361.381; 1441.900;    0.000;    0.000
361.443; 1454.900;    0.000;    0.000
361.506; 1453.900;    0.000;    0.000
361.568; 1448.900;    0.000;    0.000
361.630; 1461.900;    0.000;    0.000
361.693; 1474.900;    0.000;    0.000
361.755; 1452.900;    0.000;    0.000
361.817; 1486.900;    0.000;    0.000
361.879; 1467.900;    0.000;    0.000
361.941; 1438.900;    0.000;    0.000
362.004; 1522.900;    0.000;    0.000
362.066; 1481.900;    0.000;    0.000
362.128; 1538.900;    0.000;    0.000
362.190; 1559.900;    0.000;    0.000
362.252; 1670.900;    0.000;    0.000
362.315; 1728.900;    0.000;    0.000
362.377; 2120.900;    0.000;    0.000
362.439; 2720.900;    0.000;    0.000
362.501; 2643.900;    0.000;    0.000
362.563; 2056.900;    0.000;    0.000
362.625; 1683.900;    0.000;    0.000
362.688; 1655.900;    0.000;    0.000
362.750; 1623.900;    0.000;    0.000
362.812; 1633.900;    0.000;    0.000
362.874; 1503.900;    0.000;    0.000
362.936; 1547.900;    0.000;    0.000
362.998; 1553.900;    0.000;    0.000
363.060; 1609.900;    0.000;    0.000
363.122; 1610.900;    0.000;    0.000
363.184; 1597.900;    0.000;    0.000
363.246; 1655.900;    0.000;    0.000
363.308; 1656.900;    0.000;    0.000
363.370; 1734.900;    0.000;    0.000
363.432; 1856.900;    0.000;    0.000
363.494; 2246.900;    0.000;    0.000
363.556; 2263.900;    0.000;    0.000
363.618; 1857.900;    0.000;    0.000
363.680; 1728.900;    0.000;    0.000
363.742; 1769.900;    0.000;    0.000
363.804; 1708.900;    0.000;    0.000
363.866; 1841.900;    0.000;    0.000
363.928; 1926.900;    0.000;    0.000
363.990; 2309.900;    0.000;    0.000
364.052; 3198.900;    0.000;    0.000
364.114; 3961.900;    0.000;    0.000
364.176; 3608.900;    0.000;    0.000
364.238; 3118.900;    0.000;    0.000
364.300; 2686.900;    0.000;    0.000
364.362; 2078.900;    0.000;    0.000
364.424; 1812.900;    0.000;    0.000
364.486; 1891.900;    0.000;    0.000
364.548; 1750.900;    0.000;    0.000
364.609; 1916.900;    0.000;    0.000
364.671; 1820.900;    0.000;    0.000
364.733; 1805.900;    0.000;    0.000
364.795; 1725.900;    0.000;    0.000
364.857; 1804.900;    0.000;    0.000
364.919; 1755.900;    0.000;    0.000
364.981; 1819.900;    0.000;    0.000
365.042; 1772.900;    0.000;    0.000
365.104; 1812.900;    0.000;    0.000
365.166; 1755.900;    0.000;    0.000
365.228; 2059.900;    0.000;    0.000
365.290; 2545.900;    0.000;    0.000
365.351; 2727.900;    0.000;    0.000
365.413; 2445.900;    0.000;    0.000
365.475; 2045.900;    0.000;    0.000
365.537; 1903.900;    0.000;    0.000
365.598; 1890.900;    0.000;    0.000
365.660; 1837.900;    0.000;    0.000
365.722; 2008.900;    0.000;    0.000
365.784; 2272.900;    0.000;    0.000
365.845; 2463.900;    0.000;    0.000
365.907; 3030.900;    0.000;    0.000
365.969; 3626.900;    0.000;    0.000
366.030; 3377.900;    0.000;    0.000
366.092; 2877.900;    0.000;    0.000
366.154; 3383.900;    0.000;    0.000
366.215; 3758.900;    0.000;    0.000
366.277; 3036.900;    0.000;    0.000
366.339; 2504.900;    0.000;    0.000
366.400; 2126.900;    0.000;    0.000
366.462; 2145.900;    0.000;    0.000
366.524; 2070.900;    0.000;    0.000
366.585; 2021.900;    0.000;    0.000
366.647; 2011.900;    0.000;    0.000
366.708; 1962.900;    0.000;    0.000
366.770; 1948.900;    0.000;    0.000
366.832; 1982.900;    0.000;    0.000
366.893; 2098.900;    0.000;    0.000
366.955; 2021.900;    0.000;    0.000
367.016; 2018.900;    0.000;    0.000
367.078; 1921.900;    0.000;    0.000
367.139; 2088.900;    0.000;    0.000
367.201; 2116.900;    0.000;    0.000
367.262; 2008.900;    0.000;    0.000
367.324; 1968.900;    0.000;    0.000
367.385; 1984.900;    0.000;    0.000
367.447; 2065.900;    0.000;    0.000
367.508; 2039.900;    0.000;    0.000
367.570; 2021.900;    0.000;    0.000
367.631; 2091.900;    0.000;    0.000
367.693; 2169.900;    0.000;    0.000
367.754; 2246.900;    0.000;    0.000
367.816; 2359.900;    0.000;    0.000
367.877; 2444.900;    0.000;    0.000
367.939; 2609.900;    0.000;    0.000
368.000; 2684.900;    0.000;    0.000
368.062; 2714.900;    0.000;    0.000
368.123; 2955.900;    0.000;    0.000
368.184; 3211.900;    0.000;    0.000
368.246; 3822.900;    0.000;    0.000
368.307; 4859.900;    0.000;    0.000
368.369; 6534.900;    0.000;    0.000
368.430; 9789.900;    0.000;    0.000
368.491;12395.900;    0.000;    0.000
368.553;10612.900;    0.000;    0.000
368.614; 6431.900;    0.000;    0.000
368.675; 4434.900;    0.000;    0.000
368.737; 3586.900;    0.000;    0.000
368.798; 3167.900;    0.000;    0.000
368.859; 2833.900;    0.000;    0.000
368.921; 2739.900;    0.000;    0.000
368.982; 2600.900;    0.000;    0.000
369.043; 2540.900;    0.000;    0.000
369.104; 2361.900;    0.000;    0.000
369.166; 2382.900;    0.000;    0.000
369.227; 2303.900;    0.000;    0.000
369.288; 2277.900;    0.000;    0.000
369.349; 2233.900;    0.000;    0.000
369.411; 2372.900;    0.000;    0.000
369.472; 2432.900;    0.000;    0.000
369.533; 2353.900;    0.000;    0.000
369.594; 2250.900;    0.000;    0.000
369.656; 2226.900;    0.000;    0.000
369.717; 2295.900;    0.000;    0.000
369.778; 2249.900;    0.000;    0.000
369.839; 2206.900;    0.000;    0.000
369.900; 2296.900;    0.000;    0.000
369.961; 2224.900;    0.000;    0.000
370.023; 2343.900;    0.000;    0.000
370.084; 2312.900;    0.000;    0.000
370.145; 2282.900;    0.000;    0.000
370.206; 2297.900;    0.000;    0.000
370.267; 2379.900;    0.000;    0.000
370.328; 2417.900;    0.000;    0.000
370.389; 2535.900;    0.000;    0.000
370.451; 2628.900;    0.000;    0.000
370.512; 2992.900;    0.000;    0.000
370.573; 3677.900;    0.000;    0.000
370.634; 3978.900;    0.000;    0.000
370.695; 3213.900;    0.000;    0.000
370.756; 2841.900;    0.000;    0.000
370.817; 2447.900;    0.000;    0.000
370.878; 2474.900;    0.000;    0.000
370.939; 2612.900;    0.000;    0.000
371.000; 2484.900;    0.000;    0.000
371.061; 2420.900;    0.000;    0.000
371.122; 2365.900;    0.000;    0.000
371.183; 2362.900;    0.000;    0.000
371.244; 2445.900;    0.000;    0.000
371.305; 2391.900;    0.000;    0.000
371.366; 2443.900;    0.000;    0.000
371.427; 2614.900;    0.000;    0.000
371.488; 2556.900;    0.000;    0.000
371.549; 2656.900;    0.000;    0.000
371.610; 2637.900;    0.000;    0.000
371.671; 2613.900;    0.000;    0.000
371.732; 2708.900;    0.000;    0.000
371.793; 2653.900;    0.000;    0.000
371.853; 2575.900;    0.000;    0.000
371.914; 2616.900;    0.000;    0.000
371.975; 2696.900;    0.000;    0.000
372.036; 2927.900;    0.000;    0.000
372.097; 3670.900;    0.000;    0.000
372.158; 3811.900;    0.000;    0.000
372.219; 3481.900;    0.000;    0.000
372.280; 3039.900;    0.000;    0.000
372.340; 2869.900;    0.000;    0.000
372.401; 3068.900;    0.000;    0.000
372.462; 3195.900;    0.000;    0.000
372.523; 3036.900;    0.000;    0.000
372.584; 2711.900;    0.000;    0.000
372.645; 2692.900;    0.000;    0.000
372.705; 2791.900;    0.000;    0.000
372.766; 2825.900;    0.000;    0.000
372.827; 2661.900;    0.000;    0.000
372.888; 2893.900;    0.000;    0.000
372.948; 3213.900;    0.000;    0.000
373.009; 3235.900;    0.000;    0.000
373.070; 2698.900;    0.000;    0.000
373.131; 2574.900;    0.000;    0.000
373.191; 2624.900;    0.000;    0.000
373.252; 2650.900;    0.000;    0.000
373.313; 2647.900;    0.000;    0.000
373.373; 2610.900;    0.000;    0.000
373.434; 2656.900;    0.000;    0.000
373.495; 2621.900;    0.000;    0.000
373.555; 2672.900;    0.000;    0.000
373.616; 2647.900;    0.000;    0.000
373.677; 2628.900;    0.000;    0.000
373.737; 2651.900;    0.000;    0.000
373.798; 2782.900;    0.000;    0.000
373.859; 2955.900;    0.000;    0.000
373.919; 3189.900;    0.000;    0.000
373.980; 3681.900;    0.000;    0.000
374.041; 4673.900;    0.000;    0.000
374.101; 7152.900;    0.000;    0.000
374.162; 8059.900;    0.000;    0.000
374.222; 6392.900;    0.000;    0.000
374.283; 4406.900;    0.000;    0.000
374.343; 3688.900;    0.000;    0.000
374.404; 3317.900;    0.000;    0.000
374.465; 3121.900;    0.000;    0.000
374.525; 3009.900;    0.000;    0.000
374.586; 3038.900;    0.000;    0.000
374.646; 3179.900;    0.000;    0.000
374.707; 3432.900;    0.000;    0.000
374.767; 3836.900;    0.000;    0.000
374.828; 3872.900;    0.000;    0.000
374.888; 3340.900;    0.000;    0.000
374.949; 3089.900;    0.000;    0.000
375.009; 3155.900;    0.000;    0.000
375.070; 3233.900;    0.000;    0.000
375.130; 3211.900;    0.000;    0.000
375.190; 3625.900;    0.000;    0.000
375.251; 4312.900;    0.000;    0.000
375.311; 4361.900;    0.000;    0.000
375.372; 3880.900;    0.000;    0.000
375.432; 3707.900;    0.000;    0.000
375.493; 3936.900;    0.000;    0.000
375.553; 4423.900;    0.000;    0.000
375.613; 5204.900;    0.000;    0.000
375.674; 6593.900;    0.000;    0.000
375.734; 9167.900;    0.000;    0.000
375.794;11193.900;    0.000;    0.000
375.855;14427.900;    0.000;    0.000
375.915;16229.900;    0.000;    0.000
375.975;14308.900;    0.000;    0.000
376.036;13307.900;    0.000;    0.000
376.096;15128.900;    0.000;    0.000
376.156;13577.900;    0.000;    0.000
376.217; 8866.900;    0.000;    0.000
376.277; 6219.900;    0.000;    0.000
376.337; 4953.900;    0.000;    0.000
376.398; 4239.900;    0.000;    0.000
376.458; 3760.900;    0.000;    0.000
376.518; 3524.900;    0.000;    0.000
376.578; 3227.900;    0.000;    0.000
376.639; 3144.900;    0.000;    0.000
376.699; 3123.900;    0.000;    0.000
376.759; 2929.900;    0.000;    0.000
376.819; 2891.900;    0.000;    0.000
376.880; 2917.900;    0.000;    0.000
376.940; 2817.900;    0.000;    0.000
377.000; 2907.900;    0.000;    0.000
377.060; 2934.900;    0.000;    0.000
377.120; 3087.900;    0.000;    0.000
377.180; 2904.900;    0.000;    0.000
377.241; 2780.900;    0.000;    0.000
377.301; 2719.900;    0.000;    0.000
377.361; 2590.900;    0.000;    0.000
377.421; 2727.900;    0.000;    0.000
377.481; 2799.900;    0.000;    0.000
377.541; 3003.900;    0.000;    0.000
377.601; 3105.900;    0.000;    0.000
377.661; 2978.900;    0.000;    0.000
377.722; 2731.900;    0.000;    0.000
377.782; 2585.900;    0.000;    0.000
377.842; 2563.900;    0.000;    0.000
377.902; 2478.900;    0.000;    0.000
377.962; 2422.900;    0.000;    0.000
378.022; 2513.900;    0.000;    0.000
378.082; 2476.900;    0.000;    0.000
378.142; 2441.900;    0.000;    0.000
378.202; 2540.900;    0.000;    0.000
378.262; 2514.900;    0.000;    0.000
378.322; 2558.900;    0.000;    0.000
378.382; 2529.900;    0.000;    0.000
378.442; 2572.900;    0.000;    0.000
378.502; 2585.900;    0.000;    0.000
378.562; 2968.900;    0.000;    0.000
378.622; 2946.900;    0.000;    0.000
378.682; 2712.900;    0.000;    0.000
378.742; 2521.900;    0.000;    0.000
378.802; 2522.900;    0.000;    0.000
378.862; 2635.900;    0.000;    0.000
378.921; 2652.900;    0.000;    0.000
378.981; 2563.900;    0.000;    0.000
379.041; 2542.900;    0.000;    0.000
379.101; 2554.900;    0.000;    0.000
379.161; 2423.900;    0.000;    0.000
379.221; 2467.900;    0.000;    0.000
379.281; 2393.900;    0.000;    0.000
379.341; 2452.900;    0.000;    0.000
379.401; 2532.900;    0.000;    0.000
379.460; 2569.900;    0.000;    0.000
379.520; 2535.900;    0.000;    0.000
379.580; 2636.900;    0.000;    0.000
379.640; 2557.900;    0.000;    0.000
379.700; 2551.900;    0.000;    0.000
379.759; 2564.900;    0.000;    0.000
379.819; 2485.900;    0.000;    0.000
379.879; 2427.900;    0.000;    0.000
379.939; 2488.900;    0.000;    0.000
379.999; 2471.900;    0.000;    0.000
380.058; 2379.900;    0.000;    0.000
380.118; 2554.900;    0.000;    0.000
380.178; 2465.900;    0.000;    0.000
380.237; 2451.900;    0.000;    0.000
380.297; 2475.900;    0.000;    0.000
380.357; 2387.900;    0.000;    0.000
380.417; 2460.900;    0.000;    0.000
380.476; 2346.900;    0.000;    0.000
380.536; 2443.900;    0.000;    0.000
380.596; 2445.900;    0.000;    0.000
380.655; 2485.900;    0.000;    0.000
380.715; 2389.900;    0.000;    0.000
380.775; 2354.900;    0.000;    0.000
380.834; 2297.900;    0.000;    0.000
380.894; 2334.900;    0.000;    0.000
380.954; 2254.900;    0.000;    0.000
381.013; 2382.900;    0.000;    0.000
381.073; 2230.900;    0.000;    0.000
381.132; 2454.900;    0.000;    0.000
381.192; 2442.900;    0.000;    0.000
381.252; 2622.900;    0.000;    0.000
381.311; 2856.900;    0.000;    0.000
381.371; 2978.900;    0.000;    0.000
381.430; 2964.900;    0.000;    0.000
381.490; 2908.900;    0.000;    0.000
381.549; 2406.900;    0.000;    0.000
381.609; 2435.900;    0.000;    0.000
381.668; 2240.900;    0.000;    0.000
381.728; 2277.900;    0.000;    0.000
381.787; 2363.900;    0.000;    0.000
381.847; 2366.900;    0.000;    0.000
381.906; 2183.900;    0.000;    0.000
381.966; 2217.900;    0.000;    0.000
382.025; 2212.900;    0.000;    0.000
382.085; 2185.900;    0.000;    0.000
382.144; 2374.900;    0.000;    0.000
382.204; 2361.900;    0.000;    0.000
382.263; 2350.900;    0.000;    0.000
382.323; 2225.900;    0.000;    0.000
382.382; 2222.900;    0.000;    0.000
382.441; 2118.900;    0.000;    0.000
382.501; 2114.900;    0.000;    0.000
382.560; 2202.900;    0.000;    0.000
382.619; 2196.900;    0.000;    0.000
382.679; 2286.900;    0.000;    0.000
382.738; 2420.900;    0.000;    0.000
382.798; 2538.900;    0.000;    0.000
382.857; 2474.900;    0.000;    0.000
382.916; 2349.900;    0.000;    0.000
382.976; 2250.900;    0.000;    0.000
383.035; 2213.900;    0.000;    0.000
383.094; 2122.900;    0.000;    0.000
383.154; 2248.900;    0.000;    0.000
383.213; 2256.900;    0.000;    0.000
383.272; 2376.900;    0.000;    0.000
383.331; 2460.900;    0.000;    0.000
383.391; 2500.900;    0.000;    0.000
383.450; 2413.900;    0.000;    0.000
383.509; 2479.900;    0.000;    0.000
383.568; 2629.900;    0.000;    0.000
383.628; 2653.900;    0.000;    0.000
383.687; 2397.900;    0.000;    0.000
383.746; 2226.900;    0.000;    0.000
383.805; 2245.900;    0.000;    0.000
383.864; 2222.900;    0.000;    0.000
383.924; 2244.900;    0.000;    0.000
383.983; 2282.900;    0.000;    0.000
384.042; 2320.900;    0.000;    0.000
384.101; 2296.900;    0.000;    0.000
384.160; 2138.900;    0.000;    0.000
384.219; 2199.900;    0.000;    0.000
384.279; 2274.900;    0.000;    0.000
384.338; 2217.900;    0.000;    0.000
384.397; 2265.900;    0.000;    0.000
384.456; 2248.900;    0.000;    0.000
384.515; 2223.900;    0.000;    0.000
384.574; 2432.900;    0.000;    0.000
384.633; 2374.900;    0.000;    0.000
384.692; 2354.900;    0.000;    0.000
384.751; 2383.900;    0.000;    0.000
384.810; 2353.900;    0.000;    0.000
384.869; 2291.900;    0.000;    0.000
384.929; 2346.900;    0.000;    0.000
384.988; 2312.900;    0.000;    0.000
385.047; 2361.900;    0.000;    0.000
385.106; 2310.900;    0.000;    0.000
385.165; 2341.900;    0.000;    0.000
385.224; 2492.900;    0.000;    0.000
385.283; 2557.900;    0.000;    0.000
385.342; 2584.900;    0.000;    0.000
385.401; 2546.900;    0.000;    0.000
385.459; 2510.900;    0.000;    0.000
385.518; 2569.900;    0.000;    0.000
385.577; 2612.900;    0.000;    0.000
385.636; 2541.900;    0.000;    0.000
385.695; 2496.900;    0.000;    0.000
385.754; 2564.900;    0.000;    0.000
385.813; 2560.900;    0.000;    0.000
385.872; 2543.900;    0.000;    0.000
385.931; 2488.900;    0.000;    0.000
385.990; 2543.900;    0.000;    0.000
386.049; 2545.900;    0.000;    0.000
386.107; 2485.900;    0.000;    0.000
386.166; 2587.900;    0.000;    0.000
386.225; 2539.900;    0.000;    0.000
386.284; 2475.900;    0.000;    0.000
386.343; 2544.900;    0.000;    0.000
386.402; 2610.900;    0.000;    0.000
386.460; 2563.900;    0.000;    0.000
386.519; 2663.900;    0.000;    0.000
386.578; 2681.900;    0.000;    0.000
386.637; 2779.900;    0.000;    0.000
386.696; 2776.900;    0.000;    0.000
386.754; 2761.900;    0.000;    0.000
386.813; 2851.900;    0.000;    0.000
386.872; 2784.900;    0.000;    0.000
386.931; 2797.900;    0.000;    0.000
386.989; 2723.900;    0.000;    0.000
387.048; 2722.900;    0.000;    0.000
387.107; 2699.900;    0.000;    0.000
387.165; 2573.900;    0.000;    0.000
387.224; 2646.900;    0.000;    0.000
387.283; 2689.900;    0.000;    0.000
387.342; 2752.900;    0.000;    0.000
387.400; 2739.900;    0.000;    0.000
387.459; 2882.900;    0.000;    0.000
387.517; 2976.900;    0.000;    0.000
387.576; 2716.900;    0.000;    0.000
387.635; 2625.900;    0.000;    0.000
387.693; 2679.900;    0.000;    0.000
387.752; 2722.900;    0.000;    0.000
387.811; 2717.900;    0.000;    0.000
387.869; 2681.900;    0.000;    0.000
387.928; 2762.900;    0.000;    0.000
387.986; 2741.900;    0.000;    0.000
388.045; 2766.900;    0.000;    0.000
388.103; 3030.900;    0.000;    0.000
388.162; 3490.900;    0.000;    0.000
388.221; 3938.900;    0.000;    0.000
388.279; 3706.900;    0.000;    0.000
388.338; 3196.900;    0.000;    0.000
388.396; 2796.900;    0.000;    0.000
388.455; 2672.900;    0.000;    0.000
388.513; 2526.900;    0.000;    0.000
388.572; 2652.900;    0.000;    0.000
388.630; 2623.900;    0.000;    0.000
388.689; 2627.900;    0.000;    0.000
388.747; 2689.900;    0.000;    0.000
388.806; 2550.900;    0.000;    0.000
388.864; 2533.900;    0.000;    0.000
388.922; 2673.900;    0.000;    0.000
388.981; 2605.900;    0.000;    0.000
389.039; 2540.900;    0.000;    0.000
389.098; 2614.900;    0.000;    0.000
389.156; 2732.900;    0.000;    0.000
389.214; 2654.900;    0.000;    0.000
389.273; 2654.900;    0.000;    0.000
389.331; 2677.900;    0.000;    0.000
389.390; 2790.900;    0.000;    0.000
389.448; 2813.900;    0.000;    0.000
389.506; 2866.900;    0.000;    0.000
389.565; 3070.900;    0.000;    0.000
389.623; 2820.900;    0.000;    0.000
389.681; 3008.900;    0.000;    0.000
389.740; 3136.900;    0.000;    0.000
389.798; 3460.900;    0.000;    0.000
389.856; 3922.900;    0.000;    0.000
389.914; 4985.900;    0.000;    0.000
389.973; 7639.900;    0.000;    0.000
390.031;10035.900;    0.000;    0.000
390.089; 9119.900;    0.000;    0.000
390.147; 6100.900;    0.000;    0.000
390.206; 4666.900;    0.000;    0.000
390.264; 3957.900;    0.000;    0.000
390.322; 3639.900;    0.000;    0.000
390.380; 3801.900;    0.000;    0.000
390.439; 4219.900;    0.000;    0.000
390.497; 3940.900;    0.000;    0.000
390.555; 3322.900;    0.000;    0.000
390.613; 3031.900;    0.000;    0.000
390.671; 2998.900;    0.000;    0.000
390.729; 2849.900;    0.000;    0.000
390.788; 2925.900;    0.000;    0.000
390.846; 2982.900;    0.000;    0.000
390.904; 3075.900;    0.000;    0.000
390.962; 3116.900;    0.000;    0.000
391.020; 3288.900;    0.000;    0.000
391.078; 3514.900;    0.000;    0.000
391.136; 3860.900;    0.000;    0.000
391.194; 4515.900;    0.000;    0.000
391.253; 6573.900;    0.000;    0.000
391.311; 9163.900;    0.000;    0.000
391.369; 9196.900;    0.000;    0.000
391.427; 6709.900;    0.000;    0.000
391.485; 4859.900;    0.000;    0.000
391.543; 4044.900;    0.000;    0.000
391.601; 3729.900;    0.000;    0.000
391.659; 3517.900;    0.000;    0.000
391.717; 3292.900;    0.000;    0.000
391.775; 3345.900;    0.000;    0.000
391.833; 3137.900;    0.000;    0.000
391.891; 3122.900;    0.000;    0.000
391.949; 3088.900;    0.000;    0.000
392.007; 3165.900;    0.000;    0.000
392.065; 3132.900;    0.000;    0.000
392.123; 3170.900;    0.000;    0.000
392.180; 3184.900;    0.000;    0.000
392.238; 3031.900;    0.000;    0.000
392.296; 3008.900;    0.000;    0.000
392.354; 3215.900;    0.000;    0.000
392.412; 3534.900;    0.000;    0.000
392.470; 3385.900;    0.000;    0.000
392.528; 3149.900;    0.000;    0.000
392.586; 2989.900;    0.000;    0.000
392.644; 3105.900;    0.000;    0.000
392.701; 2990.900;    0.000;    0.000
392.759; 2950.900;    0.000;    0.000
392.817; 2986.900;    0.000;    0.000
392.875; 3126.900;    0.000;    0.000
392.933; 3400.900;    0.000;    0.000
392.991; 3382.900;    0.000;    0.000
393.048; 3226.900;    0.000;    0.000
393.106; 3230.900;    0.000;    0.000
393.164; 3496.900;    0.000;    0.000
393.222; 3571.900;    0.000;    0.000
393.279; 3554.900;    0.000;    0.000
393.337; 3580.900;    0.000;    0.000
393.395; 3352.900;    0.000;    0.000
393.453; 3023.900;    0.000;    0.000
393.510; 2949.900;    0.000;    0.000
393.568; 3012.900;    0.000;    0.000
393.626; 2917.900;    0.000;    0.000
393.684; 2851.900;    0.000;    0.000
393.741; 2987.900;    0.000;    0.000
393.799; 2972.900;    0.000;    0.000
393.857; 3005.900;    0.000;    0.000
393.914; 2866.900;    0.000;    0.000
393.972; 2937.900;    0.000;    0.000
394.030; 2909.900;    0.000;    0.000
394.087; 2945.900;    0.000;    0.000
394.145; 2966.900;    0.000;    0.000
394.202; 2964.900;    0.000;    0.000
394.260; 3134.900;    0.000;    0.000
394.318; 3770.900;    0.000;    0.000
394.375; 4420.900;    0.000;    0.000
394.433; 4252.900;    0.000;    0.000
394.490; 3439.900;    0.000;    0.000
394.548; 3226.900;    0.000;    0.000
394.605; 3042.900;    0.000;    0.000
394.663; 3277.900;    0.000;    0.000
394.720; 3575.900;    0.000;    0.000
394.778; 4123.900;    0.000;    0.000
394.836; 4274.900;    0.000;    0.000
394.893; 3944.900;    0.000;    0.000
394.951; 3096.900;    0.000;    0.000
395.008; 2989.900;    0.000;    0.000
395.065; 2823.900;    0.000;    0.000
395.123; 2996.900;    0.000;    0.000
395.180; 2935.900;    0.000;    0.000
395.238; 3043.900;    0.000;    0.000
395.295; 2898.900;    0.000;    0.000
395.353; 2865.900;    0.000;    0.000
395.410; 3017.900;    0.000;    0.000
395.468; 3087.900;    0.000;    0.000
395.525; 3337.900;    0.000;    0.000
395.582; 4078.900;    0.000;    0.000
395.640; 4214.900;    0.000;    0.000
395.697; 3856.900;    0.000;    0.000
395.754; 4403.900;    0.000;    0.000
395.812; 4608.900;    0.000;    0.000
395.869; 3924.900;    0.000;    0.000
395.927; 3148.900;    0.000;    0.000
395.984; 3331.900;    0.000;    0.000
396.041; 3711.900;    0.000;    0.000
396.098; 4949.900;    0.000;    0.000
396.156; 5617.900;    0.000;    0.000
396.213; 4981.900;    0.000;    0.000
396.270; 4069.900;    0.000;    0.000
396.328; 3797.900;    0.000;    0.000
396.385; 3554.900;    0.000;    0.000
396.442; 3500.900;    0.000;    0.000
396.499; 3262.900;    0.000;    0.000
396.557; 2936.900;    0.000;    0.000
396.614; 3048.900;    0.000;    0.000
396.671; 3012.900;    0.000;    0.000
396.728; 3143.900;    0.000;    0.000
396.785; 3258.900;    0.000;    0.000
396.843; 3197.900;    0.000;    0.000
396.900; 3003.900;    0.000;    0.000
396.957; 2955.900;    0.000;    0.000
397.014; 2963.900;    0.000;    0.000
397.071; 2848.900;    0.000;    0.000
397.128; 2874.900;    0.000;    0.000
397.186; 2877.900;    0.000;    0.000
397.243; 2841.900;    0.000;    0.000
397.300; 2989.900;    0.000;    0.000
397.357; 2963.900;    0.000;    0.000
397.414; 2928.900;    0.000;    0.000
397.471; 2896.900;    0.000;    0.000
397.528; 2918.900;    0.000;    0.000
397.585; 2914.900;    0.000;    0.000
397.642; 2853.900;    0.000;    0.000
397.699; 2847.900;    0.000;    0.000
397.756; 2925.900;    0.000;    0.000
397.814; 2924.900;    0.000;    0.000
397.871; 2958.900;    0.000;    0.000
397.928; 3016.900;    0.000;    0.000
397.985; 3065.900;    0.000;    0.000
398.042; 3280.900;    0.000;    0.000
398.099; 4071.900;    0.000;    0.000
398.156; 4758.900;    0.000;    0.000
398.212; 4527.900;    0.000;    0.000
398.269; 3512.900;    0.000;    0.000
398.326; 3145.900;    0.000;    0.000
398.383; 3003.900;    0.000;    0.000
398.440; 3036.900;    0.000;    0.000
398.497; 3083.900;    0.000;    0.000
398.554; 3145.900;    0.000;    0.000
398.611; 3036.900;    0.000;    0.000
398.668; 3043.900;    0.000;    0.000
398.725; 3123.900;    0.000;    0.000
398.782; 3171.900;    0.000;    0.000
398.839; 3428.900;    0.000;    0.000
398.895; 4291.900;    0.000;    0.000
398.952; 4891.900;    0.000;    0.000
399.009; 4617.900;    0.000;    0.000
399.066; 3519.900;    0.000;    0.000
399.123; 3299.900;    0.000;    0.000
399.180; 3235.900;    0.000;    0.000
399.236; 3347.900;    0.000;    0.000
399.293; 3364.900;    0.000;    0.000
399.350; 3377.900;    0.000;    0.000
399.407; 3541.900;    0.000;    0.000
399.463; 3593.900;    0.000;    0.000
399.520; 3593.900;    0.000;    0.000
399.577; 3565.900;    0.000;    0.000
399.634; 3662.900;    0.000;    0.000
399.690; 3826.900;    0.000;    0.000
399.747; 4232.900;    0.000;    0.000
399.804; 5624.900;    0.000;    0.000
399.861; 5750.900;    0.000;    0.000
399.917; 4622.900;    0.000;    0.000
399.974; 3528.900;    0.000;    0.000
400.031; 3489.900;    0.000;    0.000
400.087; 3397.900;    0.000;    0.000
400.144; 3398.900;    0.000;    0.000
400.201; 3498.900;    0.000;    0.000
400.257; 3451.900;    0.000;    0.000
400.314; 3330.900;    0.000;    0.000
400.370; 3390.900;    0.000;    0.000
400.427; 3388.900;    0.000;    0.000
400.484; 3294.900;    0.000;    0.000
400.540; 3337.900;    0.000;    0.000
400.597; 3476.900;    0.000;    0.000
400.653; 3368.900;    0.000;    0.000
400.710; 3387.900;    0.000;    0.000
400.766; 3454.900;    0.000;    0.000
400.823; 3750.900;    0.000;    0.000
400.879; 3873.900;    0.000;    0.000
400.936; 3705.900;    0.000;    0.000
400.993; 3359.900;    0.000;    0.000
401.049; 3280.900;    0.000;    0.000
401.105; 3394.900;    0.000;    0.000
401.162; 3876.900;    0.000;    0.000
401.218; 4082.900;    0.000;    0.000
401.275; 3829.900;    0.000;    0.000
401.331; 3537.900;    0.000;    0.000
401.388; 3444.900;    0.000;    0.000
401.444; 3193.900;    0.000;    0.000
401.501; 3336.900;    0.000;    0.000
401.557; 3242.900;    0.000;    0.000
401.614; 3290.900;    0.000;    0.000
401.670; 3309.900;    0.000;    0.000
401.726; 3338.900;    0.000;    0.000
401.783; 3285.900;    0.000;    0.000
401.839; 3154.900;    0.000;    0.000
401.895; 3168.900;    0.000;    0.000
401.952; 3228.900;    0.000;    0.000
402.008; 3172.900;    0.000;    0.000
402.064; 3104.900;    0.000;    0.000
402.121; 3520.900;    0.000;    0.000
402.177; 3509.900;    0.000;    0.000
402.233; 3303.900;    0.000;    0.000
402.290; 3383.900;    0.000;    0.000
402.346; 3605.900;    0.000;    0.000
402.402; 4101.900;    0.000;    0.000
402.458; 4400.900;    0.000;    0.000
402.515; 4061.900;    0.000;    0.000
402.571; 3811.900;    0.000;    0.000
402.627; 3848.900;    0.000;    0.000
402.683; 4014.900;    0.000;    0.000
402.740; 4519.900;    0.000;    0.000
402.796; 5140.900;    0.000;    0.000
402.852; 4949.900;    0.000;    0.000
402.908; 4151.900;    0.000;    0.000
402.964; 3698.900;    0.000;    0.000
403.021; 3753.900;    0.000;    0.000
403.077; 3765.900;    0.000;    0.000
403.133; 3500.900;    0.000;    0.000
403.189; 3427.900;    0.000;    0.000
403.245; 3376.900;    0.000;    0.000
403.301; 3414.900;    0.000;    0.000
403.357; 3322.900;    0.000;    0.000
403.414; 3463.900;    0.000;    0.000
403.470; 3357.900;    0.000;    0.000
403.526; 3469.900;    0.000;    0.000
403.582; 3450.900;    0.000;    0.000
403.638; 3432.900;    0.000;    0.000
403.694; 3365.900;    0.000;    0.000
403.750; 3354.900;    0.000;    0.000
403.806; 3364.900;    0.000;    0.000
403.862; 3286.900;    0.000;    0.000
403.918; 3345.900;    0.000;    0.000
403.974; 3314.900;    0.000;    0.000
404.030; 3290.900;    0.000;    0.000
404.086; 3237.900;    0.000;    0.000
404.142; 3218.900;    0.000;    0.000
404.198; 3248.900;    0.000;    0.000
404.254; 3242.900;    0.000;    0.000
404.310; 3216.900;    0.000;    0.000
404.366; 3196.900;    0.000;    0.000
404.422; 3232.900;    0.000;    0.000
404.478; 3307.900;    0.000;    0.000
404.534; 3200.900;    0.000;    0.000
404.590; 3271.900;    0.000;    0.000
404.646; 3181.900;    0.000;    0.000
404.701; 3233.900;    0.000;    0.000
404.757; 3197.900;    0.000;    0.000
404.813; 3311.900;    0.000;    0.000
404.869; 3303.900;    0.000;    0.000
404.925; 3278.900;    0.000;    0.000
404.981; 3286.900;    0.000;    0.000
405.037; 3298.900;    0.000;    0.000
405.092; 3293.900;    0.000;    0.000
405.148; 3465.900;    0.000;    0.000
405.204; 3508.900;    0.000;    0.000
405.260; 3778.900;    0.000;    0.000
405.316; 4358.900;    0.000;    0.000
405.371; 4726.900;    0.000;    0.000
405.427; 4384.900;    0.000;    0.000
405.483; 3921.900;    0.000;    0.000
405.539; 3580.900;    0.000;    0.000
405.594; 3410.900;    0.000;    0.000
405.650; 3376.900;    0.000;    0.000
405.706; 3437.900;    0.000;    0.000
405.761; 3546.900;    0.000;    0.000
405.817; 3497.900;    0.000;    0.000
405.873; 3372.900;    0.000;    0.000
405.928; 3499.900;    0.000;    0.000
405.984; 3672.900;    0.000;    0.000
406.040; 3776.900;    0.000;    0.000
406.095; 3316.900;    0.000;    0.000
406.151; 3261.900;    0.000;    0.000
406.207; 3387.900;    0.000;    0.000
406.262; 3339.900;    0.000;    0.000
406.318; 3361.900;    0.000;    0.000
406.374; 3701.900;    0.000;    0.000
406.429; 3796.900;    0.000;    0.000
406.485; 3845.900;    0.000;    0.000
406.540; 3641.900;    0.000;    0.000
406.596; 3384.900;    0.000;    0.000
406.651; 3416.900;    0.000;    0.000
406.707; 3341.900;    0.000;    0.000
406.763; 3396.900;    0.000;    0.000
406.818; 3420.900;    0.000;    0.000
406.874; 3443.900;    0.000;    0.000
406.929; 3479.900;    0.000;    0.000
406.985; 3454.900;    0.000;    0.000
407.040; 3471.900;    0.000;    0.000
407.095; 3571.900;    0.000;    0.000
407.151; 3575.900;    0.000;    0.000
407.206; 3475.900;    0.000;    0.000
407.262; 3382.900;    0.000;    0.000
407.317; 3473.900;    0.000;    0.000
407.373; 3563.900;    0.000;    0.000
407.428; 3569.900;    0.000;    0.000
407.484; 3541.900;    0.000;    0.000
407.539; 3538.900;    0.000;    0.000
407.594; 3680.900;    0.000;    0.000
407.650; 3597.900;    0.000;    0.000
407.705; 3662.900;    0.000;    0.000
407.760; 4022.900;    0.000;    0.000
407.816; 4354.900;    0.000;    0.000
407.871; 4267.900;    0.000;    0.000
407.926; 3714.900;    0.000;    0.000
407.982; 3514.900;    0.000;    0.000
408.037; 3430.900;    0.000;    0.000
408.092; 3412.900;    0.000;    0.000
408.148; 3625.900;    0.000;    0.000
408.203; 3756.900;    0.000;    0.000
408.258; 3618.900;    0.000;    0.000
408.314; 3530.900;    0.000;    0.000
408.369; 3355.900;    0.000;    0.000
408.424; 3350.900;    0.000;    0.000
408.479; 3323.900;    0.000;    0.000
408.534; 3400.900;    0.000;    0.000
408.590; 3366.900;    0.000;    0.000
408.645; 3401.900;    0.000;    0.000
408.700; 3378.900;    0.000;    0.000
408.755; 3351.900;    0.000;    0.000
408.810; 3403.900;    0.000;    0.000
408.866; 3386.900;    0.000;    0.000
408.921; 3334.900;    0.000;    0.000
408.976; 3376.900;    0.000;    0.000
409.031; 3425.900;    0.000;    0.000
409.086; 3459.900;    0.000;    0.000
409.141; 3478.900;    0.000;    0.000
409.196; 3434.900;    0.000;    0.000
409.252; 3403.900;    0.000;    0.000
409.307; 3488.900;    0.000;    0.000
409.362; 3461.900;    0.000;    0.000
409.417; 3368.900;    0.000;    0.000
409.472; 3380.900;    0.000;    0.000
409.527; 3385.900;    0.000;    0.000
409.582; 3405.900;    0.000;    0.000
409.637; 3390.900;    0.000;    0.000
409.692; 3419.900;    0.000;    0.000
409.747; 3313.900;    0.000;    0.000
409.802; 3462.900;    0.000;    0.000
409.857; 3508.900;    0.000;    0.000
409.912; 3652.900;    0.000;    0.000
409.967; 3603.900;    0.000;    0.000
410.022; 3500.900;    0.000;    0.000
410.077; 3398.900;    0.000;    0.000
410.132; 3383.900;    0.000;    0.000
410.187; 3373.900;    0.000;    0.000
410.242; 3425.900;    0.000;    0.000
410.297; 3439.900;    0.000;    0.000
410.351; 3444.900;    0.000;    0.000
410.406; 3553.900;    0.000;    0.000
410.461; 3518.900;    0.000;    0.000
410.516; 3544.900;    0.000;    0.000
410.571; 3525.900;    0.000;    0.000
410.626; 3393.900;    0.000;    0.000
410.681; 3382.900;    0.000;    0.000
410.736; 3370.900;    0.000;    0.000
410.790; 3419.900;    0.000;    0.000
410.845; 3380.900;    0.000;    0.000
410.900; 3528.900;    0.000;    0.000
410.955; 3550.900;    0.000;    0.000
411.010; 3626.900;    0.000;    0.000
411.064; 3545.900;    0.000;    0.000
411.119; 3775.900;    0.000;    0.000
411.174; 3987.900;    0.000;    0.000
411.229; 3926.900;    0.000;    0.000
411.283; 3720.900;    0.000;    0.000
411.338; 3502.900;    0.000;    0.000
411.393; 3571.900;    0.000;    0.000
411.447; 3605.900;    0.000;    0.000
411.502; 3714.900;    0.000;    0.000
411.557; 3675.900;    0.000;    0.000
411.612; 3674.900;    0.000;    0.000
411.666; 3583.900;    0.000;    0.000
411.721; 3518.900;    0.000;    0.000
411.776; 3490.900;    0.000;    0.000
411.830; 3477.900;    0.000;    0.000
411.885; 3600.900;    0.000;    0.000
411.939; 3573.900;    0.000;    0.000
411.994; 3640.900;    0.000;    0.000
412.049; 3444.900;    0.000;    0.000
412.103; 3624.900;    0.000;    0.000
412.158; 3783.900;    0.000;    0.000
412.212; 3880.900;    0.000;    0.000
412.267; 3975.900;    0.000;    0.000
412.322; 4115.900;    0.000;    0.000
412.376; 3983.900;    0.000;    0.000
412.431; 3741.900;    0.000;    0.000
412.485; 3577.900;    0.000;    0.000
412.540; 3555.900;    0.000;    0.000
412.594; 3687.900;    0.000;    0.000
412.649; 3703.900;    0.000;    0.000
412.703; 3934.900;    0.000;    0.000
412.758; 4014.900;    0.000;    0.000
412.812; 3897.900;    0.000;    0.000
412.866; 3751.900;    0.000;    0.000
412.921; 3695.900;    0.000;    0.000
412.975; 3618.900;    0.000;    0.000
413.030; 3664.900;    0.000;    0.000
413.084; 3556.900;    0.000;    0.000
413.139; 3697.900;    0.000;    0.000
413.193; 3731.900;    0.000;    0.000
413.247; 3634.900;    0.000;    0.000
413.302; 3639.900;    0.000;    0.000
413.356; 3605.900;    0.000;    0.000
413.410; 3458.900;    0.000;    0.000
413.465; 3701.900;    0.000;    0.000
413.519; 3514.900;    0.000;    0.000
413.573; 3677.900;    0.000;    0.000
413.628; 3676.900;    0.000;    0.000
413.682; 3672.900;    0.000;    0.000
413.736; 3718.900;    0.000;    0.000
413.791; 3720.900;    0.000;    0.000
413.845; 3460.900;    0.000;    0.000
413.899; 3547.900;    0.000;    0.000
413.953; 3487.900;    0.000;    0.000
414.008; 3576.900;    0.000;    0.000
414.062; 3535.900;    0.000;    0.000
414.116; 3399.900;    0.000;    0.000
414.170; 3497.900;    0.000;    0.000
414.225; 3589.900;    0.000;    0.000
414.279; 3793.900;    0.000;    0.000
414.333; 3681.900;    0.000;    0.000
414.387; 3545.900;    0.000;    0.000
414.441; 3508.900;    0.000;    0.000
414.496; 3480.900;    0.000;    0.000
414.550; 3568.900;    0.000;    0.000
414.604; 3570.900;    0.000;    0.000
414.658; 3404.900;    0.000;    0.000
414.712; 3617.900;    0.000;    0.000
414.766; 3549.900;    0.000;    0.000
414.820; 3591.900;    0.000;    0.000
414.874; 3624.900;    0.000;    0.000
414.928; 3585.900;    0.000;    0.000
414.982; 3686.900;    0.000;    0.000
415.037; 3830.900;    0.000;    0.000
415.091; 3827.900;    0.000;    0.000
415.145; 3837.900;    0.000;    0.000
415.199; 3546.900;    0.000;    0.000
415.253; 3578.900;    0.000;    0.000
415.307; 3542.900;    0.000;    0.000
415.361; 3603.900;    0.000;    0.000
415.415; 3688.900;    0.000;    0.000
415.469; 3672.900;    0.000;    0.000
415.523; 3538.900;    0.000;    0.000
415.577; 3642.900;    0.000;    0.000
415.631; 3583.900;    0.000;    0.000
415.684; 3759.900;    0.000;    0.000
415.738; 3691.900;    0.000;    0.000
415.792; 3896.900;    0.000;    0.000
415.846; 3890.900;    0.000;    0.000
415.900; 4155.900;    0.000;    0.000
415.954; 4129.900;    0.000;    0.000
416.008; 4277.900;    0.000;    0.000
416.062; 4283.900;    0.000;    0.000
416.116; 4598.900;    0.000;    0.000
416.169; 4855.900;    0.000;    0.000
416.223; 5532.900;    0.000;    0.000
416.277; 7012.900;    0.000;    0.000
416.331; 9729.900;    0.000;    0.000
416.385; 9770.900;    0.000;    0.000
416.439; 7871.900;    0.000;    0.000
416.492; 5973.900;    0.000;    0.000
416.546; 5023.900;    0.000;    0.000
416.600; 4672.900;    0.000;    0.000
416.654; 4500.900;    0.000;    0.000
416.707; 4179.900;    0.000;    0.000
416.761; 4112.900;    0.000;    0.000
416.815; 4121.900;    0.000;    0.000
416.869; 4151.900;    0.000;    0.000
416.922; 4303.900;    0.000;    0.000
416.976; 4485.900;    0.000;    0.000
417.030; 4859.900;    0.000;    0.000
417.083; 5770.900;    0.000;    0.000
417.137; 7635.900;    0.000;    0.000
417.191; 8477.900;    0.000;    0.000
417.244; 7670.900;    0.000;    0.000
417.298; 6173.900;    0.000;    0.000
417.352; 5580.900;    0.000;    0.000
417.405; 5177.900;    0.000;    0.000
417.459; 4660.900;    0.000;    0.000
417.512; 4440.900;    0.000;    0.000
417.566; 4124.900;    0.000;    0.000
417.620; 3965.900;    0.000;    0.000
417.673; 3886.900;    0.000;    0.000
417.727; 3799.900;    0.000;    0.000
417.780; 3757.900;    0.000;    0.000
417.834; 3759.900;    0.000;    0.000
417.887; 3706.900;    0.000;    0.000
417.941; 3854.900;    0.000;    0.000
417.994; 3751.900;    0.000;    0.000
418.048; 3766.900;    0.000;    0.000
418.101; 3621.900;    0.000;    0.000
418.155; 3782.900;    0.000;    0.000
418.208; 3674.900;    0.000;    0.000
418.262; 3791.900;    0.000;    0.000
418.315; 3768.900;    0.000;    0.000
418.369; 3800.900;    0.000;    0.000
418.422; 3802.900;    0.000;    0.000
418.476; 3924.900;    0.000;    0.000
418.529; 4027.900;    0.000;    0.000
418.582; 4313.900;    0.000;    0.000
418.636; 4311.900;    0.000;    0.000
418.689; 3874.900;    0.000;    0.000
418.743; 3755.900;    0.000;    0.000
418.796; 3755.900;    0.000;    0.000
418.849; 3824.900;    0.000;    0.000
418.903; 3845.900;    0.000;    0.000
418.956; 3814.900;    0.000;    0.000
419.009; 3755.900;    0.000;    0.000
419.063; 3771.900;    0.000;    0.000
419.116; 3765.900;    0.000;    0.000
419.169; 3722.900;    0.000;    0.000
419.222; 3766.900;    0.000;    0.000
419.276; 3717.900;    0.000;    0.000
419.329; 3679.900;    0.000;    0.000
419.382; 3674.900;    0.000;    0.000
419.435; 3600.900;    0.000;    0.000
419.489; 3676.900;    0.000;    0.000
419.542; 3552.900;    0.000;    0.000
419.595; 3671.900;    0.000;    0.000
419.648; 3758.900;    0.000;    0.000
419.701; 3761.900;    0.000;    0.000
419.755; 3685.900;    0.000;    0.000
419.808; 3681.900;    0.000;    0.000
419.861; 3687.900;    0.000;    0.000
419.914; 3632.900;    0.000;    0.000
419.967; 3690.900;    0.000;    0.000
420.020; 3764.900;    0.000;    0.000
420.073; 3740.900;    0.000;    0.000
420.127; 3831.900;    0.000;    0.000
420.180; 3677.900;    0.000;    0.000
420.233; 3692.900;    0.000;    0.000
420.286; 3789.900;    0.000;    0.000
420.339; 3759.900;    0.000;    0.000
420.392; 3779.900;    0.000;    0.000
420.445; 3678.900;    0.000;    0.000
420.498; 3811.900;    0.000;    0.000
420.551; 3718.900;    0.000;    0.000
420.604; 3703.900;    0.000;    0.000
420.657; 3677.900;    0.000;    0.000
420.710; 3656.900;    0.000;    0.000
420.763; 3721.900;    0.000;    0.000
420.816; 3672.900;    0.000;    0.000
420.869; 3527.900;    0.000;    0.000
420.922; 3672.900;    0.000;    0.000
420.975; 3761.900;    0.000;    0.000
421.028; 3580.900;    0.000;    0.000
421.081; 3739.900;    0.000;    0.000
421.134; 3685.900;    0.000;    0.000
421.187; 3693.900;    0.000;    0.000
421.239; 3670.900;    0.000;    0.000
421.292; 3611.900;    0.000;    0.000
421.345; 3687.900;    0.000;    0.000
421.398; 3670.900;    0.000;    0.000
421.451; 3656.900;    0.000;    0.000
421.504; 3600.900;    0.000;    0.000
421.557; 3701.900;    0.000;    0.000
421.609; 3625.900;    0.000;    0.000
421.662; 3634.900;    0.000;    0.000
421.715; 3599.900;    0.000;    0.000
421.768; 3663.900;    0.000;    0.000
421.821; 3564.900;    0.000;    0.000
421.873; 3596.900;    0.000;    0.000
421.926; 3604.900;    0.000;    0.000
421.979; 3547.900;    0.000;    0.000
422.032; 3501.900;    0.000;    0.000
422.084; 3627.900;    0.000;    0.000
422.137; 3555.900;    0.000;    0.000
422.190; 3509.900;    0.000;    0.000
422.243; 3457.900;    0.000;    0.000
422.295; 3494.900;    0.000;    0.000
422.348; 3659.900;    0.000;    0.000
422.401; 3611.900;    0.000;    0.000
422.453; 3664.900;    0.000;    0.000
422.506; 3696.900;    0.000;    0.000
422.559; 3638.900;    0.000;    0.000
422.611; 3733.900;    0.000;    0.000
422.664; 3709.900;    0.000;    0.000
422.716; 3937.900;    0.000;    0.000
422.769; 3707.900;    0.000;    0.000
422.822; 3620.900;    0.000;    0.000
422.874; 3600.900;    0.000;    0.000
422.927; 3564.900;    0.000;    0.000
422.979; 3548.900;    0.000;    0.000
423.032; 3473.900;    0.000;    0.000
423.084; 3473.900;    0.000;    0.000
423.137; 3485.900;    0.000;    0.000
423.189; 3491.900;    0.000;    0.000
423.242; 3621.900;    0.000;    0.000
423.294; 3626.900;    0.000;    0.000
423.347; 3586.900;    0.000;    0.000
423.399; 3528.900;    0.000;    0.000
423.452; 3639.900;    0.000;    0.000
423.504; 3560.900;    0.000;    0.000
423.557; 3472.900;    0.000;    0.000
423.609; 3620.900;    0.000;    0.000
423.662; 3721.900;    0.000;    0.000
423.714; 3735.900;    0.000;    0.000
423.766; 3879.900;    0.000;    0.000
423.819; 3851.900;    0.000;    0.000
423.871; 3569.900;    0.000;    0.000
423.923; 3544.900;    0.000;    0.000
423.976; 3675.900;    0.000;    0.000
424.028; 3487.900;    0.000;    0.000
424.081; 3497.900;    0.000;    0.000
424.133; 3606.900;    0.000;    0.000
424.185; 3575.900;    0.000;    0.000
424.238; 3535.900;    0.000;    0.000
424.290; 3583.900;    0.000;    0.000
424.342; 3544.900;    0.000;    0.000
424.394; 3654.900;    0.000;    0.000
424.447; 3557.900;    0.000;    0.000
424.499; 3651.900;    0.000;    0.000
424.551; 3623.900;    0.000;    0.000
424.603; 3595.900;    0.000;    0.000
424.656; 3524.900;    0.000;    0.000
424.708; 3482.900;    0.000;    0.000
424.760; 3525.900;    0.000;    0.000
424.812; 3599.900;    0.000;    0.000
424.864; 3637.900;    0.000;    0.000
424.917; 3633.900;    0.000;    0.000
424.969; 3660.900;    0.000;    0.000
425.021; 3552.900;    0.000;    0.000
425.073; 3601.900;    0.000;    0.000
425.125; 3638.900;    0.000;    0.000
425.177; 3624.900;    0.000;    0.000
425.229; 3591.900;    0.000;    0.000
425.282; 3503.900;    0.000;    0.000
425.334; 3514.900;    0.000;    0.000
425.386; 3532.900;    0.000;    0.000
425.438; 3519.900;    0.000;    0.000
425.490; 3549.900;    0.000;    0.000
425.542; 3619.900;    0.000;    0.000
425.594; 3684.900;    0.000;    0.000
425.646; 3701.900;    0.000;    0.000
425.698; 3615.900;    0.000;    0.000
425.750; 3548.900;    0.000;    0.000
425.802; 3669.900;    0.000;    0.000
425.854; 3611.900;    0.000;    0.000
425.906; 3524.900;    0.000;    0.000
425.958; 3569.900;    0.000;    0.000
426.010; 3529.900;    0.000;    0.000
426.062; 3734.900;    0.000;    0.000
426.114; 3681.900;    0.000;    0.000
426.166; 3839.900;    0.000;    0.000
426.218; 3998.900;    0.000;    0.000
426.270; 4268.900;    0.000;    0.000
426.321; 4218.900;    0.000;    0.000
426.373; 3996.900;    0.000;    0.000
426.425; 3691.900;    0.000;    0.000
426.477; 3612.900;    0.000;    0.000
426.529; 3757.900;    0.000;    0.000
426.581; 3806.900;    0.000;    0.000
426.633; 3697.900;    0.000;    0.000
426.684; 3493.900;    0.000;    0.000
426.736; 3529.900;    0.000;    0.000
426.788; 3534.900;    0.000;    0.000
426.840; 3586.900;    0.000;    0.000
426.892; 3538.900;    0.000;    0.000
426.943; 3594.900;    0.000;    0.000
426.995; 3598.900;    0.000;    0.000
427.047; 3534.900;    0.000;    0.000
427.099; 3674.900;    0.000;    0.000
427.150; 3668.900;    0.000;    0.000
427.202; 3760.900;    0.000;    0.000
427.254; 3518.900;    0.000;    0.000
427.306; 3616.900;    0.000;    0.000
427.357; 3846.900;    0.000;    0.000
427.409; 4199.900;    0.000;    0.000
427.461; 4271.900;    0.000;    0.000
427.512; 3972.900;    0.000;    0.000
427.564; 3713.900;    0.000;    0.000
427.616; 3800.900;    0.000;    0.000
427.667; 3859.900;    0.000;    0.000
427.719; 3743.900;    0.000;    0.000
427.770; 3795.900;    0.000;    0.000
427.822; 3990.900;    0.000;    0.000
427.874; 3761.900;    0.000;    0.000
427.925; 3777.900;    0.000;    0.000
427.977; 3625.900;    0.000;    0.000
428.028; 3589.900;    0.000;    0.000
428.080; 3850.900;    0.000;    0.000
428.131; 3706.900;    0.000;    0.000
428.183; 3898.900;    0.000;    0.000
428.234; 4110.900;    0.000;    0.000
428.286; 4120.900;    0.000;    0.000
428.337; 3852.900;    0.000;    0.000
428.389; 3706.900;    0.000;    0.000
428.440; 4142.900;    0.000;    0.000
428.492; 4384.900;    0.000;    0.000
428.543; 4987.900;    0.000;    0.000
428.595; 5049.900;    0.000;    0.000
428.646; 5044.900;    0.000;    0.000
428.697; 5288.900;    0.000;    0.000
428.749; 5649.900;    0.000;    0.000
428.800; 5629.900;    0.000;    0.000
428.852; 5888.900;    0.000;    0.000
428.903; 6289.900;    0.000;    0.000
428.954; 7783.900;    0.000;    0.000
429.006; 8884.900;    0.000;    0.000
429.057; 9028.900;    0.000;    0.000
429.108; 7389.900;    0.000;    0.000
429.160; 5698.900;    0.000;    0.000
429.211; 4945.900;    0.000;    0.000
429.262; 5041.900;    0.000;    0.000
429.314; 6117.900;    0.000;    0.000
429.365; 7690.900;    0.000;    0.000
429.416; 7516.900;    0.000;    0.000
429.467; 6268.900;    0.000;    0.000
429.519; 5530.900;    0.000;    0.000
429.570; 5308.900;    0.000;    0.000
429.621; 4798.900;    0.000;    0.000
429.672; 4475.900;    0.000;    0.000
429.724; 4541.900;    0.000;    0.000
429.775; 5430.900;    0.000;    0.000
429.826; 7053.900;    0.000;    0.000
429.877; 8642.900;    0.000;    0.000
429.928;11507.900;    0.000;    0.000
429.980;14606.900;    0.000;    0.000
430.031;16066.900;    0.000;    0.000
430.082;13736.900;    0.000;    0.000
430.133;10606.900;    0.000;    0.000
430.184; 8223.900;    0.000;    0.000
430.235; 6932.900;    0.000;    0.000
430.286; 5444.900;    0.000;    0.000
430.337; 4871.900;    0.000;    0.000
430.388; 4582.900;    0.000;    0.000
430.439; 4673.900;    0.000;    0.000
430.490; 5617.900;    0.000;    0.000
430.542; 7647.900;    0.000;    0.000
430.593; 7751.900;    0.000;    0.000
430.644; 6562.900;    0.000;    0.000
430.695; 5526.900;    0.000;    0.000
430.746; 6312.900;    0.000;    0.000
430.797; 6519.900;    0.000;    0.000
430.848; 5763.900;    0.000;    0.000
430.898; 4478.900;    0.000;    0.000
430.949; 4076.900;    0.000;    0.000
431.000; 3913.900;    0.000;    0.000
431.051; 3955.900;    0.000;    0.000
431.102; 4069.900;    0.000;    0.000
431.153; 4118.900;    0.000;    0.000
431.204; 4961.900;    0.000;    0.000
431.255; 5910.900;    0.000;    0.000
431.306; 6175.900;    0.000;    0.000
431.357; 5866.900;    0.000;    0.000
431.408; 6072.900;    0.000;    0.000
431.458; 7190.900;    0.000;    0.000
431.509; 7084.900;    0.000;    0.000
431.560; 5703.900;    0.000;    0.000
431.611; 4668.900;    0.000;    0.000
431.662; 4371.900;    0.000;    0.000
431.713; 4132.900;    0.000;    0.000
431.763; 3961.900;    0.000;    0.000
431.814; 4075.900;    0.000;    0.000
431.865; 3993.900;    0.000;    0.000
431.916; 3859.900;    0.000;    0.000
431.966; 3719.900;    0.000;    0.000
432.017; 3816.900;    0.000;    0.000
432.068; 4017.900;    0.000;    0.000
432.118; 4244.900;    0.000;    0.000
432.169; 4047.900;    0.000;    0.000
432.220; 3723.900;    0.000;    0.000
432.271; 3481.900;    0.000;    0.000
432.321; 3428.900;    0.000;    0.000
432.372; 3421.900;    0.000;    0.000
432.423; 3563.900;    0.000;    0.000
432.473; 3785.900;    0.000;    0.000
432.524; 3816.900;    0.000;    0.000
432.574; 3751.900;    0.000;    0.000
432.625; 3600.900;    0.000;    0.000
432.676; 3469.900;    0.000;    0.000
432.726; 3320.900;    0.000;    0.000
432.777; 3217.900;    0.000;    0.000
432.827; 3357.900;    0.000;    0.000
432.878; 3387.900;    0.000;    0.000
432.928; 3430.900;    0.000;    0.000
432.979; 3775.900;    0.000;    0.000
433.029; 3800.900;    0.000;    0.000
433.080; 3754.900;    0.000;    0.000
433.130; 3507.900;    0.000;    0.000
433.181; 3396.900;    0.000;    0.000
433.231; 3269.900;    0.000;    0.000
433.282; 3377.900;    0.000;    0.000
433.332; 3260.900;    0.000;    0.000
433.383; 3319.900;    0.000;    0.000
433.433; 3373.900;    0.000;    0.000
433.484; 3468.900;    0.000;    0.000
433.534; 3520.900;    0.000;    0.000
433.585; 3691.900;    0.000;    0.000
433.635; 4159.900;    0.000;    0.000
433.685; 5142.900;    0.000;    0.000
433.736; 6683.900;    0.000;    0.000
433.786; 6779.900;    0.000;    0.000
433.836; 5889.900;    0.000;    0.000
433.887; 4307.900;    0.000;    0.000
433.937; 3734.900;    0.000;    0.000
433.987; 3609.900;    0.000;    0.000
434.038; 3537.900;    0.000;    0.000
434.088; 3720.900;    0.000;    0.000
434.138; 3773.900;    0.000;    0.000
434.189; 3634.900;    0.000;    0.000
434.239; 3478.900;    0.000;    0.000
434.289; 3498.900;    0.000;    0.000
434.339; 3489.900;    0.000;    0.000
434.389; 3764.900;    0.000;    0.000
434.440; 3686.900;    0.000;    0.000
434.490; 3412.900;    0.000;    0.000
434.540; 3442.900;    0.000;    0.000
434.590; 3398.900;    0.000;    0.000
434.640; 3357.900;    0.000;    0.000
434.691; 3164.900;    0.000;    0.000
434.741; 3229.900;    0.000;    0.000
434.791; 3236.900;    0.000;    0.000
434.841; 3298.900;    0.000;    0.000
434.891; 3410.900;    0.000;    0.000
434.941; 3353.900;    0.000;    0.000
434.991; 3338.900;    0.000;    0.000
435.042; 3451.900;    0.000;    0.000
435.092; 3510.900;    0.000;    0.000
435.142; 3380.900;    0.000;    0.000
435.192; 3244.900;    0.000;    0.000
435.242; 3258.900;    0.000;    0.000
435.292; 3241.900;    0.000;    0.000
435.342; 3224.900;    0.000;    0.000
435.392; 3085.900;    0.000;    0.000
435.442; 3093.900;    0.000;    0.000
435.492; 3080.900;    0.000;    0.000
435.542; 3102.900;    0.000;    0.000
435.592; 2995.900;    0.000;    0.000
435.642; 3076.900;    0.000;    0.000
435.692; 2890.900;    0.000;    0.000
435.742; 2955.900;    0.000;    0.000
435.792; 3048.900;    0.000;    0.000
435.842; 2989.900;    0.000;    0.000
435.891; 2891.900;    0.000;    0.000
435.941; 3012.900;    0.000;    0.000
435.991; 3053.900;    0.000;    0.000
436.041; 3035.900;    0.000;    0.000
436.091; 3050.900;    0.000;    0.000
436.141; 2959.900;    0.000;    0.000
436.191; 2909.900;    0.000;    0.000
436.241; 2992.900;    0.000;    0.000
436.290; 2993.900;    0.000;    0.000
436.340; 2938.900;    0.000;    0.000
436.390; 2955.900;    0.000;    0.000
436.440; 2978.900;    0.000;    0.000
436.490; 2953.900;    0.000;    0.000
436.539; 3154.900;    0.000;    0.000
436.589; 3066.900;    0.000;    0.000
436.639; 3297.900;    0.000;    0.000
436.689; 3712.900;    0.000;    0.000
436.738; 4274.900;    0.000;    0.000
436.788; 4114.900;    0.000;    0.000
436.838; 3846.900;    0.000;    0.000
436.887; 3518.900;    0.000;    0.000
436.937; 3353.900;    0.000;    0.000
436.987; 3218.900;    0.000;    0.000
437.036; 3006.900;    0.000;    0.000
437.086; 2982.900;    0.000;    0.000
437.136; 3058.900;    0.000;    0.000
437.185; 2992.900;    0.000;    0.000
437.235; 2992.900;    0.000;    0.000
437.285; 2936.900;    0.000;    0.000
437.334; 2904.900;    0.000;    0.000
437.384; 3152.900;    0.000;    0.000
437.433; 3205.900;    0.000;    0.000
437.483; 3281.900;    0.000;    0.000
437.532; 3205.900;    0.000;    0.000
437.582; 2969.900;    0.000;    0.000
437.631; 2831.900;    0.000;    0.000
437.681; 2790.900;    0.000;    0.000
437.730; 2918.900;    0.000;    0.000
437.780; 2856.900;    0.000;    0.000
437.829; 3134.900;    0.000;    0.000
437.879; 3525.900;    0.000;    0.000
437.928; 3568.900;    0.000;    0.000
437.978; 3286.900;    0.000;    0.000
438.027; 2857.900;    0.000;    0.000
438.077; 2806.900;    0.000;    0.000
438.126; 2770.900;    0.000;    0.000
438.176; 2765.900;    0.000;    0.000
438.225; 2762.900;    0.000;    0.000
438.274; 2824.900;    0.000;    0.000
438.324; 2816.900;    0.000;    0.000
438.373; 3056.900;    0.000;    0.000
438.422; 3434.900;    0.000;    0.000
438.472; 3418.900;    0.000;    0.000
438.521; 3291.900;    0.000;    0.000
438.570; 3215.900;    0.000;    0.000
438.620; 3667.900;    0.000;    0.000
438.669; 3794.900;    0.000;    0.000
438.718; 3748.900;    0.000;    0.000
438.768; 3421.900;    0.000;    0.000
438.817; 3257.900;    0.000;    0.000
438.866; 3205.900;    0.000;    0.000
438.915; 3302.900;    0.000;    0.000
438.965; 3529.900;    0.000;    0.000
439.014; 3606.900;    0.000;    0.000
439.063; 3602.900;    0.000;    0.000
439.112; 3362.900;    0.000;    0.000
439.162; 3468.900;    0.000;    0.000
439.211; 3726.900;    0.000;    0.000
439.260; 4054.900;    0.000;    0.000
439.309; 4798.900;    0.000;    0.000
439.358; 6208.900;    0.000;    0.000
439.407; 8535.900;    0.000;    0.000
439.456;11320.900;    0.000;    0.000
439.506;11160.900;    0.000;    0.000
439.555; 8916.900;    0.000;    0.000
439.604; 5725.900;    0.000;    0.000
439.653; 4355.900;    0.000;    0.000
439.702; 3727.900;    0.000;    0.000
439.751; 3611.900;    0.000;    0.000
439.800; 3741.900;    0.000;    0.000
439.849; 3728.900;    0.000;    0.000
439.898; 4309.900;    0.000;    0.000
439.947; 5003.900;    0.000;    0.000
439.996; 5085.900;    0.000;    0.000
440.045; 4338.900;    0.000;    0.000
440.094; 3589.900;    0.000;    0.000
440.143; 3210.900;    0.000;    0.000
440.192; 3245.900;    0.000;    0.000
440.241; 2996.900;    0.000;    0.000
440.290; 3090.900;    0.000;    0.000
440.339; 3250.900;    0.000;    0.000
440.388; 3484.900;    0.000;    0.000
440.437; 3696.900;    0.000;    0.000
440.486; 3463.900;    0.000;    0.000
440.535; 3168.900;    0.000;    0.000
440.583; 3110.900;    0.000;    0.000
440.632; 3261.900;    0.000;    0.000
440.681; 3315.900;    0.000;    0.000
440.730; 3533.900;    0.000;    0.000
440.779; 3729.900;    0.000;    0.000
440.828; 3744.900;    0.000;    0.000
440.876; 3696.900;    0.000;    0.000
440.925; 3509.900;    0.000;    0.000
440.974; 3580.900;    0.000;    0.000
441.023; 3880.900;    0.000;    0.000
441.072; 4367.900;    0.000;    0.000
441.120; 4265.900;    0.000;    0.000
441.169; 3944.900;    0.000;    0.000
441.218; 3421.900;    0.000;    0.000
441.267; 3137.900;    0.000;    0.000
441.315; 3191.900;    0.000;    0.000
441.364; 3054.900;    0.000;    0.000
441.413; 3125.900;    0.000;    0.000
441.461; 3122.900;    0.000;    0.000
441.510; 3268.900;    0.000;    0.000
441.559; 3351.900;    0.000;    0.000
441.607; 3602.900;    0.000;    0.000
441.656; 4340.900;    0.000;    0.000
441.705; 4964.900;    0.000;    0.000
441.753; 5641.900;    0.000;    0.000
441.802; 5017.900;    0.000;    0.000
441.850; 4114.900;    0.000;    0.000
441.899; 3645.900;    0.000;    0.000
441.948; 3331.900;    0.000;    0.000
441.996; 3194.900;    0.000;    0.000
442.045; 3302.900;    0.000;    0.000
442.093; 3390.900;    0.000;    0.000
442.142; 3620.900;    0.000;    0.000
442.190; 3735.900;    0.000;    0.000
442.239; 3542.900;    0.000;    0.000
442.287; 3284.900;    0.000;    0.000
442.336; 3178.900;    0.000;    0.000
442.384; 2929.900;    0.000;    0.000
442.433; 3037.900;    0.000;    0.000
442.481; 3106.900;    0.000;    0.000
442.529; 3351.900;    0.000;    0.000
442.578; 3504.900;    0.000;    0.000
442.626; 4000.900;    0.000;    0.000
442.675; 4438.900;    0.000;    0.000
442.723; 4342.900;    0.000;    0.000
442.771; 3549.900;    0.000;    0.000
442.820; 3117.900;    0.000;    0.000
442.868; 2923.900;    0.000;    0.000
442.917; 2976.900;    0.000;    0.000
442.965; 3086.900;    0.000;    0.000
443.013; 3132.900;    0.000;    0.000
443.062; 3102.900;    0.000;    0.000
443.110; 2977.900;    0.000;    0.000
443.158; 3019.900;    0.000;    0.000
443.206; 3016.900;    0.000;    0.000
443.255; 2975.900;    0.000;    0.000
443.303; 3158.900;    0.000;    0.000
443.351; 3330.900;    0.000;    0.000
443.399; 3339.900;    0.000;    0.000
443.448; 3189.900;    0.000;    0.000
443.496; 2975.900;    0.000;    0.000
443.544; 3018.900;    0.000;    0.000
443.592; 3132.900;    0.000;    0.000
443.640; 3159.900;    0.000;    0.000
443.689; 3096.900;    0.000;    0.000
443.737; 3147.900;    0.000;    0.000
443.785; 3180.900;    0.000;    0.000
443.833; 3239.900;    0.000;    0.000
443.881; 3177.900;    0.000;    0.000
443.929; 3207.900;    0.000;    0.000
443.977; 3495.900;    0.000;    0.000
444.025; 3577.900;    0.000;    0.000
444.074; 3653.900;    0.000;    0.000
444.122; 3856.900;    0.000;    0.000
444.170; 4205.900;    0.000;    0.000
444.218; 4765.900;    0.000;    0.000
444.266; 6036.900;    0.000;    0.000
444.314; 8196.900;    0.000;    0.000
444.362; 9219.900;    0.000;    0.000
444.410; 8348.900;    0.000;    0.000
444.458; 6010.900;    0.000;    0.000
444.506; 4473.900;    0.000;    0.000
444.554; 3847.900;    0.000;    0.000
444.602; 3679.900;    0.000;    0.000
444.650; 3627.900;    0.000;    0.000
444.698; 3482.900;    0.000;    0.000
444.746; 3532.900;    0.000;    0.000
444.793; 3753.900;    0.000;    0.000
444.841; 4433.900;    0.000;    0.000
444.889; 5033.900;    0.000;    0.000
444.937; 5116.900;    0.000;    0.000
444.985; 5109.900;    0.000;    0.000
445.033; 5438.900;    0.000;    0.000
445.081; 5262.900;    0.000;    0.000
445.129; 4528.900;    0.000;    0.000
445.176; 3801.900;    0.000;    0.000
445.224; 3822.900;    0.000;    0.000
445.272; 4490.900;    0.000;    0.000
445.320; 4970.900;    0.000;    0.000
445.368; 4767.900;    0.000;    0.000
445.415; 4288.900;    0.000;    0.000
445.463; 4242.900;    0.000;    0.000
445.511; 4520.900;    0.000;    0.000
445.559; 4496.900;    0.000;    0.000
445.606; 3997.900;    0.000;    0.000
445.654; 4155.900;    0.000;    0.000
445.702; 4812.900;    0.000;    0.000
445.749; 4887.900;    0.000;    0.000
445.797; 4085.900;    0.000;    0.000
445.845; 3324.900;    0.000;    0.000
445.892; 3221.900;    0.000;    0.000
445.940; 3115.900;    0.000;    0.000
445.988; 3247.900;    0.000;    0.000
446.035; 3154.900;    0.000;    0.000
446.083; 3125.900;    0.000;    0.000
446.130; 2976.900;    0.000;    0.000
446.178; 3099.900;    0.000;    0.000
446.226; 3157.900;    0.000;    0.000
446.273; 3282.900;    0.000;    0.000
446.321; 3464.900;    0.000;    0.000
446.368; 3593.900;    0.000;    0.000
446.416; 3599.900;    0.000;    0.000
446.463; 3652.900;    0.000;    0.000
446.511; 3874.900;    0.000;    0.000
446.558; 3961.900;    0.000;    0.000
446.606; 4066.900;    0.000;    0.000
446.653; 4049.900;    0.000;    0.000
446.701; 4521.900;    0.000;    0.000
446.748; 6010.900;    0.000;    0.000
446.796; 8432.900;    0.000;    0.000
446.843; 9652.900;    0.000;    0.000
446.891; 8622.900;    0.000;    0.000
446.938; 6244.900;    0.000;    0.000
446.985; 4796.900;    0.000;    0.000
447.033; 4593.900;    0.000;    0.000
447.080; 4349.900;    0.000;    0.000
447.128; 4120.900;    0.000;    0.000
447.175; 3757.900;    0.000;    0.000
447.222; 3227.900;    0.000;    0.000
447.270; 3126.900;    0.000;    0.000
447.317; 3128.900;    0.000;    0.000
447.364; 3009.900;    0.000;    0.000
447.411; 3046.900;    0.000;    0.000
447.459; 3123.900;    0.000;    0.000
447.506; 3154.900;    0.000;    0.000
447.553; 2949.900;    0.000;    0.000
447.601; 2924.900;    0.000;    0.000
447.648; 2824.900;    0.000;    0.000
447.695; 2869.900;    0.000;    0.000
447.742; 2862.900;    0.000;    0.000
447.789; 2902.900;    0.000;    0.000
447.837; 2951.900;    0.000;    0.000
447.884; 2879.900;    0.000;    0.000
447.931; 3106.900;    0.000;    0.000
447.978; 3230.900;    0.000;    0.000
448.025; 3438.900;    0.000;    0.000
448.072; 3929.900;    0.000;    0.000
448.120; 3895.900;    0.000;    0.000
448.167; 3642.900;    0.000;    0.000
448.214; 3174.900;    0.000;    0.000
448.261; 3004.900;    0.000;    0.000
448.308; 2940.900;    0.000;    0.000
448.355; 2895.900;    0.000;    0.000
448.402; 2844.900;    0.000;    0.000
448.449; 2818.900;    0.000;    0.000
448.496; 2913.900;    0.000;    0.000
448.543; 2929.900;    0.000;    0.000
448.590; 3049.900;    0.000;    0.000
448.637; 3145.900;    0.000;    0.000
448.684; 3396.900;    0.000;    0.000
448.731; 3994.900;    0.000;    0.000
448.778; 4768.900;    0.000;    0.000
448.825; 5140.900;    0.000;    0.000
448.872; 4804.900;    0.000;    0.000
448.919; 4091.900;    0.000;    0.000
448.966; 3534.900;    0.000;    0.000
449.013; 3219.900;    0.000;    0.000
449.060; 2971.900;    0.000;    0.000
449.107; 2993.900;    0.000;    0.000
449.154; 2807.900;    0.000;    0.000
449.200; 2934.900;    0.000;    0.000
449.247; 2945.900;    0.000;    0.000
449.294; 2877.900;    0.000;    0.000
449.341; 2896.900;    0.000;    0.000
449.388; 2923.900;    0.000;    0.000
449.435; 2862.900;    0.000;    0.000
449.481; 3012.900;    0.000;    0.000
449.528; 3288.900;    0.000;    0.000
449.575; 3443.900;    0.000;    0.000
449.622; 3441.900;    0.000;    0.000
449.668; 3258.900;    0.000;    0.000
449.715; 2995.900;    0.000;    0.000
449.762; 3133.900;    0.000;    0.000
449.809; 3115.900;    0.000;    0.000
449.855; 3222.900;    0.000;    0.000
449.902; 3440.900;    0.000;    0.000
449.949; 3729.900;    0.000;    0.000
449.995; 4384.900;    0.000;    0.000
450.042; 5869.900;    0.000;    0.000
450.089; 7774.900;    0.000;    0.000
450.135; 7965.900;    0.000;    0.000
450.182; 6706.900;    0.000;    0.000
450.229; 4947.900;    0.000;    0.000
450.275; 4006.900;    0.000;    0.000
450.322; 3620.900;    0.000;    0.000
450.368; 3496.900;    0.000;    0.000
450.415; 3324.900;    0.000;    0.000
450.462; 3297.900;    0.000;    0.000
450.508; 3182.900;    0.000;    0.000
450.555; 3093.900;    0.000;    0.000
450.601; 3155.900;    0.000;    0.000
450.648; 3047.900;    0.000;    0.000
450.694; 3048.900;    0.000;    0.000
450.741; 2982.900;    0.000;    0.000
450.787; 2970.900;    0.000;    0.000
450.834; 2967.900;    0.000;    0.000
450.880; 2947.900;    0.000;    0.000
450.927; 2959.900;    0.000;    0.000
450.973; 2920.900;    0.000;    0.000
451.019; 3016.900;    0.000;    0.000
451.066; 3023.900;    0.000;    0.000
451.112; 3137.900;    0.000;    0.000
451.159; 3183.900;    0.000;    0.000
451.205; 3625.900;    0.000;    0.000
451.251; 3959.900;    0.000;    0.000
451.298; 3785.900;    0.000;    0.000
451.344; 3380.900;    0.000;    0.000
451.390; 3009.900;    0.000;    0.000
451.437; 2852.900;    0.000;    0.000
451.483; 2875.900;    0.000;    0.000
451.529; 2912.900;    0.000;    0.000
451.576; 2895.900;    0.000;    0.000
451.622; 2832.900;    0.000;    0.000
451.668; 3107.900;    0.000;    0.000
451.714; 3691.900;    0.000;    0.000
451.761; 4207.900;    0.000;    0.000
451.807; 4531.900;    0.000;    0.000
451.853; 3885.900;    0.000;    0.000
451.899; 3275.900;    0.000;    0.000
451.945; 3011.900;    0.000;    0.000
451.992; 2965.900;    0.000;    0.000
452.038; 2889.900;    0.000;    0.000
452.084; 2998.900;    0.000;    0.000
452.130; 3071.900;    0.000;    0.000
452.176; 3365.900;    0.000;    0.000
452.222; 3984.900;    0.000;    0.000
452.268; 4288.900;    0.000;    0.000
452.315; 3996.900;    0.000;    0.000
452.361; 3251.900;    0.000;    0.000
452.407; 2956.900;    0.000;    0.000
452.453; 3003.900;    0.000;    0.000
452.499; 2985.900;    0.000;    0.000
452.545; 2967.900;    0.000;    0.000
452.591; 3249.900;    0.000;    0.000
452.637; 3437.900;    0.000;    0.000
452.683; 3893.900;    0.000;    0.000
452.729; 4086.900;    0.000;    0.000
452.775; 3761.900;    0.000;    0.000
452.821; 3394.900;    0.000;    0.000
452.867; 3332.900;    0.000;    0.000
452.913; 3550.900;    0.000;    0.000
452.959; 3546.900;    0.000;    0.000
453.005; 3558.900;    0.000;    0.000
453.051; 3552.900;    0.000;    0.000
453.097; 3659.900;    0.000;    0.000
453.142; 4020.900;    0.000;    0.000
453.188; 5074.900;    0.000;    0.000
453.234; 7060.900;    0.000;    0.000
453.280;10221.900;    0.000;    0.000
453.326;13075.900;    0.000;    0.000
453.372;14197.900;    0.000;    0.000
453.418;13742.900;    0.000;    0.000
453.463;12553.900;    0.000;    0.000
453.509;12240.900;    0.000;    0.000
453.555;11337.900;    0.000;    0.000
453.601; 9456.900;    0.000;    0.000
453.647; 6950.900;    0.000;    0.000
453.692; 4716.900;    0.000;    0.000
453.738; 3957.900;    0.000;    0.000
453.784; 3666.900;    0.000;    0.000
453.829; 3605.900;    0.000;    0.000
453.875; 3384.900;    0.000;    0.000
453.921; 3393.900;    0.000;    0.000
453.967; 3318.900;    0.000;    0.000
454.012; 3288.900;    0.000;    0.000
454.058; 3260.900;    0.000;    0.000
454.104; 3203.900;    0.000;    0.000
454.149; 3080.900;    0.000;    0.000
454.195; 3168.900;    0.000;    0.000
454.240; 3217.900;    0.000;    0.000
454.286; 3175.900;    0.000;    0.000
454.332; 3355.900;    0.000;    0.000
454.377; 3779.900;    0.000;    0.000
454.423; 4145.900;    0.000;    0.000
454.468; 4512.900;    0.000;    0.000
454.514; 4195.900;    0.000;    0.000
454.559; 3701.900;    0.000;    0.000
454.605; 3607.900;    0.000;    0.000
454.650; 3800.900;    0.000;    0.000
454.696; 4243.900;    0.000;    0.000
454.741; 4843.900;    0.000;    0.000
454.787; 5994.900;    0.000;    0.000
454.832; 7947.900;    0.000;    0.000
454.878;11387.900;    0.000;    0.000
454.923;14161.900;    0.000;    0.000
454.969;14129.900;    0.000;    0.000
455.014;11866.900;    0.000;    0.000
455.060; 8731.900;    0.000;    0.000
455.105; 6735.900;    0.000;    0.000
455.150; 6126.900;    0.000;    0.000
455.196; 5962.900;    0.000;    0.000
455.241; 5888.900;    0.000;    0.000
455.286; 5157.900;    0.000;    0.000
455.332; 4217.900;    0.000;    0.000
455.377; 3816.900;    0.000;    0.000
455.422; 3764.900;    0.000;    0.000
455.468; 4301.900;    0.000;    0.000
455.513; 4550.900;    0.000;    0.000
455.558; 4310.900;    0.000;    0.000
455.604; 3921.900;    0.000;    0.000
455.649; 3349.900;    0.000;    0.000
455.694; 3232.900;    0.000;    0.000
455.739; 3202.900;    0.000;    0.000
455.785; 3280.900;    0.000;    0.000
455.830; 3118.900;    0.000;    0.000
455.875; 3138.900;    0.000;    0.000
455.920; 3233.900;    0.000;    0.000
455.965; 3204.900;    0.000;    0.000
456.010; 3295.900;    0.000;    0.000
456.056; 3272.900;    0.000;    0.000
456.101; 3352.900;    0.000;    0.000
456.146; 3606.900;    0.000;    0.000
456.191; 3919.900;    0.000;    0.000
456.236; 4617.900;    0.000;    0.000
456.281; 5909.900;    0.000;    0.000
456.326; 7481.900;    0.000;    0.000
456.371; 7910.900;    0.000;    0.000
456.416; 6875.900;    0.000;    0.000
456.461; 5074.900;    0.000;    0.000
456.507; 4188.900;    0.000;    0.000
456.552; 3764.900;    0.000;    0.000
456.597; 3550.900;    0.000;    0.000
456.642; 3525.900;    0.000;    0.000
456.687; 3412.900;    0.000;    0.000
456.732; 3449.900;    0.000;    0.000
456.776; 3471.900;    0.000;    0.000
456.821; 3484.900;    0.000;    0.000
456.866; 3642.900;    0.000;    0.000
456.911; 3819.900;    0.000;    0.000
456.956; 4108.900;    0.000;    0.000
457.001; 4519.900;    0.000;    0.000
457.046; 5627.900;    0.000;    0.000
457.091; 7834.900;    0.000;    0.000
457.136;10927.900;    0.000;    0.000
457.181;12553.900;    0.000;    0.000
457.225;11895.900;    0.000;    0.000
457.270; 9257.900;    0.000;    0.000
457.315; 6856.900;    0.000;    0.000
457.360; 5341.900;    0.000;    0.000
457.405; 4688.900;    0.000;    0.000
457.450; 4217.900;    0.000;    0.000
457.494; 3928.900;    0.000;    0.000
457.539; 3713.900;    0.000;    0.000
457.584; 3590.900;    0.000;    0.000
457.629; 3363.900;    0.000;    0.000
457.673; 3354.900;    0.000;    0.000
457.718; 3357.900;    0.000;    0.000
457.763; 3144.900;    0.000;    0.000
457.807; 3218.900;    0.000;    0.000
457.852; 3013.900;    0.000;    0.000
457.897; 3086.900;    0.000;    0.000
457.941; 3122.900;    0.000;    0.000
457.986; 3023.900;    0.000;    0.000
458.031; 3066.900;    0.000;    0.000
458.075; 2956.900;    0.000;    0.000
458.120; 3030.900;    0.000;    0.000
458.165; 2824.900;    0.000;    0.000
458.209; 2959.900;    0.000;    0.000
458.254; 2916.900;    0.000;    0.000
458.298; 2823.900;    0.000;    0.000
458.343; 2960.900;    0.000;    0.000
458.387; 2927.900;    0.000;    0.000
458.432; 2975.900;    0.000;    0.000
458.476; 2855.900;    0.000;    0.000
458.521; 2979.900;    0.000;    0.000
458.565; 3025.900;    0.000;    0.000
458.610; 3017.900;    0.000;    0.000
458.654; 3089.900;    0.000;    0.000
458.699; 2993.900;    0.000;    0.000
458.743; 3049.900;    0.000;    0.000
458.788; 3054.900;    0.000;    0.000
458.832; 3106.900;    0.000;    0.000
458.877; 3184.900;    0.000;    0.000
458.921; 3402.900;    0.000;    0.000
458.965; 3736.900;    0.000;    0.000
459.010; 3694.900;    0.000;    0.000
459.054; 3444.900;    0.000;    0.000
459.099; 3187.900;    0.000;    0.000
459.143; 3188.900;    0.000;    0.000
459.187; 3005.900;    0.000;    0.000
459.231; 3028.900;    0.000;    0.000
459.276; 3009.900;    0.000;    0.000
459.320; 3033.900;    0.000;    0.000
459.364; 3025.900;    0.000;    0.000
459.409; 3038.900;    0.000;    0.000
459.453; 3025.900;    0.000;    0.000
459.497; 3010.900;    0.000;    0.000
459.541; 2976.900;    0.000;    0.000
459.586; 2936.900;    0.000;    0.000
459.630; 3000.900;    0.000;    0.000
459.674; 2962.900;    0.000;    0.000
459.718; 3022.900;    0.000;    0.000
459.762; 2969.900;    0.000;    0.000
459.807; 3065.900;    0.000;    0.000
459.851; 3023.900;    0.000;    0.000
459.895; 3114.900;    0.000;    0.000
459.939; 3196.900;    0.000;    0.000
459.983; 3096.900;    0.000;    0.000
460.027; 3132.900;    0.000;    0.000
460.071; 3077.900;    0.000;    0.000
460.115; 3008.900;    0.000;    0.000
460.159; 3111.900;    0.000;    0.000
460.204; 3085.900;    0.000;    0.000
460.248; 3047.900;    0.000;    0.000
460.292; 3102.900;    0.000;    0.000
460.336; 3015.900;    0.000;    0.000
460.380; 3057.900;    0.000;    0.000
460.424; 2926.900;    0.000;    0.000
460.468; 3073.900;    0.000;    0.000
460.512; 3016.900;    0.000;    0.000
460.556; 3059.900;    0.000;    0.000
460.599; 3008.900;    0.000;    0.000
460.643; 3008.900;    0.000;    0.000
460.687; 3128.900;    0.000;    0.000
460.731; 3023.900;    0.000;    0.000
460.775; 3025.900;    0.000;    0.000
460.819; 3067.900;    0.000;    0.000
460.863; 3037.900;    0.000;    0.000
460.907; 2995.900;    0.000;    0.000
460.951; 3041.900;    0.000;    0.000
460.995; 3088.900;    0.000;    0.000
461.038; 2911.900;    0.000;    0.000
461.082; 3022.900;    0.000;    0.000
461.126; 3069.900;    0.000;    0.000
461.170; 2958.900;    0.000;    0.000
461.214; 3013.900;    0.000;    0.000
461.257; 2979.900;    0.000;    0.000
461.301; 3076.900;    0.000;    0.000
461.345; 3052.900;    0.000;    0.000
461.389; 2998.900;    0.000;    0.000
461.432; 2976.900;    0.000;    0.000
461.476; 3083.900;    0.000;    0.000
461.520; 3111.900;    0.000;    0.000
461.563; 3279.900;    0.000;    0.000
461.607; 3602.900;    0.000;    0.000
461.651; 4401.900;    0.000;    0.000
461.694; 4937.900;    0.000;    0.000
461.738; 4815.900;    0.000;    0.000
461.782; 4109.900;    0.000;    0.000
461.825; 3460.900;    0.000;    0.000
461.869; 3304.900;    0.000;    0.000
461.913; 3192.900;    0.000;    0.000
461.956; 3183.900;    0.000;    0.000
462.000; 3134.900;    0.000;    0.000
462.043; 3149.900;    0.000;    0.000
462.087; 3223.900;    0.000;    0.000
462.130; 3275.900;    0.000;    0.000
462.174; 3337.900;    0.000;    0.000
462.217; 3764.900;    0.000;    0.000
462.261; 4120.900;    0.000;    0.000
462.304; 4163.900;    0.000;    0.000
462.348; 3939.900;    0.000;    0.000
462.391; 3578.900;    0.000;    0.000
462.435; 3309.900;    0.000;    0.000
462.478; 3207.900;    0.000;    0.000
462.522; 3097.900;    0.000;    0.000
462.565; 3139.900;    0.000;    0.000
462.608; 3212.900;    0.000;    0.000
462.652; 3300.900;    0.000;    0.000
462.695; 3271.900;    0.000;    0.000
462.739; 3286.900;    0.000;    0.000
462.782; 3371.900;    0.000;    0.000
462.825; 3461.900;    0.000;    0.000
462.869; 3775.900;    0.000;    0.000
462.912; 3937.900;    0.000;    0.000
462.955; 3876.900;    0.000;    0.000
462.998; 3671.900;    0.000;    0.000
463.042; 3514.900;    0.000;    0.000
463.085; 3443.900;    0.000;    0.000
463.128; 3454.900;    0.000;    0.000
463.172; 3293.900;    0.000;    0.000
463.215;  397.900;    0.000;    0.000
463.258;  324.900;    0.000;    0.000
463.301;  333.900;    0.000;    0.000
463.344;  316.900;    0.000;    0.000
463.388;  316.900;    0.000;    0.000
463.431;  322.900;    0.000;    0.000
463.474;  349.900;    0.000;    0.000
463.517;  316.900;    0.000;    0.000
463.560;  321.900;    0.000;    0.000
463.603;  331.900;    0.000;    0.000
463.646;  358.900;    0.000;    0.000
463.690;  332.900;    0.000;    0.000
463.733;  345.900;    0.000;    0.000
463.776;  316.900;    0.000;    0.000
463.819;  339.900;    0.000;    0.000
463.862;  296.900;    0.000;    0.000

