
Integration time [ms]:   0.300
Averaging Nr. [scans]: 1
Smoothing Nr. [pixels]: 0
Data measured with spectrometer [name]: NIR
Wave   ;Sample   ;Dark     ;Reference
[nm]   ;[counts] ;[counts] ;[counts] 

691.496;   18.050;  102.875;    0.000
691.696;   27.050;  181.875;    0.000
691.896;   21.050;  138.875;    0.000
692.096;   31.050;  182.875;    0.000
692.296;    4.050;  145.875;    0.000
692.496;   71.050;  154.875;    0.000
692.695;   44.050;  108.875;    0.000
692.895;   61.050;  176.875;    0.000
693.095;   28.050;  138.875;    0.000
693.295;   50.050;  192.875;    0.000
693.495;   34.050;  170.875;    0.000
693.695;   48.050;  147.875;    0.000
693.894;   29.050;  191.875;    0.000
694.094;   32.050;  148.875;    0.000
694.294;   19.050;  147.875;    0.000
694.494;  343.050;  140.875;    0.000
694.693; 2846.050;  137.875;    0.000
694.893; 3113.050;  141.875;    0.000
695.093; 3188.050;  105.875;    0.000
695.293; 3222.050;  115.875;    0.000
695.492; 3254.050;   81.875;    0.000
695.692; 3201.050;  162.875;    0.000
695.891; 3231.050;  162.875;    0.000
696.091; 3230.050;  166.875;    0.000
696.291; 3245.050;  143.875;    0.000
696.490; 3305.050;  170.875;    0.000
696.690; 3259.050;  142.875;    0.000
696.889; 3290.050;  186.875;    0.000
697.089; 3331.050;  120.875;    0.000
697.288; 3397.050;  215.875;    0.000
697.488; 3367.050;  178.875;    0.000
697.687; 3354.050;  170.875;    0.000
697.887; 3287.050;  140.875;    0.000
698.086; 3328.050;  131.875;    0.000
698.286; 3339.050;  117.875;    0.000
698.485; 3418.050;  136.875;    0.000
698.684; 3247.050;  126.875;    0.000
698.884; 3390.050;  161.875;    0.000
699.083; 3266.050;   95.875;    0.000
699.282; 3358.050;  120.875;    0.000
699.482; 3347.050;  131.875;    0.000
699.681; 3376.050;  168.875;    0.000
699.880; 3399.050;  154.875;    0.000
700.080; 3429.050;  149.875;    0.000
700.279; 3293.050;   99.875;    0.000
700.478; 3376.050;  157.875;    0.000
700.677; 3320.050;  111.875;    0.000
700.877; 3442.050;  126.875;    0.000
701.076; 3433.050;  142.875;    0.000
701.275; 3335.050;  107.875;    0.000
701.474; 3374.050;   72.875;    0.000
701.673; 3422.050;   87.875;    0.000
701.872; 3417.050;  170.875;    0.000
702.071; 3373.050;  136.875;    0.000
702.271; 3434.050;  121.875;    0.000
702.470; 3455.050;  139.875;    0.000
702.669; 3365.050;  121.875;    0.000
702.868; 3529.050;  146.875;    0.000
703.067; 3459.050;  159.875;    0.000
703.266; 3481.050;  122.875;    0.000
703.465; 3552.050;  121.875;    0.000
703.664; 3421.050;  144.875;    0.000
703.863; 3409.050;  140.875;    0.000
704.062; 3434.050;  109.875;    0.000
704.260; 3457.050;  164.875;    0.000
704.459; 3462.050;  124.875;    0.000
704.658; 3509.050;  109.875;    0.000
704.857; 3475.050;  149.875;    0.000
705.056; 3501.050;  112.875;    0.000
705.255; 3487.050;   95.875;    0.000
705.454; 3441.050;  105.875;    0.000
705.652; 3443.050;  134.875;    0.000
705.851; 3544.050;   92.875;    0.000
706.050; 3507.050;  127.875;    0.000
706.249; 3510.050;  111.875;    0.000
706.447; 3539.050;   98.875;    0.000
706.646; 3416.050;  108.875;    0.000
706.845; 3518.050;   95.875;    0.000
707.043; 3512.050;   95.875;    0.000
707.242; 3511.050;   97.875;    0.000
707.441; 3620.050;  142.875;    0.000
707.639; 3604.050;  121.875;    0.000
707.838; 3453.050;  141.875;    0.000
708.037; 3522.050;  125.875;    0.000
708.235; 3600.050;  100.875;    0.000
708.434; 3670.050;  106.875;    0.000
708.632; 3616.050;   86.875;    0.000
708.831; 3647.050;  138.875;    0.000
709.029; 3723.050;   86.875;    0.000
709.228; 3698.050;  103.875;    0.000
709.426; 3755.050;  146.875;    0.000
709.625; 3610.050;  136.875;    0.000
709.823; 3606.050;  114.875;    0.000
710.022; 3626.050;  144.875;    0.000
710.220; 3619.050;  109.875;    0.000
710.418; 3810.050;  116.875;    0.000
710.617; 3725.050;   67.875;    0.000
710.815; 3671.050;  104.875;    0.000
711.013; 3731.050;  109.875;    0.000
711.212; 3696.050;  106.875;    0.000
711.410; 3763.050;   95.875;    0.000
711.608; 3879.050;  155.875;    0.000
711.807; 3826.050;  103.875;    0.000
712.005; 3728.050;  104.875;    0.000
712.203; 3754.050;   94.875;    0.000
712.401; 3726.050;  125.875;    0.000
712.599; 3836.050;  127.875;    0.000
712.798; 3755.050;  141.875;    0.000
712.996; 3766.050;   85.875;    0.000
713.194; 3819.050;   96.875;    0.000
713.392; 3801.050;   54.875;    0.000
713.590; 3862.050;  123.875;    0.000
713.788; 3844.050;  130.875;    0.000
713.986; 3873.050;  104.875;    0.000
714.184; 3884.050;   91.875;    0.000
714.382; 4021.050;  120.875;    0.000
714.580; 3861.050;   71.875;    0.000
714.778; 4084.050;   92.875;    0.000
714.976; 4191.050;  129.875;    0.000
715.174; 4260.050;   99.875;    0.000
715.372; 4365.050;  119.875;    0.000
715.570; 4653.050;   95.875;    0.000
715.768; 4980.050;  113.875;    0.000
715.966; 5040.050;   64.875;    0.000
716.164; 4894.050;  135.875;    0.000
716.362; 4823.050;  125.875;    0.000
716.560; 4573.050;  135.875;    0.000
716.758; 4456.050;   84.875;    0.000
716.955; 4464.050;  109.875;    0.000
717.153; 4417.050;   73.875;    0.000
717.351; 4328.050;  110.875;    0.000
717.549; 4339.050;  149.875;    0.000
717.746; 4338.050;  121.875;    0.000
717.944; 4308.050;  128.875;    0.000
718.142; 4223.050;  124.875;    0.000
718.340; 4192.050;   96.875;    0.000
718.537; 4190.050;  138.875;    0.000
718.735; 4257.050;  144.875;    0.000
718.933; 4284.050;   97.875;    0.000
719.130; 4192.050;  109.875;    0.000
719.328; 4214.050;  123.875;    0.000
719.525; 4185.050;  118.875;    0.000
719.723; 4149.050;  117.875;    0.000
719.920; 4138.050;   72.875;    0.000
720.118; 4172.050;   92.875;    0.000
720.316; 4177.050;  141.875;    0.000
720.513; 4215.050;   98.875;    0.000
720.711; 4159.050;  146.875;    0.000
720.908; 4173.050;  113.875;    0.000
721.105; 4258.050;  157.875;    0.000
721.303; 4203.050;  106.875;    0.000
721.500; 4220.050;   88.875;    0.000
721.698; 4172.050;   88.875;    0.000
721.895; 4195.050;   94.875;    0.000
722.092; 4163.050;   82.875;    0.000
722.290; 4188.050;  136.875;    0.000
722.487; 4316.050;   67.875;    0.000
722.684; 4166.050;  115.875;    0.000
722.882; 4306.050;  104.875;    0.000
723.079; 4210.050;  122.875;    0.000
723.276; 4328.050;   91.875;    0.000
723.473; 4146.050;   89.875;    0.000
723.671; 4203.050;   97.875;    0.000
723.868; 4381.050;  117.875;    0.000
724.065; 4321.050;  102.875;    0.000
724.262; 4156.050;  137.875;    0.000
724.459; 4261.050;   48.875;    0.000
724.656; 4328.050;  122.875;    0.000
724.854; 4401.050;   96.875;    0.000
725.051; 4367.050;  120.875;    0.000
725.248; 4340.050;  146.875;    0.000
725.445; 4357.050;  117.875;    0.000
725.642; 4228.050;  106.875;    0.000
725.839; 4429.050;  143.875;    0.000
726.036; 4366.050;   79.875;    0.000
726.233; 4404.050;   90.875;    0.000
726.430; 4359.050;  124.875;    0.000
726.627; 4384.050;   98.875;    0.000
726.824; 4291.050;   91.875;    0.000
727.021; 4421.050;  131.875;    0.000
727.218; 4226.050;  110.875;    0.000
727.414; 4450.050;   83.875;    0.000
727.611; 4494.050;   86.875;    0.000
727.808; 4392.050;  131.875;    0.000
728.005; 4309.050;  105.875;    0.000
728.202; 4373.050;  128.875;    0.000
728.399; 4331.050;  113.875;    0.000
728.595; 4375.050;  102.875;    0.000
728.792; 4388.050;   91.875;    0.000
728.989; 4357.050;  122.875;    0.000
729.186; 4401.050;  103.875;    0.000
729.382; 4334.050;  106.875;    0.000
729.579; 4492.050;  114.875;    0.000
729.776; 4332.050;  115.875;    0.000
729.972; 4339.050;  108.875;    0.000
730.169; 4385.050;  111.875;    0.000
730.366; 4383.050;  100.875;    0.000
730.562; 4508.050;   86.875;    0.000
730.759; 4310.050;   93.875;    0.000
730.955; 4466.050;  127.875;    0.000
731.152; 4371.050;   99.875;    0.000
731.348; 4342.050;   97.875;    0.000
731.545; 4470.050;   98.875;    0.000
731.741; 4389.050;  130.875;    0.000
731.938; 4511.050;  115.875;    0.000
732.134; 4538.050;  107.875;    0.000
732.331; 4355.050;   80.875;    0.000
732.527; 4651.050;  108.875;    0.000
732.724; 4475.050;  104.875;    0.000
732.920; 4494.050;  109.875;    0.000
733.116; 4481.050;  117.875;    0.000
733.313; 4478.050;   81.875;    0.000
733.509; 4522.050;   87.875;    0.000
733.705; 4570.050;  143.875;    0.000
733.902; 4557.050;   74.875;    0.000
734.098; 4405.050;   90.875;    0.000
734.294; 4477.050;  104.875;    0.000
734.490; 4589.050;  139.875;    0.000
734.687; 4551.050;  113.875;    0.000
734.883; 4631.050;   72.875;    0.000
735.079; 4627.050;  100.875;    0.000
735.275; 4565.050;  113.875;    0.000
735.471; 4503.050;   55.875;    0.000
735.667; 4592.050;  106.875;    0.000
735.863; 4628.050;  131.875;    0.000
736.060; 4494.050;  127.875;    0.000
736.256; 4709.050;   76.875;    0.000
736.452; 4520.050;  127.875;    0.000
736.648; 4686.050;  136.875;    0.000
736.844; 4656.050;  113.875;    0.000
737.040; 4805.050;  125.875;    0.000
737.236; 4665.050;   99.875;    0.000
737.432; 4586.050;   75.875;    0.000
737.628; 4637.050;  155.875;    0.000
737.824; 4700.050;  116.875;    0.000
738.019; 4819.050;   92.875;    0.000
738.215; 4775.050;  113.875;    0.000
738.411; 4871.050;  135.875;    0.000
738.607; 4727.050;   53.875;    0.000
738.803; 4752.050;   79.875;    0.000
738.999; 4710.050;  117.875;    0.000
739.195; 4838.050;  106.875;    0.000
739.390; 5014.050;  125.875;    0.000
739.586; 4950.050;  102.875;    0.000
739.782; 4928.050;  125.875;    0.000
739.978; 4851.050;  124.875;    0.000
740.173; 4861.050;   96.875;    0.000
740.369; 4929.050;  118.875;    0.000
740.565; 5029.050;  128.875;    0.000
740.760; 5084.050;  118.875;    0.000
740.956; 5080.050;  109.875;    0.000
741.152; 5125.050;  151.875;    0.000
741.347; 5065.050;  112.875;    0.000
741.543; 5075.050;  113.875;    0.000
741.738; 5242.050;  128.875;    0.000
741.934; 5460.050;  144.875;    0.000
742.129; 5857.050;  105.875;    0.000
742.325; 6693.050;  137.875;    0.000
742.520; 7510.050;  128.875;    0.000
742.716; 6979.050;  121.875;    0.000
742.911; 6720.050;   75.875;    0.000
743.107; 6271.050;  100.875;    0.000
743.302; 6277.050;   72.875;    0.000
743.498; 6229.050;  137.875;    0.000
743.693; 6146.050;  124.875;    0.000
743.888; 6748.050;  121.875;    0.000
744.084; 7870.050;   93.875;    0.000
744.279; 9881.050;   75.875;    0.000
744.474;10175.050;  136.875;    0.000
744.670; 8789.050;  109.875;    0.000
744.865; 8010.050;  142.875;    0.000
745.060; 7493.050;   84.875;    0.000
745.255; 7037.050;  149.875;    0.000
745.451; 6848.050;  101.875;    0.000
745.646; 6857.050;  132.875;    0.000
745.841; 6791.050;  126.875;    0.000
746.036; 6815.050;  125.875;    0.000
746.231; 7037.050;  150.875;    0.000
746.426; 7326.050;  118.875;    0.000
746.622; 8639.050;  135.875;    0.000
746.817;11814.050;  122.875;    0.000
747.012;13710.050;  134.875;    0.000
747.207;11981.050;  124.875;    0.000
747.402;10221.050;  122.875;    0.000
747.597; 9318.050;   95.875;    0.000
747.792; 8873.050;  168.875;    0.000
747.987; 8237.050;  110.875;    0.000
748.182; 8053.050;  119.875;    0.000
748.377; 7639.050;   70.875;    0.000
748.572; 7371.050;  113.875;    0.000
748.767; 6923.050;  123.875;    0.000
748.961; 6819.050;  110.875;    0.000
749.156; 6767.050;  135.875;    0.000
749.351; 6450.050;   98.875;    0.000
749.546; 6180.050;  126.875;    0.000
749.741; 6226.050;  129.875;    0.000
749.936; 6140.050;   86.875;    0.000
750.130; 6042.050;   97.875;    0.000
750.325; 5963.050;  110.875;    0.000
750.520; 5976.050;  120.875;    0.000
750.715; 5969.050;  122.875;    0.000
750.909; 5852.050;  120.875;    0.000
751.104; 5903.050;  118.875;    0.000
751.299; 5796.050;  122.875;    0.000
751.493; 5802.050;  129.875;    0.000
751.688; 5875.050;  138.875;    0.000
751.882; 5460.050;   87.875;    0.000
752.077; 5612.050;  142.875;    0.000
752.272; 5528.050;  110.875;    0.000
752.466; 5547.050;  154.875;    0.000
752.661; 5434.050;   96.875;    0.000
752.855; 5434.050;   93.875;    0.000
753.050; 5430.050;  122.875;    0.000
753.244; 5564.050;  110.875;    0.000
753.439; 5224.050;  116.875;    0.000
753.633; 5361.050;  131.875;    0.000
753.828; 5275.050;  130.875;    0.000
754.022; 5281.050;   96.875;    0.000
754.216; 5166.050;  114.875;    0.000
754.411; 5254.050;  145.875;    0.000
754.605; 5161.050;   65.875;    0.000
754.799; 5132.050;  116.875;    0.000
754.994; 5171.050;  117.875;    0.000
755.188; 5199.050;  124.875;    0.000
755.382; 5179.050;   80.875;    0.000
755.576; 5257.050;   90.875;    0.000
755.771; 5262.050;  115.875;    0.000
755.965; 5392.050;  106.875;    0.000
756.159; 5220.050;   87.875;    0.000
756.353; 5206.050;  125.875;    0.000
756.547; 5119.050;  146.875;    0.000
756.742; 5171.050;  111.875;    0.000
756.936; 5146.050;  108.875;    0.000
757.130; 5214.050;  101.875;    0.000
757.324; 5149.050;  114.875;    0.000
757.518; 5158.050;  136.875;    0.000
757.712; 5258.050;  123.875;    0.000
757.906; 5211.050;  115.875;    0.000
758.100; 5191.050;  186.875;    0.000
758.294; 5185.050;  118.875;    0.000
758.488; 5219.050;  167.875;    0.000
758.682; 5189.050;  137.875;    0.000
758.876; 5148.050;  135.875;    0.000
759.070; 5066.050;  132.875;    0.000
759.264; 5089.050;  118.875;    0.000
759.458; 4962.050;  111.875;    0.000
759.651; 5071.050;  142.875;    0.000
759.845; 5054.050;  105.875;    0.000
760.039; 5097.050;   73.875;    0.000
760.233; 5131.050;  156.875;    0.000
760.427; 4997.050;  119.875;    0.000
760.620; 5024.050;  136.875;    0.000
760.814; 5059.050;  126.875;    0.000
761.008; 5075.050;  126.875;    0.000
761.202; 5092.050;  123.875;    0.000
761.395; 5105.050;  141.875;    0.000
761.589; 5070.050;  107.875;    0.000
761.783; 5060.050;  122.875;    0.000
761.976; 5096.050;  120.875;    0.000
762.170; 5026.050;  147.875;    0.000
762.363; 5165.050;  144.875;    0.000
762.557; 5207.050;  119.875;    0.000
762.750; 5188.050;  118.875;    0.000
762.944; 5074.050;  145.875;    0.000
763.138; 5161.050;  123.875;    0.000
763.331; 5149.050;  129.875;    0.000
763.524; 5240.050;  109.875;    0.000
763.718; 5242.050;  150.875;    0.000
763.911; 5233.050;  140.875;    0.000
764.105; 5239.050;   97.875;    0.000
764.298; 5131.050;  128.875;    0.000
764.492; 5152.050;  132.875;    0.000
764.685; 5123.050;   92.875;    0.000
764.878; 5221.050;  111.875;    0.000
765.072; 5148.050;  116.875;    0.000
765.265; 5258.050;  135.875;    0.000
765.458; 5200.050;   69.875;    0.000
765.651; 5258.050;  145.875;    0.000
765.845; 5213.050;   95.875;    0.000
766.038; 5360.050;  147.875;    0.000
766.231; 5609.050;  119.875;    0.000
766.424; 6928.050;  126.875;    0.000
766.617; 7421.050;   92.875;    0.000
766.811; 5547.050;  109.875;    0.000
767.004; 5254.050;  107.875;    0.000
767.197; 5419.050;  171.875;    0.000
767.390; 5390.050;  114.875;    0.000
767.583; 5381.050;  109.875;    0.000
767.776; 5294.050;  130.875;    0.000
767.969; 5247.050;  103.875;    0.000
768.162; 5388.050;  139.875;    0.000
768.355; 5363.050;  142.875;    0.000
768.548; 5401.050;  140.875;    0.000
768.741; 5505.050;   82.875;    0.000
768.934; 5524.050;  107.875;    0.000
769.127; 5594.050;  121.875;    0.000
769.320; 5388.050;  106.875;    0.000
769.513; 5761.050;  145.875;    0.000
769.706; 5821.050;  120.875;    0.000
769.898; 7050.050;  135.875;    0.000
770.091; 6471.050;  146.875;    0.000
770.284; 5624.050;  108.875;    0.000
770.477; 5763.050;  148.875;    0.000
770.670; 5601.050;  163.875;    0.000
770.862; 5749.050;   97.875;    0.000
771.055; 5690.050;  116.875;    0.000
771.248; 5678.050;  143.875;    0.000
771.441; 5814.050;  125.875;    0.000
771.633; 5733.050;  125.875;    0.000
771.826; 5847.050;  132.875;    0.000
772.018; 5941.050;  123.875;    0.000
772.211; 6017.050;  143.875;    0.000
772.404; 6145.050;  144.875;    0.000
772.596; 6269.050;  130.875;    0.000
772.789; 6198.050;  109.875;    0.000
772.981; 6309.050;  151.875;    0.000
773.174; 6535.050;  119.875;    0.000
773.366; 6283.050;  179.875;    0.000
773.559; 6297.050;  106.875;    0.000
773.751; 6685.050;  120.875;    0.000
773.944; 6715.050;  159.875;    0.000
774.136; 6858.050;  131.875;    0.000
774.329; 6994.050;  141.875;    0.000
774.521; 7141.050;  114.875;    0.000
774.713; 7449.050;  169.875;    0.000
774.906; 7478.050;  151.875;    0.000
775.098; 7981.050;   99.875;    0.000
775.290; 8369.050;  166.875;    0.000
775.483; 8771.050;  146.875;    0.000
775.675; 9287.050;  106.875;    0.000
775.867; 9883.050;   91.875;    0.000
776.059;10977.050;  137.875;    0.000
776.251;11955.050;  124.875;    0.000
776.444;13800.050;  168.875;    0.000
776.636;16286.050;  138.875;    0.000
776.828;20616.051;  155.875;    0.000
777.020;29951.051;  160.875;    0.000
777.212;46560.051;  153.875;    0.000
777.404;53022.051;  135.875;    0.000
777.596;49093.051;  144.875;    0.000
777.788;35908.051;  127.875;    0.000
777.980;26218.051;  141.875;    0.000
778.172;20952.051;  138.875;    0.000
778.364;17583.051;  143.875;    0.000
778.556;15251.050;  123.875;    0.000
778.748;13382.050;  103.875;    0.000
778.940;12203.050;  176.875;    0.000
779.132;11156.050;  144.875;    0.000
779.324;10200.050;   75.875;    0.000
779.516; 9472.050;  117.875;    0.000
779.708; 9057.050;  151.875;    0.000
779.900; 8614.050;  127.875;    0.000
780.091; 8254.050;  155.875;    0.000
780.283; 7874.050;  157.875;    0.000
780.475; 7552.050;  140.875;    0.000
780.667; 7371.050;  141.875;    0.000
780.859; 7063.050;  113.875;    0.000
781.050; 7011.050;  153.875;    0.000
781.242; 6871.050;  118.875;    0.000
781.434; 6650.050;  121.875;    0.000
781.625; 6638.050;  146.875;    0.000
781.817; 6282.050;  154.875;    0.000
782.008; 6244.050;  144.875;    0.000
782.200; 6168.050;  152.875;    0.000
782.392; 6025.050;  160.875;    0.000
782.583; 6003.050;  122.875;    0.000
782.775; 5833.050;  144.875;    0.000
782.966; 5766.050;  143.875;    0.000
783.158; 5648.050;  125.875;    0.000
783.349; 5691.050;  173.875;    0.000
783.541; 5514.050;  166.875;    0.000
783.732; 5647.050;  163.875;    0.000
783.924; 5485.050;  157.875;    0.000
784.115; 5642.050;  158.875;    0.000
784.306; 5486.050;  160.875;    0.000
784.498; 5411.050;  132.875;    0.000
784.689; 5410.050;  181.875;    0.000
784.880; 5425.050;  156.875;    0.000
785.072; 5409.050;  134.875;    0.000
785.263; 5479.050;  155.875;    0.000
785.454; 5424.050;  141.875;    0.000
785.645; 5149.050;  114.875;    0.000
785.837; 5253.050;  137.875;    0.000
786.028; 5161.050;  158.875;    0.000
786.219; 5194.050;  135.875;    0.000
786.410; 5122.050;  152.875;    0.000
786.601; 5283.050;  132.875;    0.000
786.792; 5175.050;  152.875;    0.000
786.984; 5109.050;  162.875;    0.000
787.175; 5187.050;   97.875;    0.000
787.366; 5171.050;  129.875;    0.000
787.557; 5170.050;  135.875;    0.000
787.748; 5196.050;  127.875;    0.000
787.939; 5107.050;  152.875;    0.000
788.130; 5110.050;  182.875;    0.000
788.321; 5184.050;  130.875;    0.000
788.512; 5185.050;  161.875;    0.000
788.703; 5262.050;  127.875;    0.000
788.894; 5188.050;  121.875;    0.000
789.084; 5135.050;  134.875;    0.000
789.275; 5186.050;  108.875;    0.000
789.466; 5121.050;  152.875;    0.000
789.657; 5137.050;  115.875;    0.000
789.848; 5152.050;  150.875;    0.000
790.039; 5214.050;  132.875;    0.000
790.229; 5145.050;  169.875;    0.000
790.420; 5183.050;  159.875;    0.000
790.611; 5155.050;  123.875;    0.000
790.801; 5226.050;  144.875;    0.000
790.992; 5189.050;  177.875;    0.000
791.183; 5095.050;  128.875;    0.000
791.373; 5160.050;  123.875;    0.000
791.564; 5192.050;  131.875;    0.000
791.755; 5219.050;  103.875;    0.000
791.945; 5203.050;  104.875;    0.000
792.136; 5148.050;  115.875;    0.000
792.326; 5180.050;   99.875;    0.000
792.517; 5188.050;  139.875;    0.000
792.707; 5170.050;  155.875;    0.000
792.898; 5204.050;  139.875;    0.000
793.088; 5440.050;  153.875;    0.000
793.279; 5382.050;  137.875;    0.000
793.469; 5392.050;  109.875;    0.000
793.660; 5521.050;  119.875;    0.000
793.850; 5754.050;  119.875;    0.000
794.040; 6022.050;  132.875;    0.000
794.231; 6263.050;  122.875;    0.000
794.421; 6824.050;  124.875;    0.000
794.611; 7907.050;  151.875;    0.000
794.802; 9349.050;  121.875;    0.000
794.992;10027.050;  139.875;    0.000
795.182;10358.050;  132.875;    0.000
795.372; 9504.050;  149.875;    0.000
795.563; 8446.050;  153.875;    0.000
795.753; 7601.050;  120.875;    0.000
795.943; 7080.050;  121.875;    0.000
796.133; 6527.050;   97.875;    0.000
796.323; 6308.050;  122.875;    0.000
796.513; 6075.050;  142.875;    0.000
796.703; 5947.050;  125.875;    0.000
796.893; 5862.050;  126.875;    0.000
797.083; 5688.050;  150.875;    0.000
797.273; 5624.050;  108.875;    0.000
797.463; 5504.050;  156.875;    0.000
797.653; 5228.050;   80.875;    0.000
797.843; 5253.050;   88.875;    0.000
798.033; 5144.050;   96.875;    0.000
798.223; 5102.050;  159.875;    0.000
798.413; 5030.050;  155.875;    0.000
798.603; 4946.050;  125.875;    0.000
798.793; 4893.050;  141.875;    0.000
798.983; 4914.050;  113.875;    0.000
799.172; 4931.050;   85.875;    0.000
799.362; 4873.050;  141.875;    0.000
799.552; 4809.050;  122.875;    0.000
799.742; 4905.050;  124.875;    0.000
799.932; 4771.050;  102.875;    0.000
800.121; 4780.050;  146.875;    0.000
800.311; 4817.050;  122.875;    0.000
800.501; 4733.050;  120.875;    0.000
800.690; 4743.050;  141.875;    0.000
800.880; 4596.050;  146.875;    0.000
801.070; 4682.050;  122.875;    0.000
801.259; 4747.050;  138.875;    0.000
801.449; 4795.050;  115.875;    0.000
801.638; 4866.050;  132.875;    0.000
801.828; 4704.050;   92.875;    0.000
802.017; 4761.050;  150.875;    0.000
802.207; 4624.050;  134.875;    0.000
802.396; 4622.050;  133.875;    0.000
802.586; 4671.050;  117.875;    0.000
802.775; 4718.050;  155.875;    0.000
802.965; 4591.050;  132.875;    0.000
803.154; 4588.050;  176.875;    0.000
803.343; 4509.050;  106.875;    0.000
803.533; 4600.050;  154.875;    0.000
803.722; 4591.050;   97.875;    0.000
803.911; 4446.050;  107.875;    0.000
804.101; 4442.050;  145.875;    0.000
804.290; 4585.050;  130.875;    0.000
804.479; 4716.050;  152.875;    0.000
804.668; 4602.050;  160.875;    0.000
804.857; 4479.050;  161.875;    0.000
805.047; 4641.050;  126.875;    0.000
805.236; 4655.050;  136.875;    0.000
805.425; 4616.050;  153.875;    0.000
805.614; 4623.050;  139.875;    0.000
805.803; 4664.050;  144.875;    0.000
805.992; 4675.050;  160.875;    0.000
806.181; 4610.050;  139.875;    0.000
806.370; 4706.050;  104.875;    0.000
806.559; 4678.050;  103.875;    0.000
806.748; 4590.050;  145.875;    0.000
806.937; 4706.050;  151.875;    0.000
807.126; 4681.050;  119.875;    0.000
807.315; 4703.050;  139.875;    0.000
807.504; 4599.050;  143.875;    0.000
807.693; 4711.050;  164.875;    0.000
807.882; 4755.050;  135.875;    0.000
808.071; 4915.050;  131.875;    0.000
808.260; 4626.050;  113.875;    0.000
808.448; 4874.050;  161.875;    0.000
808.637; 4886.050;  125.875;    0.000
808.826; 4808.050;  155.875;    0.000
809.015; 4834.050;  113.875;    0.000
809.203; 4909.050;  152.875;    0.000
809.392; 4889.050;   90.875;    0.000
809.581; 5003.050;  186.875;    0.000
809.770; 4854.050;   99.875;    0.000
809.958; 4907.050;  146.875;    0.000
810.147; 4991.050;  115.875;    0.000
810.335; 5113.050;  122.875;    0.000
810.524; 5182.050;  150.875;    0.000
810.713; 5317.050;  121.875;    0.000
810.901; 5340.050;  156.875;    0.000
811.090; 5460.050;  161.875;    0.000
811.278; 5427.050;  138.875;    0.000
811.467; 5601.050;  184.875;    0.000
811.655; 5829.050;  150.875;    0.000
811.844; 5702.050;  137.875;    0.000
812.032; 5604.050;  142.875;    0.000
812.220; 5616.050;  134.875;    0.000
812.409; 5733.050;  143.875;    0.000
812.597; 5789.050;  164.875;    0.000
812.785; 5857.050;  188.875;    0.000
812.974; 5834.050;  156.875;    0.000
813.162; 5856.050;  166.875;    0.000
813.350; 6087.050;  115.875;    0.000
813.539; 6121.050;  167.875;    0.000
813.727; 6005.050;  165.875;    0.000
813.915; 6271.050;  137.875;    0.000
814.103; 6270.050;  166.875;    0.000
814.291; 6352.050;  151.875;    0.000
814.479; 6451.050;  147.875;    0.000
814.668; 6517.050;  166.875;    0.000
814.856; 6698.050;  160.875;    0.000
815.044; 6773.050;  172.875;    0.000
815.232; 6910.050;  193.875;    0.000
815.420; 7198.050;  173.875;    0.000
815.608; 7281.050;  134.875;    0.000
815.796; 7485.050;  105.875;    0.000
815.984; 7681.050;  125.875;    0.000
816.172; 7941.050;  160.875;    0.000
816.360; 8501.050;  162.875;    0.000
816.548; 8723.050;  160.875;    0.000
816.736; 9221.050;  132.875;    0.000
816.924; 9681.050;  184.875;    0.000
817.111;10071.050;  145.875;    0.000
817.299;11121.050;  132.875;    0.000
817.487;12206.050;  193.875;    0.000
817.675;13767.050;  153.875;    0.000
817.863;16133.050;  153.875;    0.000
818.050;21780.051;  172.875;    0.000
818.238;36935.051;  131.875;    0.000
818.426;52833.051;  160.875;    0.000
818.613;41548.051;  136.875;    0.000
818.801;34011.051;  162.875;    0.000
818.989;32342.051;  153.875;    0.000
819.176;34006.051;  181.875;    0.000
819.364;46067.051;  165.875;    0.000
819.552;63548.051;  111.875;    0.000
819.739;51552.051;  192.875;    0.000
819.927;38719.051;  146.875;    0.000
820.114;32335.051;  154.875;    0.000
820.302;27900.051;  144.875;    0.000
820.489;24948.051;  133.875;    0.000
820.677;22886.051;  135.875;    0.000
820.864;21364.051;  130.875;    0.000
821.052;20984.051;   88.875;    0.000
821.239;20624.051;  143.875;    0.000
821.426;20964.051;  186.875;    0.000
821.614;23443.051;  171.875;    0.000
821.801;24836.051;   90.875;    0.000
821.988;21868.051;  143.875;    0.000
822.176;20554.051;   95.875;    0.000
822.363;20608.051;  148.875;    0.000
822.550;18880.051;  139.875;    0.000
822.737;16712.051;  122.875;    0.000
822.924;15524.050;  171.875;    0.000
823.112;14755.050;  147.875;    0.000
823.299;13922.050;  111.875;    0.000
823.486;12896.050;  161.875;    0.000
823.673;12186.050;  124.875;    0.000
823.860;11750.050;  151.875;    0.000
824.047;11864.050;  145.875;    0.000
824.234;12959.050;  139.875;    0.000
824.421;13204.050;  110.875;    0.000
824.608;11723.050;  145.875;    0.000
824.795;10601.050;  115.875;    0.000
824.982; 9800.050;  148.875;    0.000
825.169; 9112.050;  135.875;    0.000
825.356; 8710.050;  122.875;    0.000
825.543; 8316.050;  142.875;    0.000
825.730; 8051.050;   89.875;    0.000
825.917; 7752.050;  127.875;    0.000
826.104; 7488.050;  187.875;    0.000
826.290; 7321.050;  138.875;    0.000
826.477; 7028.050;  140.875;    0.000
826.664; 6872.050;  106.875;    0.000
826.851; 6562.050;  155.875;    0.000
827.038; 6464.050;  125.875;    0.000
827.224; 6419.050;  126.875;    0.000
827.411; 6222.050;  163.875;    0.000
827.598; 6032.050;  140.875;    0.000
827.784; 5809.050;  117.875;    0.000
827.971; 5764.050;  114.875;    0.000
828.157; 5716.050;  146.875;    0.000
828.344; 5661.050;  161.875;    0.000
828.531; 5606.050;  155.875;    0.000
828.717; 5391.050;  130.875;    0.000
828.904; 5234.050;  138.875;    0.000
829.090; 5348.050;  176.875;    0.000
829.277; 5287.050;  152.875;    0.000
829.463; 5227.050;  139.875;    0.000
829.650; 5112.050;  168.875;    0.000
829.836; 4967.050;  176.875;    0.000
830.022; 5090.050;  159.875;    0.000
830.209; 4952.050;  135.875;    0.000
830.395; 4798.050;  177.875;    0.000
830.581; 4716.050;  125.875;    0.000
830.768; 4764.050;  155.875;    0.000
830.954; 4651.050;  187.875;    0.000
831.140; 4740.050;  135.875;    0.000
831.327; 4619.050;  158.875;    0.000
831.513; 4436.050;  126.875;    0.000
831.699; 4520.050;  167.875;    0.000
831.885; 4366.050;  165.875;    0.000
832.071; 4382.050;  167.875;    0.000
832.257; 4340.050;  144.875;    0.000
832.444; 4172.050;  158.875;    0.000
832.630; 4306.050;  167.875;    0.000
832.816; 4283.050;  150.875;    0.000
833.002; 4243.050;  157.875;    0.000
833.188; 4158.050;  169.875;    0.000
833.374; 4196.050;  144.875;    0.000
833.560; 4213.050;  179.875;    0.000
833.746; 4088.050;  134.875;    0.000
833.932; 3940.050;  150.875;    0.000
834.118; 3957.050;   98.875;    0.000
834.303; 4028.050;  121.875;    0.000
834.489; 4097.050;  179.875;    0.000
834.675; 3982.050;  136.875;    0.000
834.861; 3896.050;  130.875;    0.000
835.047; 3893.050;  132.875;    0.000
835.233; 3740.050;  104.875;    0.000
835.418; 3867.050;  143.875;    0.000
835.604; 3835.050;  127.875;    0.000
835.790; 3788.050;  138.875;    0.000
835.976; 3749.050;  137.875;    0.000
836.161; 3742.050;  155.875;    0.000
836.347; 3636.050;  101.875;    0.000
836.533; 3634.050;  121.875;    0.000
836.718; 3724.050;  150.875;    0.000
836.904; 3675.050;  168.875;    0.000
837.089; 3711.050;  169.875;    0.000
837.275; 3740.050;  172.875;    0.000
837.460; 3587.050;  140.875;    0.000
837.646; 3742.050;  144.875;    0.000
837.831; 3550.050;  137.875;    0.000
838.017; 3756.050;  176.875;    0.000
838.202; 3428.050;  107.875;    0.000
838.388; 3688.050;  181.875;    0.000
838.573; 3621.050;  151.875;    0.000
838.759; 3571.050;  160.875;    0.000
838.944; 3628.050;  121.875;    0.000
839.129; 3528.050;  145.875;    0.000
839.315; 3554.050;  166.875;    0.000
839.500; 3607.050;  143.875;    0.000
839.685; 3690.050;   93.875;    0.000
839.870; 3540.050;  160.875;    0.000
840.056; 3630.050;  132.875;    0.000
840.241; 3621.050;  154.875;    0.000
840.426; 3720.050;  161.875;    0.000
840.611; 3659.050;  186.875;    0.000
840.796; 3674.050;  135.875;    0.000
840.981; 3743.050;  147.875;    0.000
841.166; 3809.050;  138.875;    0.000
841.352; 3808.050;  156.875;    0.000
841.537; 3752.050;  170.875;    0.000
841.722; 3817.050;  143.875;    0.000
841.907; 3746.050;  143.875;    0.000
842.092; 3719.050;  166.875;    0.000
842.277; 3858.050;  113.875;    0.000
842.461; 3998.050;  126.875;    0.000
842.646; 4061.050;  145.875;    0.000
842.831; 4215.050;  193.875;    0.000
843.016; 4276.050;  162.875;    0.000
843.201; 4205.050;  144.875;    0.000
843.386; 4513.050;  160.875;    0.000
843.571; 4743.050;  136.875;    0.000
843.755; 5078.050;  134.875;    0.000
843.940; 5674.050;  136.875;    0.000
844.125; 6329.050;  169.875;    0.000
844.310; 7499.050;  189.875;    0.000
844.494;10024.050;  167.875;    0.000
844.679;14721.050;  184.875;    0.000
844.864;14771.050;  147.875;    0.000
845.048;11603.050;  140.875;    0.000
845.233; 9322.050;  178.875;    0.000
845.418; 7986.050;  145.875;    0.000
845.602; 7047.050;  147.875;    0.000
845.787; 6128.050;  147.875;    0.000
845.971; 5702.050;  165.875;    0.000
846.156; 5195.050;  106.875;    0.000
846.340; 5031.050;  168.875;    0.000
846.525; 4752.050;  155.875;    0.000
846.709; 4598.050;  157.875;    0.000
846.893; 4389.050;  166.875;    0.000
847.078; 4210.050;  138.875;    0.000
847.262; 4016.050;  171.875;    0.000
847.447; 3974.050;  135.875;    0.000
847.631; 3791.050;  136.875;    0.000
847.815; 3899.050;  136.875;    0.000
848.000; 3699.050;  126.875;    0.000
848.184; 3666.050;  131.875;    0.000
848.368; 3561.050;  153.875;    0.000
848.552; 3458.050;  137.875;    0.000
848.736; 3440.050;  151.875;    0.000
848.921; 3408.050;  156.875;    0.000
849.105; 3403.050;  153.875;    0.000
849.289; 3267.050;  180.875;    0.000
849.473; 3257.050;  156.875;    0.000
849.657; 3332.050;  157.875;    0.000
849.841; 3206.050;  147.875;    0.000
850.025; 3220.050;  194.875;    0.000
850.209; 3188.050;  147.875;    0.000
850.393; 3047.050;  141.875;    0.000
850.577; 3078.050;  156.875;    0.000
850.761; 3081.050;  157.875;    0.000
850.945; 3082.050;  128.875;    0.000
851.129; 3122.050;  151.875;    0.000
851.313; 3094.050;  180.875;    0.000
851.497; 3015.050;  123.875;    0.000
851.680; 3073.050;  188.875;    0.000
851.864; 3063.050;  177.875;    0.000
852.048; 3081.050;  163.875;    0.000
852.232; 3029.050;  149.875;    0.000
852.416; 3010.050;  187.875;    0.000
852.599; 2997.050;  169.875;    0.000
852.783; 3102.050;  154.875;    0.000
852.967; 2993.050;  191.875;    0.000
853.150; 2961.050;  170.875;    0.000
853.334; 2947.050;  173.875;    0.000
853.518; 2973.050;  186.875;    0.000
853.701; 2903.050;  142.875;    0.000
853.885; 3065.050;  153.875;    0.000
854.068; 2957.050;  132.875;    0.000
854.252; 3064.050;  184.875;    0.000
854.435; 3049.050;  152.875;    0.000
854.619; 2942.050;  152.875;    0.000
854.802; 2905.050;  164.875;    0.000
854.986; 2945.050;  151.875;    0.000
855.169; 2848.050;  153.875;    0.000
855.353; 2951.050;  183.875;    0.000
855.536; 2961.050;  113.875;    0.000
855.719; 2911.050;  181.875;    0.000
855.903; 2933.050;  159.875;    0.000
856.086; 3042.050;  142.875;    0.000
856.269; 3024.050;  171.875;    0.000
856.452; 3097.050;  132.875;    0.000
856.636; 3208.050;  140.875;    0.000
856.819; 3499.050;  165.875;    0.000
857.002; 3703.050;  170.875;    0.000
857.185; 3476.050;  173.875;    0.000
857.368; 3321.050;  129.875;    0.000
857.552; 3316.050;  151.875;    0.000
857.735; 3314.050;  146.875;    0.000
857.918; 3242.050;  114.875;    0.000
858.101; 3128.050;  152.875;    0.000
858.284; 3199.050;  164.875;    0.000
858.467; 3216.050;  147.875;    0.000
858.650; 3335.050;  146.875;    0.000
858.833; 3409.050;  118.875;    0.000
859.016; 3436.050;  161.875;    0.000
859.199; 3594.050;  135.875;    0.000
859.382; 3930.050;  157.875;    0.000
859.564; 4452.050;  124.875;    0.000
859.747; 4227.050;  154.875;    0.000
859.930; 3998.050;  138.875;    0.000
860.113; 3939.050;  153.875;    0.000
860.296; 3723.050;  180.875;    0.000
860.478; 3536.050;  145.875;    0.000
860.661; 3550.050;  160.875;    0.000
860.844; 3443.050;   96.875;    0.000
861.027; 3418.050;  128.875;    0.000
861.209; 3412.050;  127.875;    0.000
861.392; 3358.050;  126.875;    0.000
861.575; 3543.050;  155.875;    0.000
861.757; 3426.050;  141.875;    0.000
861.940; 3635.050;  181.875;    0.000
862.122; 3620.050;  145.875;    0.000
862.305; 3737.050;  124.875;    0.000
862.487; 3938.050;  151.875;    0.000
862.670; 4187.050;  132.875;    0.000
862.852; 5178.050;  112.875;    0.000
863.035; 6524.050;  116.875;    0.000
863.217; 6401.050;  131.875;    0.000
863.400; 5755.050;  145.875;    0.000
863.582; 5176.050;  147.875;    0.000
863.764; 4805.050;  163.875;    0.000
863.947; 4600.050;  129.875;    0.000
864.129; 4335.050;  159.875;    0.000
864.311; 4228.050;  144.875;    0.000
864.493; 4278.050;  141.875;    0.000
864.676; 4117.050;  159.875;    0.000
864.858; 4016.050;  146.875;    0.000
865.040; 4070.050;  163.875;    0.000
865.222; 4066.050;  133.875;    0.000
865.404; 4077.050;  148.875;    0.000
865.587; 4385.050;  177.875;    0.000
865.769; 4626.050;  172.875;    0.000
865.951; 4557.050;  145.875;    0.000
866.133; 4527.050;  168.875;    0.000
866.315; 4595.050;  147.875;    0.000
866.497; 4529.050;  164.875;    0.000
866.679; 4691.050;  143.875;    0.000
866.861; 4807.050;  170.875;    0.000
867.043; 4942.050;  185.875;    0.000
867.225; 5330.050;  149.875;    0.000
867.407; 5833.050;  143.875;    0.000
867.589; 6760.050;  169.875;    0.000
867.770; 8396.050;  166.875;    0.000
867.952;12083.050;  158.875;    0.000
868.134;16835.051;  170.875;    0.000
868.316;16633.051;  157.875;    0.000
868.498;15974.050;  186.875;    0.000
868.679;13602.050;  158.875;    0.000
868.861;11036.050;  180.875;    0.000
869.043; 8964.050;  164.875;    0.000
869.224; 7887.050;  156.875;    0.000
869.406; 6901.050;  176.875;    0.000
869.588; 6483.050;  152.875;    0.000
869.769; 6096.050;  131.875;    0.000
869.951; 6008.050;  203.875;    0.000
870.132; 6098.050;  143.875;    0.000
870.314; 6849.050;  129.875;    0.000
870.495; 7136.050;  175.875;    0.000
870.677; 6340.050;  165.875;    0.000
870.858; 6164.050;  151.875;    0.000
871.040; 6371.050;  155.875;    0.000
871.221; 7377.050;  144.875;    0.000
871.403; 7002.050;  131.875;    0.000
871.584; 6238.050;  174.875;    0.000
871.765; 6342.050;  169.875;    0.000
871.947; 6734.050;  187.875;    0.000
872.128; 6207.050;  181.875;    0.000
872.309; 5257.050;  129.875;    0.000
872.491; 4793.050;  142.875;    0.000
872.672; 4481.050;  158.875;    0.000
872.853; 4317.050;  179.875;    0.000
873.034; 4282.050;  164.875;    0.000
873.215; 4065.050;  168.875;    0.000
873.396; 3677.050;  114.875;    0.000
873.578; 3591.050;  126.875;    0.000
873.759; 3355.050;  177.875;    0.000
873.940; 3277.050;  169.875;    0.000
874.121; 3225.050;  133.875;    0.000
874.302; 3265.050;  164.875;    0.000
874.483; 3112.050;  162.875;    0.000
874.664; 3126.050;  140.875;    0.000
874.845; 3149.050;  124.875;    0.000
875.026; 3071.050;  146.875;    0.000
875.207; 2941.050;  147.875;    0.000
875.388; 2886.050;  174.875;    0.000
875.568; 2857.050;  179.875;    0.000
875.749; 2791.050;  155.875;    0.000
875.930; 2880.050;  166.875;    0.000
876.111; 2829.050;  153.875;    0.000
876.292; 2607.050;  146.875;    0.000
876.472; 2667.050;  167.875;    0.000
876.653; 2666.050;  145.875;    0.000
876.834; 2624.050;  172.875;    0.000
877.015; 2579.050;  184.875;    0.000
877.195; 2588.050;  160.875;    0.000
877.376; 2608.050;  163.875;    0.000
877.556; 2521.050;  164.875;    0.000
877.737; 2542.050;  179.875;    0.000
877.918; 2496.050;  137.875;    0.000
878.098; 2466.050;  117.875;    0.000
878.279; 2494.050;  135.875;    0.000
878.459; 2437.050;  149.875;    0.000
878.640; 2403.050;  171.875;    0.000
878.820; 2432.050;  142.875;    0.000
879.000; 2391.050;  166.875;    0.000
879.181; 2495.050;  177.875;    0.000
879.361; 2415.050;  176.875;    0.000
879.542; 2302.050;  159.875;    0.000
879.722; 2458.050;  122.875;    0.000
879.902; 2422.050;  166.875;    0.000
880.083; 2372.050;  164.875;    0.000
880.263; 2404.050;  139.875;    0.000
880.443; 2459.050;  179.875;    0.000
880.623; 2471.050;  154.875;    0.000
880.803; 2571.050;  160.875;    0.000
880.984; 2524.050;  181.875;    0.000
881.164; 2470.050;  167.875;    0.000
881.344; 2416.050;  141.875;    0.000
881.524; 2610.050;  190.875;    0.000
881.704; 2522.050;  165.875;    0.000
881.884; 2664.050;  144.875;    0.000
882.064; 2867.050;  135.875;    0.000
882.244; 2996.050;  186.875;    0.000
882.424; 2729.050;  150.875;    0.000
882.604; 2565.050;  168.875;    0.000
882.784; 2502.050;  155.875;    0.000
882.964; 2454.050;  137.875;    0.000
883.144; 2404.050;  136.875;    0.000
883.324; 2387.050;  200.875;    0.000
883.504; 2381.050;  203.875;    0.000
883.683; 2313.050;  149.875;    0.000
883.863; 2281.050;  160.875;    0.000
884.043; 2250.050;  161.875;    0.000
884.223; 2258.050;  147.875;    0.000
884.402; 2209.050;  175.875;    0.000
884.582; 2239.050;  188.875;    0.000
884.762; 2359.050;  173.875;    0.000
884.941; 2311.050;  164.875;    0.000
885.121; 2149.050;  147.875;    0.000
885.301; 2187.050;  135.875;    0.000
885.480; 2150.050;  145.875;    0.000
885.660; 2128.050;  144.875;    0.000
885.839; 2160.050;  155.875;    0.000
886.019; 2201.050;  207.875;    0.000
886.198; 2122.050;  165.875;    0.000
886.378; 2133.050;  120.875;    0.000
886.557; 2090.050;  133.875;    0.000
886.737; 2114.050;  119.875;    0.000
886.916; 2103.050;  129.875;    0.000
887.095; 2077.050;  158.875;    0.000
887.275; 2069.050;  169.875;    0.000
887.454; 2095.050;  184.875;    0.000
887.633; 2069.050;  143.875;    0.000
887.813; 2058.050;  154.875;    0.000
887.992; 2067.050;  188.875;    0.000
888.171; 2051.050;  176.875;    0.000
888.350; 2020.050;  161.875;    0.000
888.530; 2061.050;  163.875;    0.000
888.709; 2105.050;  136.875;    0.000
888.888; 1994.050;  177.875;    0.000
889.067; 2074.050;  169.875;    0.000
889.246; 2140.050;  188.875;    0.000
889.425; 2045.050;  187.875;    0.000
889.604; 2077.050;  169.875;    0.000
889.783; 2063.050;  182.875;    0.000
889.962; 2019.050;  112.875;    0.000
890.141; 1990.050;  231.875;    0.000
890.320; 2009.050;  161.875;    0.000
890.499; 2135.050;  164.875;    0.000
890.678; 2032.050;  176.875;    0.000
890.857; 2058.050;  163.875;    0.000
891.036; 2083.050;  161.875;    0.000
891.214; 2007.050;  156.875;    0.000
891.393; 2124.050;  167.875;    0.000
891.572; 2180.050;  163.875;    0.000
891.751; 2107.050;  205.875;    0.000
891.930; 1948.050;  162.875;    0.000
892.108; 1986.050;  153.875;    0.000
892.287; 2050.050;  153.875;    0.000
892.466; 2030.050;  201.875;    0.000
892.644; 2086.050;  158.875;    0.000
892.823; 1998.050;  122.875;    0.000
893.001; 2031.050;  148.875;    0.000
893.180; 1997.050;  142.875;    0.000
893.359; 2015.050;  192.875;    0.000
893.537; 2067.050;  166.875;    0.000
893.716; 2007.050;  144.875;    0.000
893.894; 2030.050;  145.875;    0.000
894.073; 2027.050;  180.875;    0.000
894.251; 2066.050;  165.875;    0.000
894.429; 1992.050;  182.875;    0.000
894.608; 2042.050;  181.875;    0.000
894.786; 2027.050;  180.875;    0.000
894.964; 2000.050;  207.875;    0.000
895.143; 1971.050;  190.875;    0.000
895.321; 2038.050;  206.875;    0.000
895.499; 2079.050;  164.875;    0.000
895.677; 2016.050;  199.875;    0.000
895.856; 2084.050;  203.875;    0.000
896.034; 2018.050;  200.875;    0.000
896.212; 2141.050;  198.875;    0.000
896.390; 2090.050;  161.875;    0.000
896.568; 2080.050;  205.875;    0.000
896.746; 2028.050;  185.875;    0.000
896.924; 2081.050;  179.875;    0.000
897.102; 2151.050;  190.875;    0.000
897.280; 2093.050;  160.875;    0.000
897.458; 2108.050;  196.875;    0.000
897.636; 2038.050;  168.875;    0.000
897.814; 2077.050;  159.875;    0.000
897.992; 2112.050;  216.875;    0.000
898.170; 2009.050;  195.875;    0.000
898.348; 2038.050;  185.875;    0.000
898.526; 2089.050;  199.875;    0.000
898.704; 2165.050;  215.875;    0.000
898.882; 2160.050;  195.875;    0.000
899.059; 2129.050;  197.875;    0.000
899.237; 2201.050;  168.875;    0.000
899.415; 2195.050;  221.875;    0.000
899.593; 2119.050;  171.875;    0.000
899.770; 2154.050;  191.875;    0.000
899.948; 2129.050;  206.875;    0.000
900.125; 2101.050;  175.875;    0.000
900.303; 2174.050;  176.875;    0.000
900.481; 2190.050;  199.875;    0.000
900.658; 2229.050;  217.875;    0.000
900.836; 2175.050;  192.875;    0.000
901.013; 2227.050;  221.875;    0.000
901.191; 2281.050;  203.875;    0.000
901.368; 2249.050;  189.875;    0.000
901.546; 2377.050;  212.875;    0.000
901.723; 2384.050;  189.875;    0.000
901.901; 2380.050;  198.875;    0.000
902.078; 2415.050;  193.875;    0.000
902.255; 2467.050;  176.875;    0.000
902.433; 2473.050;  201.875;    0.000
902.610; 2584.050;  170.875;    0.000
902.787; 2566.050;  164.875;    0.000
902.964; 2556.050;  216.875;    0.000
903.142; 2656.050;  153.875;    0.000
903.319; 2731.050;  204.875;    0.000
903.496; 2662.050;  188.875;    0.000
903.673; 2819.050;  209.875;    0.000
903.850; 2854.050;  173.875;    0.000
904.027; 2954.050;  186.875;    0.000
904.204; 3156.050;  241.875;    0.000
904.381; 3415.050;  187.875;    0.000
904.558; 4036.050;  196.875;    0.000
904.735; 4721.050;  206.875;    0.000
904.912; 4689.050;  228.875;    0.000
905.089; 4776.050;  172.875;    0.000
905.266; 4290.050;  175.875;    0.000
905.443; 3850.050;  239.875;    0.000
905.620; 3493.050;  176.875;    0.000
905.797; 3373.050;  205.875;    0.000
905.974; 3310.050;  187.875;    0.000
906.151; 3251.050;  135.875;    0.000
906.327; 3237.050;  209.875;    0.000
906.504; 3155.050;  145.875;    0.000
906.681; 2997.050;  178.875;    0.000
906.858; 3029.050;  179.875;    0.000
907.034; 2920.050;  221.875;    0.000
907.211; 2781.050;  166.875;    0.000
907.388; 2714.050;  206.875;    0.000
907.564; 2643.050;  150.875;    0.000
907.741; 2609.050;  187.875;    0.000
907.917; 2660.050;  180.875;    0.000
908.094; 2523.050;  206.875;    0.000
908.271; 2449.050;  184.875;    0.000
908.447; 2598.050;  212.875;    0.000
908.623; 2373.050;  193.875;    0.000
908.800; 2374.050;  185.875;    0.000
908.976; 2428.050;  202.875;    0.000
909.153; 2375.050;  175.875;    0.000
909.329; 2411.050;  193.875;    0.000
909.505; 2385.050;  154.875;    0.000
909.682; 2435.050;  188.875;    0.000
909.858; 2344.050;  162.875;    0.000
910.034; 2358.050;  181.875;    0.000
910.211; 2292.050;  142.875;    0.000
910.387; 2213.050;  200.875;    0.000
910.563; 2218.050;  163.875;    0.000
910.739; 2184.050;  156.875;    0.000
910.915; 2139.050;  202.875;    0.000
911.091; 2220.050;  186.875;    0.000
911.268; 2239.050;  167.875;    0.000
911.444; 2211.050;  193.875;    0.000
911.620; 2180.050;  175.875;    0.000
911.796; 2166.050;  168.875;    0.000
911.972; 2120.050;  154.875;    0.000
912.148; 2196.050;  201.875;    0.000
912.324; 2146.050;  146.875;    0.000
912.500; 2266.050;  185.875;    0.000
912.676; 2199.050;  183.875;    0.000
912.851; 2094.050;  204.875;    0.000
913.027; 2154.050;  196.875;    0.000
913.203; 2225.050;  174.875;    0.000
913.379; 2109.050;  210.875;    0.000
913.555; 2164.050;  197.875;    0.000
913.730; 2179.050;  209.875;    0.000
913.906; 2215.050;  169.875;    0.000
914.082; 2159.050;  236.875;    0.000
914.258; 2225.050;  216.875;    0.000
914.433; 2124.050;  212.875;    0.000
914.609; 2124.050;  180.875;    0.000
914.784; 2094.050;  176.875;    0.000
914.960; 2114.050;  227.875;    0.000
915.136; 2147.050;  149.875;    0.000
915.311; 2184.050;  165.875;    0.000
915.487; 2180.050;  167.875;    0.000
915.662; 2129.050;  225.875;    0.000
915.838; 2259.050;  165.875;    0.000
916.013; 2148.050;  188.875;    0.000
916.189; 2144.050;  200.875;    0.000
916.364; 2214.050;  201.875;    0.000
916.539; 2203.050;  240.875;    0.000
916.715; 2152.050;  180.875;    0.000
916.890; 2172.050;  191.875;    0.000
917.065; 2202.050;  211.875;    0.000
917.240; 2215.050;  212.875;    0.000
917.416; 2138.050;  207.875;    0.000
917.591; 2190.050;  189.875;    0.000
917.766; 2134.050;  205.875;    0.000
917.941; 2135.050;  191.875;    0.000
918.116; 2246.050;  195.875;    0.000
918.292; 2143.050;  183.875;    0.000
918.467; 2179.050;  206.875;    0.000
918.642; 2175.050;  190.875;    0.000
918.817; 2214.050;  193.875;    0.000
918.992; 2167.050;  171.875;    0.000
919.167; 2150.050;  191.875;    0.000
919.342; 2138.050;  202.875;    0.000
919.517; 2202.050;  182.875;    0.000
919.692; 2187.050;  190.875;    0.000
919.867; 2144.050;  221.875;    0.000
920.041; 2193.050;  195.875;    0.000
920.216; 2261.050;  226.875;    0.000
920.391; 2327.050;  230.875;    0.000
920.566; 2236.050;  210.875;    0.000
920.741; 2358.050;  204.875;    0.000
920.915; 2445.050;  213.875;    0.000
921.090; 2711.050;  194.875;    0.000
921.265; 3226.050;  234.875;    0.000
921.439; 3684.050;  228.875;    0.000
921.614; 3349.050;  199.875;    0.000
921.789; 2913.050;  194.875;    0.000
921.963; 2796.050;  236.875;    0.000
922.138; 2665.050;  192.875;    0.000
922.312; 2660.050;  203.875;    0.000
922.487; 2661.050;  207.875;    0.000
922.661; 2865.050;  216.875;    0.000
922.836; 3204.050;  199.875;    0.000
923.010; 3321.050;  179.875;    0.000
923.185; 3104.050;  241.875;    0.000
923.359; 2881.050;  199.875;    0.000
923.534; 2805.050;  227.875;    0.000
923.708; 2978.050;  213.875;    0.000
923.882; 3203.050;  203.875;    0.000
924.057; 2930.050;  194.875;    0.000
924.231; 2819.050;  185.875;    0.000
924.405; 2745.050;  223.875;    0.000
924.579; 2687.050;  196.875;    0.000
924.753; 2666.050;  209.875;    0.000
924.928; 2523.050;  202.875;    0.000
925.102; 2676.050;  184.875;    0.000
925.276; 2717.050;  191.875;    0.000
925.450; 2674.050;  199.875;    0.000
925.624; 2823.050;  190.875;    0.000
925.798; 2952.050;  214.875;    0.000
925.972; 3020.050;  193.875;    0.000
926.146; 3385.050;  191.875;    0.000
926.320; 3585.050;  177.875;    0.000
926.494; 3984.050;  190.875;    0.000
926.668; 4176.050;  182.875;    0.000
926.842; 4328.050;  182.875;    0.000
927.016; 4309.050;  235.875;    0.000
927.190; 4269.050;  234.875;    0.000
927.363; 4216.050;  214.875;    0.000
927.537; 3950.050;  198.875;    0.000
927.711; 3846.050;  154.875;    0.000
927.885; 3675.050;  167.875;    0.000
928.058; 3581.050;  210.875;    0.000
928.232; 3534.050;  206.875;    0.000
928.406; 3361.050;  176.875;    0.000
928.579; 3297.050;  182.875;    0.000
928.753; 3318.050;  179.875;    0.000
928.927; 3135.050;  186.875;    0.000
929.100; 3171.050;  188.875;    0.000
929.274; 3073.050;  167.875;    0.000
929.447; 2943.050;  152.875;    0.000
929.621; 2897.050;  195.875;    0.000
929.794; 2946.050;  200.875;    0.000
929.968; 2778.050;  203.875;    0.000
930.141; 2785.050;  237.875;    0.000
930.315; 2652.050;  165.875;    0.000
930.488; 2605.050;  175.875;    0.000
930.661; 2661.050;  173.875;    0.000
930.835; 2609.050;  171.875;    0.000
931.008; 2529.050;  210.875;    0.000
931.181; 2452.050;  206.875;    0.000
931.354; 2447.050;  195.875;    0.000
931.528; 2407.050;  178.875;    0.000
931.701; 2411.050;  179.875;    0.000
931.874; 2415.050;  150.875;    0.000
932.047; 2340.050;  154.875;    0.000
932.220; 2290.050;  185.875;    0.000
932.393; 2376.050;  166.875;    0.000
932.566; 2384.050;  171.875;    0.000
932.739; 2258.050;  196.875;    0.000
932.912; 2310.050;  212.875;    0.000
933.085; 2271.050;  234.875;    0.000
933.258; 2208.050;  212.875;    0.000
933.431; 2246.050;  181.875;    0.000
933.604; 2255.050;  201.875;    0.000
933.777; 2157.050;  201.875;    0.000
933.950; 2208.050;  176.875;    0.000
934.123; 2074.050;  175.875;    0.000
934.296; 2267.050;  174.875;    0.000
934.468; 2188.050;  186.875;    0.000
934.641; 2133.050;  192.875;    0.000
934.814; 2148.050;  187.875;    0.000
934.987; 2145.050;  165.875;    0.000
935.159; 2154.050;  162.875;    0.000
935.332; 2194.050;  210.875;    0.000
935.505; 2115.050;  191.875;    0.000
935.677; 2168.050;  159.875;    0.000
935.850; 2039.050;  170.875;    0.000
936.022; 2029.050;  172.875;    0.000
936.195; 2067.050;  202.875;    0.000
936.367; 2136.050;  179.875;    0.000
936.540; 2208.050;  207.875;    0.000
936.712; 2186.050;  200.875;    0.000
936.885; 2207.050;  219.875;    0.000
937.057; 2146.050;  150.875;    0.000
937.229; 2268.050;  187.875;    0.000
937.402; 2312.050;  169.875;    0.000
937.574; 2313.050;  127.875;    0.000
937.746; 2426.050;  171.875;    0.000
937.919; 2457.050;  176.875;    0.000
938.091; 2554.050;  193.875;    0.000
938.263; 2776.050;  200.875;    0.000
938.435; 3063.050;  181.875;    0.000
938.608; 3523.050;  191.875;    0.000
938.780; 4249.050;  173.875;    0.000
938.952; 4503.050;  184.875;    0.000
939.124; 4442.050;  171.875;    0.000
939.296; 5206.050;  156.875;    0.000
939.468; 5630.050;  147.875;    0.000
939.640; 4741.050;  186.875;    0.000
939.812; 4222.050;  217.875;    0.000
939.984; 3587.050;  155.875;    0.000
940.156; 3363.050;  191.875;    0.000
940.328; 3193.050;  201.875;    0.000
940.500; 3105.050;  176.875;    0.000
940.672; 2971.050;  190.875;    0.000
940.843; 2830.050;  143.875;    0.000
941.015; 2722.050;  189.875;    0.000
941.187; 2531.050;  172.875;    0.000
941.359; 2619.050;  175.875;    0.000
941.531; 2466.050;  154.875;    0.000
941.702; 2557.050;  183.875;    0.000
941.874; 2323.050;  140.875;    0.000
942.046; 2230.050;  177.875;    0.000
942.217; 2234.050;  147.875;    0.000
942.389; 2285.050;  196.875;    0.000
942.560; 2169.050;  163.875;    0.000
942.732; 2180.050;  187.875;    0.000
942.904; 2173.050;  226.875;    0.000
943.075; 2099.050;  159.875;    0.000
943.247; 2057.050;  209.875;    0.000
943.418; 1983.050;  167.875;    0.000
943.589; 2036.050;  195.875;    0.000
943.761; 2009.050;  190.875;    0.000
943.932; 2070.050;  187.875;    0.000
944.104; 1983.050;  194.875;    0.000
944.275; 1962.050;  177.875;    0.000
944.446; 1952.050;  155.875;    0.000
944.617; 1971.050;  176.875;    0.000
944.789; 1919.050;  171.875;    0.000
944.960; 1940.050;  172.875;    0.000
945.131; 1941.050;  158.875;    0.000
945.302; 1924.050;  201.875;    0.000
945.473; 1918.050;  141.875;    0.000
945.645; 1912.050;  197.875;    0.000
945.816; 1992.050;  165.875;    0.000
945.987; 1987.050;  190.875;    0.000
946.158; 2082.050;  158.875;    0.000
946.329; 2067.050;  160.875;    0.000
946.500; 1994.050;  190.875;    0.000
946.671; 1924.050;  152.875;    0.000
946.842; 1838.050;  182.875;    0.000
947.013; 1853.050;  160.875;    0.000
947.183; 1802.050;  203.875;    0.000
947.354; 1715.050;  174.875;    0.000
947.525; 1812.050;  173.875;    0.000
947.696; 1745.050;  170.875;    0.000
947.867; 1751.050;  187.875;    0.000
948.037; 1843.050;  165.875;    0.000
948.208; 1810.050;  154.875;    0.000
948.379; 1880.050;  176.875;    0.000
948.550; 1825.050;  176.875;    0.000
948.720; 1784.050;  169.875;    0.000
948.891; 1838.050;  216.875;    0.000
949.061; 1775.050;  200.875;    0.000
949.232; 1698.050;  163.875;    0.000
949.403; 1781.050;  157.875;    0.000
949.573; 1780.050;  158.875;    0.000
949.744; 1821.050;  213.875;    0.000
949.914; 1690.050;  177.875;    0.000
950.085; 1671.050;  195.875;    0.000
950.255; 1765.050;  166.875;    0.000
950.425; 1698.050;  196.875;    0.000
950.596; 1709.050;  176.875;    0.000
950.766; 1739.050;  228.875;    0.000
950.936; 1698.050;  185.875;    0.000
951.107; 1657.050;  178.875;    0.000
951.277; 1729.050;  227.875;    0.000
951.447; 1723.050;  219.875;    0.000
951.617; 1756.050;  219.875;    0.000
951.788; 1663.050;  198.875;    0.000
951.958; 1687.050;  202.875;    0.000
952.128; 1651.050;  197.875;    0.000
952.298; 1710.050;  211.875;    0.000
952.468; 1750.050;  233.875;    0.000
952.638; 1598.050;  222.875;    0.000
952.808; 1702.050;  210.875;    0.000
952.978; 1726.050;  216.875;    0.000
953.148; 1699.050;  203.875;    0.000
953.318; 1675.050;  212.875;    0.000
953.488; 1555.050;  156.875;    0.000
953.658; 1619.050;  226.875;    0.000
953.828; 1659.050;  223.875;    0.000
953.998; 1600.050;  209.875;    0.000
954.167; 1604.050;  203.875;    0.000
954.337; 1630.050;  209.875;    0.000
954.507; 1602.050;  252.875;    0.000
954.677; 1588.050;  207.875;    0.000
954.846; 1604.050;  240.875;    0.000
955.016; 1554.050;  197.875;    0.000
955.186; 1533.050;  208.875;    0.000
955.355; 1581.050;  243.875;    0.000
955.525; 1546.050;  211.875;    0.000
955.695; 1568.050;  187.875;    0.000
955.864; 1555.050;  204.875;    0.000
956.034; 1545.050;  199.875;    0.000
956.203; 1625.050;  257.875;    0.000
956.373; 1465.050;  193.875;    0.000
956.542; 1504.050;  187.875;    0.000
956.711; 1552.050;  259.875;    0.000
956.881; 1533.050;  227.875;    0.000
957.050; 1589.050;  260.875;    0.000
957.220; 1521.050;  246.875;    0.000
957.389; 1516.050;  211.875;    0.000
957.558; 1520.050;  197.875;    0.000
957.727; 1435.050;  227.875;    0.000
957.897; 1491.050;  219.875;    0.000
958.066; 1477.050;  180.875;    0.000
958.235; 1502.050;  179.875;    0.000
958.404; 1480.050;  194.875;    0.000
958.573; 1474.050;  235.875;    0.000
958.743; 1408.050;  191.875;    0.000
958.912; 1457.050;  181.875;    0.000
959.081; 1481.050;  193.875;    0.000
959.250; 1408.050;  180.875;    0.000
959.419; 1473.050;  205.875;    0.000
959.588; 1494.050;  241.875;    0.000
959.757; 1439.050;  202.875;    0.000
959.926; 1457.050;  212.875;    0.000
960.094; 1430.050;  199.875;    0.000
960.263; 1405.050;  226.875;    0.000
960.432; 1369.050;  188.875;    0.000
960.601; 1396.050;  200.875;    0.000
960.770; 1361.050;  197.875;    0.000
960.939; 1433.050;  195.875;    0.000
961.107; 1365.050;  198.875;    0.000
961.276; 1405.050;  151.875;    0.000
961.445; 1462.050;  227.875;    0.000
961.613; 1387.050;  186.875;    0.000
961.782; 1441.050;  187.875;    0.000
961.951; 1385.050;  194.875;    0.000
962.119; 1399.050;  227.875;    0.000
962.288; 1411.050;  181.875;    0.000
962.456; 1354.050;  206.875;    0.000
962.625; 1389.050;  181.875;    0.000
962.793; 1427.050;  216.875;    0.000
962.962; 1368.050;  237.875;    0.000
963.130; 1336.050;  194.875;    0.000
963.298; 1327.050;  190.875;    0.000
963.467; 1347.050;  204.875;    0.000
963.635; 1416.050;  159.875;    0.000
963.803; 1400.050;  208.875;    0.000
963.972; 1406.050;  206.875;    0.000
964.140; 1420.050;  178.875;    0.000
964.308; 1326.050;  185.875;    0.000
964.477; 1408.050;  189.875;    0.000
964.645; 1360.050;  201.875;    0.000
964.813; 1389.050;  200.875;    0.000
964.981; 1392.050;  160.875;    0.000
965.149; 1439.050;  230.875;    0.000
965.317; 1446.050;  214.875;    0.000
965.485; 1372.050;  190.875;    0.000
965.653; 1411.050;  239.875;    0.000
965.821; 1460.050;  211.875;    0.000
965.989; 1422.050;  216.875;    0.000
966.157; 1427.050;  198.875;    0.000
966.325; 1370.050;  200.875;    0.000
966.493; 1416.050;  187.875;    0.000
966.661; 1390.050;  181.875;    0.000
966.829; 1389.050;  181.875;    0.000
966.996; 1348.050;  220.875;    0.000
967.164; 1355.050;  179.875;    0.000
967.332; 1476.050;  203.875;    0.000
967.500; 1371.050;  200.875;    0.000
967.667; 1393.050;  196.875;    0.000
967.835; 1460.050;  199.875;    0.000
968.003; 1406.050;  191.875;    0.000
968.170; 1354.050;  141.875;    0.000
968.338; 1408.050;  185.875;    0.000
968.505; 1475.050;  199.875;    0.000
968.673; 1368.050;  191.875;    0.000
968.841; 1359.050;  165.875;    0.000
969.008; 1395.050;  192.875;    0.000
969.175; 1360.050;  172.875;    0.000
969.343; 1352.050;  191.875;    0.000
969.510; 1370.050;  199.875;    0.000
969.678; 1374.050;  156.875;    0.000
969.845; 1356.050;  191.875;    0.000
970.012; 1370.050;  205.875;    0.000
970.180; 1394.050;  201.875;    0.000
970.347; 1337.050;  229.875;    0.000
970.514; 1307.050;  207.875;    0.000
970.681; 1388.050;  169.875;    0.000
970.849; 1349.050;  196.875;    0.000
971.016; 1357.050;  212.875;    0.000
971.183; 1367.050;  178.875;    0.000
971.350; 1322.050;  193.875;    0.000
971.517; 1400.050;  190.875;    0.000
971.684; 1377.050;  261.875;    0.000
971.851; 1347.050;  203.875;    0.000
972.018; 1368.050;  184.875;    0.000
972.185; 1305.050;  226.875;    0.000
972.352; 1350.050;  180.875;    0.000
972.519; 1347.050;  226.875;    0.000
972.686; 1356.050;  233.875;    0.000
972.853; 1400.050;  173.875;    0.000
973.020; 1347.050;  208.875;    0.000
973.186; 1269.050;  173.875;    0.000
973.353; 1334.050;  218.875;    0.000
973.520; 1352.050;  218.875;    0.000
973.687; 1328.050;  176.875;    0.000
973.853; 1272.050;  203.875;    0.000
974.020; 1333.050;  196.875;    0.000
974.187; 1245.050;  188.875;    0.000
974.353; 1338.050;  230.875;    0.000
974.520; 1256.050;  195.875;    0.000
974.687; 1282.050;  209.875;    0.000
974.853; 1355.050;  189.875;    0.000
975.020; 1271.050;  179.875;    0.000
975.186; 1329.050;  204.875;    0.000
975.353; 1322.050;  201.875;    0.000
975.519; 1321.050;  200.875;    0.000
975.685; 1296.050;  176.875;    0.000
975.852; 1320.050;  197.875;    0.000
976.018; 1353.050;  201.875;    0.000
976.184; 1275.050;  176.875;    0.000
976.351; 1325.050;  221.875;    0.000
976.517; 1334.050;  203.875;    0.000
976.683; 1320.050;  236.875;    0.000
976.849; 1337.050;  190.875;    0.000
977.016; 1246.050;  173.875;    0.000
977.182; 1355.050;  200.875;    0.000
977.348; 1285.050;  179.875;    0.000
977.514; 1258.050;  159.875;    0.000
977.680; 1273.050;  200.875;    0.000
977.846; 1293.050;  206.875;    0.000
978.012; 1262.050;  219.875;    0.000
978.178; 1265.050;  229.875;    0.000
978.344; 1275.050;  195.875;    0.000
978.510; 1265.050;  209.875;    0.000
978.676; 1279.050;  190.875;    0.000
978.842; 1351.050;  195.875;    0.000
979.008; 1297.050;  186.875;    0.000
979.174; 1262.050;  185.875;    0.000
979.340; 1365.050;  198.875;    0.000
979.505; 1338.050;  214.875;    0.000
979.671; 1348.050;  159.875;    0.000
979.837; 1335.050;  202.875;    0.000
980.003; 1289.050;  190.875;    0.000
980.168; 1311.050;  216.875;    0.000
980.334; 1267.050;  194.875;    0.000
980.499; 1340.050;  229.875;    0.000
980.665; 1388.050;  240.875;    0.000
980.831; 1267.050;  202.875;    0.000
980.996; 1296.050;  179.875;    0.000
981.162; 1304.050;  212.875;    0.000
981.327; 1282.050;  202.875;    0.000
981.493; 1300.050;  219.875;    0.000
981.658; 1344.050;  218.875;    0.000
981.823; 1344.050;  207.875;    0.000
981.989; 1326.050;  207.875;    0.000
982.154; 1391.050;  224.875;    0.000
982.319; 1382.050;  217.875;    0.000
982.485; 1340.050;  266.875;    0.000
982.650; 1364.050;  245.875;    0.000
982.815; 1305.050;  229.875;    0.000
982.980; 1374.050;  203.875;    0.000
983.146; 1379.050;  242.875;    0.000
983.311; 1314.050;  144.875;    0.000
983.476; 1302.050;  222.875;    0.000
983.641; 1283.050;  206.875;    0.000
983.806; 1343.050;  217.875;    0.000
983.971; 1356.050;  254.875;    0.000
984.136; 1353.050;  217.875;    0.000
984.301; 1299.050;  202.875;    0.000
984.466; 1296.050;  206.875;    0.000
984.631; 1304.050;  224.875;    0.000
984.796; 1268.050;  218.875;    0.000
984.961; 1289.050;  202.875;    0.000
985.126; 1304.050;  238.875;    0.000
985.291; 1312.050;  220.875;    0.000
985.455; 1326.050;  223.875;    0.000
985.620; 1186.050;  218.875;    0.000
985.785; 1319.050;  228.875;    0.000
985.950; 1222.050;  212.875;    0.000
986.114; 1290.050;  215.875;    0.000
986.279; 1379.050;  243.875;    0.000
986.444; 1327.050;  222.875;    0.000
986.608; 1346.050;  243.875;    0.000
986.773; 1343.050;  213.875;    0.000
986.937; 1395.050;  267.875;    0.000
987.102; 1332.050;  235.875;    0.000
987.266; 1308.050;  210.875;    0.000
987.431; 1397.050;  239.875;    0.000
987.595; 1306.050;  230.875;    0.000
987.760; 1414.050;  229.875;    0.000
987.924; 1324.050;  217.875;    0.000
988.088; 1304.050;  210.875;    0.000
988.253; 1349.050;  215.875;    0.000
988.417; 1303.050;  186.875;    0.000
988.581; 1297.050;  214.875;    0.000
988.746; 1256.050;  212.875;    0.000
988.910; 1316.050;  192.875;    0.000
989.074; 1307.050;  195.875;    0.000
989.238; 1206.050;  226.875;    0.000
989.402; 1283.050;  214.875;    0.000
989.566; 1304.050;  201.875;    0.000
989.731; 1256.050;  199.875;    0.000
989.895; 1236.050;  205.875;    0.000
990.059; 1173.050;  204.875;    0.000
990.223; 1200.050;  182.875;    0.000
990.387; 1216.050;  220.875;    0.000
990.551; 1240.050;  199.875;    0.000
990.714; 1254.050;  202.875;    0.000
990.878; 1259.050;  201.875;    0.000
991.042; 1250.050;  202.875;    0.000
991.206; 1302.050;  215.875;    0.000
991.370; 1258.050;  217.875;    0.000
991.534; 1261.050;  152.875;    0.000
991.697; 1214.050;  194.875;    0.000
991.861; 1247.050;  208.875;    0.000
992.025; 1259.050;  209.875;    0.000
992.188; 1237.050;  182.875;    0.000
992.352; 1217.050;  181.875;    0.000
992.516; 1207.050;  192.875;    0.000
992.679; 1198.050;  183.875;    0.000
992.843; 1166.050;  156.875;    0.000
993.006; 1199.050;  192.875;    0.000
993.170; 1255.050;  172.875;    0.000
993.333; 1194.050;  195.875;    0.000
993.497; 1203.050;  185.875;    0.000
993.660; 1197.050;  155.875;    0.000
993.824; 1176.050;  199.875;    0.000
993.987; 1188.050;  211.875;    0.000
994.150; 1209.050;  173.875;    0.000
994.314; 1254.050;  202.875;    0.000
994.477; 1143.050;  171.875;    0.000
994.640; 1198.050;  191.875;    0.000
994.803; 1200.050;  203.875;    0.000
994.967; 1221.050;  198.875;    0.000
995.130; 1219.050;  192.875;    0.000
995.293; 1248.050;  211.875;    0.000
995.456; 1225.050;  207.875;    0.000
995.619; 1254.050;  207.875;    0.000
995.782; 1163.050;  186.875;    0.000
995.945; 1218.050;  203.875;    0.000
996.108; 1168.050;  195.875;    0.000
996.271; 1243.050;  195.875;    0.000
996.434; 1283.050;  179.875;    0.000
996.597; 1176.050;  170.875;    0.000
996.760; 1221.050;  161.875;    0.000
996.923; 1200.050;  177.875;    0.000
997.086; 1136.050;  199.875;    0.000
997.248; 1202.050;  225.875;    0.000
997.411; 1206.050;  194.875;    0.000
997.574; 1147.050;  204.875;    0.000
997.737; 1220.050;  236.875;    0.000
997.899; 1218.050;  191.875;    0.000
998.062; 1171.050;  178.875;    0.000
998.225; 1155.050;  176.875;    0.000
998.387; 1222.050;  203.875;    0.000
998.550; 1106.050;  155.875;    0.000
998.712; 1125.050;  169.875;    0.000
998.875; 1168.050;  234.875;    0.000
999.037; 1176.050;  211.875;    0.000
999.200; 1189.050;  185.875;    0.000
999.362; 1219.050;  199.875;    0.000
999.525; 1111.050;  234.875;    0.000
999.687; 1170.050;  194.875;    0.000
999.849; 1188.050;  223.875;    0.000
1000.012; 1193.050;  222.875;    0.000
1000.174; 1184.050;  187.875;    0.000
1000.336; 1190.050;  204.875;    0.000
1000.499; 1223.050;  240.875;    0.000
1000.661; 1216.050;  215.875;    0.000
1000.823; 1187.050;  206.875;    0.000
1000.985; 1222.050;  197.875;    0.000
1001.147; 1231.050;  221.875;    0.000
1001.309; 1202.050;  207.875;    0.000
1001.471; 1200.050;  227.875;    0.000
1001.633; 1208.050;  208.875;    0.000
1001.796; 1199.050;  158.875;    0.000
1001.958; 1204.050;  210.875;    0.000
1002.119; 1209.050;  223.875;    0.000
1002.281; 1230.050;  211.875;    0.000
1002.443; 1222.050;  227.875;    0.000
1002.605; 1282.050;  186.875;    0.000
1002.767; 1444.050;  242.875;    0.000
1002.929; 1399.050;  219.875;    0.000
1003.091; 1415.050;  191.875;    0.000
1003.252; 1483.050;  233.875;    0.000
1003.414; 1559.050;  214.875;    0.000
1003.576; 1546.050;  186.875;    0.000
1003.738; 1670.050;  175.875;    0.000
1003.899; 1794.050;  237.875;    0.000
1004.061; 1838.050;  220.875;    0.000
1004.222; 1840.050;  186.875;    0.000
1004.384; 1921.050;  216.875;    0.000
1004.546; 2057.050;  203.875;    0.000
1004.707; 1963.050;  216.875;    0.000
1004.869; 2197.050;  219.875;    0.000
1005.030; 2098.050;  188.875;    0.000
1005.191; 2015.050;  223.875;    0.000
1005.353; 1957.050;  227.875;    0.000
1005.514; 1904.050;  235.875;    0.000
1005.675; 1901.050;  201.875;    0.000
1005.837; 1829.050;  199.875;    0.000
1005.998; 1818.050;  219.875;    0.000
1006.159; 1731.050;  235.875;    0.000
1006.321; 1714.050;  199.875;    0.000
1006.482; 1769.050;  222.875;    0.000
1006.643; 1757.050;  195.875;    0.000
1006.804; 1843.050;  205.875;    0.000
1006.965; 1864.050;  199.875;    0.000
1007.126; 1853.050;  231.875;    0.000
1007.287; 1937.050;  208.875;    0.000
1007.448; 1901.050;  205.875;    0.000
1007.609; 1880.050;  256.875;    0.000
1007.770; 1894.050;  231.875;    0.000
1007.931; 1835.050;  223.875;    0.000
1008.092; 1847.050;  217.875;    0.000
1008.253; 1947.050;  236.875;    0.000
1008.414; 2000.050;  197.875;    0.000
1008.575; 1967.050;  233.875;    0.000
1008.736; 1968.050;  193.875;    0.000
1008.896; 1988.050;  238.875;    0.000
1009.057; 2046.050;  245.875;    0.000
1009.218; 1894.050;  240.875;    0.000
1009.379; 2032.050;  210.875;    0.000
1009.539; 2046.050;  234.875;    0.000
1009.700; 1994.050;  228.875;    0.000
1009.860; 2071.050;  238.875;    0.000
1010.021; 1975.050;  199.875;    0.000
1010.182; 2078.050;  214.875;    0.000
1010.342; 2197.050;  216.875;    0.000
1010.503; 2189.050;  207.875;    0.000
1010.663; 2276.050;  258.875;    0.000
1010.823; 2334.050;  243.875;    0.000
1010.984; 2473.050;  268.875;    0.000
1011.144; 2485.050;  217.875;    0.000
1011.305; 2563.050;  237.875;    0.000
1011.465; 2810.050;  216.875;    0.000
1011.625; 2783.050;  195.875;    0.000
1011.785; 2785.050;  201.875;    0.000
1011.946; 2783.050;  200.875;    0.000
1012.106; 2812.050;  206.875;    0.000
1012.266; 2711.050;  227.875;    0.000
1012.426; 2612.050;  221.875;    0.000
1012.586; 2609.050;  198.875;    0.000
1012.746; 2778.050;  215.875;    0.000
1012.906; 2580.050;  226.875;    0.000
1013.066; 2520.050;  221.875;    0.000
1013.226; 2484.050;  202.875;    0.000
1013.386; 2519.050;  210.875;    0.000
1013.546; 2561.050;  243.875;    0.000
1013.706; 2372.050;  200.875;    0.000
1013.866; 2406.050;  232.875;    0.000
1014.026; 2410.050;  206.875;    0.000
1014.186; 2422.050;  222.875;    0.000
1014.346; 2415.050;  233.875;    0.000
1014.505; 2424.050;  241.875;    0.000
1014.665; 2509.050;  225.875;    0.000
1014.825; 2401.050;  196.875;    0.000
1014.985; 2403.050;  234.875;    0.000
1015.144; 2418.050;  232.875;    0.000
1015.304; 2590.050;  214.875;    0.000
1015.464; 2541.050;  210.875;    0.000
1015.623; 2427.050;  219.875;    0.000
1015.783; 2482.050;  216.875;    0.000
1015.942; 2783.050;  267.875;    0.000
1016.102; 2857.050;  234.875;    0.000
1016.261; 2653.050;  230.875;    0.000
1016.420; 2856.050;  225.875;    0.000
1016.580; 3033.050;  205.875;    0.000
1016.739; 3106.050;  199.875;    0.000
1016.899; 3063.050;  218.875;    0.000
1017.058; 3113.050;  204.875;    0.000
1017.217; 3516.050;  196.875;    0.000
1017.376; 3313.050;  204.875;    0.000
1017.536; 3007.050;  195.875;    0.000
1017.695; 2982.050;  216.875;    0.000
1017.854; 3093.050;  235.875;    0.000
1018.013; 2962.050;  189.875;    0.000
1018.172; 2687.050;  217.875;    0.000
1018.331; 2742.050;  215.875;    0.000
1018.490; 2775.050;  233.875;    0.000
1018.649; 2871.050;  211.875;    0.000
1018.808; 3015.050;  196.875;    0.000
1018.967; 2998.050;  222.875;    0.000
1019.126; 3097.050;  221.875;    0.000
1019.285; 3120.050;  212.875;    0.000
1019.444; 3214.050;  231.875;    0.000
1019.603; 3038.050;  227.875;    0.000
1019.762; 2731.050;  192.875;    0.000
1019.921; 2843.050;  240.875;    0.000
1020.079; 2976.050;  209.875;    0.000
1020.238; 3223.050;  211.875;    0.000
1020.397; 3135.050;  253.875;    0.000
1020.555; 2892.050;  179.875;    0.000
1020.714; 3026.050;  225.875;    0.000
1020.873; 3366.050;  232.875;    0.000
1021.031; 3246.050;  245.875;    0.000
1021.190; 3078.050;  230.875;    0.000
1021.348; 2948.050;  221.875;    0.000
1021.507; 3237.050;  212.875;    0.000
1021.665; 3525.050;  211.875;    0.000
1021.824; 3287.050;  206.875;    0.000
1021.982; 2881.050;  218.875;    0.000
1022.141; 3016.050;  232.875;    0.000
1022.299; 3477.050;  193.875;    0.000
1022.457; 3529.050;  217.875;    0.000
1022.616; 3262.050;  248.875;    0.000
1022.774; 2907.050;  222.875;    0.000
1022.932; 3056.050;  211.875;    0.000
1023.090; 3399.050;  288.875;    0.000
1023.249; 3563.050;  214.875;    0.000
1023.407; 3237.050;  233.875;    0.000
1023.565; 2982.050;  208.875;    0.000
1023.723; 3184.050;  217.875;    0.000
1023.881; 3592.050;  235.875;    0.000
1024.039; 3632.050;  228.875;    0.000
1024.197; 3157.050;  216.875;    0.000
1024.355; 3045.050;  251.875;    0.000
1024.513; 3170.050;  232.875;    0.000
1024.671; 3528.050;  217.875;    0.000
1024.829; 3682.050;  255.875;    0.000
1024.987; 3203.050;  203.875;    0.000
1025.145; 3011.050;  239.875;    0.000
1025.302; 3223.050;  209.875;    0.000
1025.460; 3532.050;  224.875;    0.000
1025.618; 3713.050;  193.875;    0.000
1025.776; 3546.050;  209.875;    0.000
1025.933; 3176.050;  229.875;    0.000
1026.091; 3218.050;  218.875;    0.000
1026.249; 3578.050;  269.875;    0.000
1026.406; 3869.050;  264.875;    0.000
1026.564; 3701.050;  230.875;    0.000
1026.721; 3432.050;  198.875;    0.000
1026.879; 3305.050;  216.875;    0.000
1027.036; 3561.050;  226.875;    0.000
1027.194; 3947.050;  245.875;    0.000
1027.351; 3857.050;  236.875;    0.000
1027.509; 3646.050;  262.875;    0.000
1027.666; 3265.050;  227.875;    0.000
1027.823; 3569.050;  214.875;    0.000
1027.981; 3890.050;  258.875;    0.000
1028.138; 3949.050;  239.875;    0.000
1028.295; 3647.050;  226.875;    0.000
1028.452; 3469.050;  225.875;    0.000
1028.609; 3319.050;  276.875;    0.000
1028.767; 3749.050;  228.875;    0.000
1028.924; 3903.050;  213.875;    0.000
1029.081; 3954.050;  232.875;    0.000
1029.238; 3805.050;  250.875;    0.000
1029.395; 3592.050;  255.875;    0.000
1029.552; 3587.050;  217.875;    0.000
1029.709; 3804.050;  210.875;    0.000
1029.866; 3977.050;  243.875;    0.000
1030.023; 3963.050;  202.875;    0.000
1030.180; 3790.050;  233.875;    0.000
1030.337; 3600.050;  234.875;    0.000
1030.494; 3744.050;  222.875;    0.000
1030.650; 3859.050;  241.875;    0.000
1030.807; 4100.050;  206.875;    0.000
1030.964; 3911.050;  206.875;    0.000
1031.121; 3734.050;  228.875;    0.000
1031.277; 3616.050;  228.875;    0.000
1031.434; 3656.050;  234.875;    0.000
1031.591; 3864.050;  250.875;    0.000
1031.747; 3954.050;  246.875;    0.000
1031.904; 3943.050;  201.875;    0.000
1032.060; 3778.050;  237.875;    0.000
1032.217; 3842.050;  232.875;    0.000
1032.373; 4086.050;  210.875;    0.000
1032.530; 4145.050;  246.875;    0.000
1032.686; 4544.050;  196.875;    0.000
1032.843; 4587.050;  212.875;    0.000
1032.999; 4385.050;  243.875;    0.000
1033.155; 4493.050;  234.875;    0.000
1033.312; 4529.050;  246.875;    0.000
1033.468; 5128.050;  233.875;    0.000
1033.624; 5534.050;  237.875;    0.000
1033.780; 5797.050;  263.875;    0.000
1033.937; 5871.050;  214.875;    0.000
1034.093; 5733.050;  230.875;    0.000
1034.249; 6000.050;  206.875;    0.000
1034.405; 5763.050;  238.875;    0.000
1034.561; 6033.050;  231.875;    0.000
1034.717; 6296.050;  228.875;    0.000
1034.873; 6079.050;  262.875;    0.000
1035.029; 6414.050;  252.875;    0.000
1035.185; 5906.050;  232.875;    0.000
1035.341; 5771.050;  245.875;    0.000
1035.497; 6366.050;  253.875;    0.000
1035.653; 6548.050;  252.875;    0.000
1035.809; 7205.050;  245.875;    0.000
1035.964; 7263.050;  229.875;    0.000
1036.120; 7002.050;  226.875;    0.000
1036.276; 6981.050;  236.875;    0.000
1036.432; 6940.050;  203.875;    0.000
1036.587; 6797.050;  228.875;    0.000
1036.743; 7338.050;  240.875;    0.000
1036.899; 7641.050;  220.875;    0.000
1037.054; 7495.050;  153.875;    0.000
1037.210; 8088.050;  219.875;    0.000
1037.365; 8103.050;  229.875;    0.000
1037.521; 7815.050;  257.875;    0.000
1037.676; 7801.050;  211.875;    0.000
1037.832; 7140.050;  234.875;    0.000
1037.987; 7156.050;  235.875;    0.000
1038.143; 7596.050;  176.875;    0.000
1038.298; 8092.050;  262.875;    0.000
1038.453; 8099.050;  209.875;    0.000
1038.609; 8654.050;  230.875;    0.000
1038.764; 8928.050;  253.875;    0.000
1038.919; 8444.050;  195.875;    0.000
1039.074; 8714.050;  234.875;    0.000
1039.229; 7878.050;  234.875;    0.000
1039.385; 8021.050;  266.875;    0.000
1039.540; 8526.050;  252.875;    0.000
1039.695; 9104.050;  231.875;    0.000
1039.850; 9763.050;  208.875;    0.000
1040.005;10295.050;  232.875;    0.000
1040.160;11151.050;  214.875;    0.000
1040.315;10993.050;  221.875;    0.000
1040.470;10074.050;  207.875;    0.000
1040.625; 9602.050;  249.875;    0.000
1040.780; 9366.050;  251.875;    0.000
1040.935; 9304.050;  254.875;    0.000
1041.089;10289.050;  210.875;    0.000
1041.244;10823.050;  225.875;    0.000
1041.399;11755.050;  208.875;    0.000
1041.554;12441.050;  249.875;    0.000
1041.708;13288.050;  254.875;    0.000
1041.863;13099.050;  248.875;    0.000
1042.018;12390.050;  280.875;    0.000
1042.172;12536.050;  233.875;    0.000
1042.327;11399.050;  256.875;    0.000
1042.481;11412.050;  210.875;    0.000
1042.636;12054.050;  229.875;    0.000
1042.791;12141.050;  215.875;    0.000
1042.945;13408.050;  256.875;    0.000
1043.099;14958.050;  251.875;    0.000
1043.254;14710.050;  204.875;    0.000
1043.408;16065.050;  278.875;    0.000
1043.563;16263.050;  211.875;    0.000
1043.717;15942.050;  259.875;    0.000
1043.871;15141.050;  233.875;    0.000
1044.025;16069.050;  221.875;    0.000
1044.180;14275.050;  208.875;    0.000
1044.334;14090.050;  255.875;    0.000
1044.488;14707.050;  269.875;    0.000
1044.642;16129.050;  228.875;    0.000
1044.796;17783.051;  232.875;    0.000
1044.950;19092.051;  249.875;    0.000
1045.104;20447.051;  205.875;    0.000
1045.258;20972.051;  206.875;    0.000
1045.412;20339.051;  251.875;    0.000
1045.566;18848.051;  249.875;    0.000
1045.720;19192.051;  206.875;    0.000
1045.874;17938.051;  232.875;    0.000
1046.028;16858.051;  266.875;    0.000
1046.182;16346.050;  217.875;    0.000
1046.336;17376.051;  216.875;    0.000
1046.489;18708.051;  236.875;    0.000
1046.643;19579.051;  253.875;    0.000
1046.797;20809.051;  244.875;    0.000
1046.951;21193.051;  234.875;    0.000
1047.104;20888.051;  281.875;    0.000
1047.258;22076.051;  253.875;    0.000
1047.411;23246.051;  228.875;    0.000
1047.565;23825.051;  273.875;    0.000
1047.719;21439.051;  232.875;    0.000
1047.872;20890.051;  230.875;    0.000
1048.026;20326.051;  282.875;    0.000
1048.179;20741.051;  225.875;    0.000
1048.332;19867.051;  234.875;    0.000
1048.486;19502.051;  223.875;    0.000
1048.639;20327.051;  248.875;    0.000
1048.792;20879.051;  244.875;    0.000
1048.946;23403.051;  210.875;    0.000
1049.099;25724.051;  242.875;    0.000
1049.252;25933.051;  269.875;    0.000
1049.406;25254.051;  285.875;    0.000
1049.559;23966.051;  277.875;    0.000
1049.712;25362.051;  254.875;    0.000
1049.865;28638.051;  252.875;    0.000
1050.018;28681.051;  270.875;    0.000
1050.171;25469.051;  230.875;    0.000
1050.324;24109.051;  268.875;    0.000
1050.477;23363.051;  262.875;    0.000
1050.630;23981.051;  243.875;    0.000
1050.783;25879.051;  216.875;    0.000
1050.936;25089.051;  250.875;    0.000
1051.089;24243.051;  247.875;    0.000
1051.242;26960.051;  300.875;    0.000
1051.394;28995.051;  233.875;    0.000
1051.547;28638.051;  263.875;    0.000
1051.700;27873.051;  238.875;    0.000
1051.853;27172.051;  299.875;    0.000
1052.005;28962.051;  275.875;    0.000
1052.158;32532.051;  304.875;    0.000
1052.311;36037.051;  251.875;    0.000
1052.463;34899.051;  276.875;    0.000
1052.616;31102.051;  271.875;    0.000
1052.768;27705.051;  285.875;    0.000
1052.921;26938.051;  261.875;    0.000
1053.073;28939.051;  333.875;    0.000
1053.226;30696.051;  271.875;    0.000
1053.378;34555.051;  309.875;    0.000
1053.531;36707.051;  266.875;    0.000
1053.683;35167.051;  278.875;    0.000
1053.835;30470.051;  274.875;    0.000
1053.988;23728.051;  287.875;    0.000
1054.140; 4530.050;  350.875;    0.000
1054.292; 1254.050;  338.875;    0.000
1054.444;  930.050;  270.875;    0.000
1054.596;  851.050;  294.875;    0.000
1054.749;  802.050;  285.875;    0.000
1054.901;  769.050;  254.875;    0.000
1055.053;  741.050;  320.875;    0.000
1055.205;  687.050;  284.875;    0.000
1055.357;  684.050;  298.875;    0.000
1055.509;  665.050;  304.875;    0.000
1055.661;  661.050;  350.875;    0.000
1055.813;  609.050;  289.875;    0.000
1055.965;  666.050;  277.875;    0.000
1056.116;  552.050;  288.875;    0.000
1056.268;  629.050;  311.875;    0.000
1056.420;  609.050;  308.875;    0.000

