
Integration time [ms]:   0.300
Averaging Nr. [scans]: 1
Smoothing Nr. [pixels]: 0
Data measured with spectrometer [name]: NIR
Wave   ;Sample   ;Dark     ;Reference
[nm]   ;[counts] ;[counts] ;[counts] 

691.496;   49.975;  102.875;    0.000
691.696;   97.975;  181.875;    0.000
691.896;   27.975;  138.875;    0.000
692.096;   76.975;  182.875;    0.000
692.296;   19.975;  145.875;    0.000
692.496;   43.975;  154.875;    0.000
692.695;   57.975;  108.875;    0.000
692.895;   62.975;  176.875;    0.000
693.095;   27.975;  138.875;    0.000
693.295;   72.975;  192.875;    0.000
693.495;   66.975;  170.875;    0.000
693.695;   47.975;  147.875;    0.000
693.894;   72.975;  191.875;    0.000
694.094;   56.975;  148.875;    0.000
694.294;   49.975;  147.875;    0.000
694.494;  196.975;  140.875;    0.000
694.693; 1344.975;  137.875;    0.000
694.893; 1475.975;  141.875;    0.000
695.093; 1473.975;  105.875;    0.000
695.293; 1483.975;  115.875;    0.000
695.492; 1547.975;   81.875;    0.000
695.692; 1445.975;  162.875;    0.000
695.891; 1652.975;  162.875;    0.000
696.091; 1603.975;  166.875;    0.000
696.291; 1594.975;  143.875;    0.000
696.490; 1516.975;  170.875;    0.000
696.690; 1491.975;  142.875;    0.000
696.889; 1561.975;  186.875;    0.000
697.089; 1500.975;  120.875;    0.000
697.288; 1596.975;  215.875;    0.000
697.488; 1725.975;  178.875;    0.000
697.687; 1524.975;  170.875;    0.000
697.887; 1549.975;  140.875;    0.000
698.086; 1553.975;  131.875;    0.000
698.286; 1477.975;  117.875;    0.000
698.485; 1639.975;  136.875;    0.000
698.684; 1587.975;  126.875;    0.000
698.884; 1629.975;  161.875;    0.000
699.083; 1533.975;   95.875;    0.000
699.282; 1619.975;  120.875;    0.000
699.482; 1720.975;  131.875;    0.000
699.681; 1486.975;  168.875;    0.000
699.880; 1553.975;  154.875;    0.000
700.080; 1561.975;  149.875;    0.000
700.279; 1558.975;   99.875;    0.000
700.478; 1565.975;  157.875;    0.000
700.677; 1546.975;  111.875;    0.000
700.877; 1541.975;  126.875;    0.000
701.076; 1605.975;  142.875;    0.000
701.275; 1662.975;  107.875;    0.000
701.474; 1581.975;   72.875;    0.000
701.673; 1666.975;   87.875;    0.000
701.872; 1589.975;  170.875;    0.000
702.071; 1593.975;  136.875;    0.000
702.271; 1696.975;  121.875;    0.000
702.470; 1597.975;  139.875;    0.000
702.669; 1552.975;  121.875;    0.000
702.868; 1751.975;  146.875;    0.000
703.067; 1631.975;  159.875;    0.000
703.266; 1785.975;  122.875;    0.000
703.465; 1719.975;  121.875;    0.000
703.664; 1761.975;  144.875;    0.000
703.863; 1716.975;  140.875;    0.000
704.062; 1654.975;  109.875;    0.000
704.260; 1723.975;  164.875;    0.000
704.459; 1640.975;  124.875;    0.000
704.658; 1681.975;  109.875;    0.000
704.857; 1689.975;  149.875;    0.000
705.056; 1486.975;  112.875;    0.000
705.255; 1606.975;   95.875;    0.000
705.454; 1697.975;  105.875;    0.000
705.652; 1621.975;  134.875;    0.000
705.851; 1733.975;   92.875;    0.000
706.050; 1878.975;  127.875;    0.000
706.249; 1666.975;  111.875;    0.000
706.447; 1653.975;   98.875;    0.000
706.646; 1675.975;  108.875;    0.000
706.845; 1893.975;   95.875;    0.000
707.043; 1764.975;   95.875;    0.000
707.242; 1674.975;   97.875;    0.000
707.441; 1783.975;  142.875;    0.000
707.639; 1664.975;  121.875;    0.000
707.838; 1701.975;  141.875;    0.000
708.037; 1719.975;  125.875;    0.000
708.235; 1860.975;  100.875;    0.000
708.434; 1616.975;  106.875;    0.000
708.632; 1655.975;   86.875;    0.000
708.831; 1861.975;  138.875;    0.000
709.029; 1630.975;   86.875;    0.000
709.228; 1743.975;  103.875;    0.000
709.426; 1783.975;  146.875;    0.000
709.625; 1730.975;  136.875;    0.000
709.823; 1705.975;  114.875;    0.000
710.022; 1638.975;  144.875;    0.000
710.220; 1722.975;  109.875;    0.000
710.418; 1802.975;  116.875;    0.000
710.617; 1650.975;   67.875;    0.000
710.815; 1725.975;  104.875;    0.000
711.013; 1796.975;  109.875;    0.000
711.212; 1770.975;  106.875;    0.000
711.410; 1756.975;   95.875;    0.000
711.608; 1700.975;  155.875;    0.000
711.807; 1831.975;  103.875;    0.000
712.005; 1629.975;  104.875;    0.000
712.203; 1682.975;   94.875;    0.000
712.401; 1741.975;  125.875;    0.000
712.599; 1773.975;  127.875;    0.000
712.798; 1836.975;  141.875;    0.000
712.996; 1745.975;   85.875;    0.000
713.194; 1852.975;   96.875;    0.000
713.392; 1739.975;   54.875;    0.000
713.590; 1805.975;  123.875;    0.000
713.788; 1775.975;  130.875;    0.000
713.986; 1841.975;  104.875;    0.000
714.184; 1859.975;   91.875;    0.000
714.382; 1904.975;  120.875;    0.000
714.580; 1753.975;   71.875;    0.000
714.778; 1798.975;   92.875;    0.000
714.976; 1673.975;  129.875;    0.000
715.174; 1902.975;   99.875;    0.000
715.372; 1927.975;  119.875;    0.000
715.570; 2065.975;   95.875;    0.000
715.768; 2276.975;  113.875;    0.000
715.966; 2313.975;   64.875;    0.000
716.164; 2356.975;  135.875;    0.000
716.362; 2256.975;  125.875;    0.000
716.560; 2115.975;  135.875;    0.000
716.758; 1919.975;   84.875;    0.000
716.955; 1925.975;  109.875;    0.000
717.153; 2019.975;   73.875;    0.000
717.351; 1873.975;  110.875;    0.000
717.549; 1904.975;  149.875;    0.000
717.746; 2054.975;  121.875;    0.000
717.944; 1965.975;  128.875;    0.000
718.142; 1994.975;  124.875;    0.000
718.340; 1895.975;   96.875;    0.000
718.537; 1979.975;  138.875;    0.000
718.735; 2062.975;  144.875;    0.000
718.933; 1909.975;   97.875;    0.000
719.130; 2040.975;  109.875;    0.000
719.328; 1956.975;  123.875;    0.000
719.525; 1958.975;  118.875;    0.000
719.723; 1864.975;  117.875;    0.000
719.920; 1917.975;   72.875;    0.000
720.118; 2003.975;   92.875;    0.000
720.316; 2003.975;  141.875;    0.000
720.513; 1908.975;   98.875;    0.000
720.711; 1929.975;  146.875;    0.000
720.908; 1987.975;  113.875;    0.000
721.105; 2010.975;  157.875;    0.000
721.303; 1924.975;  106.875;    0.000
721.500; 1869.975;   88.875;    0.000
721.698; 1867.975;   88.875;    0.000
721.895; 1964.975;   94.875;    0.000
722.092; 1824.975;   82.875;    0.000
722.290; 2021.975;  136.875;    0.000
722.487; 1879.975;   67.875;    0.000
722.684; 2100.975;  115.875;    0.000
722.882; 1979.975;  104.875;    0.000
723.079; 1925.975;  122.875;    0.000
723.276; 1983.975;   91.875;    0.000
723.473; 1934.975;   89.875;    0.000
723.671; 1999.975;   97.875;    0.000
723.868; 1906.975;  117.875;    0.000
724.065; 2069.975;  102.875;    0.000
724.262; 2028.975;  137.875;    0.000
724.459; 1960.975;   48.875;    0.000
724.656; 1902.975;  122.875;    0.000
724.854; 2096.975;   96.875;    0.000
725.051; 2067.975;  120.875;    0.000
725.248; 1949.975;  146.875;    0.000
725.445; 1879.975;  117.875;    0.000
725.642; 2024.975;  106.875;    0.000
725.839; 2039.975;  143.875;    0.000
726.036; 1920.975;   79.875;    0.000
726.233; 1989.975;   90.875;    0.000
726.430; 1980.975;  124.875;    0.000
726.627; 2039.975;   98.875;    0.000
726.824; 2006.975;   91.875;    0.000
727.021; 2065.975;  131.875;    0.000
727.218; 1879.975;  110.875;    0.000
727.414; 2151.975;   83.875;    0.000
727.611; 1994.975;   86.875;    0.000
727.808; 2000.975;  131.875;    0.000
728.005; 2063.975;  105.875;    0.000
728.202; 1956.975;  128.875;    0.000
728.399; 2018.975;  113.875;    0.000
728.595; 1966.975;  102.875;    0.000
728.792; 1991.975;   91.875;    0.000
728.989; 1966.975;  122.875;    0.000
729.186; 2081.975;  103.875;    0.000
729.382; 2102.975;  106.875;    0.000
729.579; 2002.975;  114.875;    0.000
729.776; 2158.975;  115.875;    0.000
729.972; 2078.975;  108.875;    0.000
730.169; 2131.975;  111.875;    0.000
730.366; 2006.975;  100.875;    0.000
730.562; 2052.975;   86.875;    0.000
730.759; 2030.975;   93.875;    0.000
730.955; 2126.975;  127.875;    0.000
731.152; 2042.975;   99.875;    0.000
731.348; 2024.975;   97.875;    0.000
731.545; 2065.975;   98.875;    0.000
731.741; 2172.975;  130.875;    0.000
731.938; 2202.975;  115.875;    0.000
732.134; 2162.975;  107.875;    0.000
732.331; 2065.975;   80.875;    0.000
732.527; 2151.975;  108.875;    0.000
732.724; 2091.975;  104.875;    0.000
732.920; 2112.975;  109.875;    0.000
733.116; 2034.975;  117.875;    0.000
733.313; 2121.975;   81.875;    0.000
733.509; 2142.975;   87.875;    0.000
733.705; 1976.975;  143.875;    0.000
733.902; 1989.975;   74.875;    0.000
734.098; 2078.975;   90.875;    0.000
734.294; 2021.975;  104.875;    0.000
734.490; 2076.975;  139.875;    0.000
734.687; 2089.975;  113.875;    0.000
734.883; 1979.975;   72.875;    0.000
735.079; 2136.975;  100.875;    0.000
735.275; 2069.975;  113.875;    0.000
735.471; 1927.975;   55.875;    0.000
735.667; 1975.975;  106.875;    0.000
735.863; 2142.975;  131.875;    0.000
736.060; 2151.975;  127.875;    0.000
736.256; 2207.975;   76.875;    0.000
736.452; 2070.975;  127.875;    0.000
736.648; 2288.975;  136.875;    0.000
736.844; 2160.975;  113.875;    0.000
737.040; 2264.975;  125.875;    0.000
737.236; 2256.975;   99.875;    0.000
737.432; 2160.975;   75.875;    0.000
737.628; 2207.975;  155.875;    0.000
737.824; 2367.975;  116.875;    0.000
738.019; 2051.975;   92.875;    0.000
738.215; 2101.975;  113.875;    0.000
738.411; 2201.975;  135.875;    0.000
738.607; 2160.975;   53.875;    0.000
738.803; 2180.975;   79.875;    0.000
738.999; 2178.975;  117.875;    0.000
739.195; 2163.975;  106.875;    0.000
739.390; 2333.975;  125.875;    0.000
739.586; 2153.975;  102.875;    0.000
739.782; 2197.975;  125.875;    0.000
739.978; 2250.975;  124.875;    0.000
740.173; 2366.975;   96.875;    0.000
740.369; 2269.975;  118.875;    0.000
740.565; 2225.975;  128.875;    0.000
740.760; 2321.975;  118.875;    0.000
740.956; 2338.975;  109.875;    0.000
741.152; 2302.975;  151.875;    0.000
741.347; 2363.975;  112.875;    0.000
741.543; 2329.975;  113.875;    0.000
741.738; 2521.975;  128.875;    0.000
741.934; 2498.975;  144.875;    0.000
742.129; 2530.975;  105.875;    0.000
742.325; 2854.975;  137.875;    0.000
742.520; 3191.975;  128.875;    0.000
742.716; 2827.975;  121.875;    0.000
742.911; 2962.975;   75.875;    0.000
743.107; 2864.975;  100.875;    0.000
743.302; 2722.975;   72.875;    0.000
743.498; 2846.975;  137.875;    0.000
743.693; 2740.975;  124.875;    0.000
743.888; 2946.975;  121.875;    0.000
744.084; 3307.975;   93.875;    0.000
744.279; 3986.975;   75.875;    0.000
744.474; 4214.975;  136.875;    0.000
744.670; 3661.975;  109.875;    0.000
744.865; 3278.975;  142.875;    0.000
745.060; 2950.975;   84.875;    0.000
745.255; 3022.975;  149.875;    0.000
745.451; 3018.975;  101.875;    0.000
745.646; 2935.975;  132.875;    0.000
745.841; 2882.975;  126.875;    0.000
746.036; 2994.975;  125.875;    0.000
746.231; 3100.975;  150.875;    0.000
746.426; 3082.975;  118.875;    0.000
746.622; 3754.975;  135.875;    0.000
746.817; 4536.975;  122.875;    0.000
747.012; 5092.975;  134.875;    0.000
747.207; 4845.975;  124.875;    0.000
747.402; 3946.975;  122.875;    0.000
747.597; 3652.975;   95.875;    0.000
747.792; 3737.975;  168.875;    0.000
747.987; 3381.975;  110.875;    0.000
748.182; 3281.975;  119.875;    0.000
748.377; 3220.975;   70.875;    0.000
748.572; 3035.975;  113.875;    0.000
748.767; 2893.975;  123.875;    0.000
748.961; 2911.975;  110.875;    0.000
749.156; 3117.975;  135.875;    0.000
749.351; 2797.975;   98.875;    0.000
749.546; 2962.975;  126.875;    0.000
749.741; 2581.975;  129.875;    0.000
749.936; 2696.975;   86.875;    0.000
750.130; 2581.975;   97.875;    0.000
750.325; 2805.975;  110.875;    0.000
750.520; 2622.975;  120.875;    0.000
750.715; 2977.975;  122.875;    0.000
750.909; 2797.975;  120.875;    0.000
751.104; 2641.975;  118.875;    0.000
751.299; 2807.975;  122.875;    0.000
751.493; 2642.975;  129.875;    0.000
751.688; 2803.975;  138.875;    0.000
751.882; 2533.975;   87.875;    0.000
752.077; 2741.975;  142.875;    0.000
752.272; 2726.975;  110.875;    0.000
752.466; 2624.975;  154.875;    0.000
752.661; 2620.975;   96.875;    0.000
752.855; 2519.975;   93.875;    0.000
753.050; 2537.975;  122.875;    0.000
753.244; 2590.975;  110.875;    0.000
753.439; 2475.975;  116.875;    0.000
753.633; 2601.975;  131.875;    0.000
753.828; 2480.975;  130.875;    0.000
754.022; 2365.975;   96.875;    0.000
754.216; 2324.975;  114.875;    0.000
754.411; 2514.975;  145.875;    0.000
754.605; 2373.975;   65.875;    0.000
754.799; 2335.975;  116.875;    0.000
754.994; 2361.975;  117.875;    0.000
755.188; 2609.975;  124.875;    0.000
755.382; 2438.975;   80.875;    0.000
755.576; 2571.975;   90.875;    0.000
755.771; 2454.975;  115.875;    0.000
755.965; 2363.975;  106.875;    0.000
756.159; 2323.975;   87.875;    0.000
756.353; 2470.975;  125.875;    0.000
756.547; 2360.975;  146.875;    0.000
756.742; 2368.975;  111.875;    0.000
756.936; 2424.975;  108.875;    0.000
757.130; 2344.975;  101.875;    0.000
757.324; 2468.975;  114.875;    0.000
757.518; 2339.975;  136.875;    0.000
757.712; 2393.975;  123.875;    0.000
757.906; 2449.975;  115.875;    0.000
758.100; 2539.975;  186.875;    0.000
758.294; 2555.975;  118.875;    0.000
758.488; 2376.975;  167.875;    0.000
758.682; 2387.975;  137.875;    0.000
758.876; 2397.975;  135.875;    0.000
759.070; 2338.975;  132.875;    0.000
759.264; 2446.975;  118.875;    0.000
759.458; 2449.975;  111.875;    0.000
759.651; 2232.975;  142.875;    0.000
759.845; 2299.975;  105.875;    0.000
760.039; 2502.975;   73.875;    0.000
760.233; 2512.975;  156.875;    0.000
760.427; 2489.975;  119.875;    0.000
760.620; 2377.975;  136.875;    0.000
760.814; 2374.975;  126.875;    0.000
761.008; 2290.975;  126.875;    0.000
761.202; 2431.975;  123.875;    0.000
761.395; 2545.975;  141.875;    0.000
761.589; 2337.975;  107.875;    0.000
761.783; 2358.975;  122.875;    0.000
761.976; 2392.975;  120.875;    0.000
762.170; 2396.975;  147.875;    0.000
762.363; 2541.975;  144.875;    0.000
762.557; 2503.975;  119.875;    0.000
762.750; 2328.975;  118.875;    0.000
762.944; 2397.975;  145.875;    0.000
763.138; 2531.975;  123.875;    0.000
763.331; 2379.975;  129.875;    0.000
763.524; 2500.975;  109.875;    0.000
763.718; 2485.975;  150.875;    0.000
763.911; 2447.975;  140.875;    0.000
764.105; 2488.975;   97.875;    0.000
764.298; 2294.975;  128.875;    0.000
764.492; 2605.975;  132.875;    0.000
764.685; 2459.975;   92.875;    0.000
764.878; 2274.975;  111.875;    0.000
765.072; 2399.975;  116.875;    0.000
765.265; 2394.975;  135.875;    0.000
765.458; 2447.975;   69.875;    0.000
765.651; 2362.975;  145.875;    0.000
765.845; 2430.975;   95.875;    0.000
766.038; 2480.975;  147.875;    0.000
766.231; 2700.975;  119.875;    0.000
766.424; 3876.975;  126.875;    0.000
766.617; 4398.975;   92.875;    0.000
766.811; 2862.975;  109.875;    0.000
767.004; 2389.975;  107.875;    0.000
767.197; 2525.975;  171.875;    0.000
767.390; 2521.975;  114.875;    0.000
767.583; 2406.975;  109.875;    0.000
767.776; 2676.975;  130.875;    0.000
767.969; 2463.975;  103.875;    0.000
768.162; 2441.975;  139.875;    0.000
768.355; 2549.975;  142.875;    0.000
768.548; 2642.975;  140.875;    0.000
768.741; 2615.975;   82.875;    0.000
768.934; 2534.975;  107.875;    0.000
769.127; 2589.975;  121.875;    0.000
769.320; 2615.975;  106.875;    0.000
769.513; 2604.975;  145.875;    0.000
769.706; 2684.975;  120.875;    0.000
769.898; 3792.975;  135.875;    0.000
770.091; 3365.975;  146.875;    0.000
770.284; 2590.975;  108.875;    0.000
770.477; 2607.975;  148.875;    0.000
770.670; 2695.975;  163.875;    0.000
770.862; 2755.975;   97.875;    0.000
771.055; 2543.975;  116.875;    0.000
771.248; 2620.975;  143.875;    0.000
771.441; 2554.975;  125.875;    0.000
771.633; 2722.975;  125.875;    0.000
771.826; 2822.975;  132.875;    0.000
772.018; 2760.975;  123.875;    0.000
772.211; 2755.975;  143.875;    0.000
772.404; 2810.975;  144.875;    0.000
772.596; 2744.975;  130.875;    0.000
772.789; 2832.975;  109.875;    0.000
772.981; 2871.975;  151.875;    0.000
773.174; 2842.975;  119.875;    0.000
773.366; 2886.975;  179.875;    0.000
773.559; 2989.975;  106.875;    0.000
773.751; 3131.975;  120.875;    0.000
773.944; 3016.975;  159.875;    0.000
774.136; 3186.975;  131.875;    0.000
774.329; 3212.975;  141.875;    0.000
774.521; 3111.975;  114.875;    0.000
774.713; 3490.975;  169.875;    0.000
774.906; 3439.975;  151.875;    0.000
775.098; 3576.975;   99.875;    0.000
775.290; 3609.975;  166.875;    0.000
775.483; 3918.975;  146.875;    0.000
775.675; 4104.975;  106.875;    0.000
775.867; 4168.975;   91.875;    0.000
776.059; 4507.975;  137.875;    0.000
776.251; 5299.975;  124.875;    0.000
776.444; 5660.975;  168.875;    0.000
776.636; 6401.975;  138.875;    0.000
776.828; 7785.975;  155.875;    0.000
777.020;11018.975;  160.875;    0.000
777.212;16416.975;  153.875;    0.000
777.404;18755.975;  135.875;    0.000
777.596;17251.975;  144.875;    0.000
777.788;12767.975;  127.875;    0.000
777.980; 9204.975;  141.875;    0.000
778.172; 7667.975;  138.875;    0.000
778.364; 6586.975;  143.875;    0.000
778.556; 5810.975;  123.875;    0.000
778.748; 5566.975;  103.875;    0.000
778.940; 5061.975;  176.875;    0.000
779.132; 4614.975;  144.875;    0.000
779.324; 4166.975;   75.875;    0.000
779.516; 4234.975;  117.875;    0.000
779.708; 3776.975;  151.875;    0.000
779.900; 3909.975;  127.875;    0.000
780.091; 3456.975;  155.875;    0.000
780.283; 3332.975;  157.875;    0.000
780.475; 3310.975;  140.875;    0.000
780.667; 3477.975;  141.875;    0.000
780.859; 3167.975;  113.875;    0.000
781.050; 3075.975;  153.875;    0.000
781.242; 3087.975;  118.875;    0.000
781.434; 2896.975;  121.875;    0.000
781.625; 3051.975;  146.875;    0.000
781.817; 2880.975;  154.875;    0.000
782.008; 2882.975;  144.875;    0.000
782.200; 2770.975;  152.875;    0.000
782.392; 2677.975;  160.875;    0.000
782.583; 2744.975;  122.875;    0.000
782.775; 2799.975;  144.875;    0.000
782.966; 2692.975;  143.875;    0.000
783.158; 2662.975;  125.875;    0.000
783.349; 2785.975;  173.875;    0.000
783.541; 2573.975;  166.875;    0.000
783.732; 2686.975;  163.875;    0.000
783.924; 2647.975;  157.875;    0.000
784.115; 2666.975;  158.875;    0.000
784.306; 2635.975;  160.875;    0.000
784.498; 2821.975;  132.875;    0.000
784.689; 2542.975;  181.875;    0.000
784.880; 2648.975;  156.875;    0.000
785.072; 2622.975;  134.875;    0.000
785.263; 2536.975;  155.875;    0.000
785.454; 2667.975;  141.875;    0.000
785.645; 2602.975;  114.875;    0.000
785.837; 2593.975;  137.875;    0.000
786.028; 2402.975;  158.875;    0.000
786.219; 2507.975;  135.875;    0.000
786.410; 2540.975;  152.875;    0.000
786.601; 2604.975;  132.875;    0.000
786.792; 2667.975;  152.875;    0.000
786.984; 2456.975;  162.875;    0.000
787.175; 2560.975;   97.875;    0.000
787.366; 2467.975;  129.875;    0.000
787.557; 2439.975;  135.875;    0.000
787.748; 2328.975;  127.875;    0.000
787.939; 2425.975;  152.875;    0.000
788.130; 2407.975;  182.875;    0.000
788.321; 2658.975;  130.875;    0.000
788.512; 2584.975;  161.875;    0.000
788.703; 2527.975;  127.875;    0.000
788.894; 2617.975;  121.875;    0.000
789.084; 2474.975;  134.875;    0.000
789.275; 2542.975;  108.875;    0.000
789.466; 2391.975;  152.875;    0.000
789.657; 2462.975;  115.875;    0.000
789.848; 2485.975;  150.875;    0.000
790.039; 2504.975;  132.875;    0.000
790.229; 2464.975;  169.875;    0.000
790.420; 2612.975;  159.875;    0.000
790.611; 2308.975;  123.875;    0.000
790.801; 2459.975;  144.875;    0.000
790.992; 2537.975;  177.875;    0.000
791.183; 2361.975;  128.875;    0.000
791.373; 2385.975;  123.875;    0.000
791.564; 2321.975;  131.875;    0.000
791.755; 2538.975;  103.875;    0.000
791.945; 2625.975;  104.875;    0.000
792.136; 2427.975;  115.875;    0.000
792.326; 2517.975;   99.875;    0.000
792.517; 2543.975;  139.875;    0.000
792.707; 2500.975;  155.875;    0.000
792.898; 2549.975;  139.875;    0.000
793.088; 2718.975;  153.875;    0.000
793.279; 2503.975;  137.875;    0.000
793.469; 2828.975;  109.875;    0.000
793.660; 2555.975;  119.875;    0.000
793.850; 2729.975;  119.875;    0.000
794.040; 2878.975;  132.875;    0.000
794.231; 2926.975;  122.875;    0.000
794.421; 3159.975;  124.875;    0.000
794.611; 3416.975;  151.875;    0.000
794.802; 3973.975;  121.875;    0.000
794.992; 4350.975;  139.875;    0.000
795.182; 4232.975;  132.875;    0.000
795.372; 3836.975;  149.875;    0.000
795.563; 3519.975;  153.875;    0.000
795.753; 3501.975;  120.875;    0.000
795.943; 3242.975;  121.875;    0.000
796.133; 3129.975;   97.875;    0.000
796.323; 3099.975;  122.875;    0.000
796.513; 2802.975;  142.875;    0.000
796.703; 2895.975;  125.875;    0.000
796.893; 2702.975;  126.875;    0.000
797.083; 2725.975;  150.875;    0.000
797.273; 2944.975;  108.875;    0.000
797.463; 2854.975;  156.875;    0.000
797.653; 2692.975;   80.875;    0.000
797.843; 2688.975;   88.875;    0.000
798.033; 2519.975;   96.875;    0.000
798.223; 2551.975;  159.875;    0.000
798.413; 2628.975;  155.875;    0.000
798.603; 2483.975;  125.875;    0.000
798.793; 2375.975;  141.875;    0.000
798.983; 2406.975;  113.875;    0.000
799.172; 2556.975;   85.875;    0.000
799.362; 2309.975;  141.875;    0.000
799.552; 2412.975;  122.875;    0.000
799.742; 2320.975;  124.875;    0.000
799.932; 2408.975;  102.875;    0.000
800.121; 2415.975;  146.875;    0.000
800.311; 2407.975;  122.875;    0.000
800.501; 2323.975;  120.875;    0.000
800.690; 2349.975;  141.875;    0.000
800.880; 2503.975;  146.875;    0.000
801.070; 2312.975;  122.875;    0.000
801.259; 2250.975;  138.875;    0.000
801.449; 2478.975;  115.875;    0.000
801.638; 2569.975;  132.875;    0.000
801.828; 2280.975;   92.875;    0.000
802.017; 2505.975;  150.875;    0.000
802.207; 2448.975;  134.875;    0.000
802.396; 2430.975;  133.875;    0.000
802.586; 2437.975;  117.875;    0.000
802.775; 2293.975;  155.875;    0.000
802.965; 2601.975;  132.875;    0.000
803.154; 2339.975;  176.875;    0.000
803.343; 2382.975;  106.875;    0.000
803.533; 2451.975;  154.875;    0.000
803.722; 2411.975;   97.875;    0.000
803.911; 2469.975;  107.875;    0.000
804.101; 2440.975;  145.875;    0.000
804.290; 2478.975;  130.875;    0.000
804.479; 2326.975;  152.875;    0.000
804.668; 2530.975;  160.875;    0.000
804.857; 2303.975;  161.875;    0.000
805.047; 2265.975;  126.875;    0.000
805.236; 2606.975;  136.875;    0.000
805.425; 2610.975;  153.875;    0.000
805.614; 2512.975;  139.875;    0.000
805.803; 2476.975;  144.875;    0.000
805.992; 2467.975;  160.875;    0.000
806.181; 2582.975;  139.875;    0.000
806.370; 2712.975;  104.875;    0.000
806.559; 2419.975;  103.875;    0.000
806.748; 2465.975;  145.875;    0.000
806.937; 2552.975;  151.875;    0.000
807.126; 2726.975;  119.875;    0.000
807.315; 2711.975;  139.875;    0.000
807.504; 2598.975;  143.875;    0.000
807.693; 2591.975;  164.875;    0.000
807.882; 2601.975;  135.875;    0.000
808.071; 2646.975;  131.875;    0.000
808.260; 2590.975;  113.875;    0.000
808.448; 2764.975;  161.875;    0.000
808.637; 2786.975;  125.875;    0.000
808.826; 2759.975;  155.875;    0.000
809.015; 2788.975;  113.875;    0.000
809.203; 2926.975;  152.875;    0.000
809.392; 3029.975;   90.875;    0.000
809.581; 2900.975;  186.875;    0.000
809.770; 2864.975;   99.875;    0.000
809.958; 2943.975;  146.875;    0.000
810.147; 2780.975;  115.875;    0.000
810.335; 2959.975;  122.875;    0.000
810.524; 3029.975;  150.875;    0.000
810.713; 3061.975;  121.875;    0.000
810.901; 3078.975;  156.875;    0.000
811.090; 3217.975;  161.875;    0.000
811.278; 3104.975;  138.875;    0.000
811.467; 3351.975;  184.875;    0.000
811.655; 3451.975;  150.875;    0.000
811.844; 3272.975;  137.875;    0.000
812.032; 3491.975;  142.875;    0.000
812.220; 3377.975;  134.875;    0.000
812.409; 3588.975;  143.875;    0.000
812.597; 3644.975;  164.875;    0.000
812.785; 3689.975;  188.875;    0.000
812.974; 3668.975;  156.875;    0.000
813.162; 3637.975;  166.875;    0.000
813.350; 3781.975;  115.875;    0.000
813.539; 3863.975;  167.875;    0.000
813.727; 3837.975;  165.875;    0.000
813.915; 3947.975;  137.875;    0.000
814.103; 4099.975;  166.875;    0.000
814.291; 4273.975;  151.875;    0.000
814.479; 4250.975;  147.875;    0.000
814.668; 4183.975;  166.875;    0.000
814.856; 4364.975;  160.875;    0.000
815.044; 4612.975;  172.875;    0.000
815.232; 4641.975;  193.875;    0.000
815.420; 5028.975;  173.875;    0.000
815.608; 5328.975;  134.875;    0.000
815.796; 5251.975;  105.875;    0.000
815.984; 5365.975;  125.875;    0.000
816.172; 5845.975;  160.875;    0.000
816.360; 6395.975;  162.875;    0.000
816.548; 6529.975;  160.875;    0.000
816.736; 7186.975;  132.875;    0.000
816.924; 8033.975;  184.875;    0.000
817.111; 8845.975;  145.875;    0.000
817.299; 9544.975;  132.875;    0.000
817.487;11045.975;  193.875;    0.000
817.675;13146.975;  153.875;    0.000
817.863;16425.975;  153.875;    0.000
818.050;22719.975;  172.875;    0.000
818.238;36921.977;  131.875;    0.000
818.426;48233.977;  160.875;    0.000
818.613;39644.977;  136.875;    0.000
818.801;32221.975;  162.875;    0.000
818.989;30856.975;  153.875;    0.000
819.176;32675.975;  181.875;    0.000
819.364;43295.977;  165.875;    0.000
819.552;54041.977;  111.875;    0.000
819.739;45717.977;  192.875;    0.000
819.927;36703.977;  146.875;    0.000
820.114;31136.975;  154.875;    0.000
820.302;26036.975;  144.875;    0.000
820.489;22317.975;  133.875;    0.000
820.677;19417.975;  135.875;    0.000
820.864;17690.975;  130.875;    0.000
821.052;15699.975;   88.875;    0.000
821.239;14397.975;  143.875;    0.000
821.426;13487.975;  186.875;    0.000
821.614;13693.975;  171.875;    0.000
821.801;13202.975;   90.875;    0.000
821.988;12132.975;  143.875;    0.000
822.176;11287.975;   95.875;    0.000
822.363;10730.975;  148.875;    0.000
822.550;10193.975;  139.875;    0.000
822.737; 9454.975;  122.875;    0.000
822.924; 8681.975;  171.875;    0.000
823.112; 8220.975;  147.875;    0.000
823.299; 7614.975;  111.875;    0.000
823.486; 7343.975;  161.875;    0.000
823.673; 7100.975;  124.875;    0.000
823.860; 6631.975;  151.875;    0.000
824.047; 6233.975;  145.875;    0.000
824.234; 7056.975;  139.875;    0.000
824.421; 6764.975;  110.875;    0.000
824.608; 6335.975;  145.875;    0.000
824.795; 5712.975;  115.875;    0.000
824.982; 5467.975;  148.875;    0.000
825.169; 5087.975;  135.875;    0.000
825.356; 4957.975;  122.875;    0.000
825.543; 4876.975;  142.875;    0.000
825.730; 4683.975;   89.875;    0.000
825.917; 4550.975;  127.875;    0.000
826.104; 4250.975;  187.875;    0.000
826.290; 4391.975;  138.875;    0.000
826.477; 4089.975;  140.875;    0.000
826.664; 3892.975;  106.875;    0.000
826.851; 3836.975;  155.875;    0.000
827.038; 3950.975;  125.875;    0.000
827.224; 3796.975;  126.875;    0.000
827.411; 3701.975;  163.875;    0.000
827.598; 3659.975;  140.875;    0.000
827.784; 3477.975;  117.875;    0.000
827.971; 3372.975;  114.875;    0.000
828.157; 3383.975;  146.875;    0.000
828.344; 3329.975;  161.875;    0.000
828.531; 3254.975;  155.875;    0.000
828.717; 3135.975;  130.875;    0.000
828.904; 3013.975;  138.875;    0.000
829.090; 3054.975;  176.875;    0.000
829.277; 3189.975;  152.875;    0.000
829.463; 2960.975;  139.875;    0.000
829.650; 2974.975;  168.875;    0.000
829.836; 2821.975;  176.875;    0.000
830.022; 2822.975;  159.875;    0.000
830.209; 2895.975;  135.875;    0.000
830.395; 2809.975;  177.875;    0.000
830.581; 2842.975;  125.875;    0.000
830.768; 2595.975;  155.875;    0.000
830.954; 2534.975;  187.875;    0.000
831.140; 2702.975;  135.875;    0.000
831.327; 2665.975;  158.875;    0.000
831.513; 2552.975;  126.875;    0.000
831.699; 2604.975;  167.875;    0.000
831.885; 2368.975;  165.875;    0.000
832.071; 2520.975;  167.875;    0.000
832.257; 2409.975;  144.875;    0.000
832.444; 2433.975;  158.875;    0.000
832.630; 2419.975;  167.875;    0.000
832.816; 2421.975;  150.875;    0.000
833.002; 2289.975;  157.875;    0.000
833.188; 2285.975;  169.875;    0.000
833.374; 2203.975;  144.875;    0.000
833.560; 2264.975;  179.875;    0.000
833.746; 2277.975;  134.875;    0.000
833.932; 2241.975;  150.875;    0.000
834.118; 2207.975;   98.875;    0.000
834.303; 2128.975;  121.875;    0.000
834.489; 2153.975;  179.875;    0.000
834.675; 2121.975;  136.875;    0.000
834.861; 2133.975;  130.875;    0.000
835.047; 2266.975;  132.875;    0.000
835.233; 1985.975;  104.875;    0.000
835.418; 2299.975;  143.875;    0.000
835.604; 1999.975;  127.875;    0.000
835.790; 2051.975;  138.875;    0.000
835.976; 1956.975;  137.875;    0.000
836.161; 2309.975;  155.875;    0.000
836.347; 2092.975;  101.875;    0.000
836.533; 2024.975;  121.875;    0.000
836.718; 1954.975;  150.875;    0.000
836.904; 2009.975;  168.875;    0.000
837.089; 2053.975;  169.875;    0.000
837.275; 1955.975;  172.875;    0.000
837.460; 1959.975;  140.875;    0.000
837.646; 1928.975;  144.875;    0.000
837.831; 1945.975;  137.875;    0.000
838.017; 1971.975;  176.875;    0.000
838.202; 1970.975;  107.875;    0.000
838.388; 1972.975;  181.875;    0.000
838.573; 1941.975;  151.875;    0.000
838.759; 1775.975;  160.875;    0.000
838.944; 2020.975;  121.875;    0.000
839.129; 1918.975;  145.875;    0.000
839.315; 1905.975;  166.875;    0.000
839.500; 1907.975;  143.875;    0.000
839.685; 1876.975;   93.875;    0.000
839.870; 2035.975;  160.875;    0.000
840.056; 1934.975;  132.875;    0.000
840.241; 1963.975;  154.875;    0.000
840.426; 1870.975;  161.875;    0.000
840.611; 1977.975;  186.875;    0.000
840.796; 1874.975;  135.875;    0.000
840.981; 1964.975;  147.875;    0.000
841.166; 1972.975;  138.875;    0.000
841.352; 1916.975;  156.875;    0.000
841.537; 1999.975;  170.875;    0.000
841.722; 1964.975;  143.875;    0.000
841.907; 1995.975;  143.875;    0.000
842.092; 1945.975;  166.875;    0.000
842.277; 2083.975;  113.875;    0.000
842.461; 2012.975;  126.875;    0.000
842.646; 2167.975;  145.875;    0.000
842.831; 2104.975;  193.875;    0.000
843.016; 2117.975;  162.875;    0.000
843.201; 2206.975;  144.875;    0.000
843.386; 2223.975;  160.875;    0.000
843.571; 2266.975;  136.875;    0.000
843.755; 2459.975;  134.875;    0.000
843.940; 2627.975;  136.875;    0.000
844.125; 2812.975;  169.875;    0.000
844.310; 3326.975;  189.875;    0.000
844.494; 4208.975;  167.875;    0.000
844.679; 6058.975;  184.875;    0.000
844.864; 6424.975;  147.875;    0.000
845.048; 4579.975;  140.875;    0.000
845.233; 4156.975;  178.875;    0.000
845.418; 3499.975;  145.875;    0.000
845.602; 3118.975;  147.875;    0.000
845.787; 2793.975;  147.875;    0.000
845.971; 2714.975;  165.875;    0.000
846.156; 2427.975;  106.875;    0.000
846.340; 2298.975;  168.875;    0.000
846.525; 2242.975;  155.875;    0.000
846.709; 2059.975;  157.875;    0.000
846.893; 2158.975;  166.875;    0.000
847.078; 1996.975;  138.875;    0.000
847.262; 1860.975;  171.875;    0.000
847.447; 1946.975;  135.875;    0.000
847.631; 2002.975;  136.875;    0.000
847.815; 1816.975;  136.875;    0.000
848.000; 1773.975;  126.875;    0.000
848.184; 1935.975;  131.875;    0.000
848.368; 1688.975;  153.875;    0.000
848.552; 1746.975;  137.875;    0.000
848.736; 1859.975;  151.875;    0.000
848.921; 1759.975;  156.875;    0.000
849.105; 1602.975;  153.875;    0.000
849.289; 1651.975;  180.875;    0.000
849.473; 1606.975;  156.875;    0.000
849.657; 1700.975;  157.875;    0.000
849.841; 1612.975;  147.875;    0.000
850.025; 1680.975;  194.875;    0.000
850.209; 1520.975;  147.875;    0.000
850.393; 1550.975;  141.875;    0.000
850.577; 1573.975;  156.875;    0.000
850.761; 1497.975;  157.875;    0.000
850.945; 1653.975;  128.875;    0.000
851.129; 1647.975;  151.875;    0.000
851.313; 1598.975;  180.875;    0.000
851.497; 1569.975;  123.875;    0.000
851.680; 1551.975;  188.875;    0.000
851.864; 1569.975;  177.875;    0.000
852.048; 1594.975;  163.875;    0.000
852.232; 1648.975;  149.875;    0.000
852.416; 1585.975;  187.875;    0.000
852.599; 1506.975;  169.875;    0.000
852.783; 1421.975;  154.875;    0.000
852.967; 1526.975;  191.875;    0.000
853.150; 1429.975;  170.875;    0.000
853.334; 1521.975;  173.875;    0.000
853.518; 1564.975;  186.875;    0.000
853.701; 1447.975;  142.875;    0.000
853.885; 1422.975;  153.875;    0.000
854.068; 1415.975;  132.875;    0.000
854.252; 1565.975;  184.875;    0.000
854.435; 1551.975;  152.875;    0.000
854.619; 1444.975;  152.875;    0.000
854.802; 1464.975;  164.875;    0.000
854.986; 1442.975;  151.875;    0.000
855.169; 1531.975;  153.875;    0.000
855.353; 1474.975;  183.875;    0.000
855.536; 1441.975;  113.875;    0.000
855.719; 1541.975;  181.875;    0.000
855.903; 1542.975;  159.875;    0.000
856.086; 1490.975;  142.875;    0.000
856.269; 1450.975;  171.875;    0.000
856.452; 1485.975;  132.875;    0.000
856.636; 1605.975;  140.875;    0.000
856.819; 1580.975;  165.875;    0.000
857.002; 1746.975;  170.875;    0.000
857.185; 1722.975;  173.875;    0.000
857.368; 1653.975;  129.875;    0.000
857.552; 1615.975;  151.875;    0.000
857.735; 1695.975;  146.875;    0.000
857.918; 1646.975;  114.875;    0.000
858.101; 1654.975;  152.875;    0.000
858.284; 1507.975;  164.875;    0.000
858.467; 1624.975;  147.875;    0.000
858.650; 1642.975;  146.875;    0.000
858.833; 1688.975;  118.875;    0.000
859.016; 1796.975;  161.875;    0.000
859.199; 1730.975;  135.875;    0.000
859.382; 1751.975;  157.875;    0.000
859.564; 1926.975;  124.875;    0.000
859.747; 1979.975;  154.875;    0.000
859.930; 1817.975;  138.875;    0.000
860.113; 1774.975;  153.875;    0.000
860.296; 1990.975;  180.875;    0.000
860.478; 1678.975;  145.875;    0.000
860.661; 1770.975;  160.875;    0.000
860.844; 1711.975;   96.875;    0.000
861.027; 1714.975;  128.875;    0.000
861.209; 1626.975;  127.875;    0.000
861.392; 1668.975;  126.875;    0.000
861.575; 1696.975;  155.875;    0.000
861.757; 1728.975;  141.875;    0.000
861.940; 1746.975;  181.875;    0.000
862.122; 1816.975;  145.875;    0.000
862.305; 1805.975;  124.875;    0.000
862.487; 1855.975;  151.875;    0.000
862.670; 1785.975;  132.875;    0.000
862.852; 2210.975;  112.875;    0.000
863.035; 2637.975;  116.875;    0.000
863.217; 2769.975;  131.875;    0.000
863.400; 2406.975;  145.875;    0.000
863.582; 2223.975;  147.875;    0.000
863.764; 2120.975;  163.875;    0.000
863.947; 2195.975;  129.875;    0.000
864.129; 1949.975;  159.875;    0.000
864.311; 1912.975;  144.875;    0.000
864.493; 2054.975;  141.875;    0.000
864.676; 1869.975;  159.875;    0.000
864.858; 1840.975;  146.875;    0.000
865.040; 1921.975;  163.875;    0.000
865.222; 1917.975;  133.875;    0.000
865.404; 1978.975;  148.875;    0.000
865.587; 1939.975;  177.875;    0.000
865.769; 2075.975;  172.875;    0.000
865.951; 2107.975;  145.875;    0.000
866.133; 1941.975;  168.875;    0.000
866.315; 1900.975;  147.875;    0.000
866.497; 1952.975;  164.875;    0.000
866.679; 1964.975;  143.875;    0.000
866.861; 2166.975;  170.875;    0.000
867.043; 2191.975;  185.875;    0.000
867.225; 2241.975;  149.875;    0.000
867.407; 2421.975;  143.875;    0.000
867.589; 2683.975;  169.875;    0.000
867.770; 3212.975;  166.875;    0.000
867.952; 4436.975;  158.875;    0.000
868.134; 6139.975;  170.875;    0.000
868.316; 6257.975;  157.875;    0.000
868.498; 6000.975;  186.875;    0.000
868.679; 5029.975;  158.875;    0.000
868.861; 4249.975;  180.875;    0.000
869.043; 3558.975;  164.875;    0.000
869.224; 3189.975;  156.875;    0.000
869.406; 2659.975;  176.875;    0.000
869.588; 2671.975;  152.875;    0.000
869.769; 2487.975;  131.875;    0.000
869.951; 2468.975;  203.875;    0.000
870.132; 2323.975;  143.875;    0.000
870.314; 2818.975;  129.875;    0.000
870.495; 2790.975;  175.875;    0.000
870.677; 2540.975;  165.875;    0.000
870.858; 2475.975;  151.875;    0.000
871.040; 2618.975;  155.875;    0.000
871.221; 3076.975;  144.875;    0.000
871.403; 3050.975;  131.875;    0.000
871.584; 2577.975;  174.875;    0.000
871.765; 2556.975;  169.875;    0.000
871.947; 2916.975;  187.875;    0.000
872.128; 2645.975;  181.875;    0.000
872.309; 2320.975;  129.875;    0.000
872.491; 2029.975;  142.875;    0.000
872.672; 1939.975;  158.875;    0.000
872.853; 2021.975;  179.875;    0.000
873.034; 1875.975;  164.875;    0.000
873.215; 1857.975;  168.875;    0.000
873.396; 1703.975;  114.875;    0.000
873.578; 1528.975;  126.875;    0.000
873.759; 1555.975;  177.875;    0.000
873.940; 1590.975;  169.875;    0.000
874.121; 1517.975;  133.875;    0.000
874.302; 1544.975;  164.875;    0.000
874.483; 1463.975;  162.875;    0.000
874.664; 1506.975;  140.875;    0.000
874.845; 1520.975;  124.875;    0.000
875.026; 1529.975;  146.875;    0.000
875.207; 1421.975;  147.875;    0.000
875.388; 1396.975;  174.875;    0.000
875.568; 1470.975;  179.875;    0.000
875.749; 1377.975;  155.875;    0.000
875.930; 1391.975;  166.875;    0.000
876.111; 1413.975;  153.875;    0.000
876.292; 1309.975;  146.875;    0.000
876.472; 1324.975;  167.875;    0.000
876.653; 1319.975;  145.875;    0.000
876.834; 1252.975;  172.875;    0.000
877.015; 1383.975;  184.875;    0.000
877.195; 1311.975;  160.875;    0.000
877.376; 1319.975;  163.875;    0.000
877.556; 1262.975;  164.875;    0.000
877.737; 1291.975;  179.875;    0.000
877.918; 1308.975;  137.875;    0.000
878.098; 1240.975;  117.875;    0.000
878.279; 1310.975;  135.875;    0.000
878.459; 1176.975;  149.875;    0.000
878.640; 1298.975;  171.875;    0.000
878.820; 1149.975;  142.875;    0.000
879.000; 1315.975;  166.875;    0.000
879.181; 1222.975;  177.875;    0.000
879.361; 1273.975;  176.875;    0.000
879.542; 1246.975;  159.875;    0.000
879.722; 1225.975;  122.875;    0.000
879.902; 1206.975;  166.875;    0.000
880.083; 1166.975;  164.875;    0.000
880.263; 1197.975;  139.875;    0.000
880.443; 1294.975;  179.875;    0.000
880.623; 1355.975;  154.875;    0.000
880.803; 1484.975;  160.875;    0.000
880.984; 1326.975;  181.875;    0.000
881.164; 1361.975;  167.875;    0.000
881.344; 1294.975;  141.875;    0.000
881.524; 1344.975;  190.875;    0.000
881.704; 1313.975;  165.875;    0.000
881.884; 1330.975;  144.875;    0.000
882.064; 1483.975;  135.875;    0.000
882.244; 1384.975;  186.875;    0.000
882.424; 1461.975;  150.875;    0.000
882.604; 1295.975;  168.875;    0.000
882.784; 1286.975;  155.875;    0.000
882.964; 1278.975;  137.875;    0.000
883.144; 1201.975;  136.875;    0.000
883.324; 1249.975;  200.875;    0.000
883.504; 1296.975;  203.875;    0.000
883.683; 1210.975;  149.875;    0.000
883.863; 1238.975;  160.875;    0.000
884.043; 1145.975;  161.875;    0.000
884.223; 1193.975;  147.875;    0.000
884.402; 1133.975;  175.875;    0.000
884.582; 1200.975;  188.875;    0.000
884.762; 1152.975;  173.875;    0.000
884.941; 1253.975;  164.875;    0.000
885.121; 1235.975;  147.875;    0.000
885.301; 1055.975;  135.875;    0.000
885.480; 1223.975;  145.875;    0.000
885.660; 1113.975;  144.875;    0.000
885.839; 1197.975;  155.875;    0.000
886.019; 1162.975;  207.875;    0.000
886.198; 1152.975;  165.875;    0.000
886.378; 1138.975;  120.875;    0.000
886.557; 1097.975;  133.875;    0.000
886.737; 1083.975;  119.875;    0.000
886.916; 1142.975;  129.875;    0.000
887.095; 1075.975;  158.875;    0.000
887.275; 1218.975;  169.875;    0.000
887.454; 1075.975;  184.875;    0.000
887.633; 1098.975;  143.875;    0.000
887.813; 1042.975;  154.875;    0.000
887.992; 1084.975;  188.875;    0.000
888.171; 1170.975;  176.875;    0.000
888.350; 1090.975;  161.875;    0.000
888.530; 1116.975;  163.875;    0.000
888.709; 1052.975;  136.875;    0.000
888.888; 1121.975;  177.875;    0.000
889.067; 1078.975;  169.875;    0.000
889.246; 1186.975;  188.875;    0.000
889.425; 1099.975;  187.875;    0.000
889.604; 1159.975;  169.875;    0.000
889.783; 1075.975;  182.875;    0.000
889.962; 1072.975;  112.875;    0.000
890.141; 1064.975;  231.875;    0.000
890.320; 1094.975;  161.875;    0.000
890.499; 1214.975;  164.875;    0.000
890.678;  998.975;  176.875;    0.000
890.857; 1113.975;  163.875;    0.000
891.036; 1163.975;  161.875;    0.000
891.214; 1092.975;  156.875;    0.000
891.393; 1092.975;  167.875;    0.000
891.572; 1104.975;  163.875;    0.000
891.751; 1061.975;  205.875;    0.000
891.930; 1110.975;  162.875;    0.000
892.108; 1077.975;  153.875;    0.000
892.287; 1085.975;  153.875;    0.000
892.466; 1037.975;  201.875;    0.000
892.644; 1127.975;  158.875;    0.000
892.823; 1006.975;  122.875;    0.000
893.001; 1051.975;  148.875;    0.000
893.180; 1055.975;  142.875;    0.000
893.359; 1091.975;  192.875;    0.000
893.537; 1028.975;  166.875;    0.000
893.716; 1140.975;  144.875;    0.000
893.894; 1114.975;  145.875;    0.000
894.073; 1030.975;  180.875;    0.000
894.251; 1044.975;  165.875;    0.000
894.429; 1031.975;  182.875;    0.000
894.608; 1091.975;  181.875;    0.000
894.786; 1118.975;  180.875;    0.000
894.964; 1004.975;  207.875;    0.000
895.143; 1071.975;  190.875;    0.000
895.321; 1068.975;  206.875;    0.000
895.499; 1042.975;  164.875;    0.000
895.677; 1092.975;  199.875;    0.000
895.856; 1115.975;  203.875;    0.000
896.034; 1168.975;  200.875;    0.000
896.212; 1113.975;  198.875;    0.000
896.390; 1134.975;  161.875;    0.000
896.568; 1047.975;  205.875;    0.000
896.746; 1074.975;  185.875;    0.000
896.924; 1131.975;  179.875;    0.000
897.102; 1109.975;  190.875;    0.000
897.280; 1056.975;  160.875;    0.000
897.458; 1074.975;  196.875;    0.000
897.636; 1154.975;  168.875;    0.000
897.814; 1152.975;  159.875;    0.000
897.992; 1127.975;  216.875;    0.000
898.170; 1121.975;  195.875;    0.000
898.348; 1156.975;  185.875;    0.000
898.526; 1128.975;  199.875;    0.000
898.704; 1119.975;  215.875;    0.000
898.882; 1094.975;  195.875;    0.000
899.059; 1193.975;  197.875;    0.000
899.237; 1035.975;  168.875;    0.000
899.415; 1227.975;  221.875;    0.000
899.593; 1118.975;  171.875;    0.000
899.770; 1110.975;  191.875;    0.000
899.948; 1115.975;  206.875;    0.000
900.125; 1132.975;  175.875;    0.000
900.303; 1128.975;  176.875;    0.000
900.481; 1146.975;  199.875;    0.000
900.658; 1142.975;  217.875;    0.000
900.836; 1104.975;  192.875;    0.000
901.013; 1115.975;  221.875;    0.000
901.191; 1187.975;  203.875;    0.000
901.368; 1188.975;  189.875;    0.000
901.546; 1290.975;  212.875;    0.000
901.723; 1181.975;  189.875;    0.000
901.901; 1308.975;  198.875;    0.000
902.078; 1230.975;  193.875;    0.000
902.255; 1273.975;  176.875;    0.000
902.433; 1222.975;  201.875;    0.000
902.610; 1163.975;  170.875;    0.000
902.787; 1251.975;  164.875;    0.000
902.964; 1216.975;  216.875;    0.000
903.142; 1237.975;  153.875;    0.000
903.319; 1316.975;  204.875;    0.000
903.496; 1358.975;  188.875;    0.000
903.673; 1340.975;  209.875;    0.000
903.850; 1333.975;  173.875;    0.000
904.027; 1379.975;  186.875;    0.000
904.204; 1495.975;  241.875;    0.000
904.381; 1584.975;  187.875;    0.000
904.558; 1831.975;  196.875;    0.000
904.735; 2093.975;  206.875;    0.000
904.912; 1900.975;  228.875;    0.000
905.089; 1968.975;  172.875;    0.000
905.266; 1925.975;  175.875;    0.000
905.443; 1784.975;  239.875;    0.000
905.620; 1579.975;  176.875;    0.000
905.797; 1501.975;  205.875;    0.000
905.974; 1521.975;  187.875;    0.000
906.151; 1473.975;  135.875;    0.000
906.327; 1515.975;  209.875;    0.000
906.504; 1512.975;  145.875;    0.000
906.681; 1483.975;  178.875;    0.000
906.858; 1459.975;  179.875;    0.000
907.034; 1343.975;  221.875;    0.000
907.211; 1278.975;  166.875;    0.000
907.388; 1339.975;  206.875;    0.000
907.564; 1280.975;  150.875;    0.000
907.741; 1292.975;  187.875;    0.000
907.917; 1360.975;  180.875;    0.000
908.094; 1246.975;  206.875;    0.000
908.271; 1260.975;  184.875;    0.000
908.447; 1381.975;  212.875;    0.000
908.623; 1187.975;  193.875;    0.000
908.800; 1233.975;  185.875;    0.000
908.976; 1230.975;  202.875;    0.000
909.153; 1237.975;  175.875;    0.000
909.329; 1201.975;  193.875;    0.000
909.505; 1122.975;  154.875;    0.000
909.682; 1229.975;  188.875;    0.000
909.858; 1144.975;  162.875;    0.000
910.034; 1119.975;  181.875;    0.000
910.211; 1179.975;  142.875;    0.000
910.387; 1160.975;  200.875;    0.000
910.563; 1199.975;  163.875;    0.000
910.739; 1173.975;  156.875;    0.000
910.915; 1078.975;  202.875;    0.000
911.091; 1164.975;  186.875;    0.000
911.268; 1113.975;  167.875;    0.000
911.444; 1086.975;  193.875;    0.000
911.620; 1123.975;  175.875;    0.000
911.796; 1174.975;  168.875;    0.000
911.972; 1123.975;  154.875;    0.000
912.148; 1121.975;  201.875;    0.000
912.324; 1160.975;  146.875;    0.000
912.500; 1120.975;  185.875;    0.000
912.676; 1120.975;  183.875;    0.000
912.851; 1134.975;  204.875;    0.000
913.027; 1083.975;  196.875;    0.000
913.203; 1193.975;  174.875;    0.000
913.379; 1021.975;  210.875;    0.000
913.555; 1117.975;  197.875;    0.000
913.730; 1128.975;  209.875;    0.000
913.906; 1008.975;  169.875;    0.000
914.082; 1059.975;  236.875;    0.000
914.258; 1197.975;  216.875;    0.000
914.433; 1117.975;  212.875;    0.000
914.609; 1123.975;  180.875;    0.000
914.784; 1115.975;  176.875;    0.000
914.960; 1054.975;  227.875;    0.000
915.136; 1057.975;  149.875;    0.000
915.311; 1129.975;  165.875;    0.000
915.487; 1110.975;  167.875;    0.000
915.662; 1106.975;  225.875;    0.000
915.838; 1196.975;  165.875;    0.000
916.013; 1127.975;  188.875;    0.000
916.189; 1051.975;  200.875;    0.000
916.364; 1166.975;  201.875;    0.000
916.539; 1208.975;  240.875;    0.000
916.715; 1171.975;  180.875;    0.000
916.890; 1230.975;  191.875;    0.000
917.065; 1172.975;  211.875;    0.000
917.240; 1086.975;  212.875;    0.000
917.416; 1143.975;  207.875;    0.000
917.591; 1124.975;  189.875;    0.000
917.766; 1156.975;  205.875;    0.000
917.941; 1115.975;  191.875;    0.000
918.116; 1116.975;  195.875;    0.000
918.292; 1080.975;  183.875;    0.000
918.467; 1177.975;  206.875;    0.000
918.642; 1159.975;  190.875;    0.000
918.817; 1154.975;  193.875;    0.000
918.992; 1027.975;  171.875;    0.000
919.167; 1107.975;  191.875;    0.000
919.342; 1153.975;  202.875;    0.000
919.517; 1206.975;  182.875;    0.000
919.692; 1200.975;  190.875;    0.000
919.867; 1176.975;  221.875;    0.000
920.041; 1252.975;  195.875;    0.000
920.216; 1263.975;  226.875;    0.000
920.391; 1314.975;  230.875;    0.000
920.566; 1277.975;  210.875;    0.000
920.741; 1313.975;  204.875;    0.000
920.915; 1405.975;  213.875;    0.000
921.090; 1532.975;  194.875;    0.000
921.265; 1956.975;  234.875;    0.000
921.439; 2513.975;  228.875;    0.000
921.614; 2103.975;  199.875;    0.000
921.789; 1757.975;  194.875;    0.000
921.963; 1557.975;  236.875;    0.000
922.138; 1445.975;  192.875;    0.000
922.312; 1539.975;  203.875;    0.000
922.487; 1526.975;  207.875;    0.000
922.661; 1591.975;  216.875;    0.000
922.836; 1967.975;  199.875;    0.000
923.010; 2097.975;  179.875;    0.000
923.185; 1926.975;  241.875;    0.000
923.359; 1664.975;  199.875;    0.000
923.534; 1714.975;  227.875;    0.000
923.708; 1732.975;  213.875;    0.000
923.882; 1983.975;  203.875;    0.000
924.057; 1798.975;  194.875;    0.000
924.231; 1687.975;  185.875;    0.000
924.405; 1532.975;  223.875;    0.000
924.579; 1435.975;  196.875;    0.000
924.753; 1566.975;  209.875;    0.000
924.928; 1360.975;  202.875;    0.000
925.102; 1528.975;  184.875;    0.000
925.276; 1385.975;  191.875;    0.000
925.450; 1462.975;  199.875;    0.000
925.624; 1424.975;  190.875;    0.000
925.798; 1493.975;  214.875;    0.000
925.972; 1543.975;  193.875;    0.000
926.146; 1715.975;  191.875;    0.000
926.320; 1762.975;  177.875;    0.000
926.494; 1867.975;  190.875;    0.000
926.668; 1937.975;  182.875;    0.000
926.842; 1970.975;  182.875;    0.000
927.016; 1996.975;  235.875;    0.000
927.190; 2042.975;  234.875;    0.000
927.363; 1962.975;  214.875;    0.000
927.537; 1807.975;  198.875;    0.000
927.711; 1770.975;  154.875;    0.000
927.885; 1789.975;  167.875;    0.000
928.058; 1706.975;  210.875;    0.000
928.232; 1638.975;  206.875;    0.000
928.406; 1672.975;  176.875;    0.000
928.579; 1556.975;  182.875;    0.000
928.753; 1681.975;  179.875;    0.000
928.927; 1570.975;  186.875;    0.000
929.100; 1470.975;  188.875;    0.000
929.274; 1447.975;  167.875;    0.000
929.447; 1481.975;  152.875;    0.000
929.621; 1397.975;  195.875;    0.000
929.794; 1536.975;  200.875;    0.000
929.968; 1382.975;  203.875;    0.000
930.141; 1382.975;  237.875;    0.000
930.315; 1381.975;  165.875;    0.000
930.488; 1355.975;  175.875;    0.000
930.661; 1365.975;  173.875;    0.000
930.835; 1346.975;  171.875;    0.000
931.008; 1310.975;  210.875;    0.000
931.181; 1273.975;  206.875;    0.000
931.354; 1278.975;  195.875;    0.000
931.528; 1301.975;  178.875;    0.000
931.701; 1242.975;  179.875;    0.000
931.874; 1236.975;  150.875;    0.000
932.047; 1249.975;  154.875;    0.000
932.220; 1180.975;  185.875;    0.000
932.393; 1223.975;  166.875;    0.000
932.566; 1218.975;  171.875;    0.000
932.739; 1191.975;  196.875;    0.000
932.912; 1255.975;  212.875;    0.000
933.085; 1163.975;  234.875;    0.000
933.258; 1290.975;  212.875;    0.000
933.431; 1034.975;  181.875;    0.000
933.604; 1162.975;  201.875;    0.000
933.777; 1190.975;  201.875;    0.000
933.950; 1122.975;  176.875;    0.000
934.123; 1184.975;  175.875;    0.000
934.296; 1180.975;  174.875;    0.000
934.468; 1146.975;  186.875;    0.000
934.641; 1126.975;  192.875;    0.000
934.814; 1148.975;  187.875;    0.000
934.987; 1145.975;  165.875;    0.000
935.159; 1193.975;  162.875;    0.000
935.332; 1154.975;  210.875;    0.000
935.505; 1190.975;  191.875;    0.000
935.677; 1127.975;  159.875;    0.000
935.850; 1157.975;  170.875;    0.000
936.022; 1135.975;  172.875;    0.000
936.195; 1118.975;  202.875;    0.000
936.367; 1166.975;  179.875;    0.000
936.540; 1194.975;  207.875;    0.000
936.712; 1193.975;  200.875;    0.000
936.885; 1140.975;  219.875;    0.000
937.057; 1172.975;  150.875;    0.000
937.229; 1200.975;  187.875;    0.000
937.402; 1208.975;  169.875;    0.000
937.574; 1189.975;  127.875;    0.000
937.746; 1149.975;  171.875;    0.000
937.919; 1271.975;  176.875;    0.000
938.091; 1299.975;  193.875;    0.000
938.263; 1385.975;  200.875;    0.000
938.435; 1439.975;  181.875;    0.000
938.608; 1673.975;  191.875;    0.000
938.780; 1850.975;  173.875;    0.000
938.952; 2022.975;  184.875;    0.000
939.124; 2015.975;  171.875;    0.000
939.296; 2150.975;  156.875;    0.000
939.468; 2343.975;  147.875;    0.000
939.640; 2006.975;  186.875;    0.000
939.812; 1988.975;  217.875;    0.000
939.984; 1628.975;  155.875;    0.000
940.156; 1686.975;  191.875;    0.000
940.328; 1580.975;  201.875;    0.000
940.500; 1370.975;  176.875;    0.000
940.672; 1411.975;  190.875;    0.000
940.843; 1383.975;  143.875;    0.000
941.015; 1384.975;  189.875;    0.000
941.187; 1265.975;  172.875;    0.000
941.359; 1316.975;  175.875;    0.000
941.531; 1348.975;  154.875;    0.000
941.702; 1186.975;  183.875;    0.000
941.874; 1147.975;  140.875;    0.000
942.046; 1197.975;  177.875;    0.000
942.217; 1209.975;  147.875;    0.000
942.389; 1315.975;  196.875;    0.000
942.560; 1266.975;  163.875;    0.000
942.732; 1272.975;  187.875;    0.000
942.904; 1199.975;  226.875;    0.000
943.075; 1093.975;  159.875;    0.000
943.247; 1060.975;  209.875;    0.000
943.418; 1076.975;  167.875;    0.000
943.589; 1123.975;  195.875;    0.000
943.761; 1114.975;  190.875;    0.000
943.932; 1185.975;  187.875;    0.000
944.104; 1089.975;  194.875;    0.000
944.275; 1067.975;  177.875;    0.000
944.446; 1128.975;  155.875;    0.000
944.617; 1066.975;  176.875;    0.000
944.789;  991.975;  171.875;    0.000
944.960; 1035.975;  172.875;    0.000
945.131; 1110.975;  158.875;    0.000
945.302; 1049.975;  201.875;    0.000
945.473;  930.975;  141.875;    0.000
945.645; 1054.975;  197.875;    0.000
945.816; 1096.975;  165.875;    0.000
945.987; 1114.975;  190.875;    0.000
946.158; 1121.975;  158.875;    0.000
946.329; 1058.975;  160.875;    0.000
946.500; 1004.975;  190.875;    0.000
946.671;  965.975;  152.875;    0.000
946.842; 1026.975;  182.875;    0.000
947.013; 1009.975;  160.875;    0.000
947.183; 1042.975;  203.875;    0.000
947.354;  991.975;  174.875;    0.000
947.525;  971.975;  173.875;    0.000
947.696; 1052.975;  170.875;    0.000
947.867; 1007.975;  187.875;    0.000
948.037;  956.975;  165.875;    0.000
948.208; 1048.975;  154.875;    0.000
948.379; 1054.975;  176.875;    0.000
948.550;  965.975;  176.875;    0.000
948.720;  942.975;  169.875;    0.000
948.891; 1033.975;  216.875;    0.000
949.061;  963.975;  200.875;    0.000
949.232;  956.975;  163.875;    0.000
949.403;  909.975;  157.875;    0.000
949.573;  968.975;  158.875;    0.000
949.744;  957.975;  213.875;    0.000
949.914;  942.975;  177.875;    0.000
950.085;  935.975;  195.875;    0.000
950.255; 1071.975;  166.875;    0.000
950.425;  965.975;  196.875;    0.000
950.596;  993.975;  176.875;    0.000
950.766; 1040.975;  228.875;    0.000
950.936;  958.975;  185.875;    0.000
951.107;  920.975;  178.875;    0.000
951.277; 1027.975;  227.875;    0.000
951.447;  907.975;  219.875;    0.000
951.617;  917.975;  219.875;    0.000
951.788;  946.975;  198.875;    0.000
951.958;  989.975;  202.875;    0.000
952.128;  932.975;  197.875;    0.000
952.298;  984.975;  211.875;    0.000
952.468; 1011.975;  233.875;    0.000
952.638;  922.975;  222.875;    0.000
952.808;  907.975;  210.875;    0.000
952.978;  923.975;  216.875;    0.000
953.148;  961.975;  203.875;    0.000
953.318;  870.975;  212.875;    0.000
953.488;  960.975;  156.875;    0.000
953.658; 1010.975;  226.875;    0.000
953.828;  918.975;  223.875;    0.000
953.998;  971.975;  209.875;    0.000
954.167; 1018.975;  203.875;    0.000
954.337;  951.975;  209.875;    0.000
954.507;  938.975;  252.875;    0.000
954.677;  938.975;  207.875;    0.000
954.846;  968.975;  240.875;    0.000
955.016;  942.975;  197.875;    0.000
955.186;  896.975;  208.875;    0.000
955.355;  952.975;  243.875;    0.000
955.525;  940.975;  211.875;    0.000
955.695;  887.975;  187.875;    0.000
955.864;  928.975;  204.875;    0.000
956.034;  903.975;  199.875;    0.000
956.203;  927.975;  257.875;    0.000
956.373;  847.975;  193.875;    0.000
956.542;  842.975;  187.875;    0.000
956.711;  901.975;  259.875;    0.000
956.881;  890.975;  227.875;    0.000
957.050;  864.975;  260.875;    0.000
957.220;  894.975;  246.875;    0.000
957.389;  846.975;  211.875;    0.000
957.558;  873.975;  197.875;    0.000
957.727;  894.975;  227.875;    0.000
957.897;  889.975;  219.875;    0.000
958.066;  852.975;  180.875;    0.000
958.235;  816.975;  179.875;    0.000
958.404;  877.975;  194.875;    0.000
958.573;  846.975;  235.875;    0.000
958.743;  821.975;  191.875;    0.000
958.912;  879.975;  181.875;    0.000
959.081;  877.975;  193.875;    0.000
959.250;  799.975;  180.875;    0.000
959.419;  890.975;  205.875;    0.000
959.588;  885.975;  241.875;    0.000
959.757;  814.975;  202.875;    0.000
959.926;  853.975;  212.875;    0.000
960.094;  774.975;  199.875;    0.000
960.263;  916.975;  226.875;    0.000
960.432;  911.975;  188.875;    0.000
960.601;  780.975;  200.875;    0.000
960.770;  815.975;  197.875;    0.000
960.939;  786.975;  195.875;    0.000
961.107;  865.975;  198.875;    0.000
961.276;  868.975;  151.875;    0.000
961.445;  909.975;  227.875;    0.000
961.613;  862.975;  186.875;    0.000
961.782;  872.975;  187.875;    0.000
961.951;  791.975;  194.875;    0.000
962.119;  841.975;  227.875;    0.000
962.288;  847.975;  181.875;    0.000
962.456;  816.975;  206.875;    0.000
962.625;  923.975;  181.875;    0.000
962.793;  910.975;  216.875;    0.000
962.962;  919.975;  237.875;    0.000
963.130;  848.975;  194.875;    0.000
963.298;  813.975;  190.875;    0.000
963.467;  856.975;  204.875;    0.000
963.635;  758.975;  159.875;    0.000
963.803;  810.975;  208.875;    0.000
963.972;  851.975;  206.875;    0.000
964.140;  867.975;  178.875;    0.000
964.308;  803.975;  185.875;    0.000
964.477;  818.975;  189.875;    0.000
964.645;  848.975;  201.875;    0.000
964.813;  868.975;  200.875;    0.000
964.981;  814.975;  160.875;    0.000
965.149;  894.975;  230.875;    0.000
965.317;  878.975;  214.875;    0.000
965.485;  813.975;  190.875;    0.000
965.653;  847.975;  239.875;    0.000
965.821;  830.975;  211.875;    0.000
965.989;  842.975;  216.875;    0.000
966.157;  790.975;  198.875;    0.000
966.325;  851.975;  200.875;    0.000
966.493;  848.975;  187.875;    0.000
966.661;  906.975;  181.875;    0.000
966.829;  846.975;  181.875;    0.000
966.996;  890.975;  220.875;    0.000
967.164;  822.975;  179.875;    0.000
967.332;  903.975;  203.875;    0.000
967.500;  878.975;  200.875;    0.000
967.667;  886.975;  196.875;    0.000
967.835;  876.975;  199.875;    0.000
968.003;  920.975;  191.875;    0.000
968.170;  900.975;  141.875;    0.000
968.338;  906.975;  185.875;    0.000
968.505;  886.975;  199.875;    0.000
968.673;  913.975;  191.875;    0.000
968.841;  759.975;  165.875;    0.000
969.008;  899.975;  192.875;    0.000
969.175;  806.975;  172.875;    0.000
969.343;  804.975;  191.875;    0.000
969.510;  809.975;  199.875;    0.000
969.678;  798.975;  156.875;    0.000
969.845;  860.975;  191.875;    0.000
970.012;  880.975;  205.875;    0.000
970.180;  807.975;  201.875;    0.000
970.347;  853.975;  229.875;    0.000
970.514;  836.975;  207.875;    0.000
970.681;  851.975;  169.875;    0.000
970.849;  801.975;  196.875;    0.000
971.016;  796.975;  212.875;    0.000
971.183;  845.975;  178.875;    0.000
971.350;  837.975;  193.875;    0.000
971.517;  854.975;  190.875;    0.000
971.684;  951.975;  261.875;    0.000
971.851;  879.975;  203.875;    0.000
972.018;  815.975;  184.875;    0.000
972.185;  851.975;  226.875;    0.000
972.352;  828.975;  180.875;    0.000
972.519;  844.975;  226.875;    0.000
972.686;  768.975;  233.875;    0.000
972.853;  886.975;  173.875;    0.000
973.020;  874.975;  208.875;    0.000
973.186;  827.975;  173.875;    0.000
973.353;  773.975;  218.875;    0.000
973.520;  841.975;  218.875;    0.000
973.687;  772.975;  176.875;    0.000
973.853;  872.975;  203.875;    0.000
974.020;  872.975;  196.875;    0.000
974.187;  781.975;  188.875;    0.000
974.353;  861.975;  230.875;    0.000
974.520;  905.975;  195.875;    0.000
974.687;  741.975;  209.875;    0.000
974.853;  751.975;  189.875;    0.000
975.020;  821.975;  179.875;    0.000
975.186;  771.975;  204.875;    0.000
975.353;  811.975;  201.875;    0.000
975.519;  839.975;  200.875;    0.000
975.685;  696.975;  176.875;    0.000
975.852;  853.975;  197.875;    0.000
976.018;  830.975;  201.875;    0.000
976.184;  814.975;  176.875;    0.000
976.351;  842.975;  221.875;    0.000
976.517;  875.975;  203.875;    0.000
976.683;  863.975;  236.875;    0.000
976.849;  838.975;  190.875;    0.000
977.016;  802.975;  173.875;    0.000
977.182;  842.975;  200.875;    0.000
977.348;  798.975;  179.875;    0.000
977.514;  768.975;  159.875;    0.000
977.680;  824.975;  200.875;    0.000
977.846;  760.975;  206.875;    0.000
978.012;  820.975;  219.875;    0.000
978.178;  772.975;  229.875;    0.000
978.344;  753.975;  195.875;    0.000
978.510;  819.975;  209.875;    0.000
978.676;  709.975;  190.875;    0.000
978.842;  763.975;  195.875;    0.000
979.008;  777.975;  186.875;    0.000
979.174;  831.975;  185.875;    0.000
979.340;  774.975;  198.875;    0.000
979.505;  815.975;  214.875;    0.000
979.671;  824.975;  159.875;    0.000
979.837;  743.975;  202.875;    0.000
980.003;  826.975;  190.875;    0.000
980.168;  800.975;  216.875;    0.000
980.334;  832.975;  194.875;    0.000
980.499;  793.975;  229.875;    0.000
980.665;  808.975;  240.875;    0.000
980.831;  820.975;  202.875;    0.000
980.996;  805.975;  179.875;    0.000
981.162;  831.975;  212.875;    0.000
981.327;  839.975;  202.875;    0.000
981.493;  783.975;  219.875;    0.000
981.658;  757.975;  218.875;    0.000
981.823;  821.975;  207.875;    0.000
981.989;  812.975;  207.875;    0.000
982.154;  846.975;  224.875;    0.000
982.319;  816.975;  217.875;    0.000
982.485;  835.975;  266.875;    0.000
982.650;  839.975;  245.875;    0.000
982.815;  803.975;  229.875;    0.000
982.980;  852.975;  203.875;    0.000
983.146;  795.975;  242.875;    0.000
983.311;  738.975;  144.875;    0.000
983.476;  796.975;  222.875;    0.000
983.641;  728.975;  206.875;    0.000
983.806;  713.975;  217.875;    0.000
983.971;  810.975;  254.875;    0.000
984.136;  854.975;  217.875;    0.000
984.301;  721.975;  202.875;    0.000
984.466;  785.975;  206.875;    0.000
984.631;  757.975;  224.875;    0.000
984.796;  794.975;  218.875;    0.000
984.961;  822.975;  202.875;    0.000
985.126;  827.975;  238.875;    0.000
985.291;  803.975;  220.875;    0.000
985.455;  755.975;  223.875;    0.000
985.620;  814.975;  218.875;    0.000
985.785;  718.975;  228.875;    0.000
985.950;  820.975;  212.875;    0.000
986.114;  842.975;  215.875;    0.000
986.279;  852.975;  243.875;    0.000
986.444;  806.975;  222.875;    0.000
986.608;  814.975;  243.875;    0.000
986.773;  797.975;  213.875;    0.000
986.937;  868.975;  267.875;    0.000
987.102;  861.975;  235.875;    0.000
987.266;  790.975;  210.875;    0.000
987.431;  794.975;  239.875;    0.000
987.595;  759.975;  230.875;    0.000
987.760;  851.975;  229.875;    0.000
987.924;  805.975;  217.875;    0.000
988.088;  746.975;  210.875;    0.000
988.253;  750.975;  215.875;    0.000
988.417;  794.975;  186.875;    0.000
988.581;  818.975;  214.875;    0.000
988.746;  827.975;  212.875;    0.000
988.910;  812.975;  192.875;    0.000
989.074;  864.975;  195.875;    0.000
989.238;  776.975;  226.875;    0.000
989.402;  776.975;  214.875;    0.000
989.566;  814.975;  201.875;    0.000
989.731;  801.975;  199.875;    0.000
989.895;  795.975;  205.875;    0.000
990.059;  779.975;  204.875;    0.000
990.223;  765.975;  182.875;    0.000
990.387;  752.975;  220.875;    0.000
990.551;  779.975;  199.875;    0.000
990.714;  766.975;  202.875;    0.000
990.878;  802.975;  201.875;    0.000
991.042;  791.975;  202.875;    0.000
991.206;  767.975;  215.875;    0.000
991.370;  808.975;  217.875;    0.000
991.534;  714.975;  152.875;    0.000
991.697;  764.975;  194.875;    0.000
991.861;  852.975;  208.875;    0.000
992.025;  738.975;  209.875;    0.000
992.188;  713.975;  182.875;    0.000
992.352;  800.975;  181.875;    0.000
992.516;  743.975;  192.875;    0.000
992.679;  723.975;  183.875;    0.000
992.843;  722.975;  156.875;    0.000
993.006;  749.975;  192.875;    0.000
993.170;  743.975;  172.875;    0.000
993.333;  760.975;  195.875;    0.000
993.497;  770.975;  185.875;    0.000
993.660;  800.975;  155.875;    0.000
993.824;  769.975;  199.875;    0.000
993.987;  778.975;  211.875;    0.000
994.150;  721.975;  173.875;    0.000
994.314;  786.975;  202.875;    0.000
994.477;  775.975;  171.875;    0.000
994.640;  733.975;  191.875;    0.000
994.803;  752.975;  203.875;    0.000
994.967;  751.975;  198.875;    0.000
995.130;  792.975;  192.875;    0.000
995.293;  758.975;  211.875;    0.000
995.456;  773.975;  207.875;    0.000
995.619;  821.975;  207.875;    0.000
995.782;  780.975;  186.875;    0.000
995.945;  745.975;  203.875;    0.000
996.108;  704.975;  195.875;    0.000
996.271;  783.975;  195.875;    0.000
996.434;  747.975;  179.875;    0.000
996.597;  763.975;  170.875;    0.000
996.760;  729.975;  161.875;    0.000
996.923;  743.975;  177.875;    0.000
997.086;  686.975;  199.875;    0.000
997.248;  738.975;  225.875;    0.000
997.411;  664.975;  194.875;    0.000
997.574;  801.975;  204.875;    0.000
997.737;  752.975;  236.875;    0.000
997.899;  726.975;  191.875;    0.000
998.062;  840.975;  178.875;    0.000
998.225;  689.975;  176.875;    0.000
998.387;  743.975;  203.875;    0.000
998.550;  757.975;  155.875;    0.000
998.712;  748.975;  169.875;    0.000
998.875;  847.975;  234.875;    0.000
999.037;  723.975;  211.875;    0.000
999.200;  760.975;  185.875;    0.000
999.362;  735.975;  199.875;    0.000
999.525;  765.975;  234.875;    0.000
999.687;  800.975;  194.875;    0.000
999.849;  762.975;  223.875;    0.000
1000.012;  755.975;  222.875;    0.000
1000.174;  718.975;  187.875;    0.000
1000.336;  751.975;  204.875;    0.000
1000.499;  761.975;  240.875;    0.000
1000.661;  832.975;  215.875;    0.000
1000.823;  758.975;  206.875;    0.000
1000.985;  754.975;  197.875;    0.000
1001.147;  786.975;  221.875;    0.000
1001.309;  767.975;  207.875;    0.000
1001.471;  743.975;  227.875;    0.000
1001.633;  724.975;  208.875;    0.000
1001.796;  720.975;  158.875;    0.000
1001.958;  804.975;  210.875;    0.000
1002.119;  708.975;  223.875;    0.000
1002.281;  824.975;  211.875;    0.000
1002.443;  801.975;  227.875;    0.000
1002.605;  851.975;  186.875;    0.000
1002.767;  841.975;  242.875;    0.000
1002.929;  993.975;  219.875;    0.000
1003.091;  907.975;  191.875;    0.000
1003.252;  957.975;  233.875;    0.000
1003.414;  956.975;  214.875;    0.000
1003.576;  875.975;  186.875;    0.000
1003.738;  951.975;  175.875;    0.000
1003.899; 1076.975;  237.875;    0.000
1004.061; 1071.975;  220.875;    0.000
1004.222; 1231.975;  186.875;    0.000
1004.384; 1160.975;  216.875;    0.000
1004.546; 1182.975;  203.875;    0.000
1004.707; 1191.975;  216.875;    0.000
1004.869; 1184.975;  219.875;    0.000
1005.030; 1260.975;  188.875;    0.000
1005.191; 1167.975;  223.875;    0.000
1005.353; 1294.975;  227.875;    0.000
1005.514; 1150.975;  235.875;    0.000
1005.675; 1181.975;  201.875;    0.000
1005.837; 1141.975;  199.875;    0.000
1005.998; 1196.975;  219.875;    0.000
1006.159; 1082.975;  235.875;    0.000
1006.321; 1064.975;  199.875;    0.000
1006.482; 1057.975;  222.875;    0.000
1006.643; 1137.975;  195.875;    0.000
1006.804; 1145.975;  205.875;    0.000
1006.965; 1096.975;  199.875;    0.000
1007.126; 1049.975;  231.875;    0.000
1007.287; 1063.975;  208.875;    0.000
1007.448; 1113.975;  205.875;    0.000
1007.609; 1153.975;  256.875;    0.000
1007.770; 1225.975;  231.875;    0.000
1007.931; 1117.975;  223.875;    0.000
1008.092; 1192.975;  217.875;    0.000
1008.253; 1149.975;  236.875;    0.000
1008.414; 1113.975;  197.875;    0.000
1008.575; 1203.975;  233.875;    0.000
1008.736;  993.975;  193.875;    0.000
1008.896; 1115.975;  238.875;    0.000
1009.057; 1175.975;  245.875;    0.000
1009.218; 1211.975;  240.875;    0.000
1009.379; 1230.975;  210.875;    0.000
1009.539; 1235.975;  234.875;    0.000
1009.700; 1166.975;  228.875;    0.000
1009.860; 1224.975;  238.875;    0.000
1010.021; 1144.975;  199.875;    0.000
1010.182; 1198.975;  214.875;    0.000
1010.342; 1220.975;  216.875;    0.000
1010.503; 1284.975;  207.875;    0.000
1010.663; 1301.975;  258.875;    0.000
1010.823; 1255.975;  243.875;    0.000
1010.984; 1348.975;  268.875;    0.000
1011.144; 1217.975;  217.875;    0.000
1011.305; 1511.975;  237.875;    0.000
1011.465; 1325.975;  216.875;    0.000
1011.625; 1480.975;  195.875;    0.000
1011.785; 1433.975;  201.875;    0.000
1011.946; 1445.975;  200.875;    0.000
1012.106; 1570.975;  206.875;    0.000
1012.266; 1313.975;  227.875;    0.000
1012.426; 1519.975;  221.875;    0.000
1012.586; 1429.975;  198.875;    0.000
1012.746; 1459.975;  215.875;    0.000
1012.906; 1544.975;  226.875;    0.000
1013.066; 1473.975;  221.875;    0.000
1013.226; 1332.975;  202.875;    0.000
1013.386; 1475.975;  210.875;    0.000
1013.546; 1434.975;  243.875;    0.000
1013.706; 1353.975;  200.875;    0.000
1013.866; 1317.975;  232.875;    0.000
1014.026; 1413.975;  206.875;    0.000
1014.186; 1362.975;  222.875;    0.000
1014.346; 1474.975;  233.875;    0.000
1014.505; 1353.975;  241.875;    0.000
1014.665; 1473.975;  225.875;    0.000
1014.825; 1321.975;  196.875;    0.000
1014.985; 1460.975;  234.875;    0.000
1015.144; 1560.975;  232.875;    0.000
1015.304; 1511.975;  214.875;    0.000
1015.464; 1429.975;  210.875;    0.000
1015.623; 1411.975;  219.875;    0.000
1015.783; 1525.975;  216.875;    0.000
1015.942; 1487.975;  267.875;    0.000
1016.102; 1614.975;  234.875;    0.000
1016.261; 1511.975;  230.875;    0.000
1016.420; 1650.975;  225.875;    0.000
1016.580; 1809.975;  205.875;    0.000
1016.739; 1734.975;  199.875;    0.000
1016.899; 1786.975;  218.875;    0.000
1017.058; 1934.975;  204.875;    0.000
1017.217; 1956.975;  196.875;    0.000
1017.376; 1903.975;  204.875;    0.000
1017.536; 1854.975;  195.875;    0.000
1017.695; 1834.975;  216.875;    0.000
1017.854; 1838.975;  235.875;    0.000
1018.013; 1725.975;  189.875;    0.000
1018.172; 1566.975;  217.875;    0.000
1018.331; 1682.975;  215.875;    0.000
1018.490; 1784.975;  233.875;    0.000
1018.649; 1588.975;  211.875;    0.000
1018.808; 1739.975;  196.875;    0.000
1018.967; 1752.975;  222.875;    0.000
1019.126; 1838.975;  221.875;    0.000
1019.285; 1831.975;  212.875;    0.000
1019.444; 1791.975;  231.875;    0.000
1019.603; 1644.975;  227.875;    0.000
1019.762; 1747.975;  192.875;    0.000
1019.921; 1768.975;  240.875;    0.000
1020.079; 1746.975;  209.875;    0.000
1020.238; 1860.975;  211.875;    0.000
1020.397; 1849.975;  253.875;    0.000
1020.555; 1782.975;  179.875;    0.000
1020.714; 1795.975;  225.875;    0.000
1020.873; 1964.975;  232.875;    0.000
1021.031; 1817.975;  245.875;    0.000
1021.190; 1795.975;  230.875;    0.000
1021.348; 1884.975;  221.875;    0.000
1021.507; 2010.975;  212.875;    0.000
1021.665; 1921.975;  211.875;    0.000
1021.824; 1949.975;  206.875;    0.000
1021.982; 1788.975;  218.875;    0.000
1022.141; 1915.975;  232.875;    0.000
1022.299; 2016.975;  193.875;    0.000
1022.457; 2065.975;  217.875;    0.000
1022.616; 1819.975;  248.875;    0.000
1022.774; 1869.975;  222.875;    0.000
1022.932; 1930.975;  211.875;    0.000
1023.090; 1923.975;  288.875;    0.000
1023.249; 2045.975;  214.875;    0.000
1023.407; 1874.975;  233.875;    0.000
1023.565; 1871.975;  208.875;    0.000
1023.723; 1982.975;  217.875;    0.000
1023.881; 2084.975;  235.875;    0.000
1024.039; 1881.975;  228.875;    0.000
1024.197; 1866.975;  216.875;    0.000
1024.355; 1804.975;  251.875;    0.000
1024.513; 1870.975;  232.875;    0.000
1024.671; 2061.975;  217.875;    0.000
1024.829; 2057.975;  255.875;    0.000
1024.987; 1902.975;  203.875;    0.000
1025.145; 1999.975;  239.875;    0.000
1025.302; 1960.975;  209.875;    0.000
1025.460; 2079.975;  224.875;    0.000
1025.618; 2259.975;  193.875;    0.000
1025.776; 1940.975;  209.875;    0.000
1025.933; 1964.975;  229.875;    0.000
1026.091; 2077.975;  218.875;    0.000
1026.249; 2140.975;  269.875;    0.000
1026.406; 2106.975;  264.875;    0.000
1026.564; 1961.975;  230.875;    0.000
1026.721; 1977.975;  198.875;    0.000
1026.879; 1993.975;  216.875;    0.000
1027.036; 2181.975;  226.875;    0.000
1027.194; 2282.975;  245.875;    0.000
1027.351; 2067.975;  236.875;    0.000
1027.509; 2051.975;  262.875;    0.000
1027.666; 1965.975;  227.875;    0.000
1027.823; 2085.975;  214.875;    0.000
1027.981; 2486.975;  258.875;    0.000
1028.138; 2338.975;  239.875;    0.000
1028.295; 2172.975;  226.875;    0.000
1028.452; 1941.975;  225.875;    0.000
1028.609; 2095.975;  276.875;    0.000
1028.767; 2384.975;  228.875;    0.000
1028.924; 2444.975;  213.875;    0.000
1029.081; 2405.975;  232.875;    0.000
1029.238; 2085.975;  250.875;    0.000
1029.395; 2050.975;  255.875;    0.000
1029.552; 2183.975;  217.875;    0.000
1029.709; 2481.975;  210.875;    0.000
1029.866; 2607.975;  243.875;    0.000
1030.023; 2293.975;  202.875;    0.000
1030.180; 2076.975;  233.875;    0.000
1030.337; 1910.975;  234.875;    0.000
1030.494; 2169.975;  222.875;    0.000
1030.650; 2446.975;  241.875;    0.000
1030.807; 2427.975;  206.875;    0.000
1030.964; 2371.975;  206.875;    0.000
1031.121; 2154.975;  228.875;    0.000
1031.277; 1979.975;  228.875;    0.000
1031.434; 2188.975;  234.875;    0.000
1031.591; 2414.975;  250.875;    0.000
1031.747; 2472.975;  246.875;    0.000
1031.904; 2522.975;  201.875;    0.000
1032.060; 2220.975;  237.875;    0.000
1032.217; 2225.975;  232.875;    0.000
1032.373; 2160.975;  210.875;    0.000
1032.530; 2451.975;  246.875;    0.000
1032.686; 2784.975;  196.875;    0.000
1032.843; 2711.975;  212.875;    0.000
1032.999; 2523.975;  243.875;    0.000
1033.155; 2513.975;  234.875;    0.000
1033.312; 2552.975;  246.875;    0.000
1033.468; 2587.975;  233.875;    0.000
1033.624; 3208.975;  237.875;    0.000
1033.780; 3416.975;  263.875;    0.000
1033.937; 3481.975;  214.875;    0.000
1034.093; 3231.975;  230.875;    0.000
1034.249; 3400.975;  206.875;    0.000
1034.405; 3195.975;  238.875;    0.000
1034.561; 3245.975;  231.875;    0.000
1034.717; 3485.975;  228.875;    0.000
1034.873; 3626.975;  262.875;    0.000
1035.029; 3757.975;  252.875;    0.000
1035.185; 3434.975;  232.875;    0.000
1035.341; 3183.975;  245.875;    0.000
1035.497; 3471.975;  253.875;    0.000
1035.653; 3264.975;  252.875;    0.000
1035.809; 3923.975;  245.875;    0.000
1035.964; 4006.975;  229.875;    0.000
1036.120; 4044.975;  226.875;    0.000
1036.276; 3950.975;  236.875;    0.000
1036.432; 3925.975;  203.875;    0.000
1036.587; 3544.975;  228.875;    0.000
1036.743; 3766.975;  240.875;    0.000
1036.899; 3773.975;  220.875;    0.000
1037.054; 3900.975;  153.875;    0.000
1037.210; 4313.975;  219.875;    0.000
1037.365; 4443.975;  229.875;    0.000
1037.521; 4306.975;  257.875;    0.000
1037.676; 4297.975;  211.875;    0.000
1037.832; 3743.975;  234.875;    0.000
1037.987; 3779.975;  235.875;    0.000
1038.143; 3684.975;  176.875;    0.000
1038.298; 4292.975;  262.875;    0.000
1038.453; 4393.975;  209.875;    0.000
1038.609; 4630.975;  230.875;    0.000
1038.764; 4604.975;  253.875;    0.000
1038.919; 4451.975;  195.875;    0.000
1039.074; 4667.975;  234.875;    0.000
1039.229; 4201.975;  234.875;    0.000
1039.385; 4044.975;  266.875;    0.000
1039.540; 4453.975;  252.875;    0.000
1039.695; 4888.975;  231.875;    0.000
1039.850; 4886.975;  208.875;    0.000
1040.005; 4733.975;  232.875;    0.000
1040.160; 5477.975;  214.875;    0.000
1040.315; 5333.975;  221.875;    0.000
1040.470; 4965.975;  207.875;    0.000
1040.625; 4226.975;  249.875;    0.000
1040.780; 4503.975;  251.875;    0.000
1040.935; 4663.975;  254.875;    0.000
1041.089; 4741.975;  210.875;    0.000
1041.244; 5413.975;  225.875;    0.000
1041.399; 5388.975;  208.875;    0.000
1041.554; 5276.975;  249.875;    0.000
1041.708; 5650.975;  254.875;    0.000
1041.863; 5739.975;  248.875;    0.000
1042.018; 6003.975;  280.875;    0.000
1042.172; 5905.975;  233.875;    0.000
1042.327; 5031.975;  256.875;    0.000
1042.481; 5384.975;  210.875;    0.000
1042.636; 5676.975;  229.875;    0.000
1042.791; 6038.975;  215.875;    0.000
1042.945; 6423.975;  256.875;    0.000
1043.099; 6256.975;  251.875;    0.000
1043.254; 6159.975;  204.875;    0.000
1043.408; 6773.975;  278.875;    0.000
1043.563; 6980.975;  211.875;    0.000
1043.717; 6722.975;  259.875;    0.000
1043.871; 6041.975;  233.875;    0.000
1044.025; 6266.975;  221.875;    0.000
1044.180; 5927.975;  208.875;    0.000
1044.334; 6215.975;  255.875;    0.000
1044.488; 6182.975;  269.875;    0.000
1044.642; 6903.975;  228.875;    0.000
1044.796; 7814.975;  232.875;    0.000
1044.950; 8292.975;  249.875;    0.000
1045.104; 7670.975;  205.875;    0.000
1045.258; 7966.975;  206.875;    0.000
1045.412; 8158.975;  251.875;    0.000
1045.566; 7430.975;  249.875;    0.000
1045.720; 7709.975;  206.875;    0.000
1045.874; 6954.975;  232.875;    0.000
1046.028; 6932.975;  266.875;    0.000
1046.182; 6508.975;  217.875;    0.000
1046.336; 7298.975;  216.875;    0.000
1046.489; 7613.975;  236.875;    0.000
1046.643; 7976.975;  253.875;    0.000
1046.797; 7891.975;  244.875;    0.000
1046.951; 8541.975;  234.875;    0.000
1047.104; 9028.975;  281.875;    0.000
1047.258; 8765.975;  253.875;    0.000
1047.411; 8439.975;  228.875;    0.000
1047.565; 8340.975;  273.875;    0.000
1047.719; 8103.975;  232.875;    0.000
1047.872; 7817.975;  230.875;    0.000
1048.026; 7857.975;  282.875;    0.000
1048.179; 7900.975;  225.875;    0.000
1048.332; 7727.975;  234.875;    0.000
1048.486; 7388.975;  223.875;    0.000
1048.639; 8273.975;  248.875;    0.000
1048.792; 9179.975;  244.875;    0.000
1048.946; 9237.975;  210.875;    0.000
1049.099;10430.975;  242.875;    0.000
1049.252; 9745.975;  269.875;    0.000
1049.406; 9491.975;  285.875;    0.000
1049.559; 9996.975;  277.875;    0.000
1049.712;10121.975;  254.875;    0.000
1049.865;10196.975;  252.875;    0.000
1050.018; 9657.975;  270.875;    0.000
1050.171; 8812.975;  230.875;    0.000
1050.324; 8965.975;  268.875;    0.000
1050.477; 8849.975;  262.875;    0.000
1050.630; 8163.975;  243.875;    0.000
1050.783; 9483.975;  216.875;    0.000
1050.936; 9517.975;  250.875;    0.000
1051.089; 8943.975;  247.875;    0.000
1051.242;10415.975;  300.875;    0.000
1051.394;10116.975;  233.875;    0.000
1051.547; 9998.975;  263.875;    0.000
1051.700;10515.975;  238.875;    0.000
1051.853;10588.975;  299.875;    0.000
1052.005;11588.975;  275.875;    0.000
1052.158;11373.975;  304.875;    0.000
1052.311;12420.975;  251.875;    0.000
1052.463;10910.975;  276.875;    0.000
1052.616;10775.975;  271.875;    0.000
1052.768;10855.975;  285.875;    0.000
1052.921;10659.975;  261.875;    0.000
1053.073;11145.975;  333.875;    0.000
1053.226;10694.975;  271.875;    0.000
1053.378;10976.975;  309.875;    0.000
1053.531;10932.975;  266.875;    0.000
1053.683;11072.975;  278.875;    0.000
1053.835; 9889.975;  274.875;    0.000
1053.988; 8174.975;  287.875;    0.000
1054.140; 2823.975;  350.875;    0.000
1054.292;  885.975;  338.875;    0.000
1054.444;  769.975;  270.875;    0.000
1054.596;  753.975;  294.875;    0.000
1054.749;  664.975;  285.875;    0.000
1054.901;  564.975;  254.875;    0.000
1055.053;  625.975;  320.875;    0.000
1055.205;  617.975;  284.875;    0.000
1055.357;  619.975;  298.875;    0.000
1055.509;  587.975;  304.875;    0.000
1055.661;  625.975;  350.875;    0.000
1055.813;  571.975;  289.875;    0.000
1055.965;  555.975;  277.875;    0.000
1056.116;  566.975;  288.875;    0.000
1056.268;  548.975;  311.875;    0.000
1056.420;  559.975;  308.875;    0.000

