
Integration time [ms]:   0.300
Averaging Nr. [scans]: 1
Smoothing Nr. [pixels]: 0
Data measured with spectrometer [name]: UV1
Wave   ;Sample   ;Dark     ;Reference
[nm]   ;[counts] ;[counts] ;[counts] 

236.381;  155.375;  149.925;    0.000
236.451;  186.375;  206.925;    0.000
236.520;  159.375;  212.925;    0.000
236.590;  197.375;  189.925;    0.000
236.660;  158.375;  184.925;    0.000
236.730;  175.375;  186.925;    0.000
236.799;  194.375;  191.925;    0.000
236.869;  201.375;  184.925;    0.000
236.939;  182.375;  176.925;    0.000
237.009;  204.375;  184.925;    0.000
237.078;  209.375;  189.925;    0.000
237.148;  170.375;  217.925;    0.000
237.218;  204.375;  192.925;    0.000
237.287;  168.375;  182.925;    0.000
237.357;  179.375;  196.925;    0.000
237.427;  196.375;  144.925;    0.000
237.496;  552.375;  224.925;    0.000
237.566;  507.375;  210.925;    0.000
237.636;  469.375;  165.925;    0.000
237.705;  577.375;  214.925;    0.000
237.775;  525.375;  194.925;    0.000
237.845;  573.375;  214.925;    0.000
237.914;  561.375;  191.925;    0.000
237.984;  596.375;  218.925;    0.000
238.054;  532.375;  187.925;    0.000
238.123;  516.375;  179.925;    0.000
238.193;  482.375;  177.925;    0.000
238.263;  494.375;  225.925;    0.000
238.332;  513.375;  197.925;    0.000
238.402;  493.375;  183.925;    0.000
238.471;  499.375;  181.925;    0.000
238.541;  520.375;  200.925;    0.000
238.611;  514.375;  170.925;    0.000
238.680;  490.375;  170.925;    0.000
238.750;  494.375;  175.925;    0.000
238.819;  559.375;  180.925;    0.000
238.889;  451.375;  190.925;    0.000
238.958;  494.375;  207.925;    0.000
239.028;  498.375;  201.925;    0.000
239.097;  526.375;  181.925;    0.000
239.167;  491.375;  222.925;    0.000
239.237;  523.375;  221.925;    0.000
239.306;  508.375;  147.925;    0.000
239.376;  514.375;  188.925;    0.000
239.445;  522.375;  198.925;    0.000
239.515;  475.375;  191.925;    0.000
239.584;  519.375;  178.925;    0.000
239.654;  503.375;  147.925;    0.000
239.723;  548.375;  212.925;    0.000
239.793;  532.375;  185.925;    0.000
239.862;  511.375;  157.925;    0.000
239.932;  473.375;  181.925;    0.000
240.001;  519.375;  163.925;    0.000
240.070;  503.375;  194.925;    0.000
240.140;  505.375;  202.925;    0.000
240.209;  471.375;  180.925;    0.000
240.279;  492.375;  188.925;    0.000
240.348;  519.375;  189.925;    0.000
240.418;  547.375;  143.925;    0.000
240.487;  526.375;  195.925;    0.000
240.556;  515.375;  170.925;    0.000
240.626;  523.375;  172.925;    0.000
240.695;  487.375;  202.925;    0.000
240.765;  551.375;  191.925;    0.000
240.834;  496.375;  177.925;    0.000
240.903;  511.375;  189.925;    0.000
240.973;  479.375;  196.925;    0.000
241.042;  513.375;  183.925;    0.000
241.112;  551.375;  189.925;    0.000
241.181;  519.375;  186.925;    0.000
241.250;  477.375;  168.925;    0.000
241.320;  541.375;  200.925;    0.000
241.389;  486.375;  185.925;    0.000
241.458;  507.375;  194.925;    0.000
241.528;  521.375;  165.925;    0.000
241.597;  506.375;  200.925;    0.000
241.666;  498.375;  184.925;    0.000
241.736;  542.375;  176.925;    0.000
241.805;  473.375;  165.925;    0.000
241.874;  520.375;  200.925;    0.000
241.943;  482.375;  184.925;    0.000
242.013;  508.375;  212.925;    0.000
242.082;  498.375;  200.925;    0.000
242.151;  454.375;  196.925;    0.000
242.221;  479.375;  182.925;    0.000
242.290;  494.375;  222.925;    0.000
242.359;  449.375;  142.925;    0.000
242.428;  502.375;  180.925;    0.000
242.498;  490.375;  180.925;    0.000
242.567;  535.375;  181.925;    0.000
242.636;  502.375;  203.925;    0.000
242.705;  518.375;  209.925;    0.000
242.774;  514.375;  172.925;    0.000
242.844;  512.375;  218.925;    0.000
242.913;  495.375;  188.925;    0.000
242.982;  532.375;  193.925;    0.000
243.051;  514.375;  202.925;    0.000
243.120;  506.375;  174.925;    0.000
243.190;  487.375;  165.925;    0.000
243.259;  521.375;  206.925;    0.000
243.328;  509.375;  166.925;    0.000
243.397;  496.375;  167.925;    0.000
243.466;  474.375;  163.925;    0.000
243.535;  427.375;  162.925;    0.000
243.605;  456.375;  159.925;    0.000
243.674;  494.375;  171.925;    0.000
243.743;  477.375;  189.925;    0.000
243.812;  498.375;  169.925;    0.000
243.881;  481.375;  145.925;    0.000
243.950;  447.375;  197.925;    0.000
244.019;  458.375;  189.925;    0.000
244.088;  464.375;  200.925;    0.000
244.158;  546.375;  208.925;    0.000
244.227;  462.375;  154.925;    0.000
244.296;  483.375;  142.925;    0.000
244.365;  500.375;  198.925;    0.000
244.434;  427.375;  162.925;    0.000
244.503;  496.375;  186.925;    0.000
244.572;  484.375;  143.925;    0.000
244.641;  455.375;  145.925;    0.000
244.710;  497.375;  159.925;    0.000
244.779;  485.375;  175.925;    0.000
244.848;  441.375;  163.925;    0.000
244.917;  493.375;  157.925;    0.000
244.986;  509.375;  166.925;    0.000
245.055;  504.375;  211.925;    0.000
245.124;  458.375;  155.925;    0.000
245.193;  486.375;  187.925;    0.000
245.262;  440.375;  152.925;    0.000
245.331;  500.375;  177.925;    0.000
245.400;  445.375;  157.925;    0.000
245.469;  492.375;  195.925;    0.000
245.538;  486.375;  199.925;    0.000
245.607;  475.375;  194.925;    0.000
245.676;  451.375;  170.925;    0.000
245.745;  482.375;  208.925;    0.000
245.814;  453.375;  185.925;    0.000
245.883;  484.375;  165.925;    0.000
245.952;  447.375;  151.925;    0.000
246.021;  441.375;  171.925;    0.000
246.090;  482.375;  174.925;    0.000
246.159;  458.375;  192.925;    0.000
246.227;  419.375;  178.925;    0.000
246.296;  463.375;  159.925;    0.000
246.365;  484.375;  189.925;    0.000
246.434;  482.375;  205.925;    0.000
246.503;  402.375;  174.925;    0.000
246.572;  519.375;  203.925;    0.000
246.641;  489.375;  169.925;    0.000
246.710;  497.375;  186.925;    0.000
246.779;  486.375;  196.925;    0.000
246.847;  480.375;  209.925;    0.000
246.916;  449.375;  177.925;    0.000
246.985;  406.375;  188.925;    0.000
247.054;  444.375;  189.925;    0.000
247.123;  420.375;  196.925;    0.000
247.192;  465.375;  210.925;    0.000
247.260;  418.375;  164.925;    0.000
247.329;  464.375;  204.925;    0.000
247.398;  461.375;  204.925;    0.000
247.467;  407.375;  160.925;    0.000
247.536;  454.375;  193.925;    0.000
247.604;  456.375;  208.925;    0.000
247.673;  435.375;  168.925;    0.000
247.742;  396.375;  182.925;    0.000
247.811;  483.375;  186.925;    0.000
247.879;  424.375;  166.925;    0.000
247.948;  451.375;  192.925;    0.000
248.017;  427.375;  178.925;    0.000
248.086;  449.375;  193.925;    0.000
248.154;  465.375;  191.925;    0.000
248.223;  437.375;  207.925;    0.000
248.292;  431.375;  168.925;    0.000
248.361;  479.375;  211.925;    0.000
248.429;  430.375;  196.925;    0.000
248.498;  410.375;  163.925;    0.000
248.567;  446.375;  159.925;    0.000
248.635;  471.375;  194.925;    0.000
248.704;  481.375;  205.925;    0.000
248.773;  396.375;  190.925;    0.000
248.841;  414.375;  179.925;    0.000
248.910;  438.375;  193.925;    0.000
248.979;  419.375;  167.925;    0.000
249.047;  396.375;  166.925;    0.000
249.116;  411.375;  191.925;    0.000
249.185;  454.375;  203.925;    0.000
249.253;  420.375;  140.925;    0.000
249.322;  425.375;  173.925;    0.000
249.390;  421.375;  165.925;    0.000
249.459;  465.375;  173.925;    0.000
249.528;  454.375;  203.925;    0.000
249.596;  443.375;  204.925;    0.000
249.665;  420.375;  176.925;    0.000
249.733;  456.375;  178.925;    0.000
249.802;  492.375;  190.925;    0.000
249.871;  396.375;  171.925;    0.000
249.939;  433.375;  160.925;    0.000
250.008;  447.375;  220.925;    0.000
250.076;  447.375;  211.925;    0.000
250.145;  439.375;  145.925;    0.000
250.213;  389.375;  177.925;    0.000
250.282;  380.375;  186.925;    0.000
250.350;  387.375;  170.925;    0.000
250.419;  413.375;  195.925;    0.000
250.487;  461.375;  194.925;    0.000
250.556;  396.375;  178.925;    0.000
250.624;  415.375;  193.925;    0.000
250.693;  419.375;  167.925;    0.000
250.761;  446.375;  253.925;    0.000
250.830;  408.375;  241.925;    0.000
250.898;  457.375;  161.925;    0.000
250.967;  395.375;  178.925;    0.000
251.035;  417.375;  189.925;    0.000
251.104;  384.375;  166.925;    0.000
251.172;  387.375;  178.925;    0.000
251.241;  400.375;  174.925;    0.000
251.309;  409.375;  197.925;    0.000
251.378;  394.375;  172.925;    0.000
251.446;  391.375;  157.925;    0.000
251.514;  453.375;  197.925;    0.000
251.583;  437.375;  191.925;    0.000
251.651;  420.375;  154.925;    0.000
251.720;  344.375;  198.925;    0.000
251.788;  457.375;  226.925;    0.000
251.856;  374.375;  164.925;    0.000
251.925;  434.375;  181.925;    0.000
251.993;  423.375;  203.925;    0.000
252.062;  457.375;  211.925;    0.000
252.130;  400.375;  185.925;    0.000
252.198;  408.375;  190.925;    0.000
252.267;  380.375;  176.925;    0.000
252.335;  365.375;  179.925;    0.000
252.403;  368.375;  173.925;    0.000
252.472;  391.375;  172.925;    0.000
252.540;  375.375;  187.925;    0.000
252.608;  403.375;  204.925;    0.000
252.677;  394.375;  179.925;    0.000
252.745;  411.375;  192.925;    0.000
252.813;  395.375;  168.925;    0.000
252.881;  363.375;  157.925;    0.000
252.950;  365.375;  188.925;    0.000
253.018;  402.375;  191.925;    0.000
253.086;  373.375;  164.925;    0.000
253.155;  353.375;  172.925;    0.000
253.223;  343.375;  168.925;    0.000
253.291;  338.375;  190.925;    0.000
253.359;  344.375;  205.925;    0.000
253.428;  392.375;  228.925;    0.000
253.496;  344.375;  170.925;    0.000
253.564;  365.375;  164.925;    0.000
253.632;  332.375;  159.925;    0.000
253.700;  365.375;  166.925;    0.000
253.769;  327.375;  172.925;    0.000
253.837;  387.375;  157.925;    0.000
253.905;  390.375;  168.925;    0.000
253.973;  325.375;  179.925;    0.000
254.041;  340.375;  187.925;    0.000
254.110;  313.375;  186.925;    0.000
254.178;  387.375;  156.925;    0.000
254.246;  374.375;  132.925;    0.000
254.314;  358.375;  191.925;    0.000
254.382;  367.375;  189.925;    0.000
254.450;  332.375;  163.925;    0.000
254.518;  363.375;  172.925;    0.000
254.587;  328.375;  162.925;    0.000
254.655;  386.375;  191.925;    0.000
254.723;  323.375;  184.925;    0.000
254.791;  349.375;  169.925;    0.000
254.859;  363.375;  186.925;    0.000
254.927;  349.375;  207.925;    0.000
254.995;  336.375;  143.925;    0.000
255.063;  383.375;  198.925;    0.000
255.131;  382.375;  168.925;    0.000
255.199;  367.375;  183.925;    0.000
255.267;  392.375;  159.925;    0.000
255.336;  365.375;  197.925;    0.000
255.404;  329.375;  177.925;    0.000
255.472;  404.375;  204.925;    0.000
255.540;  373.375;  169.925;    0.000
255.608;  385.375;  141.925;    0.000
255.676;  388.375;  176.925;    0.000
255.744;  396.375;  184.925;    0.000
255.812;  345.375;  158.925;    0.000
255.880;  378.375;  202.925;    0.000
255.948;  356.375;  184.925;    0.000
256.016;  395.375;  192.925;    0.000
256.084;  385.375;  204.925;    0.000
256.152;  380.375;  191.925;    0.000
256.220;  358.375;  187.925;    0.000
256.288;  383.375;  176.925;    0.000
256.356;  355.375;  146.925;    0.000
256.424;  376.375;  164.925;    0.000
256.491;  391.375;  161.925;    0.000
256.559;  350.375;  167.925;    0.000
256.627;  385.375;  180.925;    0.000
256.695;  353.375;  159.925;    0.000
256.763;  397.375;  166.925;    0.000
256.831;  381.375;  166.925;    0.000
256.899;  408.375;  161.925;    0.000
256.967;  358.375;  116.925;    0.000
257.035;  410.375;  195.925;    0.000
257.103;  466.375;  227.925;    0.000
257.171;  418.375;  147.925;    0.000
257.238;  431.375;  158.925;    0.000
257.306;  406.375;  188.925;    0.000
257.374;  424.375;  153.925;    0.000
257.442;  426.375;  159.925;    0.000
257.510;  424.375;  201.925;    0.000
257.578;  425.375;  137.925;    0.000
257.646;  418.375;  172.925;    0.000
257.713;  419.375;  164.925;    0.000
257.781;  420.375;  163.925;    0.000
257.849;  421.375;  174.925;    0.000
257.917;  456.375;  164.925;    0.000
257.985;  386.375;  126.925;    0.000
258.052;  451.375;  158.925;    0.000
258.120;  447.375;  151.925;    0.000
258.188;  472.375;  169.925;    0.000
258.256;  489.375;  110.925;    0.000
258.324;  510.375;  193.925;    0.000
258.391;  459.375;  157.925;    0.000
258.459;  481.375;  193.925;    0.000
258.527;  497.375;  150.925;    0.000
258.595;  484.375;  173.925;    0.000
258.662;  474.375;  168.925;    0.000
258.730;  475.375;  190.925;    0.000
258.798;  478.375;  164.925;    0.000
258.865;  480.375;  165.925;    0.000
258.933;  547.375;  162.925;    0.000
259.001;  520.375;  174.925;    0.000
259.069;  467.375;  139.925;    0.000
259.136;  550.375;  160.925;    0.000
259.204;  525.375;  174.925;    0.000
259.272;  511.375;  161.925;    0.000
259.339;  529.375;  157.925;    0.000
259.407;  529.375;  159.925;    0.000
259.475;  536.375;  134.925;    0.000
259.542;  524.375;  179.925;    0.000
259.610;  565.375;  172.925;    0.000
259.677;  484.375;  152.925;    0.000
259.745;  548.375;  131.925;    0.000
259.813;  587.375;  185.925;    0.000
259.880;  561.375;  183.925;    0.000
259.948;  566.375;  168.925;    0.000
260.016;  509.375;  160.925;    0.000
260.083;  617.375;  163.925;    0.000
260.151;  553.375;  162.925;    0.000
260.218;  660.375;  171.925;    0.000
260.286;  628.375;  154.925;    0.000
260.353;  632.375;  182.925;    0.000
260.421;  582.375;  187.925;    0.000
260.489;  612.375;  185.925;    0.000
260.556;  649.375;  165.925;    0.000
260.624;  623.375;  185.925;    0.000
260.691;  655.375;  175.925;    0.000
260.759;  642.375;  201.925;    0.000
260.826;  597.375;  150.925;    0.000
260.894;  638.375;  142.925;    0.000
260.961;  625.375;  156.925;    0.000
261.029;  663.375;  161.925;    0.000
261.096;  678.375;  172.925;    0.000
261.164;  678.375;  149.925;    0.000
261.231;  670.375;  191.925;    0.000
261.299;  640.375;  182.925;    0.000
261.366;  631.375;  156.925;    0.000
261.434;  724.375;  188.925;    0.000
261.501;  696.375;  170.925;    0.000
261.568;  714.375;  167.925;    0.000
261.636;  681.375;  169.925;    0.000
261.703;  783.375;  200.925;    0.000
261.771;  719.375;  170.925;    0.000
261.838;  751.375;  175.925;    0.000
261.906;  752.375;  135.925;    0.000
261.973;  686.375;  184.925;    0.000
262.040;  715.375;  176.925;    0.000
262.108;  703.375;  201.925;    0.000
262.175;  729.375;  141.925;    0.000
262.243;  757.375;  175.925;    0.000
262.310;  668.375;  112.925;    0.000
262.377;  747.375;  158.925;    0.000
262.445;  833.375;  162.925;    0.000
262.512;  788.375;  184.925;    0.000
262.579;  786.375;  185.925;    0.000
262.647;  785.375;  158.925;    0.000
262.714;  759.375;  197.925;    0.000
262.781;  824.375;  133.925;    0.000
262.849;  715.375;  146.925;    0.000
262.916;  796.375;  204.925;    0.000
262.983;  822.375;  191.925;    0.000
263.051;  775.375;  140.925;    0.000
263.118;  779.375;  154.925;    0.000
263.185;  797.375;  169.925;    0.000
263.252;  731.375;  150.925;    0.000
263.320;  772.375;  145.925;    0.000
263.387;  829.375;  144.925;    0.000
263.454;  831.375;  193.925;    0.000
263.522;  806.375;  160.925;    0.000
263.589;  809.375;  153.925;    0.000
263.656;  897.375;  178.925;    0.000
263.723;  828.375;  136.925;    0.000
263.790;  817.375;  162.925;    0.000
263.858;  908.375;  164.925;    0.000
263.925;  874.375;  146.925;    0.000
263.992;  918.375;  191.925;    0.000
264.059;  935.375;  180.925;    0.000
264.126;  898.375;  183.925;    0.000
264.194;  909.375;  174.925;    0.000
264.261;  936.375;  187.925;    0.000
264.328;  832.375;  179.925;    0.000
264.395;  905.375;  166.925;    0.000
264.462;  992.375;  197.925;    0.000
264.529;  966.375;  209.925;    0.000
264.597;  881.375;  173.925;    0.000
264.664;  945.375;  193.925;    0.000
264.731;  982.375;  165.925;    0.000
264.798;  929.375;  148.925;    0.000
264.865;  902.375;  186.925;    0.000
264.932;  902.375;  152.925;    0.000
264.999;  944.375;  166.925;    0.000
265.066;  942.375;  186.925;    0.000
265.133;  900.375;  172.925;    0.000
265.201; 1020.375;  159.925;    0.000
265.268;  922.375;  164.925;    0.000
265.335;  967.375;  161.925;    0.000
265.402;  936.375;  157.925;    0.000
265.469;  937.375;  134.925;    0.000
265.536;  961.375;  191.925;    0.000
265.603;  970.375;  170.925;    0.000
265.670;  957.375;  162.925;    0.000
265.737;  973.375;  172.925;    0.000
265.804;  976.375;  151.925;    0.000
265.871; 1006.375;  191.925;    0.000
265.938;  970.375;  173.925;    0.000
266.005;  992.375;  201.925;    0.000
266.072;  954.375;  156.925;    0.000
266.139; 1007.375;  191.925;    0.000
266.206; 1066.375;  151.925;    0.000
266.273;  990.375;  194.925;    0.000
266.340;  945.375;  120.925;    0.000
266.407;  994.375;  130.925;    0.000
266.474; 1059.375;  137.925;    0.000
266.541; 1034.375;  139.925;    0.000
266.608;  992.375;  139.925;    0.000
266.675; 1058.375;  198.925;    0.000
266.742; 1034.375;  165.925;    0.000
266.808; 1073.375;  174.925;    0.000
266.875; 1078.375;  169.925;    0.000
266.942;  985.375;  137.925;    0.000
267.009; 1064.375;  181.925;    0.000
267.076; 1088.375;  204.925;    0.000
267.143; 1138.375;  179.925;    0.000
267.210; 1098.375;  160.925;    0.000
267.277; 1104.375;  154.925;    0.000
267.344; 1053.375;  178.925;    0.000
267.410;  989.375;  190.925;    0.000
267.477; 1062.375;  193.925;    0.000
267.544; 1058.375;  168.925;    0.000
267.611; 1047.375;  177.925;    0.000
267.678; 1088.375;  205.925;    0.000
267.745; 1070.375;  205.925;    0.000
267.811; 1044.375;  164.925;    0.000
267.878; 1062.375;  166.925;    0.000
267.945; 1115.375;  160.925;    0.000
268.012; 1149.375;  172.925;    0.000
268.079; 1140.375;  186.925;    0.000
268.145; 1155.375;  188.925;    0.000
268.212; 1070.375;  181.925;    0.000
268.279; 1107.375;  158.925;    0.000
268.346; 1062.375;  192.925;    0.000
268.412; 1105.375;  159.925;    0.000
268.479; 1083.375;  176.925;    0.000
268.546; 1040.375;  170.925;    0.000
268.613; 1125.375;  133.925;    0.000
268.679; 1136.375;  170.925;    0.000
268.746; 1158.375;  185.925;    0.000
268.813; 1105.375;  170.925;    0.000
268.879; 1117.375;  149.925;    0.000
268.946; 1116.375;  176.925;    0.000
269.013; 1161.375;  153.925;    0.000
269.079; 1088.375;  156.925;    0.000
269.146; 1068.375;  143.925;    0.000
269.213; 1110.375;  170.925;    0.000
269.280; 1125.375;  202.925;    0.000
269.346; 1064.375;  180.925;    0.000
269.413; 1091.375;  162.925;    0.000
269.479; 1047.375;  175.925;    0.000
269.546; 1072.375;  151.925;    0.000
269.613;  998.375;  159.925;    0.000
269.679; 1117.375;  190.925;    0.000
269.746; 1129.375;  159.925;    0.000
269.813; 1171.375;  151.925;    0.000
269.879; 1033.375;  169.925;    0.000
269.946; 1110.375;  169.925;    0.000
270.012; 1124.375;  185.925;    0.000
270.079; 1126.375;  133.925;    0.000
270.145; 1041.375;  161.925;    0.000
270.212; 1076.375;  156.925;    0.000
270.279; 1030.375;  176.925;    0.000
270.345;  995.375;  140.925;    0.000
270.412; 1064.375;  162.925;    0.000
270.478; 1038.375;  148.925;    0.000
270.545; 1019.375;  146.925;    0.000
270.611; 1078.375;  168.925;    0.000
270.678;  993.375;  164.925;    0.000
270.744; 1031.375;  117.925;    0.000
270.811; 1058.375;  196.925;    0.000
270.877; 1095.375;  151.925;    0.000
270.944; 1060.375;  174.925;    0.000
271.010; 1082.375;  180.925;    0.000
271.077; 1051.375;  162.925;    0.000
271.143; 1140.375;  178.925;    0.000
271.210; 1047.375;  159.925;    0.000
271.276; 1091.375;  143.925;    0.000
271.342; 1086.375;  196.925;    0.000
271.409; 1041.375;  161.925;    0.000
271.475;  993.375;  153.925;    0.000
271.542; 1037.375;  147.925;    0.000
271.608; 1053.375;  175.925;    0.000
271.675;  994.375;  134.925;    0.000
271.741; 1138.375;  182.925;    0.000
271.807; 1080.375;  174.925;    0.000
271.874; 1090.375;  169.925;    0.000
271.940; 1062.375;  179.925;    0.000
272.007;  990.375;  173.925;    0.000
272.073; 1068.375;  133.925;    0.000
272.139; 1053.375;  191.925;    0.000
272.206; 1014.375;  168.925;    0.000
272.272; 1038.375;  179.925;    0.000
272.338; 1080.375;  224.925;    0.000
272.405; 1021.375;  156.925;    0.000
272.471; 1034.375;  175.925;    0.000
272.537; 1062.375;  190.925;    0.000
272.604; 1086.375;  199.925;    0.000
272.670; 1099.375;  156.925;    0.000
272.736;  986.375;  198.925;    0.000
272.802; 1012.375;  169.925;    0.000
272.869; 1028.375;  141.925;    0.000
272.935; 1016.375;  145.925;    0.000
273.001; 1045.375;  156.925;    0.000
273.068; 1034.375;  157.925;    0.000
273.134; 1053.375;  184.925;    0.000
273.200; 1053.375;  158.925;    0.000
273.266; 1099.375;  150.925;    0.000
273.333; 1086.375;  176.925;    0.000
273.399;  994.375;  118.925;    0.000
273.465; 1064.375;  184.925;    0.000
273.531; 1004.375;  179.925;    0.000
273.597; 1109.375;  167.925;    0.000
273.664; 1150.375;  186.925;    0.000
273.730; 1100.375;  137.925;    0.000
273.796; 1011.375;  148.925;    0.000
273.862; 1081.375;  183.925;    0.000
273.928; 1082.375;  179.925;    0.000
273.995; 1088.375;  189.925;    0.000
274.061; 1073.375;  188.925;    0.000
274.127; 1031.375;  132.925;    0.000
274.193; 1034.375;  135.925;    0.000
274.259;  988.375;  177.925;    0.000
274.325; 1105.375;  178.925;    0.000
274.391; 1044.375;  140.925;    0.000
274.457; 1079.375;  158.925;    0.000
274.524; 1056.375;  175.925;    0.000
274.590; 1039.375;  182.925;    0.000
274.656; 1110.375;  165.925;    0.000
274.722; 1031.375;  152.925;    0.000
274.788; 1097.375;  159.925;    0.000
274.854; 1093.375;  143.925;    0.000
274.920; 1097.375;  117.925;    0.000
274.986; 1056.375;  140.925;    0.000
275.052; 1105.375;  174.925;    0.000
275.118; 1108.375;  129.925;    0.000
275.184; 1122.375;  173.925;    0.000
275.250; 1156.375;  196.925;    0.000
275.316; 1085.375;  142.925;    0.000
275.382; 1144.375;  149.925;    0.000
275.448; 1185.375;  178.925;    0.000
275.514; 1090.375;  136.925;    0.000
275.580; 1151.375;  140.925;    0.000
275.646; 1072.375;  133.925;    0.000
275.712; 1119.375;  162.925;    0.000
275.778; 1104.375;  129.925;    0.000
275.844; 1016.375;  156.925;    0.000
275.910; 1181.375;  172.925;    0.000
275.976; 1155.375;  158.925;    0.000
276.042; 1141.375;  141.925;    0.000
276.108; 1231.375;  212.925;    0.000
276.174; 1197.375;  148.925;    0.000
276.240; 1132.375;  134.925;    0.000
276.306; 1185.375;  149.925;    0.000
276.372; 1256.375;  126.925;    0.000
276.437; 1187.375;  168.925;    0.000
276.503; 1194.375;  158.925;    0.000
276.569; 1267.375;  191.925;    0.000
276.635; 1172.375;  130.925;    0.000
276.701; 1203.375;  161.925;    0.000
276.767; 1279.375;  148.925;    0.000
276.833; 1244.375;  147.925;    0.000
276.899; 1259.375;  149.925;    0.000
276.964; 1281.375;  181.925;    0.000
277.030; 1361.375;  186.925;    0.000
277.096; 1283.375;  132.925;    0.000
277.162; 1319.375;  181.925;    0.000
277.228; 1221.375;  166.925;    0.000
277.293; 1378.375;  154.925;    0.000
277.359; 1344.375;  181.925;    0.000
277.425; 1425.375;  184.925;    0.000
277.491; 1519.375;  150.925;    0.000
277.557; 1612.375;  159.925;    0.000
277.622; 2144.375;  129.925;    0.000
277.688; 2099.375;  184.925;    0.000
277.754; 2192.375;  182.925;    0.000
277.820; 2371.375;  149.925;    0.000
277.885; 2665.375;  185.925;    0.000
277.951; 3353.375;  164.925;    0.000
278.017; 2941.375;  162.925;    0.000
278.083; 2393.375;  189.925;    0.000
278.148; 2427.375;  184.925;    0.000
278.214; 2334.375;  188.925;    0.000
278.280; 2566.375;  206.925;    0.000
278.345; 2358.375;  187.925;    0.000
278.411; 2064.375;  174.925;    0.000
278.477; 2087.375;  190.925;    0.000
278.542; 2218.375;  154.925;    0.000
278.608; 2120.375;  191.925;    0.000
278.674; 2538.375;  243.925;    0.000
278.739; 2599.375;  141.925;    0.000
278.805; 2941.375;  171.925;    0.000
278.871; 3142.375;  181.925;    0.000
278.936; 3935.375;  191.925;    0.000
279.002; 5546.375;  201.925;    0.000
279.067; 7567.375;  174.925;    0.000
279.133; 7510.375;  165.925;    0.000
279.199; 6450.375;  122.925;    0.000
279.264; 7009.375;  159.925;    0.000
279.330; 8384.375;  170.925;    0.000
279.395;12251.375;  173.925;    0.000
279.461;19236.375;  200.925;    0.000
279.527;23834.375;  199.925;    0.000
279.592;20108.375;  203.925;    0.000
279.658;13961.375;  209.925;    0.000
279.723;12333.375;  188.925;    0.000
279.789;14195.375;  180.925;    0.000
279.854;11420.375;  137.925;    0.000
279.920; 9219.375;  223.925;    0.000
279.985; 8074.375;  186.925;    0.000
280.051; 8334.375;  198.925;    0.000
280.116;10227.375;  178.925;    0.000
280.182;17423.375;  176.925;    0.000
280.247;21395.375;  195.925;    0.000
280.313;16754.375;  165.925;    0.000
280.378; 9890.375;  153.925;    0.000
280.444; 6845.375;  181.925;    0.000
280.509; 5355.375;  188.925;    0.000
280.574; 4667.375;  149.925;    0.000
280.640; 3922.375;  164.925;    0.000
280.705; 3624.375;  166.925;    0.000
280.771; 3304.375;  188.925;    0.000
280.836; 3059.375;  188.925;    0.000
280.902; 2779.375;  168.925;    0.000
280.967; 2768.375;  202.925;    0.000
281.032; 2761.375;  197.925;    0.000
281.098; 2507.375;  138.925;    0.000
281.163; 2497.375;  160.925;    0.000
281.229; 2425.375;  212.925;    0.000
281.294; 2263.375;  227.925;    0.000
281.359; 2248.375;  200.925;    0.000
281.425; 2295.375;  189.925;    0.000
281.490; 2160.375;  176.925;    0.000
281.555; 2114.375;  182.925;    0.000
281.621; 2067.375;  169.925;    0.000
281.686; 1867.375;  182.925;    0.000
281.751; 2011.375;  208.925;    0.000
281.816; 1931.375;  166.925;    0.000
281.882; 1916.375;  181.925;    0.000
281.947; 1791.375;  178.925;    0.000
282.012; 1851.375;  167.925;    0.000
282.078; 1849.375;  170.925;    0.000
282.143; 1885.375;  157.925;    0.000
282.208; 1977.375;  158.925;    0.000
282.273; 1831.375;  187.925;    0.000
282.339; 1753.375;  185.925;    0.000
282.404; 1846.375;  201.925;    0.000
282.469; 1732.375;  202.925;    0.000
282.534; 1754.375;  185.925;    0.000
282.600; 1735.375;  125.925;    0.000
282.665; 1674.375;  162.925;    0.000
282.730; 1706.375;  174.925;    0.000
282.795; 1815.375;  179.925;    0.000
282.860; 1652.375;  190.925;    0.000
282.926; 1513.375;  200.925;    0.000
282.991; 1576.375;  161.925;    0.000
283.056; 1678.375;  175.925;    0.000
283.121; 1617.375;  181.925;    0.000
283.186; 1687.375;  221.925;    0.000
283.251; 1570.375;  168.925;    0.000
283.316; 1721.375;  156.925;    0.000
283.382; 1770.375;  197.925;    0.000
283.447; 1686.375;  210.925;    0.000
283.512; 1547.375;  164.925;    0.000
283.577; 1776.375;  212.925;    0.000
283.642; 1616.375;  186.925;    0.000
283.707; 1572.375;  182.925;    0.000
283.772; 1630.375;  127.925;    0.000
283.837; 1625.375;  160.925;    0.000
283.902; 1713.375;  162.925;    0.000
283.967; 1629.375;  151.925;    0.000
284.032; 1715.375;  175.925;    0.000
284.097; 1664.375;  235.925;    0.000
284.163; 1686.375;  136.925;    0.000
284.228; 1654.375;  209.925;    0.000
284.293; 1656.375;  163.925;    0.000
284.358; 1721.375;  169.925;    0.000
284.423; 1717.375;  145.925;    0.000
284.488; 1628.375;  134.925;    0.000
284.553; 1722.375;  158.925;    0.000
284.618; 1669.375;  163.925;    0.000
284.683; 1870.375;  168.925;    0.000
284.748; 1830.375;  170.925;    0.000
284.812; 1999.375;  151.925;    0.000
284.877; 2190.375;  169.925;    0.000
284.942; 2408.375;  179.925;    0.000
285.007; 2948.375;  202.925;    0.000
285.072; 4028.375;  171.925;    0.000
285.137; 6293.375;  173.925;    0.000
285.202; 8308.375;  196.925;    0.000
285.267; 6931.375;  193.925;    0.000
285.332; 4475.375;  151.925;    0.000
285.397; 3165.375;  183.925;    0.000
285.462; 2928.375;  168.925;    0.000
285.527; 2383.375;  166.925;    0.000
285.591; 2281.375;  124.925;    0.000
285.656; 1987.375;  145.925;    0.000
285.721; 2018.375;  155.925;    0.000
285.786; 1901.375;  170.925;    0.000
285.851; 1841.375;  175.925;    0.000
285.916; 1806.375;  186.925;    0.000
285.981; 1789.375;  204.925;    0.000
286.045; 1718.375;  237.925;    0.000
286.110; 1784.375;  197.925;    0.000
286.175; 1738.375;  143.925;    0.000
286.240; 1824.375;  167.925;    0.000
286.305; 1738.375;  202.925;    0.000
286.369; 1748.375;  214.925;    0.000
286.434; 1829.375;  206.925;    0.000
286.499; 1752.375;  177.925;    0.000
286.564; 1723.375;  201.925;    0.000
286.628; 1670.375;  153.925;    0.000
286.693; 1705.375;  161.925;    0.000
286.758; 1664.375;  181.925;    0.000
286.823; 1635.375;  176.925;    0.000
286.887; 1645.375;  158.925;    0.000
286.952; 1674.375;  198.925;    0.000
287.017; 1662.375;  196.925;    0.000
287.082; 1617.375;  154.925;    0.000
287.146; 1607.375;  178.925;    0.000
287.211; 1678.375;  165.925;    0.000
287.276; 1596.375;  165.925;    0.000
287.340; 1626.375;  178.925;    0.000
287.405; 1698.375;  177.925;    0.000
287.470; 1537.375;  141.925;    0.000
287.534; 1620.375;  224.925;    0.000
287.599; 1545.375;  184.925;    0.000
287.663; 1676.375;  177.925;    0.000
287.728; 1700.375;  144.925;    0.000
287.793; 1644.375;  210.925;    0.000
287.857; 1623.375;  198.925;    0.000
287.922; 1644.375;  168.925;    0.000
287.987; 1621.375;  168.925;    0.000
288.051; 1697.375;  200.925;    0.000
288.116; 1603.375;  199.925;    0.000
288.180; 1589.375;  211.925;    0.000
288.245; 1579.375;  182.925;    0.000
288.309; 1630.375;  180.925;    0.000
288.374; 1712.375;  196.925;    0.000
288.439; 1623.375;  187.925;    0.000
288.503; 1590.375;  159.925;    0.000
288.568; 1667.375;  207.925;    0.000
288.632; 1562.375;  210.925;    0.000
288.697; 1563.375;  196.925;    0.000
288.761; 1671.375;  175.925;    0.000
288.826; 1626.375;  159.925;    0.000
288.890; 1651.375;  183.925;    0.000
288.955; 1684.375;  149.925;    0.000
289.019; 1633.375;  194.925;    0.000
289.084; 1627.375;  171.925;    0.000
289.148; 1642.375;  191.925;    0.000
289.212; 1559.375;  217.925;    0.000
289.277; 1561.375;  196.925;    0.000
289.341; 1626.375;  211.925;    0.000
289.406; 1627.375;  165.925;    0.000
289.470; 1564.375;  197.925;    0.000
289.535; 1637.375;  208.925;    0.000
289.599; 1702.375;  192.925;    0.000
289.663; 1612.375;  169.925;    0.000
289.728; 1619.375;  168.925;    0.000
289.792; 1579.375;  192.925;    0.000
289.857; 1594.375;  202.925;    0.000
289.921; 1638.375;  176.925;    0.000
289.985; 1645.375;  164.925;    0.000
290.050; 1671.375;  166.925;    0.000
290.114; 1667.375;  192.925;    0.000
290.178; 1646.375;  155.925;    0.000
290.243; 1586.375;  158.925;    0.000
290.307; 1562.375;  192.925;    0.000
290.371; 1605.375;  161.925;    0.000
290.436; 1661.375;  182.925;    0.000
290.500; 1686.375;  147.925;    0.000
290.564; 1648.375;  209.925;    0.000
290.629; 1512.375;  172.925;    0.000
290.693; 1632.375;  192.925;    0.000
290.757; 1654.375;  147.925;    0.000
290.821; 1634.375;  139.925;    0.000
290.886; 1523.375;  186.925;    0.000
290.950; 1569.375;  196.925;    0.000
291.014; 1739.375;  166.925;    0.000
291.078; 1570.375;  143.925;    0.000
291.143; 1620.375;  171.925;    0.000
291.207; 1727.375;  187.925;    0.000
291.271; 1544.375;  208.925;    0.000
291.335; 1527.375;  195.925;    0.000
291.399; 1600.375;  139.925;    0.000
291.464; 1639.375;  139.925;    0.000
291.528; 1651.375;  183.925;    0.000
291.592; 1669.375;  152.925;    0.000
291.656; 1695.375;  155.925;    0.000
291.720; 1635.375;  191.925;    0.000
291.784; 1733.375;  185.925;    0.000
291.849; 1661.375;  175.925;    0.000
291.913; 1606.375;  152.925;    0.000
291.977; 1691.375;  203.925;    0.000
292.041; 1711.375;  181.925;    0.000
292.105; 1684.375;  168.925;    0.000
292.169; 1544.375;  133.925;    0.000
292.233; 1676.375;  156.925;    0.000
292.297; 1657.375;  173.925;    0.000
292.361; 1669.375;  124.925;    0.000
292.425; 1651.375;  138.925;    0.000
292.490; 1619.375;  110.925;    0.000
292.554; 1711.375;  180.925;    0.000
292.618; 1778.375;  178.925;    0.000
292.682; 1808.375;  156.925;    0.000
292.746; 1729.375;  151.925;    0.000
292.810; 2121.375;  183.925;    0.000
292.874; 2517.375;  156.925;    0.000
292.938; 2362.375;  195.925;    0.000
293.002; 2167.375;  200.925;    0.000
293.066; 2042.375;  171.925;    0.000
293.130; 2010.375;  163.925;    0.000
293.194; 2014.375;  174.925;    0.000
293.258; 1980.375;  167.925;    0.000
293.322; 1895.375;  212.925;    0.000
293.386; 2008.375;  189.925;    0.000
293.450; 1972.375;  169.925;    0.000
293.514; 2228.375;  175.925;    0.000
293.577; 2481.375;  169.925;    0.000
293.641; 3077.375;  186.925;    0.000
293.705; 3251.375;  222.925;    0.000
293.769; 2943.375;  150.925;    0.000
293.833; 2649.375;  165.925;    0.000
293.897; 2248.375;  152.925;    0.000
293.961; 2356.375;  179.925;    0.000
294.025; 2139.375;  159.925;    0.000
294.089; 2241.375;  181.925;    0.000
294.152; 2064.375;  188.925;    0.000
294.216; 1961.375;  170.925;    0.000
294.280; 2019.375;  167.925;    0.000
294.344; 1853.375;  151.925;    0.000
294.408; 1892.375;  180.925;    0.000
294.472; 1865.375;  144.925;    0.000
294.536; 1794.375;  171.925;    0.000
294.599; 1771.375;  157.925;    0.000
294.663; 1724.375;  139.925;    0.000
294.727; 1799.375;  208.925;    0.000
294.791; 1768.375;  152.925;    0.000
294.855; 1778.375;  181.925;    0.000
294.918; 1757.375;  136.925;    0.000
294.982; 1807.375;  155.925;    0.000
295.046; 1751.375;  200.925;    0.000
295.110; 1705.375;  190.925;    0.000
295.173; 1732.375;  156.925;    0.000
295.237; 1626.375;  160.925;    0.000
295.301; 1585.375;  145.925;    0.000
295.364; 1629.375;  166.925;    0.000
295.428; 1740.375;  125.925;    0.000
295.492; 1659.375;  154.925;    0.000
295.556; 1718.375;  172.925;    0.000
295.619; 1696.375;  210.925;    0.000
295.683; 1648.375;  181.925;    0.000
295.747; 1579.375;  176.925;    0.000
295.810; 1675.375;  181.925;    0.000
295.874; 1656.375;  160.925;    0.000
295.938; 1533.375;  119.925;    0.000
296.001; 1525.375;  206.925;    0.000
296.065; 1527.375;  136.925;    0.000
296.128; 1495.375;  156.925;    0.000
296.192; 1629.375;  174.925;    0.000
296.256; 1540.375;  145.925;    0.000
296.319; 1432.375;  167.925;    0.000
296.383; 1613.375;  168.925;    0.000
296.447; 1607.375;  190.925;    0.000
296.510; 1562.375;  165.925;    0.000
296.574; 1637.375;  184.925;    0.000
296.637; 1655.375;  155.925;    0.000
296.701; 1586.375;  168.925;    0.000
296.764; 1567.375;  161.925;    0.000
296.828; 1556.375;  218.925;    0.000
296.891; 1540.375;  176.925;    0.000
296.955; 1525.375;  169.925;    0.000
297.018; 1582.375;  168.925;    0.000
297.082; 1529.375;  176.925;    0.000
297.145; 1459.375;  171.925;    0.000
297.209; 1493.375;  196.925;    0.000
297.272; 1494.375;  170.925;    0.000
297.336; 1488.375;  156.925;    0.000
297.399; 1444.375;  168.925;    0.000
297.463; 1461.375;  203.925;    0.000
297.526; 1540.375;  164.925;    0.000
297.590; 1498.375;  175.925;    0.000
297.653; 1521.375;  170.925;    0.000
297.717; 1633.375;  156.925;    0.000
297.780; 1474.375;  149.925;    0.000
297.843; 1541.375;  156.925;    0.000
297.907; 1552.375;  129.925;    0.000
297.970; 1514.375;  163.925;    0.000
298.034; 1554.375;  162.925;    0.000
298.097; 1482.375;  182.925;    0.000
298.160; 1516.375;  194.925;    0.000
298.224; 1449.375;  178.925;    0.000
298.287; 1544.375;  147.925;    0.000
298.350; 1508.375;  187.925;    0.000
298.414; 1504.375;  193.925;    0.000
298.477; 1475.375;  127.925;    0.000
298.540; 1376.375;  181.925;    0.000
298.604; 1453.375;  163.925;    0.000
298.667; 1465.375;  177.925;    0.000
298.730; 1461.375;  192.925;    0.000
298.794; 1375.375;  183.925;    0.000
298.857; 1497.375;  194.925;    0.000
298.920; 1482.375;  147.925;    0.000
298.984; 1492.375;  184.925;    0.000
299.047; 1450.375;  218.925;    0.000
299.110; 1427.375;  171.925;    0.000
299.173; 1358.375;  177.925;    0.000
299.237; 1446.375;  181.925;    0.000
299.300; 1423.375;  170.925;    0.000
299.363; 1386.375;  185.925;    0.000
299.426; 1381.375;  193.925;    0.000
299.489; 1392.375;  184.925;    0.000
299.553; 1492.375;  194.925;    0.000
299.616; 1493.375;  171.925;    0.000
299.679; 1416.375;  182.925;    0.000
299.742; 1382.375;  138.925;    0.000
299.805; 1403.375;  172.925;    0.000
299.868; 1461.375;  191.925;    0.000
299.932; 1402.375;  193.925;    0.000
299.995; 1343.375;  201.925;    0.000
300.058; 1404.375;  177.925;    0.000
300.121; 1491.375;  178.925;    0.000
300.184; 1324.375;  171.925;    0.000
300.247; 1302.375;  184.925;    0.000
300.310; 1361.375;  200.925;    0.000
300.374; 1441.375;  172.925;    0.000
300.437; 1369.375;  187.925;    0.000
300.500; 1379.375;  211.925;    0.000
300.563; 1392.375;  190.925;    0.000
300.626; 1466.375;  196.925;    0.000
300.689; 1394.375;  162.925;    0.000
300.752; 1246.375;  163.925;    0.000
300.815; 1393.375;  207.925;    0.000
300.878; 1349.375;  221.925;    0.000
300.941; 1356.375;  176.925;    0.000
301.004; 1334.375;  193.925;    0.000
301.067; 1450.375;  165.925;    0.000
301.130; 1448.375;  179.925;    0.000
301.193; 1352.375;  196.925;    0.000
301.256; 1315.375;  210.925;    0.000
301.319; 1354.375;  196.925;    0.000
301.382; 1338.375;  162.925;    0.000
301.445; 1375.375;  233.925;    0.000
301.508; 1263.375;  176.925;    0.000
301.571; 1333.375;  185.925;    0.000
301.634; 1340.375;  202.925;    0.000
301.697; 1308.375;  189.925;    0.000
301.760; 1415.375;  224.925;    0.000
301.823; 1361.375;  212.925;    0.000
301.885; 1372.375;  196.925;    0.000
301.948; 1351.375;  169.925;    0.000
302.011; 1297.375;  160.925;    0.000
302.074; 1411.375;  202.925;    0.000
302.137; 1292.375;  130.925;    0.000
302.200; 1289.375;  188.925;    0.000
302.263; 1277.375;  196.925;    0.000
302.326; 1236.375;  172.925;    0.000
302.388; 1329.375;  197.925;    0.000
302.451; 1337.375;  203.925;    0.000
302.514; 1330.375;  164.925;    0.000
302.577; 1280.375;  170.925;    0.000
302.640; 1287.375;  156.925;    0.000
302.703; 1400.375;  188.925;    0.000
302.765; 1392.375;  213.925;    0.000
302.828; 1410.375;  212.925;    0.000
302.891; 1427.375;  203.925;    0.000
302.954; 1377.375;  148.925;    0.000
303.016; 1333.375;  168.925;    0.000
303.079; 1385.375;  206.925;    0.000
303.142; 1364.375;  210.925;    0.000
303.205; 1311.375;  189.925;    0.000
303.267; 1314.375;  174.925;    0.000
303.330; 1382.375;  198.925;    0.000
303.393; 1322.375;  207.925;    0.000
303.456; 1345.375;  177.925;    0.000
303.518; 1257.375;  192.925;    0.000
303.581; 1278.375;  171.925;    0.000
303.644; 1232.375;  193.925;    0.000
303.706; 1330.375;  185.925;    0.000
303.769; 1330.375;  198.925;    0.000
303.832; 1362.375;  192.925;    0.000
303.894; 1396.375;  199.925;    0.000
303.957; 1383.375;  160.925;    0.000
304.020; 1360.375;  184.925;    0.000
304.082; 1416.375;  191.925;    0.000
304.145; 1270.375;  216.925;    0.000
304.207; 1343.375;  175.925;    0.000
304.270; 1309.375;  192.925;    0.000
304.333; 1363.375;  218.925;    0.000
304.395; 1325.375;  195.925;    0.000
304.458; 1352.375;  206.925;    0.000
304.520; 1431.375;  229.925;    0.000
304.583; 1364.375;  202.925;    0.000
304.646; 1405.375;  159.925;    0.000
304.708; 1296.375;  167.925;    0.000
304.771; 1275.375;  141.925;    0.000
304.833; 1381.375;  184.925;    0.000
304.896; 1361.375;  197.925;    0.000
304.958; 1270.375;  179.925;    0.000
305.021; 1355.375;  175.925;    0.000
305.083; 1369.375;  182.925;    0.000
305.146; 1426.375;  182.925;    0.000
305.208; 1448.375;  174.925;    0.000
305.271; 1336.375;  157.925;    0.000
305.333; 1391.375;  185.925;    0.000
305.396; 1408.375;  199.925;    0.000
305.458; 1322.375;  203.925;    0.000
305.520; 1371.375;  195.925;    0.000
305.583; 1297.375;  152.925;    0.000
305.645; 1455.375;  200.925;    0.000
305.708; 1327.375;  149.925;    0.000
305.770; 1344.375;  211.925;    0.000
305.833; 1371.375;  189.925;    0.000
305.895; 1426.375;  200.925;    0.000
305.957; 1403.375;  166.925;    0.000
306.020; 1431.375;  186.925;    0.000
306.082; 1317.375;  197.925;    0.000
306.144; 1417.375;  200.925;    0.000
306.207; 1398.375;  180.925;    0.000
306.269; 1287.375;  209.925;    0.000
306.331; 1447.375;  205.925;    0.000
306.394; 1416.375;  176.925;    0.000
306.456; 1334.375;  184.925;    0.000
306.518; 1334.375;  210.925;    0.000
306.581; 1293.375;  162.925;    0.000
306.643; 1255.375;  196.925;    0.000
306.705; 1327.375;  204.925;    0.000
306.768; 1330.375;  158.925;    0.000
306.830; 1428.375;  205.925;    0.000
306.892; 1382.375;  189.925;    0.000
306.954; 1323.375;  188.925;    0.000
307.017; 1331.375;  180.925;    0.000
307.079; 1322.375;  197.925;    0.000
307.141; 1435.375;  184.925;    0.000
307.203; 1342.375;  182.925;    0.000
307.266; 1347.375;  166.925;    0.000
307.328; 1441.375;  186.925;    0.000
307.390; 1382.375;  176.925;    0.000
307.452; 1353.375;  194.925;    0.000
307.514; 1384.375;  225.925;    0.000
307.577; 1359.375;  209.925;    0.000
307.639; 1448.375;  203.925;    0.000
307.701; 1436.375;  214.925;    0.000
307.763; 1472.375;  203.925;    0.000
307.825; 1431.375;  202.925;    0.000
307.887; 1527.375;  244.925;    0.000
307.949; 1439.375;  173.925;    0.000
308.012; 1435.375;  219.925;    0.000
308.074; 1435.375;  157.925;    0.000
308.136; 1465.375;  215.925;    0.000
308.198; 1405.375;  186.925;    0.000
308.260; 1407.375;  186.925;    0.000
308.322; 1411.375;  201.925;    0.000
308.384; 1421.375;  218.925;    0.000
308.446; 1450.375;  159.925;    0.000
308.508; 1510.375;  191.925;    0.000
308.570; 1559.375;  185.925;    0.000
308.632; 1563.375;  208.925;    0.000
308.694; 1492.375;  161.925;    0.000
308.756; 1514.375;  169.925;    0.000
308.818; 1428.375;  187.925;    0.000
308.880; 1539.375;  192.925;    0.000
308.942; 1559.375;  194.925;    0.000
309.004; 1499.375;  206.925;    0.000
309.066; 1514.375;  204.925;    0.000
309.128; 1545.375;  181.925;    0.000
309.190; 1577.375;  166.925;    0.000
309.252; 1593.375;  213.925;    0.000
309.314; 1569.375;  249.925;    0.000
309.376; 1650.375;  238.925;    0.000
309.438; 1654.375;  206.925;    0.000
309.500; 1492.375;  185.925;    0.000
309.562; 1624.375;  214.925;    0.000
309.624; 1522.375;  216.925;    0.000
309.686; 1544.375;  197.925;    0.000
309.747; 1610.375;  171.925;    0.000
309.809; 1547.375;  198.925;    0.000
309.871; 1535.375;  185.925;    0.000
309.933; 1552.375;  172.925;    0.000
309.995; 1531.375;  168.925;    0.000
310.057; 1528.375;  177.925;    0.000
310.119; 1479.375;  207.925;    0.000
310.180; 1585.375;  180.925;    0.000
310.242; 1525.375;  202.925;    0.000
310.304; 1519.375;  200.925;    0.000
310.366; 1505.375;  222.925;    0.000
310.428; 1407.375;  179.925;    0.000
310.489; 1480.375;  196.925;    0.000
310.551; 1524.375;  203.925;    0.000
310.613; 1409.375;  198.925;    0.000
310.675; 1418.375;  203.925;    0.000
310.737; 1397.375;  195.925;    0.000
310.798; 1529.375;  204.925;    0.000
310.860; 1543.375;  195.925;    0.000
310.922; 1436.375;  195.925;    0.000
310.983; 1482.375;  225.925;    0.000
311.045; 1482.375;  203.925;    0.000
311.107; 1532.375;  194.925;    0.000
311.169; 1455.375;  185.925;    0.000
311.230; 1465.375;  175.925;    0.000
311.292; 1496.375;  220.925;    0.000
311.354; 1526.375;  189.925;    0.000
311.415; 1513.375;  187.925;    0.000
311.477; 1449.375;  180.925;    0.000
311.539; 1416.375;  175.925;    0.000
311.600; 1455.375;  192.925;    0.000
311.662; 1530.375;  212.925;    0.000
311.724; 1546.375;  217.925;    0.000
311.785; 1512.375;  218.925;    0.000
311.847; 1469.375;  219.925;    0.000
311.908; 1447.375;  202.925;    0.000
311.970; 1480.375;  186.925;    0.000
312.032; 1464.375;  212.925;    0.000
312.093; 1439.375;  203.925;    0.000
312.155; 1522.375;  165.925;    0.000
312.216; 1511.375;  183.925;    0.000
312.278; 1475.375;  167.925;    0.000
312.339; 1549.375;  190.925;    0.000
312.401; 1527.375;  219.925;    0.000
312.462; 1454.375;  190.925;    0.000
312.524; 1603.375;  203.925;    0.000
312.585; 1573.375;  191.925;    0.000
312.647; 1494.375;  197.925;    0.000
312.708; 1491.375;  203.925;    0.000
312.770; 1542.375;  203.925;    0.000
312.831; 1471.375;  155.925;    0.000
312.893; 1452.375;  189.925;    0.000
312.954; 1508.375;  212.925;    0.000
313.016; 1577.375;  179.925;    0.000
313.077; 1612.375;  209.925;    0.000
313.139; 1529.375;  185.925;    0.000
313.200; 1569.375;  180.925;    0.000
313.261; 1487.375;  220.925;    0.000
313.323; 1466.375;  171.925;    0.000
313.384; 1423.375;  180.925;    0.000
313.446; 1550.375;  202.925;    0.000
313.507; 1480.375;  172.925;    0.000
313.568; 1501.375;  192.925;    0.000
313.630; 1510.375;  191.925;    0.000
313.691; 1453.375;  176.925;    0.000
313.752; 1522.375;  175.925;    0.000
313.814; 1575.375;  202.925;    0.000
313.875; 1572.375;  186.925;    0.000
313.936; 1472.375;  199.925;    0.000
313.998; 1486.375;  164.925;    0.000
314.059; 1502.375;  159.925;    0.000
314.120; 1477.375;  175.925;    0.000
314.182; 1415.375;  181.925;    0.000
314.243; 1469.375;  157.925;    0.000
314.304; 1368.375;  168.925;    0.000
314.365; 1460.375;  203.925;    0.000
314.427; 1534.375;  151.925;    0.000
314.488; 1459.375;  174.925;    0.000
314.549; 1586.375;  184.925;    0.000
314.610; 1489.375;  198.925;    0.000
314.672; 1449.375;  193.925;    0.000
314.733; 1440.375;  171.925;    0.000
314.794; 1495.375;  141.925;    0.000
314.855; 1596.375;  184.925;    0.000
314.917; 1524.375;  175.925;    0.000
314.978; 1538.375;  190.925;    0.000
315.039; 1443.375;  183.925;    0.000
315.100; 1589.375;  204.925;    0.000
315.161; 1459.375;  202.925;    0.000
315.222; 1527.375;  177.925;    0.000
315.283; 1468.375;  191.925;    0.000
315.345; 1407.375;  185.925;    0.000
315.406; 1476.375;  194.925;    0.000
315.467; 1423.375;  167.925;    0.000
315.528; 1551.375;  174.925;    0.000
315.589; 1477.375;  197.925;    0.000
315.650; 1471.375;  192.925;    0.000
315.711; 1577.375;  181.925;    0.000
315.772; 1505.375;  157.925;    0.000
315.833; 1533.375;  189.925;    0.000
315.894; 1528.375;  184.925;    0.000
315.955; 1477.375;  202.925;    0.000
316.016; 1452.375;  220.925;    0.000
316.078; 1480.375;  180.925;    0.000
316.139; 1524.375;  240.925;    0.000
316.200; 1463.375;  190.925;    0.000
316.261; 1474.375;  179.925;    0.000
316.322; 1495.375;  176.925;    0.000
316.383; 1433.375;  188.925;    0.000
316.444; 1503.375;  228.925;    0.000
316.504; 1511.375;  199.925;    0.000
316.565; 1538.375;  221.925;    0.000
316.626; 1531.375;  204.925;    0.000
316.687; 1430.375;  192.925;    0.000
316.748; 1457.375;  220.925;    0.000
316.809; 1405.375;  175.925;    0.000
316.870; 1486.375;  164.925;    0.000
316.931; 1503.375;  208.925;    0.000
316.992; 1434.375;  224.925;    0.000
317.053; 1436.375;  204.925;    0.000
317.114; 1462.375;  199.925;    0.000
317.175; 1488.375;  230.925;    0.000
317.235; 1463.375;  186.925;    0.000
317.296; 1454.375;  224.925;    0.000
317.357; 1431.375;  154.925;    0.000
317.418; 1506.375;  219.925;    0.000
317.479; 1447.375;  229.925;    0.000
317.540; 1489.375;  201.925;    0.000
317.601; 1540.375;  180.925;    0.000
317.661; 1413.375;  179.925;    0.000
317.722; 1496.375;  193.925;    0.000
317.783; 1439.375;  164.925;    0.000
317.844; 1494.375;  232.925;    0.000
317.904; 1393.375;  222.925;    0.000
317.965; 1550.375;  199.925;    0.000
318.026; 1471.375;  200.925;    0.000
318.087; 1461.375;  182.925;    0.000
318.148; 1476.375;  216.925;    0.000
318.208; 1518.375;  239.925;    0.000
318.269; 1532.375;  163.925;    0.000
318.330; 1561.375;  204.925;    0.000
318.390; 1508.375;  191.925;    0.000
318.451; 1451.375;  200.925;    0.000
318.512; 1436.375;  181.925;    0.000
318.572; 1553.375;  233.925;    0.000
318.633; 1518.375;  220.925;    0.000
318.694; 1569.375;  179.925;    0.000
318.754; 1471.375;  214.925;    0.000
318.815; 1507.375;  214.925;    0.000
318.876; 1544.375;  220.925;    0.000
318.936; 1596.375;  212.925;    0.000
318.997; 1468.375;  201.925;    0.000
319.058; 1475.375;  215.925;    0.000
319.118; 1525.375;  251.925;    0.000
319.179; 1393.375;  240.925;    0.000
319.239; 1503.375;  240.925;    0.000
319.300; 1615.375;  232.925;    0.000
319.361; 1539.375;  211.925;    0.000
319.421; 1470.375;  219.925;    0.000
319.482; 1440.375;  228.925;    0.000
319.542; 1491.375;  216.925;    0.000
319.603; 1443.375;  190.925;    0.000
319.663; 1483.375;  227.925;    0.000
319.724; 1388.375;  191.925;    0.000
319.784; 1481.375;  196.925;    0.000
319.845; 1399.375;  190.925;    0.000
319.905; 1539.375;  221.925;    0.000
319.966; 1495.375;  219.925;    0.000
320.026; 1535.375;  233.925;    0.000
320.087; 1380.375;  204.925;    0.000
320.147; 1467.375;  189.925;    0.000
320.208; 1395.375;  200.925;    0.000
320.268; 1489.375;  217.925;    0.000
320.329; 1561.375;  216.925;    0.000
320.389; 1473.375;  228.925;    0.000
320.449; 1523.375;  236.925;    0.000
320.510; 1527.375;  234.925;    0.000
320.570; 1458.375;  176.925;    0.000
320.631; 1472.375;  228.925;    0.000
320.691; 1544.375;  228.925;    0.000
320.751; 1415.375;  188.925;    0.000
320.812; 1485.375;  223.925;    0.000
320.872; 1590.375;  268.925;    0.000
320.932; 1503.375;  226.925;    0.000
320.993; 1477.375;  216.925;    0.000
321.053; 1485.375;  236.925;    0.000
321.113; 1504.375;  197.925;    0.000
321.174; 1494.375;  218.925;    0.000
321.234; 1389.375;  229.925;    0.000
321.294; 1468.375;  208.925;    0.000
321.355; 1574.375;  248.925;    0.000
321.415; 1409.375;  218.925;    0.000
321.475; 1398.375;  173.925;    0.000
321.535; 1530.375;  234.925;    0.000
321.596; 1455.375;  202.925;    0.000
321.656; 1552.375;  246.925;    0.000
321.716; 1588.375;  235.925;    0.000
321.776; 1404.375;  210.925;    0.000
321.837; 1588.375;  217.925;    0.000
321.897; 1517.375;  215.925;    0.000
321.957; 1673.375;  239.925;    0.000
322.017; 1477.375;  173.925;    0.000
322.077; 1491.375;  263.925;    0.000
322.138; 1519.375;  232.925;    0.000
322.198; 1436.375;  211.925;    0.000
322.258; 1438.375;  213.925;    0.000
322.318; 1406.375;  168.925;    0.000
322.378; 1449.375;  251.925;    0.000
322.438; 1613.375;  212.925;    0.000
322.499; 1509.375;  265.925;    0.000
322.559; 1518.375;  210.925;    0.000
322.619; 1498.375;  242.925;    0.000
322.679; 1454.375;  229.925;    0.000
322.739; 1482.375;  216.925;    0.000
322.799; 1404.375;  238.925;    0.000
322.859; 1522.375;  249.925;    0.000
322.919; 1452.375;  211.925;    0.000
322.979; 1476.375;  244.925;    0.000
323.039; 1472.375;  226.925;    0.000
323.099; 1445.375;  223.925;    0.000
323.159; 1462.375;  232.925;    0.000
323.219; 1415.375;  203.925;    0.000
323.279; 1467.375;  218.925;    0.000
323.339; 1419.375;  231.925;    0.000
323.399; 1476.375;  255.925;    0.000
323.459; 1420.375;  244.925;    0.000
323.519; 1403.375;  213.925;    0.000
323.579; 1395.375;  193.925;    0.000
323.639; 1495.375;  191.925;    0.000
323.699; 1483.375;  199.925;    0.000
323.759; 1449.375;  246.925;    0.000
323.819; 1525.375;  206.925;    0.000
323.879; 1509.375;  238.925;    0.000
323.939; 1333.375;  229.925;    0.000
323.999; 1457.375;  219.925;    0.000
324.059; 1446.375;  177.925;    0.000
324.119; 1420.375;  235.925;    0.000
324.178; 1382.375;  211.925;    0.000
324.238; 1464.375;  168.925;    0.000
324.298; 1426.375;  205.925;    0.000
324.358; 1436.375;  224.925;    0.000
324.418; 1455.375;  235.925;    0.000
324.478; 1432.375;  187.925;    0.000
324.538; 1517.375;  230.925;    0.000
324.597; 1428.375;  206.925;    0.000
324.657; 1463.375;  180.925;    0.000
324.717; 1449.375;  175.925;    0.000
324.777; 1401.375;  169.925;    0.000
324.837; 1402.375;  165.925;    0.000
324.896; 1529.375;  205.925;    0.000
324.956; 1493.375;  216.925;    0.000
325.016; 1498.375;  197.925;    0.000
325.076; 1416.375;  220.925;    0.000
325.135; 1400.375;  242.925;    0.000
325.195; 1428.375;  186.925;    0.000
325.255; 1354.375;  160.925;    0.000
325.315; 1482.375;  198.925;    0.000
325.374; 1469.375;  208.925;    0.000
325.434; 1467.375;  209.925;    0.000
325.494; 1489.375;  191.925;    0.000
325.553; 1544.375;  190.925;    0.000
325.613; 1464.375;  229.925;    0.000
325.673; 1436.375;  172.925;    0.000
325.732; 1401.375;  160.925;    0.000
325.792; 1396.375;  177.925;    0.000
325.852; 1403.375;  201.925;    0.000
325.911; 1449.375;  226.925;    0.000
325.971; 1453.375;  224.925;    0.000
326.031; 1414.375;  202.925;    0.000
326.090; 1427.375;  232.925;    0.000
326.150; 1567.375;  230.925;    0.000
326.209; 1526.375;  201.925;    0.000
326.269; 1478.375;  202.925;    0.000
326.328; 1462.375;  203.925;    0.000
326.388; 1487.375;  194.925;    0.000
326.448; 1475.375;  233.925;    0.000
326.507; 1428.375;  192.925;    0.000
326.567; 1436.375;  163.925;    0.000
326.626; 1496.375;  227.925;    0.000
326.686; 1395.375;  177.925;    0.000
326.745; 1467.375;  210.925;    0.000
326.805; 1413.375;  198.925;    0.000
326.864; 1495.375;  185.925;    0.000
326.924; 1565.375;  255.925;    0.000
326.983; 1435.375;  208.925;    0.000
327.043; 1515.375;  241.925;    0.000
327.102; 1450.375;  183.925;    0.000
327.161; 1401.375;  210.925;    0.000
327.221; 1458.375;  213.925;    0.000
327.280; 1487.375;  194.925;    0.000
327.340; 1491.375;  212.925;    0.000
327.399; 1468.375;  209.925;    0.000
327.459; 1432.375;  229.925;    0.000
327.518; 1418.375;  196.925;    0.000
327.577; 1427.375;  197.925;    0.000
327.637; 1443.375;  210.925;    0.000
327.696; 1435.375;  196.925;    0.000
327.755; 1435.375;  216.925;    0.000
327.815; 1444.375;  240.925;    0.000
327.874; 1493.375;  250.925;    0.000
327.933; 1369.375;  229.925;    0.000
327.993; 1397.375;  202.925;    0.000
328.052; 1429.375;  178.925;    0.000
328.111; 1515.375;  230.925;    0.000
328.171; 1438.375;  207.925;    0.000
328.230; 1504.375;  170.925;    0.000
328.289; 1492.375;  205.925;    0.000
328.349; 1498.375;  235.925;    0.000
328.408; 1493.375;  231.925;    0.000
328.467; 1448.375;  217.925;    0.000
328.526; 1527.375;  239.925;    0.000
328.586; 1443.375;  214.925;    0.000
328.645; 1500.375;  205.925;    0.000
328.704; 1536.375;  211.925;    0.000
328.763; 1453.375;  208.925;    0.000
328.822; 1435.375;  251.925;    0.000
328.882; 1393.375;  211.925;    0.000
328.941; 1525.375;  232.925;    0.000
329.000; 1487.375;  235.925;    0.000
329.059; 1506.375;  222.925;    0.000
329.118; 1557.375;  265.925;    0.000
329.177; 1392.375;  237.925;    0.000
329.237; 1472.375;  258.925;    0.000
329.296; 1619.375;  225.925;    0.000
329.355; 1554.375;  227.925;    0.000
329.414; 1600.375;  212.925;    0.000
329.473; 1469.375;  250.925;    0.000
329.532; 1559.375;  263.925;    0.000
329.591; 1649.375;  212.925;    0.000
329.650; 1638.375;  219.925;    0.000
329.709; 1683.375;  218.925;    0.000
329.768; 1722.375;  195.925;    0.000
329.827; 1747.375;  223.925;    0.000
329.886; 1860.375;  230.925;    0.000
329.945; 1962.375;  211.925;    0.000
330.004; 2177.375;  247.925;    0.000
330.063; 2332.375;  193.925;    0.000
330.122; 2929.375;  229.925;    0.000
330.181; 3299.375;  223.925;    0.000
330.240; 3162.375;  199.925;    0.000
330.299; 2902.375;  211.925;    0.000
330.358; 2469.375;  198.925;    0.000
330.417; 2182.375;  190.925;    0.000
330.476; 1905.375;  237.925;    0.000
330.535; 1764.375;  239.925;    0.000
330.594; 1736.375;  207.925;    0.000
330.653; 1640.375;  193.925;    0.000
330.712; 1646.375;  225.925;    0.000
330.771; 1656.375;  236.925;    0.000
330.830; 1539.375;  219.925;    0.000
330.889; 1563.375;  211.925;    0.000
330.948; 1509.375;  194.925;    0.000
331.006; 1414.375;  190.925;    0.000
331.065; 1437.375;  192.925;    0.000
331.124; 1451.375;  195.925;    0.000
331.183; 1381.375;  191.925;    0.000
331.242; 1346.375;  203.925;    0.000
331.301; 1368.375;  183.925;    0.000
331.359; 1386.375;  196.925;    0.000
331.418; 1453.375;  209.925;    0.000
331.477; 1448.375;  255.925;    0.000
331.536; 1492.375;  237.925;    0.000
331.595; 1361.375;  217.925;    0.000
331.653; 1348.375;  198.925;    0.000
331.712; 1354.375;  194.925;    0.000
331.771; 1425.375;  229.925;    0.000
331.830; 1347.375;  254.925;    0.000
331.888; 1360.375;  218.925;    0.000
331.947; 1319.375;  211.925;    0.000
332.006; 1388.375;  261.925;    0.000
332.065; 1318.375;  204.925;    0.000
332.123; 1409.375;  225.925;    0.000
332.182; 1431.375;  193.925;    0.000
332.241; 1367.375;  201.925;    0.000
332.299; 1367.375;  182.925;    0.000
332.358; 1436.375;  244.925;    0.000
332.417; 1316.375;  218.925;    0.000
332.475; 1365.375;  218.925;    0.000
332.534; 1353.375;  228.925;    0.000
332.592; 1357.375;  199.925;    0.000
332.651; 1393.375;  204.925;    0.000
332.710; 1417.375;  217.925;    0.000
332.768; 1374.375;  195.925;    0.000
332.827; 1356.375;  182.925;    0.000
332.885; 1306.375;  247.925;    0.000
332.944; 1294.375;  170.925;    0.000
333.003; 1380.375;  200.925;    0.000
333.061; 1402.375;  243.925;    0.000
333.120; 1481.375;  235.925;    0.000
333.178; 1448.375;  195.925;    0.000
333.237; 1332.375;  217.925;    0.000
333.295; 1473.375;  252.925;    0.000
333.354; 1392.375;  201.925;    0.000
333.412; 1380.375;  181.925;    0.000
333.471; 1393.375;  239.925;    0.000
333.529; 1403.375;  214.925;    0.000
333.588; 1452.375;  232.925;    0.000
333.646; 1417.375;  202.925;    0.000
333.705; 1413.375;  232.925;    0.000
333.763; 1420.375;  215.925;    0.000
333.822; 1499.375;  187.925;    0.000
333.880; 1419.375;  186.925;    0.000
333.938; 1474.375;  185.925;    0.000
333.997; 1402.375;  234.925;    0.000
334.055; 1385.375;  255.925;    0.000
334.114; 1483.375;  225.925;    0.000
334.172; 1317.375;  209.925;    0.000
334.230; 1430.375;  194.925;    0.000
334.289; 1422.375;  213.925;    0.000
334.347; 1390.375;  235.925;    0.000
334.405; 1429.375;  242.925;    0.000
334.464; 1366.375;  208.925;    0.000
334.522; 1372.375;  197.925;    0.000
334.580; 1342.375;  204.925;    0.000
334.639; 1342.375;  217.925;    0.000
334.697; 1322.375;  183.925;    0.000
334.755; 1350.375;  196.925;    0.000
334.814; 1297.375;  216.925;    0.000
334.872; 1394.375;  190.925;    0.000
334.930; 1382.375;  162.925;    0.000
334.988; 1400.375;  261.925;    0.000
335.047; 1418.375;  220.925;    0.000
335.105; 1392.375;  190.925;    0.000
335.163; 1368.375;  201.925;    0.000
335.221; 1328.375;  213.925;    0.000
335.280; 1335.375;  202.925;    0.000
335.338; 1464.375;  210.925;    0.000
335.396; 1427.375;  255.925;    0.000
335.454; 1445.375;  216.925;    0.000
335.512; 1393.375;  242.925;    0.000
335.570; 1375.375;  227.925;    0.000
335.629; 1385.375;  225.925;    0.000
335.687; 1345.375;  227.925;    0.000
335.745; 1434.375;  194.925;    0.000
335.803; 1456.375;  221.925;    0.000
335.861; 1441.375;  217.925;    0.000
335.919; 1382.375;  214.925;    0.000
335.977; 1348.375;  209.925;    0.000
336.035; 1414.375;  215.925;    0.000
336.094; 1329.375;  198.925;    0.000
336.152; 1362.375;  222.925;    0.000
336.210; 1410.375;  225.925;    0.000
336.268; 1423.375;  234.925;    0.000
336.326; 1430.375;  209.925;    0.000
336.384; 1460.375;  271.925;    0.000
336.442; 1394.375;  207.925;    0.000
336.500; 1392.375;  226.925;    0.000
336.558; 1373.375;  219.925;    0.000
336.616; 1438.375;  260.925;    0.000
336.674; 1357.375;  205.925;    0.000
336.732; 1324.375;  225.925;    0.000
336.790; 1311.375;  191.925;    0.000
336.848; 1426.375;  219.925;    0.000
336.906; 1398.375;  230.925;    0.000
336.964; 1358.375;  226.925;    0.000
337.022; 1403.375;  266.925;    0.000
337.080; 1475.375;  231.925;    0.000
337.138; 1434.375;  249.925;    0.000
337.195; 1390.375;  207.925;    0.000
337.253; 1418.375;  207.925;    0.000
337.311; 1433.375;  225.925;    0.000
337.369; 1361.375;  211.925;    0.000
337.427; 1348.375;  196.925;    0.000
337.485; 1422.375;  269.925;    0.000
337.543; 1352.375;  227.925;    0.000
337.601; 1402.375;  260.925;    0.000
337.658; 1352.375;  237.925;    0.000
337.716; 1231.375;  222.925;    0.000
337.774; 1340.375;  256.925;    0.000
337.832; 1355.375;  223.925;    0.000
337.890; 1298.375;  188.925;    0.000
337.947; 1363.375;  212.925;    0.000
338.005; 1331.375;  217.925;    0.000
338.063; 1275.375;  200.925;    0.000
338.121; 1381.375;  217.925;    0.000
338.178; 1320.375;  236.925;    0.000
338.236; 1347.375;  218.925;    0.000
338.294; 1363.375;  238.925;    0.000
338.352; 1343.375;  266.925;    0.000
338.409; 1386.375;  240.925;    0.000
338.467; 1359.375;  210.925;    0.000
338.525; 1387.375;  255.925;    0.000
338.583; 1421.375;  239.925;    0.000
338.640; 1325.375;  243.925;    0.000
338.698; 1352.375;  204.925;    0.000
338.756; 1381.375;  219.925;    0.000
338.813; 1363.375;  227.925;    0.000
338.871; 1324.375;  227.925;    0.000
338.928; 1388.375;  211.925;    0.000
338.986; 1333.375;  254.925;    0.000
339.044; 1364.375;  207.925;    0.000
339.101; 1257.375;  229.925;    0.000
339.159; 1375.375;  237.925;    0.000
339.216; 1337.375;  231.925;    0.000
339.274; 1386.375;  301.925;    0.000
339.332; 1363.375;  259.925;    0.000
339.389; 1320.375;  258.925;    0.000
339.447; 1429.375;  226.925;    0.000
339.504; 1394.375;  229.925;    0.000
339.562; 1272.375;  244.925;    0.000
339.619; 1333.375;  265.925;    0.000
339.677; 1483.375;  253.925;    0.000
339.734; 1294.375;  191.925;    0.000
339.792; 1318.375;  238.925;    0.000
339.849; 1321.375;  236.925;    0.000
339.907; 1248.375;  254.925;    0.000
339.964; 1341.375;  196.925;    0.000
340.022; 1338.375;  247.925;    0.000
340.079; 1340.375;  275.925;    0.000
340.137; 1230.375;  248.925;    0.000
340.194; 1359.375;  263.925;    0.000
340.252; 1304.375;  266.925;    0.000
340.309; 1282.375;  211.925;    0.000
340.366; 1339.375;  237.925;    0.000
340.424; 1356.375;  260.925;    0.000
340.481; 1367.375;  255.925;    0.000
340.538; 1301.375;  235.925;    0.000
340.596; 1258.375;  225.925;    0.000
340.653; 1383.375;  230.925;    0.000
340.711; 1361.375;  272.925;    0.000
340.768; 1411.375;  253.925;    0.000
340.825; 1290.375;  201.925;    0.000
340.883; 1454.375;  232.925;    0.000
340.940; 1383.375;  247.925;    0.000
340.997; 1296.375;  244.925;    0.000
341.054; 1289.375;  244.925;    0.000
341.112; 1252.375;  258.925;    0.000
341.169; 1420.375;  238.925;    0.000
341.226; 1369.375;  213.925;    0.000
341.284; 1361.375;  240.925;    0.000
341.341; 1362.375;  194.925;    0.000
341.398; 1333.375;  191.925;    0.000
341.455; 1311.375;  227.925;    0.000
341.512; 1406.375;  238.925;    0.000
341.570; 1370.375;  236.925;    0.000
341.627; 1346.375;  241.925;    0.000
341.684; 1378.375;  225.925;    0.000
341.741; 1351.375;  299.925;    0.000
341.798; 1336.375;  265.925;    0.000
341.856; 1304.375;  230.925;    0.000
341.913; 1390.375;  234.925;    0.000
341.970; 1270.375;  260.925;    0.000
342.027; 1311.375;  255.925;    0.000
342.084; 1331.375;  260.925;    0.000
342.141; 1409.375;  263.925;    0.000
342.198; 1330.375;  245.925;    0.000
342.255; 1276.375;  210.925;    0.000
342.313; 1293.375;  251.925;    0.000
342.370; 1365.375;  234.925;    0.000
342.427; 1390.375;  249.925;    0.000
342.484; 1386.375;  254.925;    0.000
342.541; 1463.375;  229.925;    0.000
342.598; 1384.375;  255.925;    0.000
342.655; 1374.375;  225.925;    0.000
342.712; 1348.375;  224.925;    0.000
342.769; 1274.375;  215.925;    0.000
342.826; 1301.375;  240.925;    0.000
342.883; 1395.375;  233.925;    0.000
342.940; 1270.375;  212.925;    0.000
342.997; 1347.375;  236.925;    0.000
343.054; 1308.375;  255.925;    0.000
343.111; 1348.375;  228.925;    0.000
343.168; 1415.375;  230.925;    0.000
343.225; 1320.375;  258.925;    0.000
343.282; 1265.375;  202.925;    0.000
343.339; 1339.375;  253.925;    0.000
343.395; 1357.375;  232.925;    0.000
343.452; 1443.375;  253.925;    0.000
343.509; 1405.375;  213.925;    0.000
343.566; 1462.375;  259.925;    0.000
343.623; 1337.375;  244.925;    0.000
343.680; 1392.375;  232.925;    0.000
343.737; 1425.375;  222.925;    0.000
343.794; 1396.375;  204.925;    0.000
343.850; 1396.375;  249.925;    0.000
343.907; 1458.375;  212.925;    0.000
343.964; 1469.375;  226.925;    0.000
344.021; 1348.375;  251.925;    0.000
344.078; 1417.375;  246.925;    0.000
344.134; 1437.375;  218.925;    0.000
344.191; 1438.375;  244.925;    0.000
344.248; 1440.375;  211.925;    0.000
344.305; 1477.375;  221.925;    0.000
344.361; 1452.375;  247.925;    0.000
344.418; 1462.375;  265.925;    0.000
344.475; 1358.375;  254.925;    0.000
344.532; 1443.375;  233.925;    0.000
344.588; 1438.375;  236.925;    0.000
344.645; 1447.375;  249.925;    0.000
344.702; 1460.375;  220.925;    0.000
344.758; 1476.375;  255.925;    0.000
344.815; 1433.375;  236.925;    0.000
344.872; 1328.375;  218.925;    0.000
344.928; 1479.375;  230.925;    0.000
344.985; 1441.375;  222.925;    0.000
345.042; 1487.375;  199.925;    0.000
345.098; 1394.375;  226.925;    0.000
345.155; 1381.375;  245.925;    0.000
345.212; 1407.375;  225.925;    0.000
345.268; 1470.375;  237.925;    0.000
345.325; 1533.375;  213.925;    0.000
345.381; 1482.375;  267.925;    0.000
345.438; 1560.375;  240.925;    0.000
345.495; 1455.375;  254.925;    0.000
345.551; 1462.375;  248.925;    0.000
345.608; 1340.375;  196.925;    0.000
345.664; 1328.375;  245.925;    0.000
345.721; 1393.375;  252.925;    0.000
345.777; 1413.375;  245.925;    0.000
345.834; 1350.375;  210.925;    0.000
345.890; 1391.375;  244.925;    0.000
345.947; 1445.375;  238.925;    0.000
346.003; 1420.375;  224.925;    0.000
346.060; 1388.375;  206.925;    0.000
346.116; 1406.375;  237.925;    0.000
346.173; 1417.375;  242.925;    0.000
346.229; 1486.375;  269.925;    0.000
346.285; 1389.375;  262.925;    0.000
346.342; 1511.375;  263.925;    0.000
346.398; 1458.375;  224.925;    0.000
346.455; 1490.375;  237.925;    0.000
346.511; 1418.375;  216.925;    0.000
346.567; 1514.375;  211.925;    0.000
346.624; 1479.375;  225.925;    0.000
346.680; 1488.375;  242.925;    0.000
346.737; 1424.375;  244.925;    0.000
346.793; 1538.375;  260.925;    0.000
346.849; 1386.375;  251.925;    0.000
346.906; 1485.375;  260.925;    0.000
346.962; 1521.375;  267.925;    0.000
347.018; 1535.375;  246.925;    0.000
347.074; 1508.375;  272.925;    0.000
347.131; 1504.375;  211.925;    0.000
347.187; 1386.375;  240.925;    0.000
347.243; 1540.375;  233.925;    0.000
347.300; 1469.375;  225.925;    0.000
347.356; 1481.375;  236.925;    0.000
347.412; 1503.375;  237.925;    0.000
347.468; 1488.375;  284.925;    0.000
347.524; 1501.375;  252.925;    0.000
347.581; 1548.375;  278.925;    0.000
347.637; 1514.375;  262.925;    0.000
347.693; 1525.375;  268.925;    0.000
347.749; 1399.375;  260.925;    0.000
347.805; 1422.375;  224.925;    0.000
347.862; 1515.375;  243.925;    0.000
347.918; 1444.375;  257.925;    0.000
347.974; 1492.375;  248.925;    0.000
348.030; 1415.375;  242.925;    0.000
348.086; 1384.375;  234.925;    0.000
348.142; 1467.375;  239.925;    0.000
348.198; 1449.375;  260.925;    0.000
348.254; 1459.375;  262.925;    0.000
348.311; 1451.375;  263.925;    0.000
348.367; 1495.375;  235.925;    0.000
348.423; 1467.375;  205.925;    0.000
348.479; 1526.375;  234.925;    0.000
348.535; 1499.375;  257.925;    0.000
348.591; 1453.375;  267.925;    0.000
348.647; 1433.375;  243.925;    0.000
348.703; 1499.375;  278.925;    0.000
348.759; 1498.375;  259.925;    0.000
348.815; 1553.375;  288.925;    0.000
348.871; 1412.375;  269.925;    0.000
348.927; 1426.375;  239.925;    0.000
348.983; 1445.375;  289.925;    0.000
349.039; 1398.375;  221.925;    0.000
349.095; 1492.375;  252.925;    0.000
349.151; 1429.375;  226.925;    0.000
349.207; 1492.375;  263.925;    0.000
349.263; 1522.375;  194.925;    0.000
349.319; 1422.375;  212.925;    0.000
349.374; 1521.375;  236.925;    0.000
349.430; 1440.375;  229.925;    0.000
349.486; 1505.375;  247.925;    0.000
349.542; 1426.375;  263.925;    0.000
349.598; 1420.375;  248.925;    0.000
349.654; 1534.375;  252.925;    0.000
349.710; 1443.375;  230.925;    0.000
349.766; 1514.375;  201.925;    0.000
349.821; 1516.375;  229.925;    0.000
349.877; 1529.375;  282.925;    0.000
349.933; 1558.375;  240.925;    0.000
349.989; 1593.375;  251.925;    0.000
350.045; 1466.375;  240.925;    0.000
350.100; 1417.375;  256.925;    0.000
350.156; 1514.375;  243.925;    0.000
350.212; 1494.375;  250.925;    0.000
350.268; 1460.375;  251.925;    0.000
350.323; 1520.375;  208.925;    0.000
350.379; 1542.375;  244.925;    0.000
350.435; 1528.375;  237.925;    0.000
350.491; 1464.375;  201.925;    0.000
350.546; 1549.375;  225.925;    0.000
350.602; 1539.375;  260.925;    0.000
350.658; 1588.375;  224.925;    0.000
350.713; 1465.375;  264.925;    0.000
350.769; 1485.375;  196.925;    0.000
350.825; 1430.375;  202.925;    0.000
350.880; 1513.375;  232.925;    0.000
350.936; 1535.375;  242.925;    0.000
350.992; 1364.375;  238.925;    0.000
351.047; 1516.375;  242.925;    0.000
351.103; 1420.375;  199.925;    0.000
351.158; 1486.375;  242.925;    0.000
351.214; 1527.375;  225.925;    0.000
351.270; 1437.375;  197.925;    0.000
351.325; 1493.375;  231.925;    0.000
351.381; 1529.375;  215.925;    0.000
351.436; 1502.375;  233.925;    0.000
351.492; 1495.375;  216.925;    0.000
351.547; 1492.375;  244.925;    0.000
351.603; 1466.375;  249.925;    0.000
351.658; 1418.375;  249.925;    0.000
351.714; 1494.375;  222.925;    0.000
351.769; 1645.375;  222.925;    0.000
351.825; 1565.375;  226.925;    0.000
351.880; 1498.375;  238.925;    0.000
351.936; 1486.375;  230.925;    0.000
351.991; 1504.375;  243.925;    0.000
352.047; 1376.375;  201.925;    0.000
352.102; 1470.375;  243.925;    0.000
352.158; 1480.375;  193.925;    0.000
352.213; 1420.375;  219.925;    0.000
352.268; 1535.375;  205.925;    0.000
352.324; 1421.375;  246.925;    0.000
352.379; 1504.375;  247.925;    0.000
352.434; 1573.375;  252.925;    0.000
352.490; 1499.375;  205.925;    0.000
352.545; 1533.375;  262.925;    0.000
352.601; 1608.375;  229.925;    0.000
352.656; 1585.375;  207.925;    0.000
352.711; 1480.375;  228.925;    0.000
352.767; 1539.375;  216.925;    0.000
352.822; 1514.375;  219.925;    0.000
352.877; 1495.375;  234.925;    0.000
352.932; 1480.375;  249.925;    0.000
352.988; 1501.375;  196.925;    0.000
353.043; 1541.375;  228.925;    0.000
353.098; 1486.375;  231.925;    0.000
353.153; 1461.375;  235.925;    0.000
353.209; 1495.375;  250.925;    0.000
353.264; 1548.375;  212.925;    0.000
353.319; 1502.375;  234.925;    0.000
353.374; 1550.375;  245.925;    0.000
353.430; 1474.375;  261.925;    0.000
353.485; 1523.375;  249.925;    0.000
353.540; 1563.375;  260.925;    0.000
353.595; 1450.375;  219.925;    0.000
353.650; 1512.375;  242.925;    0.000
353.705; 1528.375;  244.925;    0.000
353.761; 1467.375;  242.925;    0.000
353.816; 1515.375;  214.925;    0.000
353.871; 1568.375;  237.925;    0.000
353.926; 1515.375;  233.925;    0.000
353.981; 1477.375;  250.925;    0.000
354.036; 1489.375;  239.925;    0.000
354.091; 1481.375;  289.925;    0.000
354.146; 1521.375;  282.925;    0.000
354.201; 1505.375;  244.925;    0.000
354.256; 1532.375;  257.925;    0.000
354.311; 1608.375;  305.925;    0.000
354.367; 1518.375;  220.925;    0.000
354.422; 1524.375;  261.925;    0.000
354.477; 1512.375;  212.925;    0.000
354.532; 1497.375;  254.925;    0.000
354.587; 1475.375;  252.925;    0.000
354.642; 1488.375;  210.925;    0.000
354.697; 1555.375;  232.925;    0.000
354.751; 1559.375;  254.925;    0.000
354.806; 1630.375;  233.925;    0.000
354.861; 1601.375;  244.925;    0.000
354.916; 1581.375;  235.925;    0.000
354.971; 1451.375;  258.925;    0.000
355.026; 1537.375;  251.925;    0.000
355.081; 1582.375;  254.925;    0.000
355.136; 1558.375;  212.925;    0.000
355.191; 1504.375;  211.925;    0.000
355.246; 1507.375;  237.925;    0.000
355.301; 1564.375;  255.925;    0.000
355.355; 1610.375;  231.925;    0.000
355.410; 1550.375;  224.925;    0.000
355.465; 1495.375;  235.925;    0.000
355.520; 1507.375;  244.925;    0.000
355.575; 1529.375;  267.925;    0.000
355.630; 1582.375;  255.925;    0.000
355.684; 1462.375;  254.925;    0.000
355.739; 1445.375;  217.925;    0.000
355.794; 1513.375;  206.925;    0.000
355.849; 1454.375;  221.925;    0.000
355.904; 1428.375;  257.925;    0.000
355.958; 1442.375;  221.925;    0.000
356.013; 1524.375;  192.925;    0.000
356.068; 1552.375;  267.925;    0.000
356.123; 1572.375;  218.925;    0.000
356.177; 1535.375;  236.925;    0.000
356.232; 1566.375;  236.925;    0.000
356.287; 1573.375;  246.925;    0.000
356.341; 1603.375;  241.925;    0.000
356.396; 1451.375;  219.925;    0.000
356.451; 1591.375;  244.925;    0.000
356.505; 1388.375;  248.925;    0.000
356.560; 1524.375;  267.925;    0.000
356.615; 1463.375;  258.925;    0.000
356.669; 1665.375;  291.925;    0.000
356.724; 1623.375;  272.925;    0.000
356.778; 1541.375;  244.925;    0.000
356.833; 1467.375;  223.925;    0.000
356.888; 1587.375;  245.925;    0.000
356.942; 1474.375;  221.925;    0.000
356.997; 1609.375;  254.925;    0.000
357.051; 1574.375;  244.925;    0.000
357.106; 1567.375;  227.925;    0.000
357.160; 1573.375;  176.925;    0.000
357.215; 1544.375;  234.925;    0.000
357.269; 1526.375;  233.925;    0.000
357.324; 1608.375;  232.925;    0.000
357.378; 1473.375;  211.925;    0.000
357.433; 1528.375;  252.925;    0.000
357.487; 1591.375;  227.925;    0.000
357.542; 1530.375;  246.925;    0.000
357.596; 1487.375;  260.925;    0.000
357.651; 1536.375;  301.925;    0.000
357.705; 1541.375;  230.925;    0.000
357.760; 1545.375;  211.925;    0.000
357.814; 1578.375;  265.925;    0.000
357.868; 1499.375;  220.925;    0.000
357.923; 1521.375;  220.925;    0.000
357.977; 1468.375;  245.925;    0.000
358.032; 1384.375;  247.925;    0.000
358.086; 1454.375;  242.925;    0.000
358.140; 1645.375;  270.925;    0.000
358.195; 1616.375;  242.925;    0.000
358.249; 1543.375;  238.925;    0.000
358.303; 1543.375;  285.925;    0.000
358.358; 1494.375;  265.925;    0.000
358.412; 1600.375;  265.925;    0.000
358.466; 1599.375;  257.925;    0.000
358.521; 1559.375;  251.925;    0.000
358.575; 1539.375;  254.925;    0.000
358.629; 1504.375;  278.925;    0.000
358.683; 1569.375;  288.925;    0.000
358.738; 1573.375;  302.925;    0.000
358.792; 1553.375;  239.925;    0.000
358.846; 1505.375;  293.925;    0.000
358.900; 1537.375;  271.925;    0.000
358.954; 1504.375;  300.925;    0.000
359.009; 1508.375;  279.925;    0.000
359.063; 1480.375;  249.925;    0.000
359.117; 1554.375;  264.925;    0.000
359.171; 1596.375;  279.925;    0.000
359.225; 1597.375;  276.925;    0.000
359.280; 1525.375;  237.925;    0.000
359.334; 1479.375;  280.925;    0.000
359.388; 1538.375;  282.925;    0.000
359.442; 1495.375;  243.925;    0.000
359.496; 1428.375;  204.925;    0.000
359.550; 1452.375;  308.925;    0.000
359.604; 1649.375;  264.925;    0.000
359.658; 1550.375;  247.925;    0.000
359.712; 1511.375;  273.925;    0.000
359.766; 1473.375;  212.925;    0.000
359.820; 1493.375;  228.925;    0.000
359.875; 1532.375;  248.925;    0.000
359.929; 1544.375;  271.925;    0.000
359.983; 1439.375;  274.925;    0.000
360.037; 1518.375;  262.925;    0.000
360.091; 1550.375;  302.925;    0.000
360.145; 1551.375;  244.925;    0.000
360.199; 1511.375;  253.925;    0.000
360.253; 1491.375;  285.925;    0.000
360.306; 1620.375;  287.925;    0.000
360.360; 1602.375;  267.925;    0.000
360.414; 1527.375;  250.925;    0.000
360.468; 1581.375;  270.925;    0.000
360.522; 1545.375;  276.925;    0.000
360.576; 1501.375;  269.925;    0.000
360.630; 1580.375;  281.925;    0.000
360.684; 1613.375;  291.925;    0.000
360.738; 1580.375;  325.925;    0.000
360.792; 1484.375;  320.925;    0.000
360.846; 1556.375;  276.925;    0.000
360.899; 1641.375;  314.925;    0.000
360.953; 1594.375;  275.925;    0.000
361.007; 1577.375;  292.925;    0.000
361.061; 1517.375;  278.925;    0.000
361.115; 1455.375;  264.925;    0.000
361.168; 1524.375;  317.925;    0.000
361.222; 1552.375;  277.925;    0.000
361.276; 1548.375;  274.925;    0.000
361.330; 1538.375;  269.925;    0.000
361.384; 1551.375;  280.925;    0.000
361.437; 1519.375;  304.925;    0.000
361.491; 1545.375;  256.925;    0.000
361.545; 1559.375;  293.925;    0.000
361.599; 1558.375;  284.925;    0.000
361.652; 1567.375;  274.925;    0.000
361.706; 1605.375;  284.925;    0.000
361.760; 1504.375;  260.925;    0.000
361.813; 1487.375;  272.925;    0.000
361.867; 1594.375;  300.925;    0.000
361.921; 1499.375;  275.925;    0.000
361.974; 1550.375;  258.925;    0.000
362.028; 1519.375;  248.925;    0.000
362.082; 1559.375;  252.925;    0.000
362.135; 1512.375;  240.925;    0.000
362.189; 1515.375;  259.925;    0.000
362.242; 1586.375;  267.925;    0.000
362.296; 1515.375;  280.925;    0.000
362.350; 1527.375;  282.925;    0.000
362.403; 1515.375;  288.925;    0.000
362.457; 1525.375;  253.925;    0.000
362.510; 1480.375;  323.925;    0.000
362.564; 1545.375;  286.925;    0.000
362.617; 1621.375;  317.925;    0.000
362.671; 1501.375;  286.925;    0.000
362.724; 1466.375;  274.925;    0.000
362.778; 1443.375;  295.925;    0.000
362.831; 1488.375;  289.925;    0.000
362.885; 1616.375;  318.925;    0.000
362.938; 1568.375;  271.925;    0.000
362.992;  326.375;  285.925;    0.000
363.045;  249.375;  291.925;    0.000
363.099;  297.375;  276.925;    0.000
363.152;  267.375;  309.925;    0.000
363.205;  287.375;  263.925;    0.000
363.259;  282.375;  288.925;    0.000
363.312;  296.375;  333.925;    0.000
363.366;  266.375;  328.925;    0.000
363.419;  283.375;  328.925;    0.000
363.472;  329.375;  295.925;    0.000
363.526;  274.375;  334.925;    0.000
363.579;  271.375;  312.925;    0.000
363.632;  312.375;  274.925;    0.000
363.686;  293.375;  282.925;    0.000
363.739;  276.375;  289.925;    0.000
363.792;  314.375;  287.925;    0.000

