
Integration time [ms]:   0.300
Averaging Nr. [scans]: 1
Smoothing Nr. [pixels]: 0
Data measured with spectrometer [name]: NIR
Wave   ;Sample   ;Dark     ;Reference
[nm]   ;[counts] ;[counts] ;[counts] 

691.496;   17.325;  102.875;    0.000
691.696;   48.325;  181.875;    0.000
691.896;    4.325;  138.875;    0.000
692.096;    7.325;  182.875;    0.000
692.296;   -2.675;  145.875;    0.000
692.496;   18.325;  154.875;    0.000
692.695;  -36.675;  108.875;    0.000
692.895;   43.325;  176.875;    0.000
693.095;    9.325;  138.875;    0.000
693.295;   -5.675;  192.875;    0.000
693.495;   48.325;  170.875;    0.000
693.695;  -14.675;  147.875;    0.000
693.894;    9.325;  191.875;    0.000
694.094;   24.325;  148.875;    0.000
694.294;   12.325;  147.875;    0.000
694.494;  199.325;  140.875;    0.000
694.693; 1986.325;  137.875;    0.000
694.893; 2168.325;  141.875;    0.000
695.093; 2183.325;  105.875;    0.000
695.293; 2279.325;  115.875;    0.000
695.492; 2241.325;   81.875;    0.000
695.692; 2184.325;  162.875;    0.000
695.891; 2281.325;  162.875;    0.000
696.091; 2261.325;  166.875;    0.000
696.291; 2297.325;  143.875;    0.000
696.490; 2372.325;  170.875;    0.000
696.690; 2211.325;  142.875;    0.000
696.889; 2184.325;  186.875;    0.000
697.089; 2278.325;  120.875;    0.000
697.288; 2348.325;  215.875;    0.000
697.488; 2389.325;  178.875;    0.000
697.687; 2223.325;  170.875;    0.000
697.887; 2325.325;  140.875;    0.000
698.086; 2242.325;  131.875;    0.000
698.286; 2269.325;  117.875;    0.000
698.485; 2414.325;  136.875;    0.000
698.684; 2331.325;  126.875;    0.000
698.884; 2300.325;  161.875;    0.000
699.083; 2408.325;   95.875;    0.000
699.282; 2358.325;  120.875;    0.000
699.482; 2466.325;  131.875;    0.000
699.681; 2291.325;  168.875;    0.000
699.880; 2247.325;  154.875;    0.000
700.080; 2377.325;  149.875;    0.000
700.279; 2312.325;   99.875;    0.000
700.478; 2370.325;  157.875;    0.000
700.677; 2279.325;  111.875;    0.000
700.877; 2375.325;  126.875;    0.000
701.076; 2400.325;  142.875;    0.000
701.275; 2351.325;  107.875;    0.000
701.474; 2352.325;   72.875;    0.000
701.673; 2489.325;   87.875;    0.000
701.872; 2363.325;  170.875;    0.000
702.071; 2495.325;  136.875;    0.000
702.271; 2323.325;  121.875;    0.000
702.470; 2381.325;  139.875;    0.000
702.669; 2360.325;  121.875;    0.000
702.868; 2489.325;  146.875;    0.000
703.067; 2463.325;  159.875;    0.000
703.266; 2419.325;  122.875;    0.000
703.465; 2564.325;  121.875;    0.000
703.664; 2455.325;  144.875;    0.000
703.863; 2420.325;  140.875;    0.000
704.062; 2369.325;  109.875;    0.000
704.260; 2415.325;  164.875;    0.000
704.459; 2545.325;  124.875;    0.000
704.658; 2369.325;  109.875;    0.000
704.857; 2351.325;  149.875;    0.000
705.056; 2392.325;  112.875;    0.000
705.255; 2465.325;   95.875;    0.000
705.454; 2396.325;  105.875;    0.000
705.652; 2426.325;  134.875;    0.000
705.851; 2461.325;   92.875;    0.000
706.050; 2503.325;  127.875;    0.000
706.249; 2374.325;  111.875;    0.000
706.447; 2509.325;   98.875;    0.000
706.646; 2380.325;  108.875;    0.000
706.845; 2648.325;   95.875;    0.000
707.043; 2605.325;   95.875;    0.000
707.242; 2500.325;   97.875;    0.000
707.441; 2576.325;  142.875;    0.000
707.639; 2549.325;  121.875;    0.000
707.838; 2587.325;  141.875;    0.000
708.037; 2454.325;  125.875;    0.000
708.235; 2541.325;  100.875;    0.000
708.434; 2503.325;  106.875;    0.000
708.632; 2498.325;   86.875;    0.000
708.831; 2563.325;  138.875;    0.000
709.029; 2550.325;   86.875;    0.000
709.228; 2594.325;  103.875;    0.000
709.426; 2655.325;  146.875;    0.000
709.625; 2530.325;  136.875;    0.000
709.823; 2453.325;  114.875;    0.000
710.022; 2556.325;  144.875;    0.000
710.220; 2530.325;  109.875;    0.000
710.418; 2677.325;  116.875;    0.000
710.617; 2482.325;   67.875;    0.000
710.815; 2586.325;  104.875;    0.000
711.013; 2637.325;  109.875;    0.000
711.212; 2584.325;  106.875;    0.000
711.410; 2698.325;   95.875;    0.000
711.608; 2634.325;  155.875;    0.000
711.807; 2714.325;  103.875;    0.000
712.005; 2586.325;  104.875;    0.000
712.203; 2637.325;   94.875;    0.000
712.401; 2592.325;  125.875;    0.000
712.599; 2686.325;  127.875;    0.000
712.798; 2746.325;  141.875;    0.000
712.996; 2482.325;   85.875;    0.000
713.194; 2752.325;   96.875;    0.000
713.392; 2727.325;   54.875;    0.000
713.590; 2742.325;  123.875;    0.000
713.788; 2658.325;  130.875;    0.000
713.986; 2806.325;  104.875;    0.000
714.184; 2721.325;   91.875;    0.000
714.382; 2805.325;  120.875;    0.000
714.580; 2698.325;   71.875;    0.000
714.778; 2798.325;   92.875;    0.000
714.976; 2776.325;  129.875;    0.000
715.174; 2814.325;   99.875;    0.000
715.372; 3126.325;  119.875;    0.000
715.570; 3144.325;   95.875;    0.000
715.768; 3518.325;  113.875;    0.000
715.966; 3513.325;   64.875;    0.000
716.164; 3424.325;  135.875;    0.000
716.362; 3346.325;  125.875;    0.000
716.560; 3321.325;  135.875;    0.000
716.758; 3136.325;   84.875;    0.000
716.955; 3062.325;  109.875;    0.000
717.153; 3193.325;   73.875;    0.000
717.351; 3064.325;  110.875;    0.000
717.549; 2928.325;  149.875;    0.000
717.746; 3087.325;  121.875;    0.000
717.944; 2910.325;  128.875;    0.000
718.142; 3064.325;  124.875;    0.000
718.340; 2919.325;   96.875;    0.000
718.537; 2893.325;  138.875;    0.000
718.735; 2937.325;  144.875;    0.000
718.933; 2938.325;   97.875;    0.000
719.130; 2961.325;  109.875;    0.000
719.328; 2975.325;  123.875;    0.000
719.525; 2858.325;  118.875;    0.000
719.723; 2878.325;  117.875;    0.000
719.920; 2850.325;   72.875;    0.000
720.118; 2966.325;   92.875;    0.000
720.316; 2965.325;  141.875;    0.000
720.513; 2930.325;   98.875;    0.000
720.711; 2898.325;  146.875;    0.000
720.908; 2914.325;  113.875;    0.000
721.105; 2894.325;  157.875;    0.000
721.303; 2918.325;  106.875;    0.000
721.500; 2914.325;   88.875;    0.000
721.698; 2898.325;   88.875;    0.000
721.895; 2920.325;   94.875;    0.000
722.092; 2964.325;   82.875;    0.000
722.290; 2892.325;  136.875;    0.000
722.487; 3038.325;   67.875;    0.000
722.684; 3118.325;  115.875;    0.000
722.882; 2937.325;  104.875;    0.000
723.079; 2931.325;  122.875;    0.000
723.276; 2987.325;   91.875;    0.000
723.473; 2902.325;   89.875;    0.000
723.671; 2972.325;   97.875;    0.000
723.868; 3026.325;  117.875;    0.000
724.065; 3089.325;  102.875;    0.000
724.262; 2955.325;  137.875;    0.000
724.459; 2962.325;   48.875;    0.000
724.656; 3001.325;  122.875;    0.000
724.854; 3138.325;   96.875;    0.000
725.051; 3118.325;  120.875;    0.000
725.248; 3037.325;  146.875;    0.000
725.445; 2966.325;  117.875;    0.000
725.642; 3054.325;  106.875;    0.000
725.839; 3022.325;  143.875;    0.000
726.036; 2962.325;   79.875;    0.000
726.233; 3040.325;   90.875;    0.000
726.430; 3032.325;  124.875;    0.000
726.627; 3124.325;   98.875;    0.000
726.824; 3108.325;   91.875;    0.000
727.021; 3132.325;  131.875;    0.000
727.218; 2999.325;  110.875;    0.000
727.414; 3283.325;   83.875;    0.000
727.611; 3031.325;   86.875;    0.000
727.808; 3097.325;  131.875;    0.000
728.005; 3045.325;  105.875;    0.000
728.202; 3103.325;  128.875;    0.000
728.399; 3053.325;  113.875;    0.000
728.595; 2977.325;  102.875;    0.000
728.792; 3018.325;   91.875;    0.000
728.989; 2990.325;  122.875;    0.000
729.186; 3155.325;  103.875;    0.000
729.382; 3066.325;  106.875;    0.000
729.579; 3150.325;  114.875;    0.000
729.776; 3074.325;  115.875;    0.000
729.972; 2998.325;  108.875;    0.000
730.169; 3109.325;  111.875;    0.000
730.366; 3034.325;  100.875;    0.000
730.562; 3120.325;   86.875;    0.000
730.759; 3164.325;   93.875;    0.000
730.955; 3180.325;  127.875;    0.000
731.152; 3106.325;   99.875;    0.000
731.348; 3226.325;   97.875;    0.000
731.545; 3145.325;   98.875;    0.000
731.741; 3161.325;  130.875;    0.000
731.938; 3109.325;  115.875;    0.000
732.134; 3168.325;  107.875;    0.000
732.331; 3096.325;   80.875;    0.000
732.527; 3110.325;  108.875;    0.000
732.724; 3202.325;  104.875;    0.000
732.920; 3166.325;  109.875;    0.000
733.116; 3187.325;  117.875;    0.000
733.313; 3201.325;   81.875;    0.000
733.509; 3296.325;   87.875;    0.000
733.705; 3126.325;  143.875;    0.000
733.902; 3102.325;   74.875;    0.000
734.098; 3211.325;   90.875;    0.000
734.294; 3030.325;  104.875;    0.000
734.490; 3125.325;  139.875;    0.000
734.687; 3190.325;  113.875;    0.000
734.883; 3136.325;   72.875;    0.000
735.079; 3247.325;  100.875;    0.000
735.275; 3184.325;  113.875;    0.000
735.471; 3008.325;   55.875;    0.000
735.667; 3220.325;  106.875;    0.000
735.863; 3303.325;  131.875;    0.000
736.060; 3277.325;  127.875;    0.000
736.256; 3369.325;   76.875;    0.000
736.452; 3083.325;  127.875;    0.000
736.648; 3307.325;  136.875;    0.000
736.844; 3217.325;  113.875;    0.000
737.040; 3360.325;  125.875;    0.000
737.236; 3276.325;   99.875;    0.000
737.432; 3283.325;   75.875;    0.000
737.628; 3297.325;  155.875;    0.000
737.824; 3320.325;  116.875;    0.000
738.019; 3187.325;   92.875;    0.000
738.215; 3257.325;  113.875;    0.000
738.411; 3297.325;  135.875;    0.000
738.607; 3318.325;   53.875;    0.000
738.803; 3389.325;   79.875;    0.000
738.999; 3395.325;  117.875;    0.000
739.195; 3440.325;  106.875;    0.000
739.390; 3364.325;  125.875;    0.000
739.586; 3324.325;  102.875;    0.000
739.782; 3390.325;  125.875;    0.000
739.978; 3417.325;  124.875;    0.000
740.173; 3545.325;   96.875;    0.000
740.369; 3495.325;  118.875;    0.000
740.565; 3575.325;  128.875;    0.000
740.760; 3490.325;  118.875;    0.000
740.956; 3464.325;  109.875;    0.000
741.152; 3562.325;  151.875;    0.000
741.347; 3541.325;  112.875;    0.000
741.543; 3669.325;  113.875;    0.000
741.738; 3720.325;  128.875;    0.000
741.934; 3767.325;  144.875;    0.000
742.129; 3950.325;  105.875;    0.000
742.325; 4530.325;  137.875;    0.000
742.520; 5074.325;  128.875;    0.000
742.716; 4683.325;  121.875;    0.000
742.911; 4439.325;   75.875;    0.000
743.107; 4502.325;  100.875;    0.000
743.302; 4316.325;   72.875;    0.000
743.498; 4508.325;  137.875;    0.000
743.693; 4191.325;  124.875;    0.000
743.888; 4557.325;  121.875;    0.000
744.084; 5264.325;   93.875;    0.000
744.279; 6515.325;   75.875;    0.000
744.474; 6759.325;  136.875;    0.000
744.670; 5919.325;  109.875;    0.000
744.865; 5092.325;  142.875;    0.000
745.060; 4941.325;   84.875;    0.000
745.255; 4661.325;  149.875;    0.000
745.451; 4763.325;  101.875;    0.000
745.646; 4613.325;  132.875;    0.000
745.841; 4463.325;  126.875;    0.000
746.036; 4564.325;  125.875;    0.000
746.231; 4716.325;  150.875;    0.000
746.426; 4821.325;  118.875;    0.000
746.622; 5932.325;  135.875;    0.000
746.817; 7519.325;  122.875;    0.000
747.012; 8643.325;  134.875;    0.000
747.207; 7723.325;  124.875;    0.000
747.402; 6550.325;  122.875;    0.000
747.597; 5933.325;   95.875;    0.000
747.792; 5857.325;  168.875;    0.000
747.987; 5531.325;  110.875;    0.000
748.182; 5387.325;  119.875;    0.000
748.377; 5278.325;   70.875;    0.000
748.572; 4990.325;  113.875;    0.000
748.767; 4632.325;  123.875;    0.000
748.961; 4541.325;  110.875;    0.000
749.156; 4633.325;  135.875;    0.000
749.351; 4468.325;   98.875;    0.000
749.546; 4412.325;  126.875;    0.000
749.741; 4209.325;  129.875;    0.000
749.936; 4310.325;   86.875;    0.000
750.130; 4180.325;   97.875;    0.000
750.325; 4305.325;  110.875;    0.000
750.520; 4167.325;  120.875;    0.000
750.715; 4236.325;  122.875;    0.000
750.909; 4222.325;  120.875;    0.000
751.104; 4061.325;  118.875;    0.000
751.299; 4152.325;  122.875;    0.000
751.493; 4089.325;  129.875;    0.000
751.688; 4147.325;  138.875;    0.000
751.882; 3924.325;   87.875;    0.000
752.077; 4004.325;  142.875;    0.000
752.272; 3931.325;  110.875;    0.000
752.466; 3912.325;  154.875;    0.000
752.661; 3913.325;   96.875;    0.000
752.855; 3851.325;   93.875;    0.000
753.050; 3785.325;  122.875;    0.000
753.244; 3857.325;  110.875;    0.000
753.439; 3797.325;  116.875;    0.000
753.633; 3882.325;  131.875;    0.000
753.828; 3875.325;  130.875;    0.000
754.022; 3698.325;   96.875;    0.000
754.216; 3572.325;  114.875;    0.000
754.411; 3730.325;  145.875;    0.000
754.605; 3614.325;   65.875;    0.000
754.799; 3699.325;  116.875;    0.000
754.994; 3690.325;  117.875;    0.000
755.188; 3833.325;  124.875;    0.000
755.382; 3744.325;   80.875;    0.000
755.576; 3706.325;   90.875;    0.000
755.771; 3697.325;  115.875;    0.000
755.965; 3688.325;  106.875;    0.000
756.159; 3590.325;   87.875;    0.000
756.353; 3747.325;  125.875;    0.000
756.547; 3610.325;  146.875;    0.000
756.742; 3606.325;  111.875;    0.000
756.936; 3655.325;  108.875;    0.000
757.130; 3622.325;  101.875;    0.000
757.324; 3691.325;  114.875;    0.000
757.518; 3746.325;  136.875;    0.000
757.712; 3808.325;  123.875;    0.000
757.906; 3649.325;  115.875;    0.000
758.100; 3800.325;  186.875;    0.000
758.294; 3749.325;  118.875;    0.000
758.488; 3772.325;  167.875;    0.000
758.682; 3615.325;  137.875;    0.000
758.876; 3682.325;  135.875;    0.000
759.070; 3541.325;  132.875;    0.000
759.264; 3778.325;  118.875;    0.000
759.458; 3621.325;  111.875;    0.000
759.651; 3553.325;  142.875;    0.000
759.845; 3570.325;  105.875;    0.000
760.039; 3670.325;   73.875;    0.000
760.233; 3654.325;  156.875;    0.000
760.427; 3594.325;  119.875;    0.000
760.620; 3520.325;  136.875;    0.000
760.814; 3552.325;  126.875;    0.000
761.008; 3670.325;  126.875;    0.000
761.202; 3726.325;  123.875;    0.000
761.395; 3642.325;  141.875;    0.000
761.589; 3615.325;  107.875;    0.000
761.783; 3547.325;  122.875;    0.000
761.976; 3724.325;  120.875;    0.000
762.170; 3768.325;  147.875;    0.000
762.363; 3580.325;  144.875;    0.000
762.557; 3795.325;  119.875;    0.000
762.750; 3663.325;  118.875;    0.000
762.944; 3705.325;  145.875;    0.000
763.138; 3741.325;  123.875;    0.000
763.331; 3655.325;  129.875;    0.000
763.524; 3827.325;  109.875;    0.000
763.718; 3829.325;  150.875;    0.000
763.911; 3818.325;  140.875;    0.000
764.105; 3774.325;   97.875;    0.000
764.298; 3589.325;  128.875;    0.000
764.492; 3697.325;  132.875;    0.000
764.685; 3638.325;   92.875;    0.000
764.878; 3660.325;  111.875;    0.000
765.072; 3728.325;  116.875;    0.000
765.265; 3670.325;  135.875;    0.000
765.458; 3692.325;   69.875;    0.000
765.651; 3628.325;  145.875;    0.000
765.845; 3703.325;   95.875;    0.000
766.038; 3731.325;  147.875;    0.000
766.231; 4048.325;  119.875;    0.000
766.424; 5085.325;  126.875;    0.000
766.617; 5545.325;   92.875;    0.000
766.811; 4097.325;  109.875;    0.000
767.004; 3661.325;  107.875;    0.000
767.197; 3871.325;  171.875;    0.000
767.390; 3776.325;  114.875;    0.000
767.583; 3654.325;  109.875;    0.000
767.776; 3804.325;  130.875;    0.000
767.969; 3886.325;  103.875;    0.000
768.162; 3803.325;  139.875;    0.000
768.355; 3867.325;  142.875;    0.000
768.548; 3866.325;  140.875;    0.000
768.741; 3917.325;   82.875;    0.000
768.934; 3894.325;  107.875;    0.000
769.127; 3903.325;  121.875;    0.000
769.320; 3927.325;  106.875;    0.000
769.513; 4106.325;  145.875;    0.000
769.706; 4078.325;  120.875;    0.000
769.898; 5018.325;  135.875;    0.000
770.091; 4675.325;  146.875;    0.000
770.284; 3961.325;  108.875;    0.000
770.477; 4050.325;  148.875;    0.000
770.670; 4036.325;  163.875;    0.000
770.862; 4104.325;   97.875;    0.000
771.055; 4007.325;  116.875;    0.000
771.248; 4094.325;  143.875;    0.000
771.441; 4036.325;  125.875;    0.000
771.633; 4127.325;  125.875;    0.000
771.826; 4185.325;  132.875;    0.000
772.018; 4229.325;  123.875;    0.000
772.211; 4316.325;  143.875;    0.000
772.404; 4339.325;  144.875;    0.000
772.596; 4293.325;  130.875;    0.000
772.789; 4458.325;  109.875;    0.000
772.981; 4428.325;  151.875;    0.000
773.174; 4363.325;  119.875;    0.000
773.366; 4671.325;  179.875;    0.000
773.559; 4528.325;  106.875;    0.000
773.751; 4774.325;  120.875;    0.000
773.944; 4811.325;  159.875;    0.000
774.136; 4975.325;  131.875;    0.000
774.329; 4939.325;  141.875;    0.000
774.521; 5025.325;  114.875;    0.000
774.713; 5314.325;  169.875;    0.000
774.906; 5421.325;  151.875;    0.000
775.098; 5543.325;   99.875;    0.000
775.290; 5811.325;  166.875;    0.000
775.483; 6088.325;  146.875;    0.000
775.675; 6474.325;  106.875;    0.000
775.867; 6918.325;   91.875;    0.000
776.059; 7325.325;  137.875;    0.000
776.251; 8415.325;  124.875;    0.000
776.444; 9409.325;  168.875;    0.000
776.636;11176.325;  138.875;    0.000
776.828;13922.325;  155.875;    0.000
777.020;20120.324;  160.875;    0.000
777.212;31285.324;  153.875;    0.000
777.404;35888.324;  135.875;    0.000
777.596;33387.324;  144.875;    0.000
777.788;23966.324;  127.875;    0.000
777.980;17371.324;  141.875;    0.000
778.172;14166.325;  138.875;    0.000
778.364;11961.325;  143.875;    0.000
778.556;10075.325;  123.875;    0.000
778.748; 9084.325;  103.875;    0.000
778.940; 8371.325;  176.875;    0.000
779.132; 7664.325;  144.875;    0.000
779.324; 7004.325;   75.875;    0.000
779.516; 6691.325;  117.875;    0.000
779.708; 6331.325;  151.875;    0.000
779.900; 6163.325;  127.875;    0.000
780.091; 5667.325;  155.875;    0.000
780.283; 5583.325;  157.875;    0.000
780.475; 5347.325;  140.875;    0.000
780.667; 5373.325;  141.875;    0.000
780.859; 5047.325;  113.875;    0.000
781.050; 4899.325;  153.875;    0.000
781.242; 4795.325;  118.875;    0.000
781.434; 4571.325;  121.875;    0.000
781.625; 4676.325;  146.875;    0.000
781.817; 4401.325;  154.875;    0.000
782.008; 4445.325;  144.875;    0.000
782.200; 4393.325;  152.875;    0.000
782.392; 4235.325;  160.875;    0.000
782.583; 4373.325;  122.875;    0.000
782.775; 4306.325;  144.875;    0.000
782.966; 4280.325;  143.875;    0.000
783.158; 4048.325;  125.875;    0.000
783.349; 4029.325;  173.875;    0.000
783.541; 3962.325;  166.875;    0.000
783.732; 4082.325;  163.875;    0.000
783.924; 3933.325;  157.875;    0.000
784.115; 3997.325;  158.875;    0.000
784.306; 3986.325;  160.875;    0.000
784.498; 4046.325;  132.875;    0.000
784.689; 3858.325;  181.875;    0.000
784.880; 3952.325;  156.875;    0.000
785.072; 3994.325;  134.875;    0.000
785.263; 3798.325;  155.875;    0.000
785.454; 3864.325;  141.875;    0.000
785.645; 3882.325;  114.875;    0.000
785.837; 3789.325;  137.875;    0.000
786.028; 3700.325;  158.875;    0.000
786.219; 3704.325;  135.875;    0.000
786.410; 3771.325;  152.875;    0.000
786.601; 3648.325;  132.875;    0.000
786.792; 3830.325;  152.875;    0.000
786.984; 3729.325;  162.875;    0.000
787.175; 3921.325;   97.875;    0.000
787.366; 3723.325;  129.875;    0.000
787.557; 3713.325;  135.875;    0.000
787.748; 3620.325;  127.875;    0.000
787.939; 3744.325;  152.875;    0.000
788.130; 3714.325;  182.875;    0.000
788.321; 3729.325;  130.875;    0.000
788.512; 3810.325;  161.875;    0.000
788.703; 3753.325;  127.875;    0.000
788.894; 3765.325;  121.875;    0.000
789.084; 3764.325;  134.875;    0.000
789.275; 3798.325;  108.875;    0.000
789.466; 3630.325;  152.875;    0.000
789.657; 3766.325;  115.875;    0.000
789.848; 3730.325;  150.875;    0.000
790.039; 3677.325;  132.875;    0.000
790.229; 3730.325;  169.875;    0.000
790.420; 3824.325;  159.875;    0.000
790.611; 3712.325;  123.875;    0.000
790.801; 3782.325;  144.875;    0.000
790.992; 3784.325;  177.875;    0.000
791.183; 3720.325;  128.875;    0.000
791.373; 3587.325;  123.875;    0.000
791.564; 3547.325;  131.875;    0.000
791.755; 3690.325;  103.875;    0.000
791.945; 3763.325;  104.875;    0.000
792.136; 3769.325;  115.875;    0.000
792.326; 3821.325;   99.875;    0.000
792.517; 3787.325;  139.875;    0.000
792.707; 3816.325;  155.875;    0.000
792.898; 3761.325;  139.875;    0.000
793.088; 4010.325;  153.875;    0.000
793.279; 3836.325;  137.875;    0.000
793.469; 4013.325;  109.875;    0.000
793.660; 3849.325;  119.875;    0.000
793.850; 4100.325;  119.875;    0.000
794.040; 4386.325;  132.875;    0.000
794.231; 4529.325;  122.875;    0.000
794.421; 4894.325;  124.875;    0.000
794.611; 5524.325;  151.875;    0.000
794.802; 6415.325;  121.875;    0.000
794.992; 7006.325;  139.875;    0.000
795.182; 7154.325;  132.875;    0.000
795.372; 6554.325;  149.875;    0.000
795.563; 5847.325;  153.875;    0.000
795.753; 5345.325;  120.875;    0.000
795.943; 5032.325;  121.875;    0.000
796.133; 4622.325;   97.875;    0.000
796.323; 4572.325;  122.875;    0.000
796.513; 4173.325;  142.875;    0.000
796.703; 4346.325;  125.875;    0.000
796.893; 4103.325;  126.875;    0.000
797.083; 4038.325;  150.875;    0.000
797.273; 4071.325;  108.875;    0.000
797.463; 4030.325;  156.875;    0.000
797.653; 3898.325;   80.875;    0.000
797.843; 3849.325;   88.875;    0.000
798.033; 3726.325;   96.875;    0.000
798.223; 3833.325;  159.875;    0.000
798.413; 3854.325;  155.875;    0.000
798.603; 3804.325;  125.875;    0.000
798.793; 3704.325;  141.875;    0.000
798.983; 3552.325;  113.875;    0.000
799.172; 3722.325;   85.875;    0.000
799.362; 3568.325;  141.875;    0.000
799.552; 3559.325;  122.875;    0.000
799.742; 3619.325;  124.875;    0.000
799.932; 3501.325;  102.875;    0.000
800.121; 3548.325;  146.875;    0.000
800.311; 3487.325;  122.875;    0.000
800.501; 3375.325;  120.875;    0.000
800.690; 3603.325;  141.875;    0.000
800.880; 3566.325;  146.875;    0.000
801.070; 3529.325;  122.875;    0.000
801.259; 3489.325;  138.875;    0.000
801.449; 3507.325;  115.875;    0.000
801.638; 3607.325;  132.875;    0.000
801.828; 3506.325;   92.875;    0.000
802.017; 3616.325;  150.875;    0.000
802.207; 3594.325;  134.875;    0.000
802.396; 3541.325;  133.875;    0.000
802.586; 3593.325;  117.875;    0.000
802.775; 3428.325;  155.875;    0.000
802.965; 3591.325;  132.875;    0.000
803.154; 3364.325;  176.875;    0.000
803.343; 3484.325;  106.875;    0.000
803.533; 3530.325;  154.875;    0.000
803.722; 3437.325;   97.875;    0.000
803.911; 3451.325;  107.875;    0.000
804.101; 3535.325;  145.875;    0.000
804.290; 3613.325;  130.875;    0.000
804.479; 3494.325;  152.875;    0.000
804.668; 3620.325;  160.875;    0.000
804.857; 3453.325;  161.875;    0.000
805.047; 3527.325;  126.875;    0.000
805.236; 3664.325;  136.875;    0.000
805.425; 3604.325;  153.875;    0.000
805.614; 3551.325;  139.875;    0.000
805.803; 3468.325;  144.875;    0.000
805.992; 3589.325;  160.875;    0.000
806.181; 3541.325;  139.875;    0.000
806.370; 3695.325;  104.875;    0.000
806.559; 3553.325;  103.875;    0.000
806.748; 3603.325;  145.875;    0.000
806.937; 3636.325;  151.875;    0.000
807.126; 3736.325;  119.875;    0.000
807.315; 3691.325;  139.875;    0.000
807.504; 3566.325;  143.875;    0.000
807.693; 3695.325;  164.875;    0.000
807.882; 3731.325;  135.875;    0.000
808.071; 3705.325;  131.875;    0.000
808.260; 3667.325;  113.875;    0.000
808.448; 3778.325;  161.875;    0.000
808.637; 3859.325;  125.875;    0.000
808.826; 3813.325;  155.875;    0.000
809.015; 3858.325;  113.875;    0.000
809.203; 3967.325;  152.875;    0.000
809.392; 3982.325;   90.875;    0.000
809.581; 4027.325;  186.875;    0.000
809.770; 3946.325;   99.875;    0.000
809.958; 4094.325;  146.875;    0.000
810.147; 3987.325;  115.875;    0.000
810.335; 4016.325;  122.875;    0.000
810.524; 4133.325;  150.875;    0.000
810.713; 4286.325;  121.875;    0.000
810.901; 4320.325;  156.875;    0.000
811.090; 4401.325;  161.875;    0.000
811.278; 4363.325;  138.875;    0.000
811.467; 4570.325;  184.875;    0.000
811.655; 4672.325;  150.875;    0.000
811.844; 4605.325;  137.875;    0.000
812.032; 4666.325;  142.875;    0.000
812.220; 4685.325;  134.875;    0.000
812.409; 4698.325;  143.875;    0.000
812.597; 4767.325;  164.875;    0.000
812.785; 4856.325;  188.875;    0.000
812.974; 4980.325;  156.875;    0.000
813.162; 4914.325;  166.875;    0.000
813.350; 4966.325;  115.875;    0.000
813.539; 5193.325;  167.875;    0.000
813.727; 5223.325;  165.875;    0.000
813.915; 5427.325;  137.875;    0.000
814.103; 5342.325;  166.875;    0.000
814.291; 5558.325;  151.875;    0.000
814.479; 5628.325;  147.875;    0.000
814.668; 5693.325;  166.875;    0.000
814.856; 5875.325;  160.875;    0.000
815.044; 5950.325;  172.875;    0.000
815.232; 6190.325;  193.875;    0.000
815.420; 6539.325;  173.875;    0.000
815.608; 6552.325;  134.875;    0.000
815.796; 6715.325;  105.875;    0.000
815.984; 7004.325;  125.875;    0.000
816.172; 7462.325;  160.875;    0.000
816.360; 7859.325;  162.875;    0.000
816.548; 8197.325;  160.875;    0.000
816.736; 8883.325;  132.875;    0.000
816.924; 9643.325;  184.875;    0.000
817.111;10176.325;  145.875;    0.000
817.299;11183.325;  132.875;    0.000
817.487;12464.325;  193.875;    0.000
817.675;14319.325;  153.875;    0.000
817.863;17599.324;  153.875;    0.000
818.050;23947.324;  172.875;    0.000
818.238;38145.324;  131.875;    0.000
818.426;51419.324;  160.875;    0.000
818.613;42537.324;  136.875;    0.000
818.801;34853.324;  162.875;    0.000
818.989;33399.324;  153.875;    0.000
819.176;35696.324;  181.875;    0.000
819.364;46097.324;  165.875;    0.000
819.552;59386.324;  111.875;    0.000
819.739;50496.324;  192.875;    0.000
819.927;40147.324;  146.875;    0.000
820.114;34253.324;  154.875;    0.000
820.302;29452.324;  144.875;    0.000
820.489;25818.324;  133.875;    0.000
820.677;23251.324;  135.875;    0.000
820.864;21135.324;  130.875;    0.000
821.052;19758.324;   88.875;    0.000
821.239;18955.324;  143.875;    0.000
821.426;18422.324;  186.875;    0.000
821.614;19213.324;  171.875;    0.000
821.801;19653.324;   90.875;    0.000
821.988;17398.324;  143.875;    0.000
822.176;16441.324;   95.875;    0.000
822.363;16112.325;  148.875;    0.000
822.550;15054.325;  139.875;    0.000
822.737;13724.325;  122.875;    0.000
822.924;12522.325;  171.875;    0.000
823.112;12014.325;  147.875;    0.000
823.299;11055.325;  111.875;    0.000
823.486;10478.325;  161.875;    0.000
823.673;10131.325;  124.875;    0.000
823.860; 9698.325;  151.875;    0.000
824.047; 9496.325;  145.875;    0.000
824.234;10237.325;  139.875;    0.000
824.421;10422.325;  110.875;    0.000
824.608; 9155.325;  145.875;    0.000
824.795; 8388.325;  115.875;    0.000
824.982; 7901.325;  148.875;    0.000
825.169; 7418.325;  135.875;    0.000
825.356; 7090.325;  122.875;    0.000
825.543; 7027.325;  142.875;    0.000
825.730; 6593.325;   89.875;    0.000
825.917; 6372.325;  127.875;    0.000
826.104; 6194.325;  187.875;    0.000
826.290; 6062.325;  138.875;    0.000
826.477; 5823.325;  140.875;    0.000
826.664; 5574.325;  106.875;    0.000
826.851; 5547.325;  155.875;    0.000
827.038; 5500.325;  125.875;    0.000
827.224; 5254.325;  126.875;    0.000
827.411; 5157.325;  163.875;    0.000
827.598; 5074.325;  140.875;    0.000
827.784; 4963.325;  117.875;    0.000
827.971; 4851.325;  114.875;    0.000
828.157; 4748.325;  146.875;    0.000
828.344; 4712.325;  161.875;    0.000
828.531; 4534.325;  155.875;    0.000
828.717; 4449.325;  130.875;    0.000
828.904; 4339.325;  138.875;    0.000
829.090; 4229.325;  176.875;    0.000
829.277; 4395.325;  152.875;    0.000
829.463; 4152.325;  139.875;    0.000
829.650; 4124.325;  168.875;    0.000
829.836; 3989.325;  176.875;    0.000
830.022; 4084.325;  159.875;    0.000
830.209; 4043.325;  135.875;    0.000
830.395; 3881.325;  177.875;    0.000
830.581; 3897.325;  125.875;    0.000
830.768; 3674.325;  155.875;    0.000
830.954; 3679.325;  187.875;    0.000
831.140; 3761.325;  135.875;    0.000
831.327; 3758.325;  158.875;    0.000
831.513; 3588.325;  126.875;    0.000
831.699; 3600.325;  167.875;    0.000
831.885; 3471.325;  165.875;    0.000
832.071; 3536.325;  167.875;    0.000
832.257; 3424.325;  144.875;    0.000
832.444; 3377.325;  158.875;    0.000
832.630; 3443.325;  167.875;    0.000
832.816; 3351.325;  150.875;    0.000
833.002; 3277.325;  157.875;    0.000
833.188; 3373.325;  169.875;    0.000
833.374; 3208.325;  144.875;    0.000
833.560; 3245.325;  179.875;    0.000
833.746; 3035.325;  134.875;    0.000
833.932; 3212.325;  150.875;    0.000
834.118; 3034.325;   98.875;    0.000
834.303; 3029.325;  121.875;    0.000
834.489; 3042.325;  179.875;    0.000
834.675; 3075.325;  136.875;    0.000
834.861; 3095.325;  130.875;    0.000
835.047; 3232.325;  132.875;    0.000
835.233; 2906.325;  104.875;    0.000
835.418; 3122.325;  143.875;    0.000
835.604; 2885.325;  127.875;    0.000
835.790; 2951.325;  138.875;    0.000
835.976; 2931.325;  137.875;    0.000
836.161; 2994.325;  155.875;    0.000
836.347; 2942.325;  101.875;    0.000
836.533; 2896.325;  121.875;    0.000
836.718; 2929.325;  150.875;    0.000
836.904; 2809.325;  168.875;    0.000
837.089; 2982.325;  169.875;    0.000
837.275; 2788.325;  172.875;    0.000
837.460; 2769.325;  140.875;    0.000
837.646; 2786.325;  144.875;    0.000
837.831; 2800.325;  137.875;    0.000
838.017; 2858.325;  176.875;    0.000
838.202; 2737.325;  107.875;    0.000
838.388; 2804.325;  181.875;    0.000
838.573; 2804.325;  151.875;    0.000
838.759; 2759.325;  160.875;    0.000
838.944; 2824.325;  121.875;    0.000
839.129; 2820.325;  145.875;    0.000
839.315; 2711.325;  166.875;    0.000
839.500; 2843.325;  143.875;    0.000
839.685; 2783.325;   93.875;    0.000
839.870; 2835.325;  160.875;    0.000
840.056; 2727.325;  132.875;    0.000
840.241; 2701.325;  154.875;    0.000
840.426; 2731.325;  161.875;    0.000
840.611; 2833.325;  186.875;    0.000
840.796; 2721.325;  135.875;    0.000
840.981; 2801.325;  147.875;    0.000
841.166; 2980.325;  138.875;    0.000
841.352; 2795.325;  156.875;    0.000
841.537; 2798.325;  170.875;    0.000
841.722; 2814.325;  143.875;    0.000
841.907; 2918.325;  143.875;    0.000
842.092; 2809.325;  166.875;    0.000
842.277; 2937.325;  113.875;    0.000
842.461; 3002.325;  126.875;    0.000
842.646; 3020.325;  145.875;    0.000
842.831; 3140.325;  193.875;    0.000
843.016; 3118.325;  162.875;    0.000
843.201; 3154.325;  144.875;    0.000
843.386; 3338.325;  160.875;    0.000
843.571; 3393.325;  136.875;    0.000
843.755; 3677.325;  134.875;    0.000
843.940; 4050.325;  136.875;    0.000
844.125; 4390.325;  169.875;    0.000
844.310; 5376.325;  189.875;    0.000
844.494; 6958.325;  167.875;    0.000
844.679;10068.325;  184.875;    0.000
844.864;10410.325;  147.875;    0.000
845.048; 7916.325;  140.875;    0.000
845.233; 6755.325;  178.875;    0.000
845.418; 5392.325;  145.875;    0.000
845.602; 4993.325;  147.875;    0.000
845.787; 4484.325;  147.875;    0.000
845.971; 4239.325;  165.875;    0.000
846.156; 3717.325;  106.875;    0.000
846.340; 3545.325;  168.875;    0.000
846.525; 3458.325;  155.875;    0.000
846.709; 3303.325;  157.875;    0.000
846.893; 3235.325;  166.875;    0.000
847.078; 3034.325;  138.875;    0.000
847.262; 2948.325;  171.875;    0.000
847.447; 2952.325;  135.875;    0.000
847.631; 2809.325;  136.875;    0.000
847.815; 2717.325;  136.875;    0.000
848.000; 2666.325;  126.875;    0.000
848.184; 2733.325;  131.875;    0.000
848.368; 2551.325;  153.875;    0.000
848.552; 2614.325;  137.875;    0.000
848.736; 2564.325;  151.875;    0.000
848.921; 2492.325;  156.875;    0.000
849.105; 2448.325;  153.875;    0.000
849.289; 2449.325;  180.875;    0.000
849.473; 2388.325;  156.875;    0.000
849.657; 2459.325;  157.875;    0.000
849.841; 2409.325;  147.875;    0.000
850.025; 2397.325;  194.875;    0.000
850.209; 2262.325;  147.875;    0.000
850.393; 2315.325;  141.875;    0.000
850.577; 2279.325;  156.875;    0.000
850.761; 2276.325;  157.875;    0.000
850.945; 2304.325;  128.875;    0.000
851.129; 2322.325;  151.875;    0.000
851.313; 2249.325;  180.875;    0.000
851.497; 2233.325;  123.875;    0.000
851.680; 2197.325;  188.875;    0.000
851.864; 2183.325;  177.875;    0.000
852.048; 2328.325;  163.875;    0.000
852.232; 2282.325;  149.875;    0.000
852.416; 2316.325;  187.875;    0.000
852.599; 2150.325;  169.875;    0.000
852.783; 2167.325;  154.875;    0.000
852.967; 2249.325;  191.875;    0.000
853.150; 2196.325;  170.875;    0.000
853.334; 2235.325;  173.875;    0.000
853.518; 2226.325;  186.875;    0.000
853.701; 2169.325;  142.875;    0.000
853.885; 2090.325;  153.875;    0.000
854.068; 2087.325;  132.875;    0.000
854.252; 2079.325;  184.875;    0.000
854.435; 2272.325;  152.875;    0.000
854.619; 2072.325;  152.875;    0.000
854.802; 2144.325;  164.875;    0.000
854.986; 2173.325;  151.875;    0.000
855.169; 2143.325;  153.875;    0.000
855.353; 2195.325;  183.875;    0.000
855.536; 2183.325;  113.875;    0.000
855.719; 2217.325;  181.875;    0.000
855.903; 2236.325;  159.875;    0.000
856.086; 2191.325;  142.875;    0.000
856.269; 2273.325;  171.875;    0.000
856.452; 2265.325;  132.875;    0.000
856.636; 2344.325;  140.875;    0.000
856.819; 2391.325;  165.875;    0.000
857.002; 2511.325;  170.875;    0.000
857.185; 2460.325;  173.875;    0.000
857.368; 2382.325;  129.875;    0.000
857.552; 2349.325;  151.875;    0.000
857.735; 2343.325;  146.875;    0.000
857.918; 2327.325;  114.875;    0.000
858.101; 2323.325;  152.875;    0.000
858.284; 2232.325;  164.875;    0.000
858.467; 2348.325;  147.875;    0.000
858.650; 2425.325;  146.875;    0.000
858.833; 2457.325;  118.875;    0.000
859.016; 2455.325;  161.875;    0.000
859.199; 2589.325;  135.875;    0.000
859.382; 2785.325;  157.875;    0.000
859.564; 3048.325;  124.875;    0.000
859.747; 3012.325;  154.875;    0.000
859.930; 2817.325;  138.875;    0.000
860.113; 2710.325;  153.875;    0.000
860.296; 2742.325;  180.875;    0.000
860.478; 2535.325;  145.875;    0.000
860.661; 2573.325;  160.875;    0.000
860.844; 2520.325;   96.875;    0.000
861.027; 2536.325;  128.875;    0.000
861.209; 2446.325;  127.875;    0.000
861.392; 2455.325;  126.875;    0.000
861.575; 2548.325;  155.875;    0.000
861.757; 2549.325;  141.875;    0.000
861.940; 2587.325;  181.875;    0.000
862.122; 2584.325;  145.875;    0.000
862.305; 2653.325;  124.875;    0.000
862.487; 2749.325;  151.875;    0.000
862.670; 2776.325;  132.875;    0.000
862.852; 3511.325;  112.875;    0.000
863.035; 4321.325;  116.875;    0.000
863.217; 4402.325;  131.875;    0.000
863.400; 3682.325;  145.875;    0.000
863.582; 3373.325;  147.875;    0.000
863.764; 3347.325;  163.875;    0.000
863.947; 3194.325;  129.875;    0.000
864.129; 2876.325;  159.875;    0.000
864.311; 2936.325;  144.875;    0.000
864.493; 2988.325;  141.875;    0.000
864.676; 2841.325;  159.875;    0.000
864.858; 2848.325;  146.875;    0.000
865.040; 2825.325;  163.875;    0.000
865.222; 2825.325;  133.875;    0.000
865.404; 2889.325;  148.875;    0.000
865.587; 3034.325;  177.875;    0.000
865.769; 3185.325;  172.875;    0.000
865.951; 3134.325;  145.875;    0.000
866.133; 2906.325;  168.875;    0.000
866.315; 2970.325;  147.875;    0.000
866.497; 2992.325;  164.875;    0.000
866.679; 3062.325;  143.875;    0.000
866.861; 3232.325;  170.875;    0.000
867.043; 3418.325;  185.875;    0.000
867.225; 3584.325;  149.875;    0.000
867.407; 3923.325;  143.875;    0.000
867.589; 4482.325;  169.875;    0.000
867.770; 5387.325;  166.875;    0.000
867.952; 7514.325;  158.875;    0.000
868.134;10599.325;  170.875;    0.000
868.316;10397.325;  157.875;    0.000
868.498;10040.325;  186.875;    0.000
868.679; 8615.325;  158.875;    0.000
868.861; 7158.325;  180.875;    0.000
869.043; 5863.325;  164.875;    0.000
869.224; 5126.325;  156.875;    0.000
869.406; 4555.325;  176.875;    0.000
869.588; 4409.325;  152.875;    0.000
869.769; 3962.325;  131.875;    0.000
869.951; 4001.325;  203.875;    0.000
870.132; 3846.325;  143.875;    0.000
870.314; 4369.325;  129.875;    0.000
870.495; 4688.325;  175.875;    0.000
870.677; 4258.325;  165.875;    0.000
870.858; 3828.325;  151.875;    0.000
871.040; 4236.325;  155.875;    0.000
871.221; 4832.325;  144.875;    0.000
871.403; 4677.325;  131.875;    0.000
871.584; 4086.325;  174.875;    0.000
871.765; 4217.325;  169.875;    0.000
871.947; 4511.325;  187.875;    0.000
872.128; 4055.325;  181.875;    0.000
872.309; 3620.325;  129.875;    0.000
872.491; 3240.325;  142.875;    0.000
872.672; 3010.325;  158.875;    0.000
872.853; 3033.325;  179.875;    0.000
873.034; 2769.325;  164.875;    0.000
873.215; 2799.325;  168.875;    0.000
873.396; 2547.325;  114.875;    0.000
873.578; 2488.325;  126.875;    0.000
873.759; 2434.325;  177.875;    0.000
873.940; 2316.325;  169.875;    0.000
874.121; 2285.325;  133.875;    0.000
874.302; 2261.325;  164.875;    0.000
874.483; 2231.325;  162.875;    0.000
874.664; 2202.325;  140.875;    0.000
874.845; 2359.325;  124.875;    0.000
875.026; 2202.325;  146.875;    0.000
875.207; 2224.325;  147.875;    0.000
875.388; 2127.325;  174.875;    0.000
875.568; 2020.325;  179.875;    0.000
875.749; 2011.325;  155.875;    0.000
875.930; 2108.325;  166.875;    0.000
876.111; 1999.325;  153.875;    0.000
876.292; 1875.325;  146.875;    0.000
876.472; 1893.325;  167.875;    0.000
876.653; 1991.325;  145.875;    0.000
876.834; 1847.325;  172.875;    0.000
877.015; 1927.325;  184.875;    0.000
877.195; 1931.325;  160.875;    0.000
877.376; 1888.325;  163.875;    0.000
877.556; 1823.325;  164.875;    0.000
877.737; 1807.325;  179.875;    0.000
877.918; 1849.325;  137.875;    0.000
878.098; 1831.325;  117.875;    0.000
878.279; 1865.325;  135.875;    0.000
878.459; 1845.325;  149.875;    0.000
878.640; 1841.325;  171.875;    0.000
878.820; 1768.325;  142.875;    0.000
879.000; 1755.325;  166.875;    0.000
879.181; 1828.325;  177.875;    0.000
879.361; 1866.325;  176.875;    0.000
879.542; 1820.325;  159.875;    0.000
879.722; 1749.325;  122.875;    0.000
879.902; 1769.325;  166.875;    0.000
880.083; 1753.325;  164.875;    0.000
880.263; 1778.325;  139.875;    0.000
880.443; 1747.325;  179.875;    0.000
880.623; 1970.325;  154.875;    0.000
880.803; 2042.325;  160.875;    0.000
880.984; 1964.325;  181.875;    0.000
881.164; 1950.325;  167.875;    0.000
881.344; 1829.325;  141.875;    0.000
881.524; 1934.325;  190.875;    0.000
881.704; 1906.325;  165.875;    0.000
881.884; 2075.325;  144.875;    0.000
882.064; 2106.325;  135.875;    0.000
882.244; 2160.325;  186.875;    0.000
882.424; 2138.325;  150.875;    0.000
882.604; 1932.325;  168.875;    0.000
882.784; 1859.325;  155.875;    0.000
882.964; 1844.325;  137.875;    0.000
883.144; 1791.325;  136.875;    0.000
883.324; 1824.325;  200.875;    0.000
883.504; 1861.325;  203.875;    0.000
883.683; 1827.325;  149.875;    0.000
883.863; 1741.325;  160.875;    0.000
884.043; 1651.325;  161.875;    0.000
884.223; 1689.325;  147.875;    0.000
884.402; 1644.325;  175.875;    0.000
884.582; 1705.325;  188.875;    0.000
884.762; 1666.325;  173.875;    0.000
884.941; 1673.325;  164.875;    0.000
885.121; 1658.325;  147.875;    0.000
885.301; 1597.325;  135.875;    0.000
885.480; 1616.325;  145.875;    0.000
885.660; 1662.325;  144.875;    0.000
885.839; 1688.325;  155.875;    0.000
886.019; 1662.325;  207.875;    0.000
886.198; 1648.325;  165.875;    0.000
886.378; 1607.325;  120.875;    0.000
886.557; 1620.325;  133.875;    0.000
886.737; 1601.325;  119.875;    0.000
886.916; 1584.325;  129.875;    0.000
887.095; 1617.325;  158.875;    0.000
887.275; 1645.325;  169.875;    0.000
887.454; 1611.325;  184.875;    0.000
887.633; 1590.325;  143.875;    0.000
887.813; 1571.325;  154.875;    0.000
887.992; 1540.325;  188.875;    0.000
888.171; 1520.325;  176.875;    0.000
888.350; 1575.325;  161.875;    0.000
888.530; 1544.325;  163.875;    0.000
888.709; 1541.325;  136.875;    0.000
888.888; 1531.325;  177.875;    0.000
889.067; 1581.325;  169.875;    0.000
889.246; 1665.325;  188.875;    0.000
889.425; 1627.325;  187.875;    0.000
889.604; 1550.325;  169.875;    0.000
889.783; 1531.325;  182.875;    0.000
889.962; 1408.325;  112.875;    0.000
890.141; 1568.325;  231.875;    0.000
890.320; 1581.325;  161.875;    0.000
890.499; 1584.325;  164.875;    0.000
890.678; 1495.325;  176.875;    0.000
890.857; 1597.325;  163.875;    0.000
891.036; 1595.325;  161.875;    0.000
891.214; 1570.325;  156.875;    0.000
891.393; 1465.325;  167.875;    0.000
891.572; 1617.325;  163.875;    0.000
891.751; 1444.325;  205.875;    0.000
891.930; 1565.325;  162.875;    0.000
892.108; 1516.325;  153.875;    0.000
892.287; 1594.325;  153.875;    0.000
892.466; 1514.325;  201.875;    0.000
892.644; 1559.325;  158.875;    0.000
892.823; 1510.325;  122.875;    0.000
893.001; 1567.325;  148.875;    0.000
893.180; 1510.325;  142.875;    0.000
893.359; 1562.325;  192.875;    0.000
893.537; 1573.325;  166.875;    0.000
893.716; 1576.325;  144.875;    0.000
893.894; 1505.325;  145.875;    0.000
894.073; 1524.325;  180.875;    0.000
894.251; 1548.325;  165.875;    0.000
894.429; 1510.325;  182.875;    0.000
894.608; 1517.325;  181.875;    0.000
894.786; 1558.325;  180.875;    0.000
894.964; 1529.325;  207.875;    0.000
895.143; 1531.325;  190.875;    0.000
895.321; 1494.325;  206.875;    0.000
895.499; 1508.325;  164.875;    0.000
895.677; 1568.325;  199.875;    0.000
895.856; 1566.325;  203.875;    0.000
896.034; 1591.325;  200.875;    0.000
896.212; 1588.325;  198.875;    0.000
896.390; 1557.325;  161.875;    0.000
896.568; 1501.325;  205.875;    0.000
896.746; 1470.325;  185.875;    0.000
896.924; 1567.325;  179.875;    0.000
897.102; 1599.325;  190.875;    0.000
897.280; 1514.325;  160.875;    0.000
897.458; 1620.325;  196.875;    0.000
897.636; 1560.325;  168.875;    0.000
897.814; 1565.325;  159.875;    0.000
897.992; 1531.325;  216.875;    0.000
898.170; 1614.325;  195.875;    0.000
898.348; 1493.325;  185.875;    0.000
898.526; 1707.325;  199.875;    0.000
898.704; 1648.325;  215.875;    0.000
898.882; 1525.325;  195.875;    0.000
899.059; 1580.325;  197.875;    0.000
899.237; 1554.325;  168.875;    0.000
899.415; 1675.325;  221.875;    0.000
899.593; 1533.325;  171.875;    0.000
899.770; 1594.325;  191.875;    0.000
899.948; 1613.325;  206.875;    0.000
900.125; 1638.325;  175.875;    0.000
900.303; 1629.325;  176.875;    0.000
900.481; 1652.325;  199.875;    0.000
900.658; 1732.325;  217.875;    0.000
900.836; 1620.325;  192.875;    0.000
901.013; 1648.325;  221.875;    0.000
901.191; 1666.325;  203.875;    0.000
901.368; 1593.325;  189.875;    0.000
901.546; 1737.325;  212.875;    0.000
901.723; 1717.325;  189.875;    0.000
901.901; 1789.325;  198.875;    0.000
902.078; 1784.325;  193.875;    0.000
902.255; 1750.325;  176.875;    0.000
902.433; 1854.325;  201.875;    0.000
902.610; 1796.325;  170.875;    0.000
902.787; 1886.325;  164.875;    0.000
902.964; 1889.325;  216.875;    0.000
903.142; 1872.325;  153.875;    0.000
903.319; 2016.325;  204.875;    0.000
903.496; 1947.325;  188.875;    0.000
903.673; 2050.325;  209.875;    0.000
903.850; 2080.325;  173.875;    0.000
904.027; 2041.325;  186.875;    0.000
904.204; 2153.325;  241.875;    0.000
904.381; 2411.325;  187.875;    0.000
904.558; 2740.325;  196.875;    0.000
904.735; 3083.325;  206.875;    0.000
904.912; 2970.325;  228.875;    0.000
905.089; 3048.325;  172.875;    0.000
905.266; 2915.325;  175.875;    0.000
905.443; 2659.325;  239.875;    0.000
905.620; 2445.325;  176.875;    0.000
905.797; 2310.325;  205.875;    0.000
905.974; 2207.325;  187.875;    0.000
906.151; 2173.325;  135.875;    0.000
906.327; 2205.325;  209.875;    0.000
906.504; 2206.325;  145.875;    0.000
906.681; 2182.325;  178.875;    0.000
906.858; 2133.325;  179.875;    0.000
907.034; 1994.325;  221.875;    0.000
907.211; 1984.325;  166.875;    0.000
907.388; 1984.325;  206.875;    0.000
907.564; 1956.325;  150.875;    0.000
907.741; 1874.325;  187.875;    0.000
907.917; 1860.325;  180.875;    0.000
908.094; 1921.325;  206.875;    0.000
908.271; 1773.325;  184.875;    0.000
908.447; 1859.325;  212.875;    0.000
908.623; 1656.325;  193.875;    0.000
908.800; 1731.325;  185.875;    0.000
908.976; 1826.325;  202.875;    0.000
909.153; 1746.325;  175.875;    0.000
909.329; 1791.325;  193.875;    0.000
909.505; 1723.325;  154.875;    0.000
909.682; 1747.325;  188.875;    0.000
909.858; 1654.325;  162.875;    0.000
910.034; 1738.325;  181.875;    0.000
910.211; 1613.325;  142.875;    0.000
910.387; 1647.325;  200.875;    0.000
910.563; 1669.325;  163.875;    0.000
910.739; 1678.325;  156.875;    0.000
910.915; 1602.325;  202.875;    0.000
911.091; 1632.325;  186.875;    0.000
911.268; 1675.325;  167.875;    0.000
911.444; 1600.325;  193.875;    0.000
911.620; 1552.325;  175.875;    0.000
911.796; 1658.325;  168.875;    0.000
911.972; 1659.325;  154.875;    0.000
912.148; 1581.325;  201.875;    0.000
912.324; 1669.325;  146.875;    0.000
912.500; 1695.325;  185.875;    0.000
912.676; 1704.325;  183.875;    0.000
912.851; 1607.325;  204.875;    0.000
913.027; 1620.325;  196.875;    0.000
913.203; 1722.325;  174.875;    0.000
913.379; 1635.325;  210.875;    0.000
913.555; 1567.325;  197.875;    0.000
913.730; 1651.325;  209.875;    0.000
913.906; 1587.325;  169.875;    0.000
914.082; 1632.325;  236.875;    0.000
914.258; 1727.325;  216.875;    0.000
914.433; 1637.325;  212.875;    0.000
914.609; 1613.325;  180.875;    0.000
914.784; 1615.325;  176.875;    0.000
914.960; 1575.325;  227.875;    0.000
915.136; 1531.325;  149.875;    0.000
915.311; 1600.325;  165.875;    0.000
915.487; 1642.325;  167.875;    0.000
915.662; 1655.325;  225.875;    0.000
915.838; 1657.325;  165.875;    0.000
916.013; 1791.325;  188.875;    0.000
916.189; 1609.325;  200.875;    0.000
916.364; 1630.325;  201.875;    0.000
916.539; 1659.325;  240.875;    0.000
916.715; 1700.325;  180.875;    0.000
916.890; 1721.325;  191.875;    0.000
917.065; 1632.325;  211.875;    0.000
917.240; 1610.325;  212.875;    0.000
917.416; 1645.325;  207.875;    0.000
917.591; 1603.325;  189.875;    0.000
917.766; 1674.325;  205.875;    0.000
917.941; 1669.325;  191.875;    0.000
918.116; 1682.325;  195.875;    0.000
918.292; 1600.325;  183.875;    0.000
918.467; 1723.325;  206.875;    0.000
918.642; 1642.325;  190.875;    0.000
918.817; 1640.325;  193.875;    0.000
918.992; 1552.325;  171.875;    0.000
919.167; 1649.325;  191.875;    0.000
919.342; 1659.325;  202.875;    0.000
919.517; 1746.325;  182.875;    0.000
919.692; 1679.325;  190.875;    0.000
919.867; 1663.325;  221.875;    0.000
920.041; 1744.325;  195.875;    0.000
920.216; 1757.325;  226.875;    0.000
920.391; 1826.325;  230.875;    0.000
920.566; 1763.325;  210.875;    0.000
920.741; 1913.325;  204.875;    0.000
920.915; 2021.325;  213.875;    0.000
921.090; 2200.325;  194.875;    0.000
921.265; 2814.325;  234.875;    0.000
921.439; 3253.325;  228.875;    0.000
921.614; 2962.325;  199.875;    0.000
921.789; 2438.325;  194.875;    0.000
921.963; 2343.325;  236.875;    0.000
922.138; 2176.325;  192.875;    0.000
922.312; 2164.325;  203.875;    0.000
922.487; 2182.325;  207.875;    0.000
922.661; 2382.325;  216.875;    0.000
922.836; 2705.325;  199.875;    0.000
923.010; 2885.325;  179.875;    0.000
923.185; 2605.325;  241.875;    0.000
923.359; 2440.325;  199.875;    0.000
923.534; 2288.325;  227.875;    0.000
923.708; 2502.325;  213.875;    0.000
923.882; 2636.325;  203.875;    0.000
924.057; 2488.325;  194.875;    0.000
924.231; 2331.325;  185.875;    0.000
924.405; 2157.325;  223.875;    0.000
924.579; 2102.325;  196.875;    0.000
924.753; 2165.325;  209.875;    0.000
924.928; 2069.325;  202.875;    0.000
925.102; 2101.325;  184.875;    0.000
925.276; 2038.325;  191.875;    0.000
925.450; 2160.325;  199.875;    0.000
925.624; 2094.325;  190.875;    0.000
925.798; 2248.325;  214.875;    0.000
925.972; 2324.325;  193.875;    0.000
926.146; 2400.325;  191.875;    0.000
926.320; 2683.325;  177.875;    0.000
926.494; 2864.325;  190.875;    0.000
926.668; 3075.325;  182.875;    0.000
926.842; 3117.325;  182.875;    0.000
927.016; 3121.325;  235.875;    0.000
927.190; 3219.325;  234.875;    0.000
927.363; 3059.325;  214.875;    0.000
927.537; 2893.325;  198.875;    0.000
927.711; 2786.325;  154.875;    0.000
927.885; 2742.325;  167.875;    0.000
928.058; 2587.325;  210.875;    0.000
928.232; 2559.325;  206.875;    0.000
928.406; 2536.325;  176.875;    0.000
928.579; 2376.325;  182.875;    0.000
928.753; 2386.325;  179.875;    0.000
928.927; 2365.325;  186.875;    0.000
929.100; 2269.325;  188.875;    0.000
929.274; 2223.325;  167.875;    0.000
929.447; 2229.325;  152.875;    0.000
929.621; 2092.325;  195.875;    0.000
929.794; 2210.325;  200.875;    0.000
929.968; 2016.325;  203.875;    0.000
930.141; 2081.325;  237.875;    0.000
930.315; 2078.325;  165.875;    0.000
930.488; 2041.325;  175.875;    0.000
930.661; 1936.325;  173.875;    0.000
930.835; 1959.325;  171.875;    0.000
931.008; 2018.325;  210.875;    0.000
931.181; 1872.325;  206.875;    0.000
931.354; 1810.325;  195.875;    0.000
931.528; 1859.325;  178.875;    0.000
931.701; 1811.325;  179.875;    0.000
931.874; 1856.325;  150.875;    0.000
932.047; 1771.325;  154.875;    0.000
932.220; 1880.325;  185.875;    0.000
932.393; 1813.325;  166.875;    0.000
932.566; 1767.325;  171.875;    0.000
932.739; 1827.325;  196.875;    0.000
932.912; 1695.325;  212.875;    0.000
933.085; 1735.325;  234.875;    0.000
933.258; 1794.325;  212.875;    0.000
933.431; 1671.325;  181.875;    0.000
933.604; 1807.325;  201.875;    0.000
933.777; 1755.325;  201.875;    0.000
933.950; 1767.325;  176.875;    0.000
934.123; 1642.325;  175.875;    0.000
934.296; 1671.325;  174.875;    0.000
934.468; 1627.325;  186.875;    0.000
934.641; 1583.325;  192.875;    0.000
934.814; 1697.325;  187.875;    0.000
934.987; 1634.325;  165.875;    0.000
935.159; 1655.325;  162.875;    0.000
935.332; 1659.325;  210.875;    0.000
935.505; 1649.325;  191.875;    0.000
935.677; 1588.325;  159.875;    0.000
935.850; 1598.325;  170.875;    0.000
936.022; 1645.325;  172.875;    0.000
936.195; 1699.325;  202.875;    0.000
936.367; 1598.325;  179.875;    0.000
936.540; 1637.325;  207.875;    0.000
936.712; 1796.325;  200.875;    0.000
936.885; 1670.325;  219.875;    0.000
937.057; 1663.325;  150.875;    0.000
937.229; 1798.325;  187.875;    0.000
937.402; 1730.325;  169.875;    0.000
937.574; 1739.325;  127.875;    0.000
937.746; 1750.325;  171.875;    0.000
937.919; 1779.325;  176.875;    0.000
938.091; 1942.325;  193.875;    0.000
938.263; 2042.325;  200.875;    0.000
938.435; 2295.325;  181.875;    0.000
938.608; 2588.325;  191.875;    0.000
938.780; 2955.325;  173.875;    0.000
938.952; 3038.325;  184.875;    0.000
939.124; 3104.325;  171.875;    0.000
939.296; 3585.325;  156.875;    0.000
939.468; 3729.325;  147.875;    0.000
939.640; 3263.325;  186.875;    0.000
939.812; 2966.325;  217.875;    0.000
939.984; 2589.325;  155.875;    0.000
940.156; 2486.325;  191.875;    0.000
940.328; 2290.325;  201.875;    0.000
940.500; 2217.325;  176.875;    0.000
940.672; 2174.325;  190.875;    0.000
940.843; 1988.325;  143.875;    0.000
941.015; 1924.325;  189.875;    0.000
941.187; 1882.325;  172.875;    0.000
941.359; 1934.325;  175.875;    0.000
941.531; 1966.325;  154.875;    0.000
941.702; 1883.325;  183.875;    0.000
941.874; 1767.325;  140.875;    0.000
942.046; 1722.325;  177.875;    0.000
942.217; 1778.325;  147.875;    0.000
942.389; 1840.325;  196.875;    0.000
942.560; 1635.325;  163.875;    0.000
942.732; 1751.325;  187.875;    0.000
942.904; 1730.325;  226.875;    0.000
943.075; 1636.325;  159.875;    0.000
943.247; 1625.325;  209.875;    0.000
943.418; 1517.325;  167.875;    0.000
943.589; 1617.325;  195.875;    0.000
943.761; 1618.325;  190.875;    0.000
943.932; 1643.325;  187.875;    0.000
944.104; 1614.325;  194.875;    0.000
944.275; 1550.325;  177.875;    0.000
944.446; 1634.325;  155.875;    0.000
944.617; 1528.325;  176.875;    0.000
944.789; 1503.325;  171.875;    0.000
944.960; 1526.325;  172.875;    0.000
945.131; 1448.325;  158.875;    0.000
945.302; 1548.325;  201.875;    0.000
945.473; 1515.325;  141.875;    0.000
945.645; 1483.325;  197.875;    0.000
945.816; 1526.325;  165.875;    0.000
945.987; 1635.325;  190.875;    0.000
946.158; 1529.325;  158.875;    0.000
946.329; 1539.325;  160.875;    0.000
946.500; 1475.325;  190.875;    0.000
946.671; 1524.325;  152.875;    0.000
946.842; 1565.325;  182.875;    0.000
947.013; 1460.325;  160.875;    0.000
947.183; 1489.325;  203.875;    0.000
947.354; 1471.325;  174.875;    0.000
947.525; 1465.325;  173.875;    0.000
947.696; 1484.325;  170.875;    0.000
947.867; 1421.325;  187.875;    0.000
948.037; 1386.325;  165.875;    0.000
948.208; 1495.325;  154.875;    0.000
948.379; 1560.325;  176.875;    0.000
948.550; 1431.325;  176.875;    0.000
948.720; 1410.325;  169.875;    0.000
948.891; 1482.325;  216.875;    0.000
949.061; 1385.325;  200.875;    0.000
949.232; 1399.325;  163.875;    0.000
949.403; 1425.325;  157.875;    0.000
949.573; 1464.325;  158.875;    0.000
949.744; 1398.325;  213.875;    0.000
949.914; 1352.325;  177.875;    0.000
950.085; 1407.325;  195.875;    0.000
950.255; 1438.325;  166.875;    0.000
950.425; 1403.325;  196.875;    0.000
950.596; 1408.325;  176.875;    0.000
950.766; 1397.325;  228.875;    0.000
950.936; 1327.325;  185.875;    0.000
951.107; 1408.325;  178.875;    0.000
951.277; 1419.325;  227.875;    0.000
951.447; 1335.325;  219.875;    0.000
951.617; 1420.325;  219.875;    0.000
951.788; 1357.325;  198.875;    0.000
951.958; 1305.325;  202.875;    0.000
952.128; 1347.325;  197.875;    0.000
952.298; 1399.325;  211.875;    0.000
952.468; 1399.325;  233.875;    0.000
952.638; 1336.325;  222.875;    0.000
952.808; 1348.325;  210.875;    0.000
952.978; 1303.325;  216.875;    0.000
953.148; 1357.325;  203.875;    0.000
953.318; 1359.325;  212.875;    0.000
953.488; 1299.325;  156.875;    0.000
953.658; 1327.325;  226.875;    0.000
953.828; 1293.325;  223.875;    0.000
953.998; 1334.325;  209.875;    0.000
954.167; 1309.325;  203.875;    0.000
954.337; 1313.325;  209.875;    0.000
954.507; 1285.325;  252.875;    0.000
954.677; 1270.325;  207.875;    0.000
954.846; 1350.325;  240.875;    0.000
955.016; 1272.325;  197.875;    0.000
955.186; 1286.325;  208.875;    0.000
955.355; 1262.325;  243.875;    0.000
955.525; 1312.325;  211.875;    0.000
955.695; 1300.325;  187.875;    0.000
955.864; 1305.325;  204.875;    0.000
956.034; 1216.325;  199.875;    0.000
956.203; 1316.325;  257.875;    0.000
956.373; 1177.325;  193.875;    0.000
956.542; 1249.325;  187.875;    0.000
956.711; 1226.325;  259.875;    0.000
956.881; 1227.325;  227.875;    0.000
957.050; 1201.325;  260.875;    0.000
957.220; 1230.325;  246.875;    0.000
957.389; 1188.325;  211.875;    0.000
957.558; 1268.325;  197.875;    0.000
957.727; 1231.325;  227.875;    0.000
957.897; 1224.325;  219.875;    0.000
958.066; 1194.325;  180.875;    0.000
958.235; 1229.325;  179.875;    0.000
958.404; 1225.325;  194.875;    0.000
958.573; 1177.325;  235.875;    0.000
958.743; 1211.325;  191.875;    0.000
958.912; 1234.325;  181.875;    0.000
959.081; 1190.325;  193.875;    0.000
959.250; 1142.325;  180.875;    0.000
959.419; 1244.325;  205.875;    0.000
959.588; 1193.325;  241.875;    0.000
959.757; 1150.325;  202.875;    0.000
959.926; 1162.325;  212.875;    0.000
960.094; 1194.325;  199.875;    0.000
960.263; 1159.325;  226.875;    0.000
960.432; 1160.325;  188.875;    0.000
960.601; 1104.325;  200.875;    0.000
960.770; 1158.325;  197.875;    0.000
960.939; 1258.325;  195.875;    0.000
961.107; 1169.325;  198.875;    0.000
961.276; 1171.325;  151.875;    0.000
961.445; 1163.325;  227.875;    0.000
961.613; 1166.325;  186.875;    0.000
961.782; 1144.325;  187.875;    0.000
961.951; 1132.325;  194.875;    0.000
962.119; 1139.325;  227.875;    0.000
962.288; 1201.325;  181.875;    0.000
962.456; 1144.325;  206.875;    0.000
962.625; 1169.325;  181.875;    0.000
962.793; 1237.325;  216.875;    0.000
962.962; 1167.325;  237.875;    0.000
963.130; 1188.325;  194.875;    0.000
963.298; 1149.325;  190.875;    0.000
963.467; 1238.325;  204.875;    0.000
963.635; 1144.325;  159.875;    0.000
963.803; 1181.325;  208.875;    0.000
963.972; 1171.325;  206.875;    0.000
964.140; 1164.325;  178.875;    0.000
964.308; 1128.325;  185.875;    0.000
964.477; 1115.325;  189.875;    0.000
964.645; 1204.325;  201.875;    0.000
964.813; 1199.325;  200.875;    0.000
964.981; 1227.325;  160.875;    0.000
965.149; 1195.325;  230.875;    0.000
965.317; 1201.325;  214.875;    0.000
965.485; 1249.325;  190.875;    0.000
965.653; 1209.325;  239.875;    0.000
965.821; 1231.325;  211.875;    0.000
965.989; 1151.325;  216.875;    0.000
966.157; 1162.325;  198.875;    0.000
966.325; 1196.325;  200.875;    0.000
966.493; 1178.325;  187.875;    0.000
966.661; 1217.325;  181.875;    0.000
966.829; 1215.325;  181.875;    0.000
966.996; 1178.325;  220.875;    0.000
967.164; 1187.325;  179.875;    0.000
967.332; 1214.325;  203.875;    0.000
967.500; 1266.325;  200.875;    0.000
967.667; 1183.325;  196.875;    0.000
967.835; 1230.325;  199.875;    0.000
968.003; 1215.325;  191.875;    0.000
968.170; 1174.325;  141.875;    0.000
968.338; 1230.325;  185.875;    0.000
968.505; 1237.325;  199.875;    0.000
968.673; 1250.325;  191.875;    0.000
968.841; 1141.325;  165.875;    0.000
969.008; 1292.325;  192.875;    0.000
969.175; 1192.325;  172.875;    0.000
969.343; 1252.325;  191.875;    0.000
969.510; 1196.325;  199.875;    0.000
969.678; 1120.325;  156.875;    0.000
969.845; 1185.325;  191.875;    0.000
970.012; 1205.325;  205.875;    0.000
970.180; 1275.325;  201.875;    0.000
970.347; 1177.325;  229.875;    0.000
970.514; 1189.325;  207.875;    0.000
970.681; 1230.325;  169.875;    0.000
970.849; 1164.325;  196.875;    0.000
971.016; 1151.325;  212.875;    0.000
971.183; 1194.325;  178.875;    0.000
971.350; 1178.325;  193.875;    0.000
971.517; 1130.325;  190.875;    0.000
971.684; 1187.325;  261.875;    0.000
971.851; 1139.325;  203.875;    0.000
972.018; 1074.325;  184.875;    0.000
972.185; 1172.325;  226.875;    0.000
972.352; 1162.325;  180.875;    0.000
972.519; 1153.325;  226.875;    0.000
972.686; 1107.325;  233.875;    0.000
972.853; 1128.325;  173.875;    0.000
973.020; 1111.325;  208.875;    0.000
973.186; 1118.325;  173.875;    0.000
973.353; 1098.325;  218.875;    0.000
973.520; 1059.325;  218.875;    0.000
973.687; 1163.325;  176.875;    0.000
973.853; 1209.325;  203.875;    0.000
974.020; 1142.325;  196.875;    0.000
974.187; 1114.325;  188.875;    0.000
974.353; 1251.325;  230.875;    0.000
974.520; 1151.325;  195.875;    0.000
974.687; 1080.325;  209.875;    0.000
974.853; 1146.325;  189.875;    0.000
975.020; 1152.325;  179.875;    0.000
975.186; 1115.325;  204.875;    0.000
975.353; 1139.325;  201.875;    0.000
975.519; 1191.325;  200.875;    0.000
975.685; 1074.325;  176.875;    0.000
975.852; 1097.325;  197.875;    0.000
976.018; 1091.325;  201.875;    0.000
976.184; 1097.325;  176.875;    0.000
976.351; 1077.325;  221.875;    0.000
976.517; 1160.325;  203.875;    0.000
976.683; 1168.325;  236.875;    0.000
976.849; 1147.325;  190.875;    0.000
977.016; 1112.325;  173.875;    0.000
977.182; 1066.325;  200.875;    0.000
977.348; 1115.325;  179.875;    0.000
977.514; 1077.325;  159.875;    0.000
977.680; 1095.325;  200.875;    0.000
977.846; 1127.325;  206.875;    0.000
978.012; 1048.325;  219.875;    0.000
978.178; 1075.325;  229.875;    0.000
978.344; 1076.325;  195.875;    0.000
978.510; 1067.325;  209.875;    0.000
978.676; 1117.325;  190.875;    0.000
978.842; 1069.325;  195.875;    0.000
979.008; 1047.325;  186.875;    0.000
979.174; 1081.325;  185.875;    0.000
979.340; 1115.325;  198.875;    0.000
979.505; 1096.325;  214.875;    0.000
979.671; 1174.325;  159.875;    0.000
979.837; 1057.325;  202.875;    0.000
980.003; 1138.325;  190.875;    0.000
980.168; 1081.325;  216.875;    0.000
980.334; 1155.325;  194.875;    0.000
980.499; 1200.325;  229.875;    0.000
980.665; 1090.325;  240.875;    0.000
980.831; 1116.325;  202.875;    0.000
980.996; 1106.325;  179.875;    0.000
981.162; 1179.325;  212.875;    0.000
981.327; 1107.325;  202.875;    0.000
981.493; 1094.325;  219.875;    0.000
981.658; 1127.325;  218.875;    0.000
981.823; 1182.325;  207.875;    0.000
981.989; 1117.325;  207.875;    0.000
982.154; 1213.325;  224.875;    0.000
982.319; 1160.325;  217.875;    0.000
982.485; 1187.325;  266.875;    0.000
982.650; 1218.325;  245.875;    0.000
982.815; 1154.325;  229.875;    0.000
982.980; 1132.325;  203.875;    0.000
983.146; 1053.325;  242.875;    0.000
983.311; 1209.325;  144.875;    0.000
983.476; 1076.325;  222.875;    0.000
983.641; 1064.325;  206.875;    0.000
983.806; 1017.325;  217.875;    0.000
983.971; 1120.325;  254.875;    0.000
984.136; 1100.325;  217.875;    0.000
984.301; 1113.325;  202.875;    0.000
984.466; 1057.325;  206.875;    0.000
984.631; 1136.325;  224.875;    0.000
984.796; 1083.325;  218.875;    0.000
984.961; 1165.325;  202.875;    0.000
985.126; 1134.325;  238.875;    0.000
985.291; 1110.325;  220.875;    0.000
985.455; 1083.325;  223.875;    0.000
985.620; 1113.325;  218.875;    0.000
985.785; 1072.325;  228.875;    0.000
985.950; 1136.325;  212.875;    0.000
986.114; 1124.325;  215.875;    0.000
986.279; 1145.325;  243.875;    0.000
986.444; 1188.325;  222.875;    0.000
986.608; 1185.325;  243.875;    0.000
986.773; 1141.325;  213.875;    0.000
986.937; 1229.325;  267.875;    0.000
987.102; 1146.325;  235.875;    0.000
987.266; 1119.325;  210.875;    0.000
987.431; 1170.325;  239.875;    0.000
987.595; 1146.325;  230.875;    0.000
987.760; 1182.325;  229.875;    0.000
987.924; 1162.325;  217.875;    0.000
988.088; 1131.325;  210.875;    0.000
988.253; 1078.325;  215.875;    0.000
988.417; 1168.325;  186.875;    0.000
988.581; 1162.325;  214.875;    0.000
988.746; 1116.325;  212.875;    0.000
988.910; 1111.325;  192.875;    0.000
989.074; 1112.325;  195.875;    0.000
989.238; 1109.325;  226.875;    0.000
989.402; 1080.325;  214.875;    0.000
989.566; 1069.325;  201.875;    0.000
989.731; 1159.325;  199.875;    0.000
989.895; 1079.325;  205.875;    0.000
990.059; 1130.325;  204.875;    0.000
990.223; 1027.325;  182.875;    0.000
990.387; 1098.325;  220.875;    0.000
990.551; 1071.325;  199.875;    0.000
990.714; 1153.325;  202.875;    0.000
990.878; 1108.325;  201.875;    0.000
991.042; 1121.325;  202.875;    0.000
991.206; 1098.325;  215.875;    0.000
991.370; 1115.325;  217.875;    0.000
991.534; 1010.325;  152.875;    0.000
991.697; 1115.325;  194.875;    0.000
991.861; 1038.325;  208.875;    0.000
992.025; 1108.325;  209.875;    0.000
992.188; 1115.325;  182.875;    0.000
992.352; 1112.325;  181.875;    0.000
992.516; 1009.325;  192.875;    0.000
992.679; 1056.325;  183.875;    0.000
992.843; 1011.325;  156.875;    0.000
993.006; 1073.325;  192.875;    0.000
993.170; 1099.325;  172.875;    0.000
993.333; 1044.325;  195.875;    0.000
993.497; 1117.325;  185.875;    0.000
993.660; 1081.325;  155.875;    0.000
993.824; 1026.325;  199.875;    0.000
993.987; 1087.325;  211.875;    0.000
994.150;  999.325;  173.875;    0.000
994.314; 1096.325;  202.875;    0.000
994.477; 1040.325;  171.875;    0.000
994.640; 1112.325;  191.875;    0.000
994.803; 1117.325;  203.875;    0.000
994.967; 1105.325;  198.875;    0.000
995.130; 1065.325;  192.875;    0.000
995.293; 1023.325;  211.875;    0.000
995.456; 1087.325;  207.875;    0.000
995.619; 1068.325;  207.875;    0.000
995.782; 1058.325;  186.875;    0.000
995.945; 1052.325;  203.875;    0.000
996.108; 1091.325;  195.875;    0.000
996.271; 1045.325;  195.875;    0.000
996.434; 1057.325;  179.875;    0.000
996.597; 1050.325;  170.875;    0.000
996.760; 1065.325;  161.875;    0.000
996.923; 1045.325;  177.875;    0.000
997.086; 1062.325;  199.875;    0.000
997.248; 1140.325;  225.875;    0.000
997.411; 1012.325;  194.875;    0.000
997.574; 1072.325;  204.875;    0.000
997.737; 1132.325;  236.875;    0.000
997.899; 1016.325;  191.875;    0.000
998.062; 1141.325;  178.875;    0.000
998.225; 1009.325;  176.875;    0.000
998.387; 1067.325;  203.875;    0.000
998.550; 1035.325;  155.875;    0.000
998.712; 1015.325;  169.875;    0.000
998.875; 1068.325;  234.875;    0.000
999.037; 1008.325;  211.875;    0.000
999.200; 1027.325;  185.875;    0.000
999.362; 1103.325;  199.875;    0.000
999.525; 1025.325;  234.875;    0.000
999.687; 1073.325;  194.875;    0.000
999.849; 1041.325;  223.875;    0.000
1000.012; 1067.325;  222.875;    0.000
1000.174; 1079.325;  187.875;    0.000
1000.336; 1062.325;  204.875;    0.000
1000.499; 1038.325;  240.875;    0.000
1000.661; 1086.325;  215.875;    0.000
1000.823; 1039.325;  206.875;    0.000
1000.985; 1059.325;  197.875;    0.000
1001.147; 1052.325;  221.875;    0.000
1001.309; 1070.325;  207.875;    0.000
1001.471; 1034.325;  227.875;    0.000
1001.633; 1079.325;  208.875;    0.000
1001.796; 1151.325;  158.875;    0.000
1001.958; 1073.325;  210.875;    0.000
1002.119; 1032.325;  223.875;    0.000
1002.281; 1124.325;  211.875;    0.000
1002.443; 1125.325;  227.875;    0.000
1002.605; 1217.325;  186.875;    0.000
1002.767; 1158.325;  242.875;    0.000
1002.929; 1285.325;  219.875;    0.000
1003.091; 1279.325;  191.875;    0.000
1003.252; 1344.325;  233.875;    0.000
1003.414; 1296.325;  214.875;    0.000
1003.576; 1404.325;  186.875;    0.000
1003.738; 1480.325;  175.875;    0.000
1003.899; 1625.325;  237.875;    0.000
1004.061; 1639.325;  220.875;    0.000
1004.222; 1711.325;  186.875;    0.000
1004.384; 1743.325;  216.875;    0.000
1004.546; 1843.325;  203.875;    0.000
1004.707; 1788.325;  216.875;    0.000
1004.869; 1923.325;  219.875;    0.000
1005.030; 1859.325;  188.875;    0.000
1005.191; 1777.325;  223.875;    0.000
1005.353; 1887.325;  227.875;    0.000
1005.514; 1785.325;  235.875;    0.000
1005.675; 1773.325;  201.875;    0.000
1005.837; 1597.325;  199.875;    0.000
1005.998; 1650.325;  219.875;    0.000
1006.159; 1555.325;  235.875;    0.000
1006.321; 1552.325;  199.875;    0.000
1006.482; 1582.325;  222.875;    0.000
1006.643; 1632.325;  195.875;    0.000
1006.804; 1624.325;  205.875;    0.000
1006.965; 1667.325;  199.875;    0.000
1007.126; 1629.325;  231.875;    0.000
1007.287; 1642.325;  208.875;    0.000
1007.448; 1771.325;  205.875;    0.000
1007.609; 1777.325;  256.875;    0.000
1007.770; 1761.325;  231.875;    0.000
1007.931; 1704.325;  223.875;    0.000
1008.092; 1762.325;  217.875;    0.000
1008.253; 1781.325;  236.875;    0.000
1008.414; 1694.325;  197.875;    0.000
1008.575; 1758.325;  233.875;    0.000
1008.736; 1719.325;  193.875;    0.000
1008.896; 1750.325;  238.875;    0.000
1009.057; 1764.325;  245.875;    0.000
1009.218; 1750.325;  240.875;    0.000
1009.379; 1720.325;  210.875;    0.000
1009.539; 1757.325;  234.875;    0.000
1009.700; 1784.325;  228.875;    0.000
1009.860; 1803.325;  238.875;    0.000
1010.021; 1714.325;  199.875;    0.000
1010.182; 1793.325;  214.875;    0.000
1010.342; 1878.325;  216.875;    0.000
1010.503; 1915.325;  207.875;    0.000
1010.663; 1951.325;  258.875;    0.000
1010.823; 1908.325;  243.875;    0.000
1010.984; 2130.325;  268.875;    0.000
1011.144; 1950.325;  217.875;    0.000
1011.305; 2173.325;  237.875;    0.000
1011.465; 2189.325;  216.875;    0.000
1011.625; 2245.325;  195.875;    0.000
1011.785; 2178.325;  201.875;    0.000
1011.946; 2252.325;  200.875;    0.000
1012.106; 2350.325;  206.875;    0.000
1012.266; 2140.325;  227.875;    0.000
1012.426; 2158.325;  221.875;    0.000
1012.586; 2216.325;  198.875;    0.000
1012.746; 2195.325;  215.875;    0.000
1012.906; 2180.325;  226.875;    0.000
1013.066; 2151.325;  221.875;    0.000
1013.226; 2072.325;  202.875;    0.000
1013.386; 2225.325;  210.875;    0.000
1013.546; 2145.325;  243.875;    0.000
1013.706; 2027.325;  200.875;    0.000
1013.866; 2111.325;  232.875;    0.000
1014.026; 2091.325;  206.875;    0.000
1014.186; 2088.325;  222.875;    0.000
1014.346; 2064.325;  233.875;    0.000
1014.505; 2059.325;  241.875;    0.000
1014.665; 2155.325;  225.875;    0.000
1014.825; 2031.325;  196.875;    0.000
1014.985; 2129.325;  234.875;    0.000
1015.144; 2253.325;  232.875;    0.000
1015.304; 2385.325;  214.875;    0.000
1015.464; 2223.325;  210.875;    0.000
1015.623; 2217.325;  219.875;    0.000
1015.783; 2364.325;  216.875;    0.000
1015.942; 2476.325;  267.875;    0.000
1016.102; 2440.325;  234.875;    0.000
1016.261; 2365.325;  230.875;    0.000
1016.420; 2620.325;  225.875;    0.000
1016.580; 2869.325;  205.875;    0.000
1016.739; 2789.325;  199.875;    0.000
1016.899; 2755.325;  218.875;    0.000
1017.058; 2904.325;  204.875;    0.000
1017.217; 3217.325;  196.875;    0.000
1017.376; 3088.325;  204.875;    0.000
1017.536; 2820.325;  195.875;    0.000
1017.695; 2861.325;  216.875;    0.000
1017.854; 2929.325;  235.875;    0.000
1018.013; 2770.325;  189.875;    0.000
1018.172; 2513.325;  217.875;    0.000
1018.331; 2637.325;  215.875;    0.000
1018.490; 2736.325;  233.875;    0.000
1018.649; 2556.325;  211.875;    0.000
1018.808; 2652.325;  196.875;    0.000
1018.967; 2868.325;  222.875;    0.000
1019.126; 2990.325;  221.875;    0.000
1019.285; 2967.325;  212.875;    0.000
1019.444; 2917.325;  231.875;    0.000
1019.603; 2743.325;  227.875;    0.000
1019.762; 2795.325;  192.875;    0.000
1019.921; 2882.325;  240.875;    0.000
1020.079; 2803.325;  209.875;    0.000
1020.238; 2846.325;  211.875;    0.000
1020.397; 2829.325;  253.875;    0.000
1020.555; 2739.325;  179.875;    0.000
1020.714; 2870.325;  225.875;    0.000
1020.873; 3069.325;  232.875;    0.000
1021.031; 2918.325;  245.875;    0.000
1021.190; 2974.325;  230.875;    0.000
1021.348; 2935.325;  221.875;    0.000
1021.507; 3136.325;  212.875;    0.000
1021.665; 3238.325;  211.875;    0.000
1021.824; 3150.325;  206.875;    0.000
1021.982; 2840.325;  218.875;    0.000
1022.141; 2983.325;  232.875;    0.000
1022.299; 3343.325;  193.875;    0.000
1022.457; 3274.325;  217.875;    0.000
1022.616; 2864.325;  248.875;    0.000
1022.774; 2793.325;  222.875;    0.000
1022.932; 3115.325;  211.875;    0.000
1023.090; 3239.325;  288.875;    0.000
1023.249; 3282.325;  214.875;    0.000
1023.407; 2873.325;  233.875;    0.000
1023.565; 2926.325;  208.875;    0.000
1023.723; 3179.325;  217.875;    0.000
1023.881; 3353.325;  235.875;    0.000
1024.039; 3214.325;  228.875;    0.000
1024.197; 3066.325;  216.875;    0.000
1024.355; 2954.325;  251.875;    0.000
1024.513; 3203.325;  232.875;    0.000
1024.671; 3614.325;  217.875;    0.000
1024.829; 3344.325;  255.875;    0.000
1024.987; 3024.325;  203.875;    0.000
1025.145; 3026.325;  239.875;    0.000
1025.302; 3199.325;  209.875;    0.000
1025.460; 3530.325;  224.875;    0.000
1025.618; 3559.325;  193.875;    0.000
1025.776; 3031.325;  209.875;    0.000
1025.933; 3144.325;  229.875;    0.000
1026.091; 3409.325;  218.875;    0.000
1026.249; 3784.325;  269.875;    0.000
1026.406; 3691.325;  264.875;    0.000
1026.564; 3161.325;  230.875;    0.000
1026.721; 3049.325;  198.875;    0.000
1026.879; 3208.325;  216.875;    0.000
1027.036; 3695.325;  226.875;    0.000
1027.194; 3927.325;  245.875;    0.000
1027.351; 3470.325;  236.875;    0.000
1027.509; 3082.325;  262.875;    0.000
1027.666; 3035.325;  227.875;    0.000
1027.823; 3625.325;  214.875;    0.000
1027.981; 3979.325;  258.875;    0.000
1028.138; 3878.325;  239.875;    0.000
1028.295; 3416.325;  226.875;    0.000
1028.452; 2917.325;  225.875;    0.000
1028.609; 3278.325;  276.875;    0.000
1028.767; 3797.325;  228.875;    0.000
1028.924; 4160.325;  213.875;    0.000
1029.081; 3871.325;  232.875;    0.000
1029.238; 3294.325;  250.875;    0.000
1029.395; 3072.325;  255.875;    0.000
1029.552; 3440.325;  217.875;    0.000
1029.709; 4149.325;  210.875;    0.000
1029.866; 4417.325;  243.875;    0.000
1030.023; 3830.325;  202.875;    0.000
1030.180; 3179.325;  233.875;    0.000
1030.337; 3149.325;  234.875;    0.000
1030.494; 3504.325;  222.875;    0.000
1030.650; 4080.325;  241.875;    0.000
1030.807; 4456.325;  206.875;    0.000
1030.964; 3947.325;  206.875;    0.000
1031.121; 3398.325;  228.875;    0.000
1031.277; 3253.325;  228.875;    0.000
1031.434; 3523.325;  234.875;    0.000
1031.591; 4159.325;  250.875;    0.000
1031.747; 4495.325;  246.875;    0.000
1031.904; 4176.325;  201.875;    0.000
1032.060; 3426.325;  237.875;    0.000
1032.217; 3419.325;  232.875;    0.000
1032.373; 3595.325;  210.875;    0.000
1032.530; 4067.325;  246.875;    0.000
1032.686; 4513.325;  196.875;    0.000
1032.843; 4586.325;  212.875;    0.000
1032.999; 4285.325;  243.875;    0.000
1033.155; 4069.325;  234.875;    0.000
1033.312; 3887.325;  246.875;    0.000
1033.468; 4312.325;  233.875;    0.000
1033.624; 5240.325;  237.875;    0.000
1033.780; 5658.325;  263.875;    0.000
1033.937; 5848.325;  214.875;    0.000
1034.093; 5453.325;  230.875;    0.000
1034.249; 5527.325;  206.875;    0.000
1034.405; 5169.325;  238.875;    0.000
1034.561; 5636.325;  231.875;    0.000
1034.717; 6067.325;  228.875;    0.000
1034.873; 6242.325;  262.875;    0.000
1035.029; 6715.325;  252.875;    0.000
1035.185; 5880.325;  232.875;    0.000
1035.341; 5649.325;  245.875;    0.000
1035.497; 5731.325;  253.875;    0.000
1035.653; 5778.325;  252.875;    0.000
1035.809; 6709.325;  245.875;    0.000
1035.964; 7287.325;  229.875;    0.000
1036.120; 6676.325;  226.875;    0.000
1036.276; 7035.325;  236.875;    0.000
1036.432; 6484.325;  203.875;    0.000
1036.587; 6278.325;  228.875;    0.000
1036.743; 6571.325;  240.875;    0.000
1036.899; 7035.325;  220.875;    0.000
1037.054; 7203.325;  153.875;    0.000
1037.210; 7895.325;  219.875;    0.000
1037.365; 7822.325;  229.875;    0.000
1037.521; 7595.325;  257.875;    0.000
1037.676; 7547.325;  211.875;    0.000
1037.832; 6703.325;  234.875;    0.000
1037.987; 6655.325;  235.875;    0.000
1038.143; 6754.325;  176.875;    0.000
1038.298; 7517.325;  262.875;    0.000
1038.453; 7609.325;  209.875;    0.000
1038.609; 8341.325;  230.875;    0.000
1038.764; 8145.325;  253.875;    0.000
1038.919; 8166.325;  195.875;    0.000
1039.074; 8364.325;  234.875;    0.000
1039.229; 7502.325;  234.875;    0.000
1039.385; 7398.325;  266.875;    0.000
1039.540; 8024.325;  252.875;    0.000
1039.695; 8708.325;  231.875;    0.000
1039.850; 9045.325;  208.875;    0.000
1040.005; 9540.325;  232.875;    0.000
1040.160;10270.325;  214.875;    0.000
1040.315; 9589.325;  221.875;    0.000
1040.470; 9215.325;  207.875;    0.000
1040.625; 8558.325;  249.875;    0.000
1040.780; 8547.325;  251.875;    0.000
1040.935; 8678.325;  254.875;    0.000
1041.089; 9294.325;  210.875;    0.000
1041.244;10275.325;  225.875;    0.000
1041.399;10598.325;  208.875;    0.000
1041.554;10967.325;  249.875;    0.000
1041.708;11332.325;  254.875;    0.000
1041.863;11020.325;  248.875;    0.000
1042.018;11537.325;  280.875;    0.000
1042.172;11346.325;  233.875;    0.000
1042.327; 9837.325;  256.875;    0.000
1042.481;10779.325;  210.875;    0.000
1042.636;11241.325;  229.875;    0.000
1042.791;11378.325;  215.875;    0.000
1042.945;12358.325;  256.875;    0.000
1043.099;13084.325;  251.875;    0.000
1043.254;13045.325;  204.875;    0.000
1043.408;14434.325;  278.875;    0.000
1043.563;13668.325;  211.875;    0.000
1043.717;13190.325;  259.875;    0.000
1043.871;12737.325;  233.875;    0.000
1044.025;12998.325;  221.875;    0.000
1044.180;12312.325;  208.875;    0.000
1044.334;13315.325;  255.875;    0.000
1044.488;12838.325;  269.875;    0.000
1044.642;14114.325;  228.875;    0.000
1044.796;16042.325;  232.875;    0.000
1044.950;16699.324;  249.875;    0.000
1045.104;16973.324;  205.875;    0.000
1045.258;18156.324;  206.875;    0.000
1045.412;17684.324;  251.875;    0.000
1045.566;16300.325;  249.875;    0.000
1045.720;15715.325;  206.875;    0.000
1045.874;15460.325;  232.875;    0.000
1046.028;14389.325;  266.875;    0.000
1046.182;14665.325;  217.875;    0.000
1046.336;16031.325;  216.875;    0.000
1046.489;16943.324;  236.875;    0.000
1046.643;16693.324;  253.875;    0.000
1046.797;17942.324;  244.875;    0.000
1046.951;18674.324;  234.875;    0.000
1047.104;19037.324;  281.875;    0.000
1047.258;18909.324;  253.875;    0.000
1047.411;19324.324;  228.875;    0.000
1047.565;18688.324;  273.875;    0.000
1047.719;17132.324;  232.875;    0.000
1047.872;16586.324;  230.875;    0.000
1048.026;16636.324;  282.875;    0.000
1048.179;17147.324;  225.875;    0.000
1048.332;17295.324;  234.875;    0.000
1048.486;15853.325;  223.875;    0.000
1048.639;17472.324;  248.875;    0.000
1048.792;18917.324;  244.875;    0.000
1048.946;20611.324;  210.875;    0.000
1049.099;23517.324;  242.875;    0.000
1049.252;22510.324;  269.875;    0.000
1049.406;20795.324;  285.875;    0.000
1049.559;21248.324;  277.875;    0.000
1049.712;22433.324;  254.875;    0.000
1049.865;23744.324;  252.875;    0.000
1050.018;22674.324;  270.875;    0.000
1050.171;20823.324;  230.875;    0.000
1050.324;20371.324;  268.875;    0.000
1050.477;19262.324;  262.875;    0.000
1050.630;18601.324;  243.875;    0.000
1050.783;20048.324;  216.875;    0.000
1050.936;20559.324;  250.875;    0.000
1051.089;20059.324;  247.875;    0.000
1051.242;22684.324;  300.875;    0.000
1051.394;24294.324;  233.875;    0.000
1051.547;23361.324;  263.875;    0.000
1051.700;23331.324;  238.875;    0.000
1051.853;23263.324;  299.875;    0.000
1052.005;26421.324;  275.875;    0.000
1052.158;28192.324;  304.875;    0.000
1052.311;30744.324;  251.875;    0.000
1052.463;28439.324;  276.875;    0.000
1052.616;26149.324;  271.875;    0.000
1052.768;25310.324;  285.875;    0.000
1052.921;25095.324;  261.875;    0.000
1053.073;26589.324;  333.875;    0.000
1053.226;26057.324;  271.875;    0.000
1053.378;26896.324;  309.875;    0.000
1053.531;26148.324;  266.875;    0.000
1053.683;25861.324;  278.875;    0.000
1053.835;24058.324;  274.875;    0.000
1053.988;18756.324;  287.875;    0.000
1054.140; 4453.325;  350.875;    0.000
1054.292; 1235.325;  338.875;    0.000
1054.444; 1000.325;  270.875;    0.000
1054.596;  830.325;  294.875;    0.000
1054.749;  787.325;  285.875;    0.000
1054.901;  776.325;  254.875;    0.000
1055.053;  773.325;  320.875;    0.000
1055.205;  743.325;  284.875;    0.000
1055.357;  702.325;  298.875;    0.000
1055.509;  713.325;  304.875;    0.000
1055.661;  697.325;  350.875;    0.000
1055.813;  636.325;  289.875;    0.000
1055.965;  671.325;  277.875;    0.000
1056.116;  644.325;  288.875;    0.000
1056.268;  658.325;  311.875;    0.000
1056.420;  710.325;  308.875;    0.000

