
Integration time [ms]:   0.300
Averaging Nr. [scans]: 1
Smoothing Nr. [pixels]: 0
Data measured with spectrometer [name]: VIS
Wave   ;Sample   ;Dark     ;Reference
[nm]   ;[counts] ;[counts] ;[counts] 

450.961;  211.525;  204.350;    0.000
451.100;  233.525;  243.350;    0.000
451.239;  226.525;  228.350;    0.000
451.377;  236.525;  250.350;    0.000
451.516;  196.525;  189.350;    0.000
451.655;  261.525;  235.350;    0.000
451.794;  248.525;  223.350;    0.000
451.932;  236.525;  269.350;    0.000
452.071;  239.525;  250.350;    0.000
452.210;  273.525;  262.350;    0.000
452.348;  232.525;  259.350;    0.000
452.487;  273.525;  231.350;    0.000
452.626;  217.525;  220.350;    0.000
452.764;  237.525;  252.350;    0.000
452.903;  236.525;  236.350;    0.000
453.042;  267.525;  217.350;    0.000
453.180; 1684.525;  273.350;    0.000
453.319; 1732.525;  261.350;    0.000
453.458; 1724.525;  219.350;    0.000
453.596; 1783.525;  307.350;    0.000
453.735; 1783.525;  246.350;    0.000
453.873; 1803.525;  270.350;    0.000
454.012; 1875.525;  232.350;    0.000
454.150; 1753.525;  211.350;    0.000
454.289; 1837.525;  245.350;    0.000
454.427; 1857.525;  224.350;    0.000
454.566; 1875.525;  252.350;    0.000
454.704; 1849.525;  225.350;    0.000
454.843; 1894.525;  195.350;    0.000
454.981; 1894.525;  258.350;    0.000
455.120; 1840.525;  191.350;    0.000
455.258; 2063.525;  243.350;    0.000
455.397; 1934.525;  188.350;    0.000
455.535; 2096.525;  219.350;    0.000
455.674; 1982.525;  184.350;    0.000
455.812; 2039.525;  225.350;    0.000
455.951; 1995.525;  201.350;    0.000
456.089; 2132.525;  187.350;    0.000
456.227; 2075.525;  199.350;    0.000
456.366; 2014.525;  235.350;    0.000
456.504; 2061.525;  216.350;    0.000
456.642; 2225.525;  256.350;    0.000
456.781; 2085.525;  201.350;    0.000
456.919; 2149.525;  231.350;    0.000
457.057; 2234.525;  181.350;    0.000
457.196; 2072.525;  231.350;    0.000
457.334; 2092.525;  229.350;    0.000
457.472; 2252.525;  242.350;    0.000
457.610; 2220.525;  221.350;    0.000
457.749; 2318.525;  218.350;    0.000
457.887; 2193.525;  213.350;    0.000
458.025; 2411.525;  228.350;    0.000
458.163; 2323.525;  204.350;    0.000
458.301; 2427.525;  230.350;    0.000
458.440; 2470.525;  200.350;    0.000
458.578; 2734.525;  222.350;    0.000
458.716; 2547.525;  137.350;    0.000
458.854; 2535.525;  259.350;    0.000
458.992; 2633.525;  172.350;    0.000
459.130; 2616.525;  253.350;    0.000
459.269; 2642.525;  212.350;    0.000
459.407; 2699.525;  212.350;    0.000
459.545; 2743.525;  225.350;    0.000
459.683; 2764.525;  225.350;    0.000
459.821; 2709.525;  192.350;    0.000
459.959; 2890.525;  205.350;    0.000
460.097; 2733.525;  199.350;    0.000
460.235; 2855.525;  232.350;    0.000
460.373; 2859.525;  248.350;    0.000
460.511; 2852.525;  225.350;    0.000
460.649; 2882.525;  204.350;    0.000
460.787; 2840.525;  221.350;    0.000
460.925; 2963.525;  181.350;    0.000
461.063; 2865.525;  243.350;    0.000
461.201; 2903.525;  212.350;    0.000
461.339; 3116.525;  229.350;    0.000
461.477; 2923.525;  162.350;    0.000
461.615; 2971.525;  232.350;    0.000
461.753; 3026.525;  193.350;    0.000
461.891; 3027.525;  217.350;    0.000
462.029; 3137.525;  224.350;    0.000
462.166; 3161.525;  222.350;    0.000
462.304; 3095.525;  185.350;    0.000
462.442; 3300.525;  246.350;    0.000
462.580; 3197.525;  246.350;    0.000
462.718; 3288.525;  235.350;    0.000
462.856; 3216.525;  230.350;    0.000
462.993; 3103.525;  266.350;    0.000
463.131; 3075.525;  208.350;    0.000
463.269; 3036.525;  218.350;    0.000
463.407; 2951.525;  215.350;    0.000
463.545; 3031.525;  200.350;    0.000
463.682; 3131.525;  206.350;    0.000
463.820; 3197.525;  211.350;    0.000
463.958; 3277.525;  206.350;    0.000
464.095; 3449.525;  193.350;    0.000
464.233; 3561.525;  203.350;    0.000
464.371; 3365.525;  258.350;    0.000
464.509; 3576.525;  219.350;    0.000
464.646; 3578.525;  210.350;    0.000
464.784; 3408.525;  206.350;    0.000
464.921; 3582.525;  233.350;    0.000
465.059; 3212.525;  186.350;    0.000
465.197; 3321.525;  213.350;    0.000
465.334; 3150.525;  202.350;    0.000
465.472; 3107.525;  236.350;    0.000
465.609; 3302.525;  206.350;    0.000
465.747; 3105.525;  208.350;    0.000
465.885; 3194.525;  198.350;    0.000
466.022; 3140.525;  210.350;    0.000
466.160; 3217.525;  245.350;    0.000
466.297; 3134.525;  226.350;    0.000
466.435; 3194.525;  235.350;    0.000
466.572; 3086.525;  226.350;    0.000
466.710; 3185.525;  266.350;    0.000
466.847; 3144.525;  258.350;    0.000
466.985; 3212.525;  228.350;    0.000
467.122; 3124.525;  201.350;    0.000
467.260; 2970.525;  170.350;    0.000
467.397; 3002.525;  174.350;    0.000
467.534; 3035.525;  244.350;    0.000
467.672; 3085.525;  247.350;    0.000
467.809; 2923.525;  182.350;    0.000
467.947; 3236.525;  208.350;    0.000
468.084; 3116.525;  206.350;    0.000
468.221; 3111.525;  249.350;    0.000
468.359; 3078.525;  253.350;    0.000
468.496; 2913.525;  208.350;    0.000
468.633; 2933.525;  189.350;    0.000
468.771; 3149.525;  216.350;    0.000
468.908; 3011.525;  240.350;    0.000
469.045; 3108.525;  234.350;    0.000
469.183; 3066.525;  203.350;    0.000
469.320; 3118.525;  230.350;    0.000
469.457; 3120.525;  219.350;    0.000
469.594; 3089.525;  233.350;    0.000
469.732; 3069.525;  230.350;    0.000
469.869; 3180.525;  239.350;    0.000
470.006; 3096.525;  224.350;    0.000
470.143; 3303.525;  241.350;    0.000
470.280; 3440.525;  234.350;    0.000
470.417; 3352.525;  236.350;    0.000
470.555; 3201.525;  207.350;    0.000
470.692; 3225.525;  251.350;    0.000
470.829; 3255.525;  238.350;    0.000
470.966; 3161.525;  242.350;    0.000
471.103; 3223.525;  215.350;    0.000
471.240; 2958.525;  237.350;    0.000
471.377; 3064.525;  235.350;    0.000
471.514; 3171.525;  256.350;    0.000
471.651; 3272.525;  198.350;    0.000
471.789; 3085.525;  215.350;    0.000
471.926; 3136.525;  210.350;    0.000
472.063; 3035.525;  237.350;    0.000
472.200; 3073.525;  265.350;    0.000
472.337; 3027.525;  240.350;    0.000
472.474; 2954.525;  195.350;    0.000
472.611; 3081.525;  228.350;    0.000
472.748; 3065.525;  234.350;    0.000
472.884; 3046.525;  230.350;    0.000
473.021; 2975.525;  219.350;    0.000
473.158; 3072.525;  253.350;    0.000
473.295; 3086.525;  207.350;    0.000
473.432; 3186.525;  238.350;    0.000
473.569; 2988.525;  236.350;    0.000
473.706; 2987.525;  203.350;    0.000
473.843; 2985.525;  232.350;    0.000
473.980; 3022.525;  207.350;    0.000
474.117; 2968.525;  182.350;    0.000
474.253; 3083.525;  261.350;    0.000
474.390; 2903.525;  211.350;    0.000
474.527; 2974.525;  229.350;    0.000
474.664; 2956.525;  181.350;    0.000
474.801; 3147.525;  250.350;    0.000
474.937; 3273.525;  196.350;    0.000
475.074; 3137.525;  213.350;    0.000
475.211; 3206.525;  232.350;    0.000
475.348; 3093.525;  228.350;    0.000
475.484; 3163.525;  240.350;    0.000
475.621; 3098.525;  235.350;    0.000
475.758; 3020.525;  232.350;    0.000
475.894; 3026.525;  227.350;    0.000
476.031; 3212.525;  233.350;    0.000
476.168; 2955.525;  205.350;    0.000
476.304; 3122.525;  263.350;    0.000
476.441; 3203.525;  255.350;    0.000
476.578; 3090.525;  191.350;    0.000
476.714; 3283.525;  218.350;    0.000
476.851; 3093.525;  224.350;    0.000
476.987; 3252.525;  225.350;    0.000
477.124; 3293.525;  231.350;    0.000
477.261; 3192.525;  291.350;    0.000
477.397; 3235.525;  218.350;    0.000
477.534; 3156.525;  209.350;    0.000
477.670; 3061.525;  210.350;    0.000
477.807; 3130.525;  199.350;    0.000
477.943; 3497.525;  219.350;    0.000
478.080; 3223.525;  234.350;    0.000
478.216; 3439.525;  196.350;    0.000
478.353; 3286.525;  234.350;    0.000
478.489; 3296.525;  219.350;    0.000
478.626; 3398.525;  209.350;    0.000
478.762; 3463.525;  206.350;    0.000
478.898; 3511.525;  209.350;    0.000
479.035; 3472.525;  232.350;    0.000
479.171; 3253.525;  219.350;    0.000
479.308; 3474.525;  226.350;    0.000
479.444; 3477.525;  184.350;    0.000
479.580; 3287.525;  192.350;    0.000
479.717; 3447.525;  247.350;    0.000
479.853; 3440.525;  181.350;    0.000
479.989; 3552.525;  212.350;    0.000
480.126; 3520.525;  187.350;    0.000
480.262; 3583.525;  217.350;    0.000
480.398; 3641.525;  249.350;    0.000
480.535; 3579.525;  196.350;    0.000
480.671; 3387.525;  199.350;    0.000
480.807; 3507.525;  231.350;    0.000
480.943; 3427.525;  192.350;    0.000
481.080; 3376.525;  206.350;    0.000
481.216; 3475.525;  189.350;    0.000
481.352; 3509.525;  215.350;    0.000
481.488; 3549.525;  223.350;    0.000
481.624; 3563.525;  235.350;    0.000
481.760; 3575.525;  218.350;    0.000
481.897; 3377.525;  204.350;    0.000
482.033; 3528.525;  243.350;    0.000
482.169; 3512.525;  239.350;    0.000
482.305; 3311.525;  221.350;    0.000
482.441; 3459.525;  162.350;    0.000
482.577; 3476.525;  241.350;    0.000
482.713; 3391.525;  223.350;    0.000
482.849; 3347.525;  195.350;    0.000
482.985; 3409.525;  230.350;    0.000
483.121; 3401.525;  230.350;    0.000
483.258; 3385.525;  254.350;    0.000
483.394; 3643.525;  199.350;    0.000
483.530; 3493.525;  209.350;    0.000
483.665; 3518.525;  196.350;    0.000
483.801; 3456.525;  208.350;    0.000
483.937; 3442.525;  202.350;    0.000
484.073; 3385.525;  247.350;    0.000
484.209; 3330.525;  188.350;    0.000
484.345; 3520.525;  241.350;    0.000
484.481; 3627.525;  247.350;    0.000
484.617; 3570.525;  248.350;    0.000
484.753; 3688.525;  255.350;    0.000
484.889; 3582.525;  253.350;    0.000
485.025; 3501.525;  226.350;    0.000
485.161; 3741.525;  207.350;    0.000
485.296; 3452.525;  247.350;    0.000
485.432; 3585.525;  255.350;    0.000
485.568; 3458.525;  216.350;    0.000
485.704; 3678.525;  232.350;    0.000
485.840; 3574.525;  231.350;    0.000
485.975; 3719.525;  233.350;    0.000
486.111; 3360.525;  207.350;    0.000
486.247; 3748.525;  211.350;    0.000
486.383; 3604.525;  219.350;    0.000
486.518; 3598.525;  213.350;    0.000
486.654; 3529.525;  216.350;    0.000
486.790; 3673.525;  253.350;    0.000
486.926; 3785.525;  229.350;    0.000
487.061; 3697.525;  241.350;    0.000
487.197; 3548.525;  218.350;    0.000
487.333; 3492.525;  221.350;    0.000
487.468; 3504.525;  206.350;    0.000
487.604; 3594.525;  254.350;    0.000
487.740; 3598.525;  240.350;    0.000
487.875; 3691.525;  260.350;    0.000
488.011; 3609.525;  232.350;    0.000
488.146; 3563.525;  206.350;    0.000
488.282; 3536.525;  236.350;    0.000
488.417; 3626.525;  255.350;    0.000
488.553; 3525.525;  221.350;    0.000
488.688; 3440.525;  233.350;    0.000
488.824; 3593.525;  246.350;    0.000
488.960; 3711.525;  267.350;    0.000
489.095; 3644.525;  217.350;    0.000
489.230; 3556.525;  226.350;    0.000
489.366; 3601.525;  232.350;    0.000
489.501; 3668.525;  220.350;    0.000
489.637; 3563.525;  245.350;    0.000
489.772; 3639.525;  228.350;    0.000
489.908; 3757.525;  250.350;    0.000
490.043; 3578.525;  239.350;    0.000
490.178; 3695.525;  213.350;    0.000
490.314; 3659.525;  270.350;    0.000
490.449; 3499.525;  245.350;    0.000
490.585; 3612.525;  218.350;    0.000
490.720; 3568.525;  243.350;    0.000
490.855; 3609.525;  196.350;    0.000
490.991; 3681.525;  208.350;    0.000
491.126; 3847.525;  268.350;    0.000
491.261; 3793.525;  226.350;    0.000
491.396; 3753.525;  201.350;    0.000
491.532; 3636.525;  213.350;    0.000
491.667; 3682.525;  183.350;    0.000
491.802; 3829.525;  239.350;    0.000
491.937; 3840.525;  228.350;    0.000
492.073; 3786.525;  258.350;    0.000
492.208; 3731.525;  218.350;    0.000
492.343; 3700.525;  205.350;    0.000
492.478; 3790.525;  247.350;    0.000
492.613; 3797.525;  217.350;    0.000
492.749; 3680.525;  258.350;    0.000
492.884; 3555.525;  208.350;    0.000
493.019; 3631.525;  248.350;    0.000
493.154; 3582.525;  231.350;    0.000
493.289; 3764.525;  226.350;    0.000
493.424; 3827.525;  216.350;    0.000
493.559; 3585.525;  205.350;    0.000
493.694; 3749.525;  203.350;    0.000
493.829; 3696.525;  231.350;    0.000
493.964; 3607.525;  200.350;    0.000
494.099; 3545.525;  253.350;    0.000
494.234; 3762.525;  244.350;    0.000
494.369; 3794.525;  239.350;    0.000
494.504; 3637.525;  223.350;    0.000
494.639; 3673.525;  263.350;    0.000
494.774; 3658.525;  240.350;    0.000
494.909; 3586.525;  231.350;    0.000
495.044; 3762.525;  195.350;    0.000
495.179; 3720.525;  231.350;    0.000
495.314; 3670.525;  231.350;    0.000
495.449; 3694.525;  239.350;    0.000
495.584; 3660.525;  201.350;    0.000
495.719; 3622.525;  201.350;    0.000
495.854; 3879.525;  201.350;    0.000
495.988; 3884.525;  239.350;    0.000
496.123; 3724.525;  199.350;    0.000
496.258; 3873.525;  256.350;    0.000
496.393; 3702.525;  214.350;    0.000
496.528; 3849.525;  220.350;    0.000
496.663; 3727.525;  207.350;    0.000
496.797; 3933.525;  241.350;    0.000
496.932; 4016.525;  215.350;    0.000
497.067; 4046.525;  240.350;    0.000
497.202; 4072.525;  177.350;    0.000
497.336; 4303.525;  221.350;    0.000
497.471; 4382.525;  228.350;    0.000
497.606; 4245.525;  213.350;    0.000
497.740; 4330.525;  217.350;    0.000
497.875; 4501.525;  182.350;    0.000
498.010; 4741.525;  230.350;    0.000
498.144; 4916.525;  217.350;    0.000
498.279; 5202.525;  194.350;    0.000
498.414; 5178.525;  270.350;    0.000
498.548; 4918.525;  184.350;    0.000
498.683; 5134.525;  188.350;    0.000
498.817; 5031.525;  216.350;    0.000
498.952; 5038.525;  208.350;    0.000
499.087; 5084.525;  236.350;    0.000
499.221; 5056.525;  219.350;    0.000
499.356; 5168.525;  263.350;    0.000
499.490; 5547.525;  221.350;    0.000
499.625; 5748.525;  233.350;    0.000
499.759; 5421.525;  245.350;    0.000
499.894; 6075.525;  241.350;    0.000
500.028; 6179.525;  237.350;    0.000
500.162; 5959.525;  282.350;    0.000
500.297; 6453.525;  232.350;    0.000
500.431; 6058.525;  266.350;    0.000
500.566; 6323.525;  254.350;    0.000
500.700; 6319.525;  238.350;    0.000
500.835; 5885.525;  264.350;    0.000
500.969; 5846.525;  165.350;    0.000
501.103; 5764.525;  190.350;    0.000
501.238; 5589.525;  274.350;    0.000
501.372; 5485.525;  270.350;    0.000
501.506; 4952.525;  231.350;    0.000
501.641; 4954.525;  224.350;    0.000
501.775; 4875.525;  224.350;    0.000
501.909; 4886.525;  218.350;    0.000
502.043; 4332.525;  238.350;    0.000
502.178; 4633.525;  289.350;    0.000
502.312; 4376.525;  225.350;    0.000
502.446; 4217.525;  295.350;    0.000
502.580; 4174.525;  200.350;    0.000
502.715; 4323.525;  256.350;    0.000
502.849; 4142.525;  226.350;    0.000
502.983; 4177.525;  250.350;    0.000
503.117; 4072.525;  229.350;    0.000
503.251; 3952.525;  267.350;    0.000
503.385; 3987.525;  237.350;    0.000
503.520; 3902.525;  210.350;    0.000
503.654; 3872.525;  204.350;    0.000
503.788; 3869.525;  236.350;    0.000
503.922; 3847.525;  225.350;    0.000
504.056; 3713.525;  222.350;    0.000
504.190; 3574.525;  220.350;    0.000
504.324; 3721.525;  257.350;    0.000
504.458; 3762.525;  223.350;    0.000
504.592; 3625.525;  252.350;    0.000
504.726; 3500.525;  216.350;    0.000
504.860; 3612.525;  231.350;    0.000
504.994; 3436.525;  228.350;    0.000
505.128; 3488.525;  239.350;    0.000
505.262; 3484.525;  245.350;    0.000
505.396; 3419.525;  231.350;    0.000
505.530; 3185.525;  211.350;    0.000
505.664; 3273.525;  223.350;    0.000
505.798; 3237.525;  239.350;    0.000
505.932; 3233.525;  232.350;    0.000
506.066; 3305.525;  263.350;    0.000
506.199; 3164.525;  231.350;    0.000
506.333; 3124.525;  213.350;    0.000
506.467; 3140.525;  241.350;    0.000
506.601; 3254.525;  233.350;    0.000
506.735; 3128.525;  235.350;    0.000
506.869; 3031.525;  269.350;    0.000
507.002; 3147.525;  244.350;    0.000
507.136; 2953.525;  258.350;    0.000
507.270; 3188.525;  218.350;    0.000
507.404; 3065.525;  191.350;    0.000
507.537; 3053.525;  226.350;    0.000
507.671; 2991.525;  243.350;    0.000
507.805; 2936.525;  234.350;    0.000
507.939; 2991.525;  234.350;    0.000
508.072; 2966.525;  261.350;    0.000
508.206; 2978.525;  220.350;    0.000
508.340; 3017.525;  241.350;    0.000
508.473; 2983.525;  214.350;    0.000
508.607; 2911.525;  232.350;    0.000
508.740; 2932.525;  222.350;    0.000
508.874; 2766.525;  225.350;    0.000
509.008; 2850.525;  258.350;    0.000
509.141; 2999.525;  210.350;    0.000
509.275; 3007.525;  199.350;    0.000
509.408; 2815.525;  260.350;    0.000
509.542; 2836.525;  252.350;    0.000
509.675; 2914.525;  276.350;    0.000
509.809; 2773.525;  266.350;    0.000
509.942; 2879.525;  227.350;    0.000
510.076; 2771.525;  243.350;    0.000
510.209; 2917.525;  221.350;    0.000
510.343; 2748.525;  229.350;    0.000
510.476; 2746.525;  246.350;    0.000
510.610; 2753.525;  211.350;    0.000
510.743; 2795.525;  279.350;    0.000
510.877; 2848.525;  274.350;    0.000
511.010; 2699.525;  252.350;    0.000
511.143; 2612.525;  228.350;    0.000
511.277; 2604.525;  261.350;    0.000
511.410; 2803.525;  217.350;    0.000
511.543; 2675.525;  230.350;    0.000
511.677; 2791.525;  245.350;    0.000
511.810; 2707.525;  237.350;    0.000
511.943; 2851.525;  224.350;    0.000
512.077; 2785.525;  194.350;    0.000
512.210; 2699.525;  212.350;    0.000
512.343; 2667.525;  236.350;    0.000
512.476; 2749.525;  248.350;    0.000
512.610; 2655.525;  249.350;    0.000
512.743; 2780.525;  224.350;    0.000
512.876; 2909.525;  277.350;    0.000
513.009; 2815.525;  261.350;    0.000
513.142; 2714.525;  213.350;    0.000
513.276; 2725.525;  192.350;    0.000
513.409; 2655.525;  267.350;    0.000
513.542; 2618.525;  224.350;    0.000
513.675; 2701.525;  244.350;    0.000
513.808; 2552.525;  218.350;    0.000
513.941; 2824.525;  237.350;    0.000
514.074; 2669.525;  257.350;    0.000
514.207; 2706.525;  245.350;    0.000
514.340; 2754.525;  195.350;    0.000
514.474; 2889.525;  244.350;    0.000
514.607; 2733.525;  230.350;    0.000
514.740; 2870.525;  246.350;    0.000
514.873; 2878.525;  268.350;    0.000
515.006; 3052.525;  253.350;    0.000
515.139; 2838.525;  235.350;    0.000
515.272; 3034.525;  214.350;    0.000
515.404; 3114.525;  228.350;    0.000
515.537; 3090.525;  263.350;    0.000
515.670; 2985.525;  270.350;    0.000
515.803; 2910.525;  243.350;    0.000
515.936; 2886.525;  226.350;    0.000
516.069; 2864.525;  227.350;    0.000
516.202; 3014.525;  259.350;    0.000
516.335; 2878.525;  260.350;    0.000
516.468; 3106.525;  243.350;    0.000
516.600; 3202.525;  258.350;    0.000
516.733; 3533.525;  235.350;    0.000
516.866; 3664.525;  267.350;    0.000
516.999; 3382.525;  251.350;    0.000
517.132; 3716.525;  261.350;    0.000
517.264; 4560.525;  260.350;    0.000
517.397; 4550.525;  231.350;    0.000
517.530; 3949.525;  257.350;    0.000
517.663; 3566.525;  263.350;    0.000
517.795; 3373.525;  250.350;    0.000
517.928; 3275.525;  257.350;    0.000
518.061; 3242.525;  227.350;    0.000
518.193; 3770.525;  252.350;    0.000
518.326; 5096.525;  227.350;    0.000
518.459; 5354.525;  210.350;    0.000
518.591; 4597.525;  214.350;    0.000
518.724; 3570.525;  269.350;    0.000
518.857; 3198.525;  215.350;    0.000
518.989; 3139.525;  259.350;    0.000
519.122; 3050.525;  238.350;    0.000
519.254; 3090.525;  248.350;    0.000
519.387; 2820.525;  246.350;    0.000
519.519; 3018.525;  239.350;    0.000
519.652; 2929.525;  249.350;    0.000
519.784; 2892.525;  238.350;    0.000
519.917; 2710.525;  231.350;    0.000
520.049; 2703.525;  244.350;    0.000
520.182; 2870.525;  205.350;    0.000
520.314; 2722.525;  262.350;    0.000
520.447; 2767.525;  234.350;    0.000
520.579; 2732.525;  273.350;    0.000
520.712; 2593.525;  215.350;    0.000
520.844; 2840.525;  258.350;    0.000
520.976; 2614.525;  242.350;    0.000
521.109; 2577.525;  232.350;    0.000
521.241; 2533.525;  236.350;    0.000
521.373; 2494.525;  227.350;    0.000
521.506; 2565.525;  212.350;    0.000
521.638; 2520.525;  292.350;    0.000
521.770; 2666.525;  259.350;    0.000
521.903; 2652.525;  263.350;    0.000
522.035; 2414.525;  269.350;    0.000
522.167; 2534.525;  289.350;    0.000
522.300; 2557.525;  255.350;    0.000
522.432; 2406.525;  247.350;    0.000
522.564; 2477.525;  239.350;    0.000
522.696; 2442.525;  246.350;    0.000
522.828; 2526.525;  230.350;    0.000
522.961; 2472.525;  239.350;    0.000
523.093; 2492.525;  269.350;    0.000
523.225; 2362.525;  251.350;    0.000
523.357; 2430.525;  244.350;    0.000
523.489; 2328.525;  266.350;    0.000
523.621; 2413.525;  267.350;    0.000
523.753; 2449.525;  234.350;    0.000
523.885; 2304.525;  229.350;    0.000
524.018; 2486.525;  221.350;    0.000
524.150; 2331.525;  264.350;    0.000
524.282; 2454.525;  283.350;    0.000
524.414; 2478.525;  258.350;    0.000
524.546; 2331.525;  286.350;    0.000
524.678; 2282.525;  274.350;    0.000
524.810; 2391.525;  253.350;    0.000
524.942; 2188.525;  183.350;    0.000
525.074; 2094.525;  232.350;    0.000
525.206; 2255.525;  250.350;    0.000
525.338; 2194.525;  228.350;    0.000
525.469; 2197.525;  224.350;    0.000
525.601; 2285.525;  247.350;    0.000
525.733; 2218.525;  199.350;    0.000
525.865; 2343.525;  230.350;    0.000
525.997; 2188.525;  209.350;    0.000
526.129; 2298.525;  211.350;    0.000
526.261; 2404.525;  233.350;    0.000
526.393; 2238.525;  261.350;    0.000
526.524; 2209.525;  206.350;    0.000
526.656; 2365.525;  260.350;    0.000
526.788; 2258.525;  293.350;    0.000
526.920; 2229.525;  208.350;    0.000
527.052; 2208.525;  204.350;    0.000
527.183; 2204.525;  244.350;    0.000
527.315; 2186.525;  237.350;    0.000
527.447; 2234.525;  236.350;    0.000
527.578; 2286.525;  235.350;    0.000
527.710; 2387.525;  253.350;    0.000
527.842; 2205.525;  231.350;    0.000
527.973; 2234.525;  224.350;    0.000
528.105; 2282.525;  237.350;    0.000
528.237; 2372.525;  213.350;    0.000
528.368; 2185.525;  194.350;    0.000
528.500; 2184.525;  195.350;    0.000
528.632; 2310.525;  201.350;    0.000
528.763; 2108.525;  196.350;    0.000
528.895; 2243.525;  204.350;    0.000
529.026; 2262.525;  214.350;    0.000
529.158; 2225.525;  197.350;    0.000
529.289; 2184.525;  230.350;    0.000
529.421; 2369.525;  247.350;    0.000
529.552; 2331.525;  255.350;    0.000
529.684; 2134.525;  270.350;    0.000
529.815; 2294.525;  248.350;    0.000
529.947; 2211.525;  234.350;    0.000
530.078; 2296.525;  223.350;    0.000
530.210; 2189.525;  243.350;    0.000
530.341; 2244.525;  222.350;    0.000
530.472; 2320.525;  217.350;    0.000
530.604; 2291.525;  242.350;    0.000
530.735; 2253.525;  249.350;    0.000
530.867; 2274.525;  257.350;    0.000
530.998; 2287.525;  250.350;    0.000
531.129; 2291.525;  244.350;    0.000
531.260; 2285.525;  276.350;    0.000
531.392; 2312.525;  220.350;    0.000
531.523; 2336.525;  262.350;    0.000
531.654; 2439.525;  264.350;    0.000
531.786; 2361.525;  225.350;    0.000
531.917; 2522.525;  285.350;    0.000
532.048; 2299.525;  239.350;    0.000
532.179; 2249.525;  248.350;    0.000
532.311; 2369.525;  219.350;    0.000
532.442; 2324.525;  264.350;    0.000
532.573; 2376.525;  230.350;    0.000
532.704; 2381.525;  253.350;    0.000
532.835; 2394.525;  239.350;    0.000
532.966; 2272.525;  247.350;    0.000
533.097; 2369.525;  225.350;    0.000
533.229; 2253.525;  282.350;    0.000
533.360; 2230.525;  236.350;    0.000
533.491; 2316.525;  247.350;    0.000
533.622; 2287.525;  265.350;    0.000
533.753; 2240.525;  226.350;    0.000
533.884; 2306.525;  294.350;    0.000
534.015; 2212.525;  215.350;    0.000
534.146; 2321.525;  223.350;    0.000
534.277; 2265.525;  264.350;    0.000
534.408; 2333.525;  232.350;    0.000
534.539; 2380.525;  274.350;    0.000
534.670; 2363.525;  275.350;    0.000
534.801; 2212.525;  261.350;    0.000
534.932; 2298.525;  225.350;    0.000
535.063; 2306.525;  235.350;    0.000
535.194; 2273.525;  300.350;    0.000
535.324; 2245.525;  249.350;    0.000
535.455; 2135.525;  260.350;    0.000
535.586; 2146.525;  288.350;    0.000
535.717; 2204.525;  237.350;    0.000
535.848; 2278.525;  271.350;    0.000
535.979; 2318.525;  234.350;    0.000
536.109; 2209.525;  255.350;    0.000
536.240; 2204.525;  269.350;    0.000
536.371; 2167.525;  232.350;    0.000
536.502; 2304.525;  253.350;    0.000
536.632; 2224.525;  240.350;    0.000
536.763; 2104.525;  251.350;    0.000
536.894; 2209.525;  256.350;    0.000
537.025; 2139.525;  247.350;    0.000
537.155; 2177.525;  272.350;    0.000
537.286; 2223.525;  241.350;    0.000
537.417; 2287.525;  279.350;    0.000
537.547; 2112.525;  229.350;    0.000
537.678; 2243.525;  227.350;    0.000
537.808; 2196.525;  225.350;    0.000
537.939; 2127.525;  250.350;    0.000
538.070; 2227.525;  263.350;    0.000
538.200; 2137.525;  270.350;    0.000
538.331; 2203.525;  249.350;    0.000
538.461; 2205.525;  230.350;    0.000
538.592; 2135.525;  282.350;    0.000
538.722; 2179.525;  253.350;    0.000
538.853; 2062.525;  240.350;    0.000
538.983; 2207.525;  232.350;    0.000
539.114; 2192.525;  248.350;    0.000
539.244; 2159.525;  256.350;    0.000
539.375; 2219.525;  248.350;    0.000
539.505; 2178.525;  235.350;    0.000
539.636; 2197.525;  237.350;    0.000
539.766; 2271.525;  263.350;    0.000
539.896; 2093.525;  217.350;    0.000
540.027; 2187.525;  217.350;    0.000
540.157; 2168.525;  231.350;    0.000
540.287; 2066.525;  210.350;    0.000
540.418; 2259.525;  239.350;    0.000
540.548; 2302.525;  260.350;    0.000
540.678; 2129.525;  228.350;    0.000
540.809; 2257.525;  241.350;    0.000
540.939; 2274.525;  238.350;    0.000
541.069; 2259.525;  245.350;    0.000
541.200; 2206.525;  225.350;    0.000
541.330; 2092.525;  219.350;    0.000
541.460; 2188.525;  254.350;    0.000
541.590; 2142.525;  234.350;    0.000
541.720; 2201.525;  196.350;    0.000
541.851; 2194.525;  200.350;    0.000
541.981; 2201.525;  235.350;    0.000
542.111; 2311.525;  246.350;    0.000
542.241; 2270.525;  214.350;    0.000
542.371; 2312.525;  221.350;    0.000
542.501; 2536.525;  259.350;    0.000
542.631; 2402.525;  213.350;    0.000
542.761; 2557.525;  240.350;    0.000
542.891; 2456.525;  242.350;    0.000
543.021; 2409.525;  230.350;    0.000
543.151; 2529.525;  261.350;    0.000
543.281; 2402.525;  212.350;    0.000
543.411; 2364.525;  229.350;    0.000
543.542; 2297.525;  204.350;    0.000
543.671; 2432.525;  260.350;    0.000
543.801; 2382.525;  236.350;    0.000
543.931; 2316.525;  243.350;    0.000
544.061; 2333.525;  262.350;    0.000
544.191; 2312.525;  223.350;    0.000
544.321; 2281.525;  217.350;    0.000
544.451; 2282.525;  209.350;    0.000
544.581; 2335.525;  213.350;    0.000
544.711; 2372.525;  256.350;    0.000
544.841; 2421.525;  235.350;    0.000
544.970; 2524.525;  260.350;    0.000
545.100; 2474.525;  236.350;    0.000
545.230; 2583.525;  220.350;    0.000
545.360; 2613.525;  219.350;    0.000
545.490; 2490.525;  217.350;    0.000
545.619; 2483.525;  199.350;    0.000
545.749; 2350.525;  183.350;    0.000
545.879; 2381.525;  169.350;    0.000
546.009; 2274.525;  215.350;    0.000
546.138; 2300.525;  228.350;    0.000
546.268; 2327.525;  209.350;    0.000
546.398; 2222.525;  167.350;    0.000
546.527; 2232.525;  178.350;    0.000
546.657; 2268.525;  175.350;    0.000
546.786; 2339.525;  225.350;    0.000
546.916; 2367.525;  196.350;    0.000
547.046; 2244.525;  185.350;    0.000
547.175; 2251.525;  184.350;    0.000
547.305; 2421.525;  197.350;    0.000
547.434; 2253.525;  168.350;    0.000
547.564; 2255.525;  183.350;    0.000
547.693; 2273.525;  204.350;    0.000
547.823; 2305.525;  211.350;    0.000
547.953; 2376.525;  174.350;    0.000
548.082; 2484.525;  217.350;    0.000
548.211; 2311.525;  201.350;    0.000
548.341; 2462.525;  195.350;    0.000
548.470; 2378.525;  225.350;    0.000
548.600; 2321.525;  194.350;    0.000
548.729; 2365.525;  218.350;    0.000
548.859; 2307.525;  202.350;    0.000
548.988; 2204.525;  193.350;    0.000
549.117; 2256.525;  182.350;    0.000
549.247; 2350.525;  198.350;    0.000
549.376; 2378.525;  200.350;    0.000
549.505; 2389.525;  200.350;    0.000
549.635; 2307.525;  224.350;    0.000
549.764; 2377.525;  200.350;    0.000
549.893; 2322.525;  224.350;    0.000
550.023; 2318.525;  207.350;    0.000
550.152; 2400.525;  167.350;    0.000
550.281; 2343.525;  219.350;    0.000
550.410; 2358.525;  217.350;    0.000
550.539; 2386.525;  211.350;    0.000
550.669; 2330.525;  173.350;    0.000
550.798; 2413.525;  211.350;    0.000
550.927; 2483.525;  195.350;    0.000
551.056; 2292.525;  176.350;    0.000
551.185; 2388.525;  203.350;    0.000
551.314; 2464.525;  178.350;    0.000
551.443; 2328.525;  185.350;    0.000
551.573; 2341.525;  167.350;    0.000
551.702; 2451.525;  193.350;    0.000
551.831; 2451.525;  245.350;    0.000
551.960; 2195.525;  190.350;    0.000
552.089; 2367.525;  202.350;    0.000
552.218; 2428.525;  211.350;    0.000
552.347; 2571.525;  184.350;    0.000
552.476; 2559.525;  200.350;    0.000
552.605; 2477.525;  174.350;    0.000
552.734; 2509.525;  206.350;    0.000
552.863; 2539.525;  189.350;    0.000
552.992; 2547.525;  209.350;    0.000
553.121; 2463.525;  201.350;    0.000
553.249; 2626.525;  208.350;    0.000
553.378; 2564.525;  142.350;    0.000
553.507; 2663.525;  208.350;    0.000
553.636; 2389.525;  192.350;    0.000
553.765; 2607.525;  182.350;    0.000
553.894; 2452.525;  183.350;    0.000
554.023; 2463.525;  182.350;    0.000
554.151; 2517.525;  211.350;    0.000
554.280; 2410.525;  179.350;    0.000
554.409; 2327.525;  182.350;    0.000
554.538; 2465.525;  209.350;    0.000
554.666; 2469.525;  182.350;    0.000
554.795; 2468.525;  179.350;    0.000
554.924; 2362.525;  217.350;    0.000
555.052; 2453.525;  220.350;    0.000
555.181; 2454.525;  228.350;    0.000
555.310; 2390.525;  212.350;    0.000
555.439; 2499.525;  199.350;    0.000
555.567; 2376.525;  220.350;    0.000
555.696; 2386.525;  187.350;    0.000
555.824; 2368.525;  189.350;    0.000
555.953; 2416.525;  217.350;    0.000
556.082; 2323.525;  187.350;    0.000
556.210; 2273.525;  245.350;    0.000
556.339; 2406.525;  195.350;    0.000
556.467; 2429.525;  218.350;    0.000
556.596; 2301.525;  198.350;    0.000
556.724; 2341.525;  201.350;    0.000
556.853; 2200.525;  196.350;    0.000
556.981; 2304.525;  175.350;    0.000
557.110; 2356.525;  210.350;    0.000
557.238; 2190.525;  190.350;    0.000
557.367; 2330.525;  192.350;    0.000
557.495; 2333.525;  219.350;    0.000
557.623; 2377.525;  203.350;    0.000
557.752; 2181.525;  166.350;    0.000
557.880; 2294.525;  172.350;    0.000
558.008; 2356.525;  221.350;    0.000
558.137; 2326.525;  211.350;    0.000
558.265; 2436.525;  157.350;    0.000
558.393; 2324.525;  198.350;    0.000
558.522; 2490.525;  209.350;    0.000
558.650; 2397.525;  260.350;    0.000
558.778; 2406.525;  203.350;    0.000
558.906; 2451.525;  210.350;    0.000
559.035; 2383.525;  194.350;    0.000
559.163; 2452.525;  192.350;    0.000
559.291; 2280.525;  215.350;    0.000
559.419; 2406.525;  197.350;    0.000
559.548; 2473.525;  160.350;    0.000
559.676; 2435.525;  200.350;    0.000
559.804; 2555.525;  223.350;    0.000
559.932; 2395.525;  213.350;    0.000
560.060; 2472.525;  224.350;    0.000
560.188; 2560.525;  221.350;    0.000
560.316; 2495.525;  223.350;    0.000
560.444; 2593.525;  159.350;    0.000
560.572; 2509.525;  204.350;    0.000
560.700; 2521.525;  213.350;    0.000
560.828; 2599.525;  216.350;    0.000
560.956; 2613.525;  207.350;    0.000
561.085; 2572.525;  231.350;    0.000
561.212; 2482.525;  197.350;    0.000
561.340; 2498.525;  192.350;    0.000
561.468; 2511.525;  215.350;    0.000
561.596; 2660.525;  215.350;    0.000
561.724; 2539.525;  181.350;    0.000
561.852; 2428.525;  184.350;    0.000
561.980; 2540.525;  217.350;    0.000
562.108; 2705.525;  199.350;    0.000
562.236; 2423.525;  181.350;    0.000
562.364; 2731.525;  234.350;    0.000
562.492; 2549.525;  225.350;    0.000
562.619; 2579.525;  204.350;    0.000
562.747; 2560.525;  223.350;    0.000
562.875; 2577.525;  210.350;    0.000
563.003; 2589.525;  232.350;    0.000
563.130; 2690.525;  224.350;    0.000
563.258; 2767.525;  213.350;    0.000
563.386; 2731.525;  191.350;    0.000
563.514; 2788.525;  252.350;    0.000
563.641; 2904.525;  201.350;    0.000
563.769; 2858.525;  201.350;    0.000
563.897; 2835.525;  176.350;    0.000
564.024; 3203.525;  167.350;    0.000
564.152; 3185.525;  205.350;    0.000
564.280; 2997.525;  222.350;    0.000
564.407; 2984.525;  192.350;    0.000
564.535; 3119.525;  231.350;    0.000
564.662; 3037.525;  197.350;    0.000
564.790; 3150.525;  200.350;    0.000
564.917; 3080.525;  172.350;    0.000
565.045; 3129.525;  187.350;    0.000
565.173; 3061.525;  173.350;    0.000
565.300; 3178.525;  196.350;    0.000
565.428; 3258.525;  195.350;    0.000
565.555; 3253.525;  191.350;    0.000
565.682; 3310.525;  169.350;    0.000
565.810; 3476.525;  198.350;    0.000
565.937; 3624.525;  213.350;    0.000
566.065; 3564.525;  221.350;    0.000
566.192; 3836.525;  173.350;    0.000
566.320; 3928.525;  214.350;    0.000
566.447; 4029.525;  214.350;    0.000
566.574; 3967.525;  188.350;    0.000
566.702; 4057.525;  198.350;    0.000
566.829; 4193.525;  200.350;    0.000
566.956; 4313.525;  194.350;    0.000
567.083; 4264.525;  176.350;    0.000
567.211; 4177.525;  189.350;    0.000
567.338; 4300.525;  184.350;    0.000
567.465; 4090.525;  181.350;    0.000
567.593; 4544.525;  194.350;    0.000
567.720; 4541.525;  193.350;    0.000
567.847; 4246.525;  196.350;    0.000
567.974; 4557.525;  199.350;    0.000
568.101; 4820.525;  150.350;    0.000
568.228; 5937.525;  174.350;    0.000
568.356; 6582.525;  164.350;    0.000
568.483; 6258.525;  163.350;    0.000
568.610; 6072.525;  187.350;    0.000
568.737; 7191.525;  192.350;    0.000
568.864; 8776.525;  218.350;    0.000
568.991; 8514.525;  169.350;    0.000
569.118; 7242.525;  161.350;    0.000
569.245; 6235.525;  161.350;    0.000
569.372; 5817.525;  187.350;    0.000
569.499; 5263.525;  146.350;    0.000
569.626; 5066.525;  172.350;    0.000
569.753; 4768.525;  188.350;    0.000
569.880; 4471.525;  180.350;    0.000
570.007; 4234.525;  187.350;    0.000
570.134; 4219.525;  196.350;    0.000
570.261; 4096.525;  127.350;    0.000
570.388; 3979.525;  189.350;    0.000
570.515; 4055.525;  219.350;    0.000
570.642; 3966.525;  187.350;    0.000
570.768; 3863.525;  175.350;    0.000
570.895; 3599.525;  165.350;    0.000
571.022; 3805.525;  180.350;    0.000
571.149; 3621.525;  209.350;    0.000
571.276; 3408.525;  187.350;    0.000
571.402; 3503.525;  227.350;    0.000
571.529; 3427.525;  166.350;    0.000
571.656; 3320.525;  203.350;    0.000
571.783; 3332.525;  156.350;    0.000
571.909; 3295.525;  195.350;    0.000
572.036; 3393.525;  165.350;    0.000
572.163; 3145.525;  156.350;    0.000
572.289; 3207.525;  193.350;    0.000
572.416; 3075.525;  199.350;    0.000
572.543; 3219.525;  185.350;    0.000
572.669; 3062.525;  180.350;    0.000
572.796; 3110.525;  173.350;    0.000
572.922; 3101.525;  186.350;    0.000
573.049; 3005.525;  185.350;    0.000
573.176; 2947.525;  196.350;    0.000
573.302; 3022.525;  189.350;    0.000
573.429; 3032.525;  186.350;    0.000
573.555; 2974.525;  220.350;    0.000
573.682; 2842.525;  196.350;    0.000
573.808; 2825.525;  201.350;    0.000
573.935; 2848.525;  188.350;    0.000
574.061; 2833.525;  216.350;    0.000
574.188; 2948.525;  161.350;    0.000
574.314; 2852.525;  189.350;    0.000
574.440; 2826.525;  190.350;    0.000
574.567; 2765.525;  201.350;    0.000
574.693; 2698.525;  175.350;    0.000
574.820; 2931.525;  188.350;    0.000
574.946; 2855.525;  182.350;    0.000
575.072; 2878.525;  188.350;    0.000
575.198; 2908.525;  232.350;    0.000
575.325; 2908.525;  159.350;    0.000
575.451; 2759.525;  231.350;    0.000
575.577; 2775.525;  196.350;    0.000
575.704; 2768.525;  177.350;    0.000
575.830; 2857.525;  171.350;    0.000
575.956; 2875.525;  163.350;    0.000
576.082; 2793.525;  197.350;    0.000
576.208; 2687.525;  181.350;    0.000
576.335; 2795.525;  218.350;    0.000
576.461; 2786.525;  207.350;    0.000
576.587; 2675.525;  173.350;    0.000
576.713; 2744.525;  170.350;    0.000
576.839; 2845.525;  186.350;    0.000
576.965; 2867.525;  194.350;    0.000
577.091; 2766.525;  167.350;    0.000
577.217; 2705.525;  212.350;    0.000
577.343; 2687.525;  214.350;    0.000
577.469; 2812.525;  208.350;    0.000
577.596; 2743.525;  188.350;    0.000
577.722; 2844.525;  221.350;    0.000
577.848; 2550.525;  197.350;    0.000
577.974; 3009.525;  222.350;    0.000
578.099; 2709.525;  187.350;    0.000
578.225; 2687.525;  213.350;    0.000
578.351; 2753.525;  190.350;    0.000
578.477; 2826.525;  212.350;    0.000
578.603; 2836.525;  178.350;    0.000
578.729; 2874.525;  193.350;    0.000
578.855; 2855.525;  194.350;    0.000
578.981; 2764.525;  152.350;    0.000
579.107; 2774.525;  175.350;    0.000
579.232; 2877.525;  192.350;    0.000
579.358; 2922.525;  186.350;    0.000
579.484; 2885.525;  186.350;    0.000
579.610; 2849.525;  199.350;    0.000
579.735; 2830.525;  197.350;    0.000
579.861; 2872.525;  203.350;    0.000
579.987; 2982.525;  220.350;    0.000
580.113; 2926.525;  210.350;    0.000
580.238; 2816.525;  189.350;    0.000
580.364; 3000.525;  214.350;    0.000
580.490; 3009.525;  205.350;    0.000
580.615; 2960.525;  231.350;    0.000
580.741; 2880.525;  212.350;    0.000
580.867; 2919.525;  196.350;    0.000
580.992; 2991.525;  214.350;    0.000
581.118; 2986.525;  178.350;    0.000
581.243; 2977.525;  209.350;    0.000
581.369; 2989.525;  173.350;    0.000
581.494; 3033.525;  209.350;    0.000
581.620; 2907.525;  204.350;    0.000
581.745; 3154.525;  168.350;    0.000
581.871; 3238.525;  236.350;    0.000
581.996; 3080.525;  212.350;    0.000
582.122; 3264.525;  192.350;    0.000
582.247; 3125.525;  179.350;    0.000
582.373; 3294.525;  189.350;    0.000
582.498; 3246.525;  217.350;    0.000
582.624; 3351.525;  231.350;    0.000
582.749; 3281.525;  237.350;    0.000
582.874; 3446.525;  205.350;    0.000
583.000; 3390.525;  204.350;    0.000
583.125; 3444.525;  192.350;    0.000
583.250; 3573.525;  229.350;    0.000
583.376; 3498.525;  256.350;    0.000
583.501; 3662.525;  200.350;    0.000
583.626; 3544.525;  207.350;    0.000
583.751; 3689.525;  215.350;    0.000
583.877; 3936.525;  212.350;    0.000
584.002; 3656.525;  227.350;    0.000
584.127; 3832.525;  153.350;    0.000
584.252; 3889.525;  197.350;    0.000
584.377; 3976.525;  183.350;    0.000
584.503; 4217.525;  211.350;    0.000
584.628; 4233.525;  215.350;    0.000
584.753; 4361.525;  194.350;    0.000
584.878; 4188.525;  154.350;    0.000
585.003; 4473.525;  213.350;    0.000
585.128; 4436.525;  199.350;    0.000
585.253; 4640.525;  219.350;    0.000
585.378; 4752.525;  174.350;    0.000
585.503; 4773.525;  202.350;    0.000
585.628; 4974.525;  186.350;    0.000
585.753; 5151.525;  209.350;    0.000
585.878; 5107.525;  167.350;    0.000
586.003; 5449.525;  226.350;    0.000
586.128; 5670.525;  206.350;    0.000
586.253; 5704.525;  198.350;    0.000
586.378; 6039.525;  180.350;    0.000
586.503; 6397.525;  201.350;    0.000
586.628; 6548.525;  206.350;    0.000
586.753; 6850.525;  178.350;    0.000
586.878; 7227.525;  228.350;    0.000
587.003; 7747.525;  199.350;    0.000
587.127; 8166.525;  194.350;    0.000
587.252; 8723.525;  212.350;    0.000
587.377; 9450.525;  172.350;    0.000
587.502;10135.525;  219.350;    0.000
587.627;10543.525;  247.350;    0.000
587.751;11466.525;  184.350;    0.000
587.876;12727.525;  215.350;    0.000
588.001;14146.525;  163.350;    0.000
588.125;15903.525;  185.350;    0.000
588.250;18179.525;  171.350;    0.000
588.375;21008.525;  255.350;    0.000
588.499;24869.525;  185.350;    0.000
588.624;30880.525;  167.350;    0.000
588.749;39017.523;  170.350;    0.000
588.873;49799.523;  173.350;    0.000
588.998;58053.523;  203.350;    0.000
589.122;59608.523;  184.350;    0.000
589.247;53205.523;  217.350;    0.000
589.372;46858.523;  250.350;    0.000
589.496;50259.523;  200.350;    0.000
589.621;56044.523;  199.350;    0.000
589.745;52433.523;  235.350;    0.000
589.870;41350.523;  206.350;    0.000
589.994;31630.525;  194.350;    0.000
590.118;25767.525;  177.350;    0.000
590.243;21523.525;  231.350;    0.000
590.367;18842.525;  173.350;    0.000
590.492;16914.525;  170.350;    0.000
590.616;14958.525;  182.350;    0.000
590.740;13151.525;  178.350;    0.000
590.865;11995.525;  219.350;    0.000
590.989;11410.525;  210.350;    0.000
591.114;10460.525;  194.350;    0.000
591.238; 9636.525;  154.350;    0.000
591.362; 9261.525;  210.350;    0.000
591.486; 9071.525;  215.350;    0.000
591.611; 8380.525;  194.350;    0.000
591.735; 7915.525;  206.350;    0.000
591.859; 7559.525;  188.350;    0.000
591.983; 7376.525;  202.350;    0.000
592.107; 7089.525;  175.350;    0.000
592.232; 6601.525;  214.350;    0.000
592.356; 6575.525;  232.350;    0.000
592.480; 6357.525;  203.350;    0.000
592.604; 6083.525;  204.350;    0.000
592.728; 6136.525;  187.350;    0.000
592.852; 5868.525;  204.350;    0.000
592.976; 5687.525;  163.350;    0.000
593.100; 5462.525;  177.350;    0.000
593.224; 5367.525;  209.350;    0.000
593.349; 5275.525;  255.350;    0.000
593.473; 5011.525;  225.350;    0.000
593.597; 5171.525;  211.350;    0.000
593.721; 4906.525;  222.350;    0.000
593.844; 4701.525;  202.350;    0.000
593.968; 4905.525;  223.350;    0.000
594.092; 4661.525;  162.350;    0.000
594.216; 4481.525;  211.350;    0.000
594.340; 4482.525;  198.350;    0.000
594.464; 4424.525;  242.350;    0.000
594.588; 4198.525;  213.350;    0.000
594.712; 4222.525;  198.350;    0.000
594.836; 3996.525;  207.350;    0.000
594.959; 4116.525;  192.350;    0.000
595.083; 3885.525;  180.350;    0.000
595.207; 3778.525;  242.350;    0.000
595.331; 3816.525;  172.350;    0.000
595.455; 3801.525;  185.350;    0.000
595.578; 3663.525;  221.350;    0.000
595.702; 3546.525;  233.350;    0.000
595.826; 3436.525;  164.350;    0.000
595.949; 3629.525;  215.350;    0.000
596.073; 3458.525;  198.350;    0.000
596.197; 3415.525;  266.350;    0.000
596.320; 3466.525;  236.350;    0.000
596.444; 3295.525;  215.350;    0.000
596.568; 3300.525;  213.350;    0.000
596.691; 3244.525;  198.350;    0.000
596.815; 3301.525;  210.350;    0.000
596.938; 3294.525;  207.350;    0.000
597.062; 3329.525;  187.350;    0.000
597.186; 3155.525;  234.350;    0.000
597.309; 3169.525;  176.350;    0.000
597.433; 3170.525;  222.350;    0.000
597.556; 3070.525;  219.350;    0.000
597.680; 3132.525;  227.350;    0.000
597.803; 3033.525;  240.350;    0.000
597.926; 2984.525;  227.350;    0.000
598.050; 2858.525;  198.350;    0.000
598.173; 2994.525;  235.350;    0.000
598.297; 2951.525;  233.350;    0.000
598.420; 2820.525;  211.350;    0.000
598.543; 2883.525;  207.350;    0.000
598.667; 2752.525;  232.350;    0.000
598.790; 2794.525;  205.350;    0.000
598.913; 2809.525;  200.350;    0.000
599.037; 2769.525;  193.350;    0.000
599.160; 2859.525;  199.350;    0.000
599.283; 2889.525;  237.350;    0.000
599.406; 2680.525;  168.350;    0.000
599.530; 2748.525;  231.350;    0.000
599.653; 2696.525;  220.350;    0.000
599.776; 2619.525;  203.350;    0.000
599.899; 2760.525;  202.350;    0.000
600.022; 2629.525;  189.350;    0.000
600.145; 2649.525;  175.350;    0.000
600.269; 2643.525;  235.350;    0.000
600.392; 2599.525;  213.350;    0.000
600.515; 2661.525;  236.350;    0.000
600.638; 2480.525;  198.350;    0.000
600.761; 2652.525;  195.350;    0.000
600.884; 2545.525;  221.350;    0.000
601.007; 2625.525;  236.350;    0.000
601.130; 2564.525;  223.350;    0.000
601.253; 2555.525;  250.350;    0.000
601.376; 2529.525;  195.350;    0.000
601.499; 2536.525;  168.350;    0.000
601.622; 2508.525;  221.350;    0.000
601.745; 2579.525;  223.350;    0.000
601.868; 2567.525;  204.350;    0.000
601.991; 2466.525;  207.350;    0.000
602.113; 2471.525;  223.350;    0.000
602.236; 2553.525;  182.350;    0.000
602.359; 2567.525;  235.350;    0.000
602.482; 2541.525;  173.350;    0.000
602.605; 2482.525;  227.350;    0.000
602.728; 2411.525;  227.350;    0.000
602.850; 2396.525;  250.350;    0.000
602.973; 2397.525;  195.350;    0.000
603.096; 2404.525;  270.350;    0.000
603.219; 2434.525;  197.350;    0.000
603.341; 2409.525;  195.350;    0.000
603.464; 2365.525;  204.350;    0.000
603.587; 2402.525;  243.350;    0.000
603.709; 2407.525;  188.350;    0.000
603.832; 2422.525;  214.350;    0.000
603.955; 2384.525;  213.350;    0.000
604.077; 2358.525;  201.350;    0.000
604.200; 2378.525;  209.350;    0.000
604.323; 2445.525;  201.350;    0.000
604.445; 2420.525;  202.350;    0.000
604.568; 2413.525;  230.350;    0.000
604.690; 2280.525;  212.350;    0.000
604.813; 2270.525;  226.350;    0.000
604.935; 2384.525;  216.350;    0.000
605.058; 2295.525;  182.350;    0.000
605.180; 2404.525;  204.350;    0.000
605.303; 2309.525;  199.350;    0.000
605.425; 2302.525;  178.350;    0.000
605.547; 2299.525;  209.350;    0.000
605.670; 2249.525;  206.350;    0.000
605.792; 2221.525;  199.350;    0.000
605.915; 2292.525;  221.350;    0.000
606.037; 2250.525;  222.350;    0.000
606.159; 2203.525;  160.350;    0.000
606.282; 2270.525;  188.350;    0.000
606.404; 2244.525;  205.350;    0.000
606.526; 2285.525;  228.350;    0.000
606.648; 2192.525;  184.350;    0.000
606.771; 2235.525;  195.350;    0.000
606.893; 2306.525;  193.350;    0.000
607.015; 2219.525;  202.350;    0.000
607.137; 2208.525;  189.350;    0.000
607.260; 2125.525;  201.350;    0.000
607.382; 2251.525;  211.350;    0.000
607.504; 2280.525;  206.350;    0.000
607.626; 2247.525;  236.350;    0.000
607.748; 2413.525;  228.350;    0.000
607.870; 2124.525;  212.350;    0.000
607.992; 2283.525;  201.350;    0.000
608.114; 2227.525;  214.350;    0.000
608.237; 2317.525;  235.350;    0.000
608.359; 2198.525;  215.350;    0.000
608.481; 2145.525;  183.350;    0.000
608.603; 2165.525;  206.350;    0.000
608.725; 2033.525;  238.350;    0.000
608.847; 2212.525;  237.350;    0.000
608.969; 2204.525;  227.350;    0.000
609.090; 2252.525;  205.350;    0.000
609.212; 2136.525;  182.350;    0.000
609.334; 2188.525;  210.350;    0.000
609.456; 2209.525;  208.350;    0.000
609.578; 2053.525;  195.350;    0.000
609.700; 2125.525;  196.350;    0.000
609.822; 2009.525;  184.350;    0.000
609.944; 2173.525;  258.350;    0.000
610.065; 2190.525;  219.350;    0.000
610.187; 2238.525;  217.350;    0.000
610.309; 2184.525;  179.350;    0.000
610.431; 2132.525;  189.350;    0.000
610.552; 2150.525;  212.350;    0.000
610.674; 2234.525;  211.350;    0.000
610.796; 2160.525;  168.350;    0.000
610.918; 2143.525;  201.350;    0.000
611.039; 2107.525;  212.350;    0.000
611.161; 2124.525;  207.350;    0.000
611.282; 2138.525;  219.350;    0.000
611.404; 2237.525;  243.350;    0.000
611.526; 2167.525;  180.350;    0.000
611.647; 2243.525;  235.350;    0.000
611.769; 2059.525;  189.350;    0.000
611.890; 2090.525;  201.350;    0.000
612.012; 2170.525;  191.350;    0.000
612.133; 2199.525;  227.350;    0.000
612.255; 2187.525;  191.350;    0.000
612.377; 2159.525;  192.350;    0.000
612.498; 2218.525;  202.350;    0.000
612.619; 2130.525;  207.350;    0.000
612.741; 2129.525;  241.350;    0.000
612.862; 2129.525;  219.350;    0.000
612.984; 2003.525;  203.350;    0.000
613.105; 2112.525;  228.350;    0.000
613.226; 2062.525;  199.350;    0.000
613.348; 2072.525;  238.350;    0.000
613.469; 2142.525;  239.350;    0.000
613.590; 2031.525;  183.350;    0.000
613.712; 2039.525;  245.350;    0.000
613.833; 2094.525;  241.350;    0.000
613.954; 2227.525;  208.350;    0.000
614.076; 2108.525;  181.350;    0.000
614.197; 2081.525;  217.350;    0.000
614.318; 2191.525;  182.350;    0.000
614.439; 2124.525;  204.350;    0.000
614.560; 2143.525;  219.350;    0.000
614.682; 2039.525;  238.350;    0.000
614.803; 2142.525;  240.350;    0.000
614.924; 2203.525;  212.350;    0.000
615.045; 2207.525;  225.350;    0.000
615.166; 2283.525;  227.350;    0.000
615.287; 2319.525;  230.350;    0.000
615.408; 2972.525;  187.350;    0.000
615.529; 3201.525;  211.350;    0.000
615.650; 2891.525;  202.350;    0.000
615.771; 2611.525;  203.350;    0.000
615.892; 2569.525;  222.350;    0.000
616.013; 3341.525;  215.350;    0.000
616.134; 4144.525;  193.350;    0.000
616.255; 3859.525;  242.350;    0.000
616.376; 3093.525;  205.350;    0.000
616.497; 2854.525;  200.350;    0.000
616.618; 2618.525;  177.350;    0.000
616.739; 2577.525;  218.350;    0.000
616.860; 2521.525;  214.350;    0.000
616.981; 2514.525;  208.350;    0.000
617.102; 2370.525;  203.350;    0.000
617.222; 2364.525;  212.350;    0.000
617.343; 2282.525;  162.350;    0.000
617.464; 2328.525;  230.350;    0.000
617.585; 2158.525;  197.350;    0.000
617.705; 2246.525;  209.350;    0.000
617.826; 2215.525;  229.350;    0.000
617.947; 2042.525;  216.350;    0.000
618.068; 2185.525;  192.350;    0.000
618.188; 2128.525;  230.350;    0.000
618.309; 2250.525;  238.350;    0.000
618.430; 2129.525;  242.350;    0.000
618.550; 2110.525;  235.350;    0.000
618.671; 2112.525;  207.350;    0.000
618.791; 2129.525;  228.350;    0.000
618.912; 2044.525;  266.350;    0.000
619.033; 2070.525;  232.350;    0.000
619.153; 2096.525;  207.350;    0.000
619.274; 2007.525;  193.350;    0.000
619.394; 2046.525;  237.350;    0.000
619.515; 2121.525;  216.350;    0.000
619.635; 2042.525;  203.350;    0.000
619.756; 1977.525;  227.350;    0.000
619.876; 2015.525;  244.350;    0.000
619.996; 2022.525;  220.350;    0.000
620.117; 1992.525;  231.350;    0.000
620.237; 1976.525;  235.350;    0.000
620.358; 2010.525;  241.350;    0.000
620.478; 2081.525;  237.350;    0.000
620.598; 1986.525;  255.350;    0.000
620.719; 1965.525;  243.350;    0.000
620.839; 2101.525;  237.350;    0.000
620.959; 2090.525;  216.350;    0.000
621.079; 1974.525;  240.350;    0.000
621.200; 1872.525;  195.350;    0.000
621.320; 1920.525;  287.350;    0.000
621.440; 1986.525;  236.350;    0.000
621.560; 1984.525;  231.350;    0.000
621.681; 1968.525;  177.350;    0.000
621.801; 2011.525;  257.350;    0.000
621.921; 1969.525;  241.350;    0.000
622.041; 1934.525;  239.350;    0.000
622.161; 1995.525;  233.350;    0.000
622.281; 1951.525;  204.350;    0.000
622.401; 1969.525;  204.350;    0.000
622.521; 1980.525;  242.350;    0.000
622.641; 1902.525;  205.350;    0.000
622.761; 1891.525;  254.350;    0.000
622.882; 1901.525;  225.350;    0.000
623.002; 1934.525;  255.350;    0.000
623.121; 1967.525;  244.350;    0.000
623.241; 2016.525;  238.350;    0.000
623.361; 1841.525;  208.350;    0.000
623.481; 1826.525;  194.350;    0.000
623.601; 1878.525;  249.350;    0.000
623.721; 1913.525;  229.350;    0.000
623.841; 1911.525;  244.350;    0.000
623.961; 1908.525;  253.350;    0.000
624.081; 1902.525;  218.350;    0.000
624.201; 1854.525;  218.350;    0.000
624.320; 1874.525;  212.350;    0.000
624.440; 1835.525;  251.350;    0.000
624.560; 1999.525;  244.350;    0.000
624.680; 1884.525;  224.350;    0.000
624.799; 1858.525;  198.350;    0.000
624.919; 1920.525;  215.350;    0.000
625.039; 1909.525;  225.350;    0.000
625.159; 1941.525;  209.350;    0.000
625.278; 1939.525;  211.350;    0.000
625.398; 1948.525;  260.350;    0.000
625.518; 1875.525;  205.350;    0.000
625.637; 1942.525;  240.350;    0.000
625.757; 1870.525;  208.350;    0.000
625.876; 1875.525;  221.350;    0.000
625.996; 1853.525;  245.350;    0.000
626.115; 1943.525;  196.350;    0.000
626.235; 1904.525;  241.350;    0.000
626.354; 1902.525;  231.350;    0.000
626.474; 1791.525;  220.350;    0.000
626.594; 1752.525;  210.350;    0.000
626.713; 1881.525;  229.350;    0.000
626.832; 1827.525;  236.350;    0.000
626.952; 1880.525;  223.350;    0.000
627.071; 1803.525;  211.350;    0.000
627.191; 1819.525;  220.350;    0.000
627.310; 1788.525;  206.350;    0.000
627.429; 1803.525;  223.350;    0.000
627.549; 1705.525;  205.350;    0.000
627.668; 1775.525;  227.350;    0.000
627.787; 1801.525;  221.350;    0.000
627.907; 1853.525;  194.350;    0.000
628.026; 1795.525;  231.350;    0.000
628.145; 1828.525;  210.350;    0.000
628.264; 1803.525;  245.350;    0.000
628.384; 1848.525;  234.350;    0.000
628.503; 1734.525;  210.350;    0.000
628.622; 1781.525;  223.350;    0.000
628.741; 1799.525;  210.350;    0.000
628.860; 1809.525;  222.350;    0.000
628.980; 1845.525;  184.350;    0.000
629.099; 1786.525;  234.350;    0.000
629.218; 1794.525;  157.350;    0.000
629.337; 1801.525;  220.350;    0.000
629.456; 1838.525;  210.350;    0.000
629.575; 1874.525;  239.350;    0.000
629.694; 1760.525;  216.350;    0.000
629.813; 1838.525;  218.350;    0.000
629.932; 1726.525;  175.350;    0.000
630.051; 1766.525;  218.350;    0.000
630.170; 1852.525;  215.350;    0.000
630.289; 1829.525;  203.350;    0.000
630.408; 1764.525;  180.350;    0.000
630.527; 1782.525;  249.350;    0.000
630.646; 1726.525;  186.350;    0.000
630.764; 1703.525;  189.350;    0.000
630.883; 1840.525;  221.350;    0.000
631.002; 1685.525;  191.350;    0.000
631.121; 1760.525;  210.350;    0.000
631.240; 1760.525;  256.350;    0.000
631.359; 1865.525;  246.350;    0.000
631.477; 1853.525;  230.350;    0.000
631.596; 1950.525;  229.350;    0.000
631.715; 1919.525;  242.350;    0.000
631.834; 1717.525;  261.350;    0.000
631.952; 1706.525;  250.350;    0.000
632.071; 1818.525;  218.350;    0.000
632.190; 1682.525;  200.350;    0.000
632.308; 1687.525;  226.350;    0.000
632.427; 1746.525;  234.350;    0.000
632.546; 1870.525;  250.350;    0.000
632.664; 1736.525;  224.350;    0.000
632.783; 1880.525;  211.350;    0.000
632.901; 1929.525;  254.350;    0.000
633.020; 1764.525;  204.350;    0.000
633.138; 1776.525;  228.350;    0.000
633.257; 1789.525;  219.350;    0.000
633.375; 1737.525;  243.350;    0.000
633.494; 1764.525;  242.350;    0.000
633.612; 1769.525;  227.350;    0.000
633.731; 1773.525;  221.350;    0.000
633.849; 1746.525;  239.350;    0.000
633.968; 1730.525;  219.350;    0.000
634.086; 1723.525;  218.350;    0.000
634.204; 1756.525;  203.350;    0.000
634.323; 1816.525;  222.350;    0.000
634.441; 1702.525;  257.350;    0.000
634.559; 1694.525;  201.350;    0.000
634.678; 1739.525;  214.350;    0.000
634.796; 1837.525;  207.350;    0.000
634.914; 1663.525;  226.350;    0.000
635.032; 1798.525;  250.350;    0.000
635.151; 1666.525;  228.350;    0.000
635.269; 1609.525;  188.350;    0.000
635.387; 1768.525;  247.350;    0.000
635.505; 1637.525;  250.350;    0.000
635.623; 1762.525;  230.350;    0.000
635.742; 1722.525;  209.350;    0.000
635.860; 1734.525;  239.350;    0.000
635.978; 1699.525;  213.350;    0.000
636.096; 1742.525;  176.350;    0.000
636.214; 1718.525;  246.350;    0.000
636.332; 1686.525;  224.350;    0.000
636.450; 1712.525;  215.350;    0.000
636.568; 1757.525;  246.350;    0.000
636.686; 1592.525;  225.350;    0.000
636.804; 1720.525;  218.350;    0.000
636.922; 1680.525;  195.350;    0.000
637.040; 1647.525;  213.350;    0.000
637.158; 1656.525;  228.350;    0.000
637.276; 1693.525;  206.350;    0.000
637.394; 1685.525;  224.350;    0.000
637.512; 1707.525;  245.350;    0.000
637.629; 1751.525;  234.350;    0.000
637.747; 1761.525;  233.350;    0.000
637.865; 1664.525;  236.350;    0.000
637.983; 1728.525;  235.350;    0.000
638.101; 1597.525;  232.350;    0.000
638.218; 1701.525;  256.350;    0.000
638.336; 1712.525;  216.350;    0.000
638.454; 1689.525;  255.350;    0.000
638.572; 1915.525;  237.350;    0.000
638.689; 1690.525;  271.350;    0.000
638.807; 1806.525;  243.350;    0.000
638.925; 1751.525;  259.350;    0.000
639.042; 1604.525;  185.350;    0.000
639.160; 1645.525;  250.350;    0.000
639.278; 1664.525;  207.350;    0.000
639.395; 1662.525;  243.350;    0.000
639.513; 1691.525;  235.350;    0.000
639.630; 1677.525;  230.350;    0.000
639.748; 1626.525;  192.350;    0.000
639.865; 1675.525;  219.350;    0.000
639.983; 1628.525;  183.350;    0.000
640.100; 1701.525;  251.350;    0.000
640.218; 1636.525;  246.350;    0.000
640.335; 1738.525;  227.350;    0.000
640.453; 1701.525;  259.350;    0.000
640.570; 1649.525;  251.350;    0.000
640.688; 1646.525;  223.350;    0.000
640.805; 1711.525;  246.350;    0.000
640.922; 1686.525;  249.350;    0.000
641.040; 1746.525;  257.350;    0.000
641.157; 1628.525;  207.350;    0.000
641.274; 1760.525;  241.350;    0.000
641.391; 1629.525;  246.350;    0.000
641.509; 1618.525;  216.350;    0.000
641.626; 1648.525;  252.350;    0.000
641.743; 1733.525;  215.350;    0.000
641.860; 1673.525;  234.350;    0.000
641.978; 1632.525;  216.350;    0.000
642.095; 1700.525;  247.350;    0.000
642.212; 1663.525;  199.350;    0.000
642.329; 1706.525;  237.350;    0.000
642.446; 1698.525;  222.350;    0.000
642.563; 1767.525;  287.350;    0.000
642.681; 1553.525;  261.350;    0.000
642.798; 1605.525;  251.350;    0.000
642.915; 1668.525;  238.350;    0.000
643.032; 1730.525;  246.350;    0.000
643.149; 1699.525;  239.350;    0.000
643.266; 1658.525;  238.350;    0.000
643.383; 1576.525;  231.350;    0.000
643.500; 1641.525;  212.350;    0.000
643.617; 1626.525;  236.350;    0.000
643.734; 1573.525;  239.350;    0.000
643.850; 1788.525;  234.350;    0.000
643.967; 1709.525;  253.350;    0.000
644.084; 1636.525;  253.350;    0.000
644.201; 1650.525;  227.350;    0.000
644.318; 1738.525;  247.350;    0.000
644.435; 1669.525;  264.350;    0.000
644.552; 1714.525;  230.350;    0.000
644.668; 1719.525;  250.350;    0.000
644.785; 1696.525;  235.350;    0.000
644.902; 1756.525;  227.350;    0.000
645.019; 1664.525;  203.350;    0.000
645.135; 1770.525;  210.350;    0.000
645.252; 1673.525;  206.350;    0.000
645.369; 1545.525;  235.350;    0.000
645.485; 1629.525;  223.350;    0.000
645.602; 1717.525;  205.350;    0.000
645.719; 1732.525;  222.350;    0.000
645.835; 1752.525;  246.350;    0.000
645.952; 1704.525;  239.350;    0.000
646.068; 1776.525;  225.350;    0.000
646.185; 1750.525;  248.350;    0.000
646.302; 1803.525;  226.350;    0.000
646.418; 1707.525;  228.350;    0.000
646.535; 1801.525;  219.350;    0.000
646.651; 1735.525;  204.350;    0.000
646.768; 1716.525;  247.350;    0.000
646.884; 1741.525;  228.350;    0.000
647.000; 1779.525;  223.350;    0.000
647.117; 1750.525;  251.350;    0.000
647.233; 1727.525;  223.350;    0.000
647.350; 1707.525;  237.350;    0.000
647.466; 1904.525;  223.350;    0.000
647.582; 1865.525;  243.350;    0.000
647.699; 1812.525;  223.350;    0.000
647.815; 1807.525;  215.350;    0.000
647.931; 1723.525;  214.350;    0.000
648.047; 1785.525;  199.350;    0.000
648.164; 1850.525;  233.350;    0.000
648.280; 1851.525;  231.350;    0.000
648.396; 1767.525;  215.350;    0.000
648.512; 1859.525;  252.350;    0.000
648.629; 1822.525;  237.350;    0.000
648.745; 1788.525;  216.350;    0.000
648.861; 1869.525;  207.350;    0.000
648.977; 1893.525;  247.350;    0.000
649.093; 1789.525;  221.350;    0.000
649.209; 1874.525;  232.350;    0.000
649.325; 1905.525;  245.350;    0.000
649.441; 1850.525;  253.350;    0.000
649.557; 1902.525;  221.350;    0.000
649.673; 1824.525;  182.350;    0.000
649.789; 1908.525;  245.350;    0.000
649.905; 1754.525;  204.350;    0.000
650.021; 1860.525;  270.350;    0.000
650.137; 1776.525;  218.350;    0.000
650.253; 1997.525;  268.350;    0.000
650.369; 1881.525;  222.350;    0.000
650.485; 1832.525;  215.350;    0.000
650.601; 1887.525;  218.350;    0.000
650.717; 1907.525;  208.350;    0.000
650.833; 1942.525;  263.350;    0.000
650.948; 1924.525;  266.350;    0.000
651.064; 1923.525;  271.350;    0.000
651.180; 1947.525;  232.350;    0.000
651.296; 1957.525;  237.350;    0.000
651.411; 1964.525;  233.350;    0.000
651.527; 1849.525;  232.350;    0.000
651.643; 1995.525;  259.350;    0.000
651.759; 1973.525;  257.350;    0.000
651.874; 1974.525;  216.350;    0.000
651.990; 1969.525;  234.350;    0.000
652.105; 2006.525;  195.350;    0.000
652.221; 1999.525;  245.350;    0.000
652.337; 1956.525;  210.350;    0.000
652.452; 2018.525;  259.350;    0.000
652.568; 2082.525;  202.350;    0.000
652.683; 2042.525;  233.350;    0.000
652.799; 2129.525;  230.350;    0.000
652.914; 2027.525;  198.350;    0.000
653.030; 2182.525;  203.350;    0.000
653.145; 2136.525;  228.350;    0.000
653.261; 2088.525;  244.350;    0.000
653.376; 2176.525;  214.350;    0.000
653.492; 2117.525;  246.350;    0.000
653.607; 2210.525;  241.350;    0.000
653.722; 2251.525;  257.350;    0.000
653.838; 2303.525;  265.350;    0.000
653.953; 2253.525;  252.350;    0.000
654.068; 2484.525;  270.350;    0.000
654.184; 2512.525;  248.350;    0.000
654.299; 2559.525;  226.350;    0.000
654.414; 2409.525;  190.350;    0.000
654.530; 2444.525;  263.350;    0.000
654.645; 2633.525;  240.350;    0.000
654.760; 2819.525;  243.350;    0.000
654.875; 2723.525;  210.350;    0.000
654.990; 2910.525;  250.350;    0.000
655.106; 3003.525;  277.350;    0.000
655.221; 3156.525;  249.350;    0.000
655.336; 3189.525;  239.350;    0.000
655.451; 3371.525;  226.350;    0.000
655.566; 3498.525;  236.350;    0.000
655.681; 3663.525;  272.350;    0.000
655.796; 3909.525;  224.350;    0.000
655.911; 4024.525;  247.350;    0.000
656.026; 4211.525;  240.350;    0.000
656.141; 4612.525;  239.350;    0.000
656.256; 4753.525;  241.350;    0.000
656.371; 4872.525;  213.350;    0.000
656.486; 4769.525;  275.350;    0.000
656.601; 4669.525;  225.350;    0.000
656.716; 4237.525;  239.350;    0.000
656.831; 4264.525;  260.350;    0.000
656.946; 4167.525;  250.350;    0.000
657.060; 3898.525;  257.350;    0.000
657.175; 3832.525;  256.350;    0.000
657.290; 3536.525;  255.350;    0.000
657.405; 3501.525;  303.350;    0.000
657.520; 3285.525;  272.350;    0.000
657.634; 3282.525;  268.350;    0.000
657.749; 3145.525;  261.350;    0.000
657.864; 3057.525;  235.350;    0.000
657.979; 2982.525;  257.350;    0.000
658.093; 2864.525;  243.350;    0.000
658.208; 2824.525;  281.350;    0.000
658.323; 2764.525;  240.350;    0.000
658.437; 2792.525;  285.350;    0.000
658.552; 2686.525;  262.350;    0.000
658.666; 2611.525;  269.350;    0.000
658.781; 2619.525;  244.350;    0.000
658.895; 2461.525;  259.350;    0.000
659.010; 2443.525;  254.350;    0.000
659.125; 2506.525;  210.350;    0.000
659.239; 2387.525;  212.350;    0.000
659.353; 2343.525;  269.350;    0.000
659.468; 2224.525;  269.350;    0.000
659.582; 2397.525;  244.350;    0.000
659.697; 2226.525;  262.350;    0.000
659.811; 2245.525;  271.350;    0.000
659.926; 2157.525;  232.350;    0.000
660.040; 2203.525;  250.350;    0.000
660.154; 2060.525;  209.350;    0.000
660.269; 2270.525;  212.350;    0.000
660.383; 2114.525;  237.350;    0.000
660.497; 2042.525;  231.350;    0.000
660.612; 2111.525;  232.350;    0.000
660.726; 2155.525;  276.350;    0.000
660.840; 2040.525;  235.350;    0.000
660.954; 1978.525;  224.350;    0.000
661.068; 2044.525;  241.350;    0.000
661.183; 1973.525;  223.350;    0.000
661.297; 2037.525;  255.350;    0.000
661.411; 1853.525;  223.350;    0.000
661.525; 1978.525;  249.350;    0.000
661.639; 1875.525;  264.350;    0.000
661.753; 1992.525;  225.350;    0.000
661.867; 1838.525;  245.350;    0.000
661.981; 1804.525;  225.350;    0.000
662.095; 1868.525;  262.350;    0.000
662.209; 1795.525;  225.350;    0.000
662.323; 1771.525;  228.350;    0.000
662.437; 1758.525;  230.350;    0.000
662.551; 1679.525;  234.350;    0.000
662.665; 1759.525;  212.350;    0.000
662.779; 1817.525;  254.350;    0.000
662.893; 1823.525;  269.350;    0.000
663.007; 1768.525;  196.350;    0.000
663.121; 1723.525;  262.350;    0.000
663.235; 1687.525;  263.350;    0.000
663.349; 1724.525;  242.350;    0.000
663.462; 1687.525;  234.350;    0.000
663.576; 1653.525;  219.350;    0.000
663.690; 1711.525;  234.350;    0.000
663.804; 1725.525;  205.350;    0.000
663.917; 1559.525;  224.350;    0.000
664.031; 1665.525;  208.350;    0.000
664.145; 1660.525;  241.350;    0.000
664.258; 1639.525;  188.350;    0.000
664.372; 1554.525;  214.350;    0.000
664.486; 1581.525;  203.350;    0.000
664.599; 1574.525;  217.350;    0.000
664.713; 1663.525;  286.350;    0.000
664.827; 1597.525;  199.350;    0.000
664.940; 1652.525;  250.350;    0.000
665.054; 1606.525;  261.350;    0.000
665.167; 1502.525;  258.350;    0.000
665.281; 1605.525;  234.350;    0.000
665.394; 1586.525;  213.350;    0.000
665.508; 1713.525;  222.350;    0.000
665.621; 1600.525;  254.350;    0.000
665.735; 1518.525;  252.350;    0.000
665.848; 1514.525;  248.350;    0.000
665.961; 1634.525;  234.350;    0.000
666.075; 1576.525;  262.350;    0.000
666.188; 1589.525;  270.350;    0.000
666.301; 1616.525;  237.350;    0.000
666.415; 1556.525;  245.350;    0.000
666.528; 1560.525;  248.350;    0.000
666.641; 1531.525;  210.350;    0.000
666.755; 1526.525;  218.350;    0.000
666.868; 1489.525;  224.350;    0.000
666.981; 1507.525;  244.350;    0.000
667.094; 1523.525;  279.350;    0.000
667.207; 1543.525;  190.350;    0.000
667.321; 1466.525;  210.350;    0.000
667.434; 1476.525;  205.350;    0.000
667.547; 1523.525;  253.350;    0.000
667.660; 1449.525;  243.350;    0.000
667.773; 1443.525;  242.350;    0.000
667.886; 1446.525;  218.350;    0.000
667.999; 1453.525;  226.350;    0.000
668.112; 1507.525;  258.350;    0.000
668.225; 1546.525;  243.350;    0.000
668.338; 1457.525;  224.350;    0.000
668.451; 1368.525;  250.350;    0.000
668.564; 1500.525;  260.350;    0.000
668.677; 1425.525;  204.350;    0.000
668.790; 1388.525;  229.350;    0.000
668.903; 1410.525;  269.350;    0.000
669.016; 1351.525;  228.350;    0.000
669.129; 1409.525;  253.350;    0.000
669.242; 1332.525;  245.350;    0.000
669.354; 1343.525;  234.350;    0.000
669.467; 1354.525;  256.350;    0.000
669.580; 1435.525;  223.350;    0.000
669.693; 1416.525;  252.350;    0.000
669.806; 1339.525;  212.350;    0.000
669.918; 1361.525;  228.350;    0.000
670.031; 1402.525;  265.350;    0.000
670.144; 1369.525;  255.350;    0.000
670.256; 1353.525;  229.350;    0.000
670.369; 1331.525;  301.350;    0.000
670.482; 1330.525;  263.350;    0.000
670.594; 1266.525;  246.350;    0.000
670.707; 1390.525;  255.350;    0.000
670.820; 1314.525;  256.350;    0.000
670.932; 1381.525;  210.350;    0.000
671.045; 1284.525;  249.350;    0.000
671.157; 1426.525;  254.350;    0.000
671.270; 1374.525;  265.350;    0.000
671.382; 1304.525;  219.350;    0.000
671.495; 1388.525;  242.350;    0.000
671.607; 1395.525;  266.350;    0.000
671.720; 1444.525;  238.350;    0.000
671.832; 1350.525;  220.350;    0.000
671.944; 1325.525;  251.350;    0.000
672.057; 1257.525;  232.350;    0.000
672.169; 1417.525;  240.350;    0.000
672.281; 1431.525;  270.350;    0.000
672.394; 1392.525;  257.350;    0.000
672.506; 1416.525;  247.350;    0.000
672.618; 1368.525;  229.350;    0.000
672.731; 1318.525;  227.350;    0.000
672.843; 1275.525;  282.350;    0.000
672.955; 1389.525;  262.350;    0.000
673.067; 1333.525;  277.350;    0.000
673.180; 1343.525;  280.350;    0.000
673.292; 1306.525;  241.350;    0.000
673.404; 1313.525;  234.350;    0.000
673.516; 1300.525;  224.350;    0.000
673.628; 1342.525;  272.350;    0.000
673.740; 1273.525;  249.350;    0.000
673.852; 1414.525;  288.350;    0.000
673.964; 1368.525;  278.350;    0.000
674.076; 1339.525;  273.350;    0.000
674.188; 1346.525;  251.350;    0.000
674.300; 1300.525;  244.350;    0.000
674.412; 1364.525;  267.350;    0.000
674.524; 1343.525;  276.350;    0.000
674.636; 1345.525;  234.350;    0.000
674.748; 1316.525;  267.350;    0.000
674.860; 1295.525;  255.350;    0.000
674.972; 1359.525;  253.350;    0.000
675.084; 1233.525;  253.350;    0.000
675.196; 1332.525;  300.350;    0.000
675.307; 1393.525;  307.350;    0.000
675.419; 1287.525;  245.350;    0.000
675.531; 1345.525;  292.350;    0.000
675.643; 1290.525;  244.350;    0.000
675.755; 1221.525;  265.350;    0.000
675.866; 1370.525;  281.350;    0.000
675.978; 1217.525;  266.350;    0.000
676.090; 1230.525;  267.350;    0.000
676.201; 1310.525;  265.350;    0.000
676.313; 1260.525;  222.350;    0.000
676.425; 1276.525;  248.350;    0.000
676.536; 1276.525;  234.350;    0.000
676.648; 1234.525;  261.350;    0.000
676.759; 1278.525;  280.350;    0.000
676.871; 1325.525;  260.350;    0.000
676.983; 1291.525;  277.350;    0.000
677.094; 1219.525;  252.350;    0.000
677.206; 1290.525;  238.350;    0.000
677.317; 1270.525;  269.350;    0.000
677.429; 1304.525;  245.350;    0.000
677.540; 1267.525;  244.350;    0.000
677.651; 1145.525;  225.350;    0.000
677.763; 1248.525;  216.350;    0.000
677.874; 1276.525;  226.350;    0.000
677.986; 1231.525;  234.350;    0.000
678.097; 1237.525;  237.350;    0.000
678.208; 1268.525;  278.350;    0.000
678.320; 1289.525;  243.350;    0.000
678.431; 1197.525;  248.350;    0.000
678.542; 1277.525;  240.350;    0.000
678.653; 1182.525;  250.350;    0.000
678.765; 1247.525;  258.350;    0.000
678.876; 1212.525;  221.350;    0.000
678.987; 1204.525;  229.350;    0.000
679.098; 1236.525;  233.350;    0.000
679.209; 1228.525;  274.350;    0.000
679.320; 1215.525;  216.350;    0.000
679.432; 1227.525;  246.350;    0.000
679.543; 1179.525;  226.350;    0.000
679.654; 1157.525;  232.350;    0.000
679.765; 1215.525;  246.350;    0.000
679.876; 1253.525;  263.350;    0.000
679.987; 1215.525;  216.350;    0.000
680.098; 1217.525;  262.350;    0.000
680.209; 1210.525;  219.350;    0.000
680.320; 1201.525;  232.350;    0.000
680.431; 1164.525;  261.350;    0.000
680.542; 1111.525;  219.350;    0.000
680.653; 1174.525;  238.350;    0.000
680.763; 1128.525;  191.350;    0.000
680.874; 1146.525;  267.350;    0.000
680.985; 1159.525;  240.350;    0.000
681.096; 1181.525;  251.350;    0.000
681.207; 1284.525;  232.350;    0.000
681.318; 1255.525;  211.350;    0.000
681.428; 1180.525;  233.350;    0.000
681.539; 1093.525;  197.350;    0.000
681.650; 1210.525;  197.350;    0.000
681.760; 1225.525;  243.350;    0.000
681.871; 1173.525;  245.350;    0.000
681.982; 1293.525;  218.350;    0.000
682.093; 1224.525;  262.350;    0.000
682.203; 1154.525;  250.350;    0.000
682.314; 1188.525;  239.350;    0.000
682.424; 1180.525;  250.350;    0.000
682.535; 1192.525;  206.350;    0.000
682.646; 1221.525;  302.350;    0.000
682.756; 1236.525;  258.350;    0.000
682.867; 1243.525;  265.350;    0.000
682.977; 1211.525;  218.350;    0.000
683.088; 1101.525;  264.350;    0.000
683.198; 1122.525;  236.350;    0.000
683.308; 1239.525;  246.350;    0.000
683.419; 1207.525;  296.350;    0.000
683.529; 1219.525;  242.350;    0.000
683.640; 1172.525;  245.350;    0.000
683.750; 1086.525;  213.350;    0.000
683.860; 1247.525;  256.350;    0.000
683.971; 1207.525;  251.350;    0.000
684.081; 1211.525;  232.350;    0.000
684.191; 1275.525;  252.350;    0.000
684.301; 1194.525;  214.350;    0.000
684.412; 1097.525;  261.350;    0.000
684.522; 1131.525;  243.350;    0.000
684.632; 1197.525;  257.350;    0.000
684.742; 1131.525;  271.350;    0.000
684.852; 1134.525;  258.350;    0.000
684.963; 1132.525;  262.350;    0.000
685.073; 1099.525;  219.350;    0.000
685.183; 1182.525;  270.350;    0.000
685.293; 1117.525;  233.350;    0.000
685.403; 1292.525;  274.350;    0.000
685.513; 1223.525;  280.350;    0.000
685.623; 1163.525;  267.350;    0.000
685.733; 1146.525;  274.350;    0.000
685.843; 1172.525;  274.350;    0.000
685.953; 1083.525;  244.350;    0.000
686.063; 1173.525;  261.350;    0.000
686.173; 1219.525;  283.350;    0.000
686.283; 1174.525;  260.350;    0.000
686.393; 1185.525;  256.350;    0.000
686.503; 1107.525;  295.350;    0.000
686.612; 1222.525;  294.350;    0.000
686.722; 1123.525;  263.350;    0.000
686.832; 1152.525;  291.350;    0.000
686.942; 1158.525;  229.350;    0.000
687.052; 1173.525;  241.350;    0.000
687.161; 1224.525;  304.350;    0.000
687.271; 1179.525;  223.350;    0.000
687.381; 1183.525;  273.350;    0.000
687.491; 1146.525;  246.350;    0.000
687.600; 1114.525;  242.350;    0.000
687.710; 1199.525;  225.350;    0.000
687.820; 1169.525;  259.350;    0.000
687.929; 1211.525;  232.350;    0.000
688.039; 1132.525;  248.350;    0.000
688.148; 1104.525;  250.350;    0.000
688.258; 1069.525;  240.350;    0.000
688.367; 1178.525;  253.350;    0.000
688.477; 1153.525;  229.350;    0.000
688.586; 1121.525;  259.350;    0.000
688.696; 1127.525;  250.350;    0.000
688.805; 1142.525;  279.350;    0.000
688.915; 1070.525;  250.350;    0.000
689.024; 1158.525;  240.350;    0.000
689.134; 1108.525;  269.350;    0.000
689.243; 1041.525;  214.350;    0.000
689.352; 1222.525;  257.350;    0.000
689.462; 1100.525;  248.350;    0.000
689.571; 1130.525;  233.350;    0.000
689.680; 1155.525;  236.350;    0.000
689.790; 1080.525;  238.350;    0.000
689.899; 1140.525;  232.350;    0.000
690.008; 1151.525;  259.350;    0.000
690.117; 1046.525;  254.350;    0.000
690.227; 1085.525;  251.350;    0.000
690.336; 1147.525;  240.350;    0.000
690.445; 1101.525;  235.350;    0.000
690.554; 1099.525;  243.350;    0.000
690.663; 1188.525;  214.350;    0.000
690.772; 1040.525;  247.350;    0.000
690.881; 1143.525;  249.350;    0.000
690.990; 1138.525;  265.350;    0.000
691.099; 1171.525;  217.350;    0.000
691.209; 1061.525;  272.350;    0.000
691.318; 1125.525;  223.350;    0.000
691.427; 1111.525;  212.350;    0.000
691.536; 1152.525;  260.350;    0.000
691.644; 1097.525;  246.350;    0.000
691.753; 1150.525;  251.350;    0.000
691.862; 1194.525;  239.350;    0.000
691.971; 1089.525;  253.350;    0.000
692.080; 1127.525;  255.350;    0.000
692.189; 1190.525;  228.350;    0.000
692.298; 1136.525;  243.350;    0.000
692.406; 1146.525;  269.350;    0.000
692.515; 1168.525;  254.350;    0.000
692.624; 1143.525;  225.350;    0.000
692.733; 1126.525;  245.350;    0.000
692.842; 1129.525;  259.350;    0.000
692.950; 1092.525;  226.350;    0.000
693.059; 1081.525;  216.350;    0.000
693.168; 1175.525;  266.350;    0.000
693.276; 1134.525;  236.350;    0.000
693.385; 1152.525;  257.350;    0.000
693.494; 1109.525;  268.350;    0.000
693.602; 1100.525;  239.350;    0.000
693.711; 1093.525;  224.350;    0.000
693.819; 1158.525;  263.350;    0.000
693.928; 1099.525;  270.350;    0.000
694.036; 1110.525;  247.350;    0.000
694.145; 1139.525;  261.350;    0.000
694.253; 1128.525;  261.350;    0.000
694.362; 1110.525;  253.350;    0.000
694.470; 1131.525;  270.350;    0.000
694.579; 1106.525;  233.350;    0.000
694.687; 1143.525;  260.350;    0.000
694.795; 1059.525;  228.350;    0.000
694.904; 1092.525;  228.350;    0.000
695.012; 1113.525;  288.350;    0.000
695.120; 1202.525;  230.350;    0.000
695.229; 1127.525;  287.350;    0.000
695.337; 1121.525;  249.350;    0.000
695.445; 1209.525;  283.350;    0.000
695.553; 1140.525;  251.350;    0.000
695.662; 1080.525;  236.350;    0.000
695.770; 1163.525;  267.350;    0.000
695.878; 1184.525;  268.350;    0.000
695.986; 1172.525;  297.350;    0.000
696.094; 1147.525;  275.350;    0.000
696.202; 1105.525;  201.350;    0.000
696.310; 1205.525;  283.350;    0.000
696.419; 1169.525;  261.350;    0.000
696.527; 1103.525;  252.350;    0.000
696.635; 1149.525;  249.350;    0.000
696.743; 1130.525;  236.350;    0.000
696.851; 1182.525;  241.350;    0.000
696.959; 1112.525;  278.350;    0.000
697.067; 1083.525;  239.350;    0.000
697.174; 1078.525;  260.350;    0.000
697.282; 1132.525;  259.350;    0.000
697.390; 1204.525;  302.350;    0.000
697.498; 1223.525;  216.350;    0.000
697.606; 1141.525;  245.350;    0.000
697.714; 1134.525;  279.350;    0.000
697.822; 1161.525;  267.350;    0.000
697.929; 1089.525;  234.350;    0.000
698.037; 1103.525;  255.350;    0.000
698.145; 1112.525;  226.350;    0.000
698.253; 1146.525;  261.350;    0.000
698.360; 1162.525;  299.350;    0.000
698.468; 1134.525;  254.350;    0.000
698.576; 1191.525;  307.350;    0.000
698.683; 1139.525;  280.350;    0.000
698.791; 1140.525;  284.350;    0.000
698.899; 1156.525;  279.350;    0.000
699.006; 1130.525;  264.350;    0.000
699.114; 1181.525;  263.350;    0.000
699.221; 1139.525;  291.350;    0.000
699.329; 1115.525;  309.350;    0.000
699.436; 1143.525;  261.350;    0.000
699.544; 1058.525;  259.350;    0.000
699.651; 1162.525;  251.350;    0.000
699.759; 1113.525;  251.350;    0.000
699.866; 1071.525;  266.350;    0.000
699.974; 1031.525;  264.350;    0.000
700.081; 1108.525;  295.350;    0.000
700.188; 1104.525;  293.350;    0.000
700.296; 1126.525;  233.350;    0.000
700.403; 1107.525;  290.350;    0.000
700.510; 1067.525;  275.350;    0.000
700.618; 1109.525;  273.350;    0.000
700.725; 1039.525;  262.350;    0.000
700.832; 1068.525;  250.350;    0.000
700.940; 1191.525;  300.350;    0.000
701.047; 1115.525;  245.350;    0.000
701.154; 1148.525;  280.350;    0.000
701.261; 1069.525;  270.350;    0.000
701.368; 1087.525;  286.350;    0.000
701.475; 1059.525;  301.350;    0.000
701.582; 1141.525;  286.350;    0.000
701.690; 1091.525;  279.350;    0.000
701.797; 1108.525;  292.350;    0.000
701.904; 1119.525;  314.350;    0.000
702.011; 1167.525;  340.350;    0.000
702.118; 1108.525;  276.350;    0.000
702.225; 1163.525;  351.350;    0.000
702.332; 1123.525;  301.350;    0.000
702.439; 1123.525;  334.350;    0.000
702.546; 1161.525;  325.350;    0.000
702.652; 1127.525;  343.350;    0.000
702.759; 1201.525;  339.350;    0.000
702.866; 1125.525;  344.350;    0.000
702.973; 1217.525;  330.350;    0.000
703.080; 1174.525;  322.350;    0.000
703.187; 1117.525;  327.350;    0.000
703.294; 1088.525;  339.350;    0.000
703.400; 1050.525;  325.350;    0.000
703.507;  438.525;  372.350;    0.000
703.614;  304.525;  348.350;    0.000
703.720;  358.525;  333.350;    0.000
703.827;  333.525;  331.350;    0.000
703.934;  338.525;  330.350;    0.000
704.040;  290.525;  327.350;    0.000
704.147;  313.525;  327.350;    0.000
704.254;  348.525;  354.350;    0.000
704.360;  314.525;  337.350;    0.000
704.467;  342.525;  370.350;    0.000
704.573;  358.525;  367.350;    0.000
704.680;  334.525;  339.350;    0.000
704.786;  313.525;  356.350;    0.000
704.893;  340.525;  352.350;    0.000
704.999;  318.525;  332.350;    0.000
705.106;  340.525;  359.350;    0.000

