
Integration time [ms]:   1.000
Averaging Nr. [scans]: 1
Smoothing Nr. [pixels]: 0
Data measured with spectrometer [name]: UV2
Wave   ;Sample   ;Dark     ;Reference
[nm]   ;[counts] ;[counts] ;[counts] 

353.533;  220.550;    0.000;    0.000
353.597;  255.550;    0.000;    0.000
353.660;  222.550;    0.000;    0.000
353.723;  214.550;    0.000;    0.000
353.786;  195.550;    0.000;    0.000
353.850;  227.550;    0.000;    0.000
353.913;  203.550;    0.000;    0.000
353.976;  214.550;    0.000;    0.000
354.039;  196.550;    0.000;    0.000
354.102;  253.550;    0.000;    0.000
354.166;  229.550;    0.000;    0.000
354.229;  183.550;    0.000;    0.000
354.292;  208.550;    0.000;    0.000
354.355;  217.550;    0.000;    0.000
354.418;  176.550;    0.000;    0.000
354.481;  218.550;    0.000;    0.000
354.545;  315.550;    0.000;    0.000
354.608;  271.550;    0.000;    0.000
354.671;  282.550;    0.000;    0.000
354.734;  319.550;    0.000;    0.000
354.797;  290.550;    0.000;    0.000
354.860;  325.550;    0.000;    0.000
354.923;  299.550;    0.000;    0.000
354.986;  296.550;    0.000;    0.000
355.050;  275.550;    0.000;    0.000
355.113;  288.550;    0.000;    0.000
355.176;  338.550;    0.000;    0.000
355.239;  303.550;    0.000;    0.000
355.302;  319.550;    0.000;    0.000
355.365;  331.550;    0.000;    0.000
355.428;  277.550;    0.000;    0.000
355.491;  332.550;    0.000;    0.000
355.554;  293.550;    0.000;    0.000
355.617;  305.550;    0.000;    0.000
355.680;  323.550;    0.000;    0.000
355.743;  294.550;    0.000;    0.000
355.806;  273.550;    0.000;    0.000
355.869;  308.550;    0.000;    0.000
355.932;  312.550;    0.000;    0.000
355.995;  309.550;    0.000;    0.000
356.058;  306.550;    0.000;    0.000
356.121;  318.550;    0.000;    0.000
356.184;  291.550;    0.000;    0.000
356.247;  277.550;    0.000;    0.000
356.310;  274.550;    0.000;    0.000
356.373;  348.550;    0.000;    0.000
356.436;  304.550;    0.000;    0.000
356.498;  333.550;    0.000;    0.000
356.561;  368.550;    0.000;    0.000
356.624;  314.550;    0.000;    0.000
356.687;  317.550;    0.000;    0.000
356.750;  315.550;    0.000;    0.000
356.813;  336.550;    0.000;    0.000
356.876;  341.550;    0.000;    0.000
356.939;  380.550;    0.000;    0.000
357.001;  422.550;    0.000;    0.000
357.064;  365.550;    0.000;    0.000
357.127;  337.550;    0.000;    0.000
357.190;  314.550;    0.000;    0.000
357.253;  337.550;    0.000;    0.000
357.316;  344.550;    0.000;    0.000
357.378;  346.550;    0.000;    0.000
357.441;  288.550;    0.000;    0.000
357.504;  292.550;    0.000;    0.000
357.567;  256.550;    0.000;    0.000
357.629;  285.550;    0.000;    0.000
357.692;  266.550;    0.000;    0.000
357.755;  341.550;    0.000;    0.000
357.818;  275.550;    0.000;    0.000
357.880;  317.550;    0.000;    0.000
357.943;  354.550;    0.000;    0.000
358.006;  380.550;    0.000;    0.000
358.069;  426.550;    0.000;    0.000
358.131;  441.550;    0.000;    0.000
358.194;  360.550;    0.000;    0.000
358.257;  314.550;    0.000;    0.000
358.319;  289.550;    0.000;    0.000
358.382;  352.550;    0.000;    0.000
358.445;  326.550;    0.000;    0.000
358.507;  391.550;    0.000;    0.000
358.570;  310.550;    0.000;    0.000
358.633;  322.550;    0.000;    0.000
358.695;  331.550;    0.000;    0.000
358.758;  338.550;    0.000;    0.000
358.821;  291.550;    0.000;    0.000
358.883;  294.550;    0.000;    0.000
358.946;  324.550;    0.000;    0.000
359.008;  303.550;    0.000;    0.000
359.071;  312.550;    0.000;    0.000
359.134;  271.550;    0.000;    0.000
359.196;  268.550;    0.000;    0.000
359.259;  313.550;    0.000;    0.000
359.321;  289.550;    0.000;    0.000
359.384;  317.550;    0.000;    0.000
359.446;  313.550;    0.000;    0.000
359.509;  325.550;    0.000;    0.000
359.571;  314.550;    0.000;    0.000
359.634;  322.550;    0.000;    0.000
359.696;  302.550;    0.000;    0.000
359.759;  270.550;    0.000;    0.000
359.821;  310.550;    0.000;    0.000
359.884;  304.550;    0.000;    0.000
359.946;  360.550;    0.000;    0.000
360.009;  306.550;    0.000;    0.000
360.071;  334.550;    0.000;    0.000
360.134;  322.550;    0.000;    0.000
360.196;  323.550;    0.000;    0.000
360.259;  371.550;    0.000;    0.000
360.321;  312.550;    0.000;    0.000
360.384;  334.550;    0.000;    0.000
360.446;  284.550;    0.000;    0.000
360.508;  333.550;    0.000;    0.000
360.571;  365.550;    0.000;    0.000
360.633;  311.550;    0.000;    0.000
360.696;  272.550;    0.000;    0.000
360.758;  355.550;    0.000;    0.000
360.820;  354.550;    0.000;    0.000
360.883;  358.550;    0.000;    0.000
360.945;  377.550;    0.000;    0.000
361.007;  321.550;    0.000;    0.000
361.070;  353.550;    0.000;    0.000
361.132;  366.550;    0.000;    0.000
361.194;  366.550;    0.000;    0.000
361.257;  312.550;    0.000;    0.000
361.319;  360.550;    0.000;    0.000
361.381;  322.550;    0.000;    0.000
361.443;  312.550;    0.000;    0.000
361.506;  344.550;    0.000;    0.000
361.568;  327.550;    0.000;    0.000
361.630;  335.550;    0.000;    0.000
361.693;  372.550;    0.000;    0.000
361.755;  359.550;    0.000;    0.000
361.817;  437.550;    0.000;    0.000
361.879;  435.550;    0.000;    0.000
361.941;  365.550;    0.000;    0.000
362.004;  389.550;    0.000;    0.000
362.066;  315.550;    0.000;    0.000
362.128;  336.550;    0.000;    0.000
362.190;  367.550;    0.000;    0.000
362.252;  348.550;    0.000;    0.000
362.315;  344.550;    0.000;    0.000
362.377;  365.550;    0.000;    0.000
362.439;  317.550;    0.000;    0.000
362.501;  309.550;    0.000;    0.000
362.563;  361.550;    0.000;    0.000
362.625;  371.550;    0.000;    0.000
362.688;  352.550;    0.000;    0.000
362.750;  362.550;    0.000;    0.000
362.812;  326.550;    0.000;    0.000
362.874;  326.550;    0.000;    0.000
362.936;  351.550;    0.000;    0.000
362.998;  353.550;    0.000;    0.000
363.060;  418.550;    0.000;    0.000
363.122;  410.550;    0.000;    0.000
363.184;  436.550;    0.000;    0.000
363.246;  361.550;    0.000;    0.000
363.308;  396.550;    0.000;    0.000
363.370;  366.550;    0.000;    0.000
363.432;  314.550;    0.000;    0.000
363.494;  355.550;    0.000;    0.000
363.556;  332.550;    0.000;    0.000
363.618;  293.550;    0.000;    0.000
363.680;  358.550;    0.000;    0.000
363.742;  376.550;    0.000;    0.000
363.804;  395.550;    0.000;    0.000
363.866;  375.550;    0.000;    0.000
363.928;  318.550;    0.000;    0.000
363.990;  352.550;    0.000;    0.000
364.052;  339.550;    0.000;    0.000
364.114;  349.550;    0.000;    0.000
364.176;  371.550;    0.000;    0.000
364.238;  384.550;    0.000;    0.000
364.300;  339.550;    0.000;    0.000
364.362;  293.550;    0.000;    0.000
364.424;  302.550;    0.000;    0.000
364.486;  343.550;    0.000;    0.000
364.548;  339.550;    0.000;    0.000
364.609;  341.550;    0.000;    0.000
364.671;  408.550;    0.000;    0.000
364.733;  424.550;    0.000;    0.000
364.795;  393.550;    0.000;    0.000
364.857;  421.550;    0.000;    0.000
364.919;  388.550;    0.000;    0.000
364.981;  397.550;    0.000;    0.000
365.042;  379.550;    0.000;    0.000
365.104;  366.550;    0.000;    0.000
365.166;  356.550;    0.000;    0.000
365.228;  339.550;    0.000;    0.000
365.290;  360.550;    0.000;    0.000
365.351;  365.550;    0.000;    0.000
365.413;  378.550;    0.000;    0.000
365.475;  345.550;    0.000;    0.000
365.537;  321.550;    0.000;    0.000
365.598;  377.550;    0.000;    0.000
365.660;  320.550;    0.000;    0.000
365.722;  360.550;    0.000;    0.000
365.784;  356.550;    0.000;    0.000
365.845;  354.550;    0.000;    0.000
365.907;  344.550;    0.000;    0.000
365.969;  357.550;    0.000;    0.000
366.030;  357.550;    0.000;    0.000
366.092;  353.550;    0.000;    0.000
366.154;  326.550;    0.000;    0.000
366.215;  359.550;    0.000;    0.000
366.277;  378.550;    0.000;    0.000
366.339;  330.550;    0.000;    0.000
366.400;  352.550;    0.000;    0.000
366.462;  332.550;    0.000;    0.000
366.524;  331.550;    0.000;    0.000
366.585;  366.550;    0.000;    0.000
366.647;  368.550;    0.000;    0.000
366.708;  331.550;    0.000;    0.000
366.770;  399.550;    0.000;    0.000
366.832;  383.550;    0.000;    0.000
366.893;  330.550;    0.000;    0.000
366.955;  349.550;    0.000;    0.000
367.016;  375.550;    0.000;    0.000
367.078;  387.550;    0.000;    0.000
367.139;  307.550;    0.000;    0.000
367.201;  316.550;    0.000;    0.000
367.262;  358.550;    0.000;    0.000
367.324;  395.550;    0.000;    0.000
367.385;  297.550;    0.000;    0.000
367.447;  399.550;    0.000;    0.000
367.508;  353.550;    0.000;    0.000
367.570;  356.550;    0.000;    0.000
367.631;  353.550;    0.000;    0.000
367.693;  322.550;    0.000;    0.000
367.754;  377.550;    0.000;    0.000
367.816;  380.550;    0.000;    0.000
367.877;  399.550;    0.000;    0.000
367.939;  380.550;    0.000;    0.000
368.000;  382.550;    0.000;    0.000
368.062;  362.550;    0.000;    0.000
368.123;  367.550;    0.000;    0.000
368.184;  409.550;    0.000;    0.000
368.246;  335.550;    0.000;    0.000
368.307;  432.550;    0.000;    0.000
368.369;  378.550;    0.000;    0.000
368.430;  391.550;    0.000;    0.000
368.491;  464.550;    0.000;    0.000
368.553;  409.550;    0.000;    0.000
368.614;  391.550;    0.000;    0.000
368.675;  402.550;    0.000;    0.000
368.737;  407.550;    0.000;    0.000
368.798;  383.550;    0.000;    0.000
368.859;  392.550;    0.000;    0.000
368.921;  351.550;    0.000;    0.000
368.982;  416.550;    0.000;    0.000
369.043;  385.550;    0.000;    0.000
369.104;  379.550;    0.000;    0.000
369.166;  439.550;    0.000;    0.000
369.227;  351.550;    0.000;    0.000
369.288;  387.550;    0.000;    0.000
369.349;  400.550;    0.000;    0.000
369.411;  431.550;    0.000;    0.000
369.472;  409.550;    0.000;    0.000
369.533;  385.550;    0.000;    0.000
369.594;  391.550;    0.000;    0.000
369.656;  385.550;    0.000;    0.000
369.717;  321.550;    0.000;    0.000
369.778;  406.550;    0.000;    0.000
369.839;  374.550;    0.000;    0.000
369.900;  441.550;    0.000;    0.000
369.961;  390.550;    0.000;    0.000
370.023;  408.550;    0.000;    0.000
370.084;  384.550;    0.000;    0.000
370.145;  414.550;    0.000;    0.000
370.206;  408.550;    0.000;    0.000
370.267;  382.550;    0.000;    0.000
370.328;  405.550;    0.000;    0.000
370.389;  411.550;    0.000;    0.000
370.451;  450.550;    0.000;    0.000
370.512;  465.550;    0.000;    0.000
370.573;  460.550;    0.000;    0.000
370.634;  422.550;    0.000;    0.000
370.695;  429.550;    0.000;    0.000
370.756;  458.550;    0.000;    0.000
370.817;  436.550;    0.000;    0.000
370.878;  487.550;    0.000;    0.000
370.939;  446.550;    0.000;    0.000
371.000;  442.550;    0.000;    0.000
371.061;  418.550;    0.000;    0.000
371.122;  439.550;    0.000;    0.000
371.183;  401.550;    0.000;    0.000
371.244;  446.550;    0.000;    0.000
371.305;  430.550;    0.000;    0.000
371.366;  384.550;    0.000;    0.000
371.427;  427.550;    0.000;    0.000
371.488;  406.550;    0.000;    0.000
371.549;  418.550;    0.000;    0.000
371.610;  432.550;    0.000;    0.000
371.671;  393.550;    0.000;    0.000
371.732;  433.550;    0.000;    0.000
371.793;  438.550;    0.000;    0.000
371.853;  474.550;    0.000;    0.000
371.914;  501.550;    0.000;    0.000
371.975;  590.550;    0.000;    0.000
372.036;  542.550;    0.000;    0.000
372.097;  436.550;    0.000;    0.000
372.158;  400.550;    0.000;    0.000
372.219;  512.550;    0.000;    0.000
372.280;  478.550;    0.000;    0.000
372.340;  456.550;    0.000;    0.000
372.401;  471.550;    0.000;    0.000
372.462;  447.550;    0.000;    0.000
372.523;  393.550;    0.000;    0.000
372.584;  446.550;    0.000;    0.000
372.645;  403.550;    0.000;    0.000
372.705;  567.550;    0.000;    0.000
372.766;  531.550;    0.000;    0.000
372.827;  458.550;    0.000;    0.000
372.888;  420.550;    0.000;    0.000
372.948;  437.550;    0.000;    0.000
373.009;  473.550;    0.000;    0.000
373.070;  445.550;    0.000;    0.000
373.131;  480.550;    0.000;    0.000
373.191;  501.550;    0.000;    0.000
373.252;  486.550;    0.000;    0.000
373.313;  550.550;    0.000;    0.000
373.373;  530.550;    0.000;    0.000
373.434;  767.550;    0.000;    0.000
373.495;  788.550;    0.000;    0.000
373.555;  660.550;    0.000;    0.000
373.616;  580.550;    0.000;    0.000
373.677;  642.550;    0.000;    0.000
373.737;  625.550;    0.000;    0.000
373.798;  511.550;    0.000;    0.000
373.859;  499.550;    0.000;    0.000
373.919;  507.550;    0.000;    0.000
373.980;  462.550;    0.000;    0.000
374.041;  460.550;    0.000;    0.000
374.101;  519.550;    0.000;    0.000
374.162;  471.550;    0.000;    0.000
374.222;  533.550;    0.000;    0.000
374.283;  520.550;    0.000;    0.000
374.343;  561.550;    0.000;    0.000
374.404;  563.550;    0.000;    0.000
374.465;  531.550;    0.000;    0.000
374.525;  634.550;    0.000;    0.000
374.586;  625.550;    0.000;    0.000
374.646;  556.550;    0.000;    0.000
374.707;  585.550;    0.000;    0.000
374.767;  591.550;    0.000;    0.000
374.828;  604.550;    0.000;    0.000
374.888;  752.550;    0.000;    0.000
374.949;  745.550;    0.000;    0.000
375.009;  640.550;    0.000;    0.000
375.070;  527.550;    0.000;    0.000
375.130;  549.550;    0.000;    0.000
375.190;  587.550;    0.000;    0.000
375.251;  532.550;    0.000;    0.000
375.311;  531.550;    0.000;    0.000
375.372;  505.550;    0.000;    0.000
375.432;  522.550;    0.000;    0.000
375.493;  535.550;    0.000;    0.000
375.553;  571.550;    0.000;    0.000
375.613;  529.550;    0.000;    0.000
375.674;  608.550;    0.000;    0.000
375.734;  604.550;    0.000;    0.000
375.794;  685.550;    0.000;    0.000
375.855;  697.550;    0.000;    0.000
375.915;  664.550;    0.000;    0.000
375.975;  569.550;    0.000;    0.000
376.036;  617.550;    0.000;    0.000
376.096;  596.550;    0.000;    0.000
376.156;  582.550;    0.000;    0.000
376.217;  555.550;    0.000;    0.000
376.277;  620.550;    0.000;    0.000
376.337;  698.550;    0.000;    0.000
376.398;  653.550;    0.000;    0.000
376.458;  602.550;    0.000;    0.000
376.518;  605.550;    0.000;    0.000
376.578;  649.550;    0.000;    0.000
376.639;  620.550;    0.000;    0.000
376.699;  700.550;    0.000;    0.000
376.759;  648.550;    0.000;    0.000
376.819;  578.550;    0.000;    0.000
376.880;  616.550;    0.000;    0.000
376.940;  577.550;    0.000;    0.000
377.000;  569.550;    0.000;    0.000
377.060;  605.550;    0.000;    0.000
377.120;  534.550;    0.000;    0.000
377.180;  615.550;    0.000;    0.000
377.241;  566.550;    0.000;    0.000
377.301;  670.550;    0.000;    0.000
377.361;  638.550;    0.000;    0.000
377.421;  618.550;    0.000;    0.000
377.481;  589.550;    0.000;    0.000
377.541;  576.550;    0.000;    0.000
377.601;  670.550;    0.000;    0.000
377.661;  666.550;    0.000;    0.000
377.722;  640.550;    0.000;    0.000
377.782;  668.550;    0.000;    0.000
377.842;  665.550;    0.000;    0.000
377.902;  618.550;    0.000;    0.000
377.962;  592.550;    0.000;    0.000
378.022;  663.550;    0.000;    0.000
378.082;  687.550;    0.000;    0.000
378.142;  696.550;    0.000;    0.000
378.202;  714.550;    0.000;    0.000
378.262;  683.550;    0.000;    0.000
378.322;  741.550;    0.000;    0.000
378.382;  655.550;    0.000;    0.000
378.442;  709.550;    0.000;    0.000
378.502;  724.550;    0.000;    0.000
378.562;  705.550;    0.000;    0.000
378.622;  766.550;    0.000;    0.000
378.682;  763.550;    0.000;    0.000
378.742;  730.550;    0.000;    0.000
378.802;  741.550;    0.000;    0.000
378.862;  796.550;    0.000;    0.000
378.921;  746.550;    0.000;    0.000
378.981;  789.550;    0.000;    0.000
379.041;  774.550;    0.000;    0.000
379.101;  800.550;    0.000;    0.000
379.161;  749.550;    0.000;    0.000
379.221;  804.550;    0.000;    0.000
379.281;  822.550;    0.000;    0.000
379.341;  824.550;    0.000;    0.000
379.401;  843.550;    0.000;    0.000
379.460;  866.550;    0.000;    0.000
379.520;  827.550;    0.000;    0.000
379.580;  850.550;    0.000;    0.000
379.640;  883.550;    0.000;    0.000
379.700;  831.550;    0.000;    0.000
379.759;  924.550;    0.000;    0.000
379.819;  843.550;    0.000;    0.000
379.879;  852.550;    0.000;    0.000
379.939;  981.550;    0.000;    0.000
379.999;  829.550;    0.000;    0.000
380.058;  865.550;    0.000;    0.000
380.118;  917.550;    0.000;    0.000
380.178;  937.550;    0.000;    0.000
380.237;  926.550;    0.000;    0.000
380.297;  910.550;    0.000;    0.000
380.357;  924.550;    0.000;    0.000
380.417;  948.550;    0.000;    0.000
380.476;  974.550;    0.000;    0.000
380.536;  976.550;    0.000;    0.000
380.596;  964.550;    0.000;    0.000
380.655; 1019.550;    0.000;    0.000
380.715;  973.550;    0.000;    0.000
380.775; 1002.550;    0.000;    0.000
380.834;  921.550;    0.000;    0.000
380.894; 1019.550;    0.000;    0.000
380.954;  987.550;    0.000;    0.000
381.013; 1010.550;    0.000;    0.000
381.073; 1016.550;    0.000;    0.000
381.132; 1050.550;    0.000;    0.000
381.192; 1069.550;    0.000;    0.000
381.252; 1103.550;    0.000;    0.000
381.311; 1116.550;    0.000;    0.000
381.371; 1087.550;    0.000;    0.000
381.430; 1134.550;    0.000;    0.000
381.490; 1150.550;    0.000;    0.000
381.549; 1249.550;    0.000;    0.000
381.609; 1333.550;    0.000;    0.000
381.668; 1195.550;    0.000;    0.000
381.728; 1232.550;    0.000;    0.000
381.787; 1186.550;    0.000;    0.000
381.847; 1210.550;    0.000;    0.000
381.906; 1302.550;    0.000;    0.000
381.966; 1475.550;    0.000;    0.000
382.025; 1547.550;    0.000;    0.000
382.085; 1432.550;    0.000;    0.000
382.144; 1392.550;    0.000;    0.000
382.204; 1376.550;    0.000;    0.000
382.263; 1311.550;    0.000;    0.000
382.323; 1409.550;    0.000;    0.000
382.382; 1501.550;    0.000;    0.000
382.441; 1583.550;    0.000;    0.000
382.501; 1753.550;    0.000;    0.000
382.560; 1865.550;    0.000;    0.000
382.619; 1944.550;    0.000;    0.000
382.679; 1924.550;    0.000;    0.000
382.738; 2199.550;    0.000;    0.000
382.798; 2444.550;    0.000;    0.000
382.857; 2744.550;    0.000;    0.000
382.916; 2933.550;    0.000;    0.000
382.976; 2755.550;    0.000;    0.000
383.035; 2763.550;    0.000;    0.000
383.094; 3037.550;    0.000;    0.000
383.154; 3511.550;    0.000;    0.000
383.213; 3772.550;    0.000;    0.000
383.272; 3339.550;    0.000;    0.000
383.331; 2731.550;    0.000;    0.000
383.391; 2644.550;    0.000;    0.000
383.450; 2525.550;    0.000;    0.000
383.509; 2509.550;    0.000;    0.000
383.568; 2741.550;    0.000;    0.000
383.628; 2947.550;    0.000;    0.000
383.687; 3259.550;    0.000;    0.000
383.746; 3962.550;    0.000;    0.000
383.805; 4294.550;    0.000;    0.000
383.864; 3646.550;    0.000;    0.000
383.924; 2793.550;    0.000;    0.000
383.983; 2387.550;    0.000;    0.000
384.042; 2132.550;    0.000;    0.000
384.101; 1922.550;    0.000;    0.000
384.160; 1830.550;    0.000;    0.000
384.219; 1636.550;    0.000;    0.000
384.279; 1565.550;    0.000;    0.000
384.338; 1457.550;    0.000;    0.000
384.397; 1410.550;    0.000;    0.000
384.456; 1430.550;    0.000;    0.000
384.515; 1397.550;    0.000;    0.000
384.574; 1336.550;    0.000;    0.000
384.633; 1310.550;    0.000;    0.000
384.692; 1238.550;    0.000;    0.000
384.751; 1328.550;    0.000;    0.000
384.810; 1336.550;    0.000;    0.000
384.869; 1331.550;    0.000;    0.000
384.929; 1248.550;    0.000;    0.000
384.988; 1312.550;    0.000;    0.000
385.047; 1253.550;    0.000;    0.000
385.106; 1195.550;    0.000;    0.000
385.165; 1279.550;    0.000;    0.000
385.224; 1221.550;    0.000;    0.000
385.283; 1259.550;    0.000;    0.000
385.342; 1248.550;    0.000;    0.000
385.401; 1209.550;    0.000;    0.000
385.459; 1223.550;    0.000;    0.000
385.518; 1282.550;    0.000;    0.000
385.577; 1317.550;    0.000;    0.000
385.636; 1273.550;    0.000;    0.000
385.695; 1268.550;    0.000;    0.000
385.754; 1261.550;    0.000;    0.000
385.813; 1194.550;    0.000;    0.000
385.872; 1240.550;    0.000;    0.000
385.931; 1366.550;    0.000;    0.000
385.990; 1369.550;    0.000;    0.000
386.049; 1310.550;    0.000;    0.000
386.107; 1204.550;    0.000;    0.000
386.166; 1195.550;    0.000;    0.000
386.225; 1198.550;    0.000;    0.000
386.284; 1134.550;    0.000;    0.000
386.343; 1184.550;    0.000;    0.000
386.402; 1121.550;    0.000;    0.000
386.460; 1101.550;    0.000;    0.000
386.519; 1110.550;    0.000;    0.000
386.578; 1146.550;    0.000;    0.000
386.637; 1113.550;    0.000;    0.000
386.696; 1094.550;    0.000;    0.000
386.754; 1066.550;    0.000;    0.000
386.813; 1116.550;    0.000;    0.000
386.872; 1078.550;    0.000;    0.000
386.931; 1068.550;    0.000;    0.000
386.989; 1084.550;    0.000;    0.000
387.048; 1014.550;    0.000;    0.000
387.107; 1101.550;    0.000;    0.000
387.165; 1054.550;    0.000;    0.000
387.224; 1065.550;    0.000;    0.000
387.283; 1113.550;    0.000;    0.000
387.342; 1064.550;    0.000;    0.000
387.400; 1040.550;    0.000;    0.000
387.459;  972.550;    0.000;    0.000
387.517; 1046.550;    0.000;    0.000
387.576; 1004.550;    0.000;    0.000
387.635; 1001.550;    0.000;    0.000
387.693; 1013.550;    0.000;    0.000
387.752; 1041.550;    0.000;    0.000
387.811; 1036.550;    0.000;    0.000
387.869; 1065.550;    0.000;    0.000
387.928;  950.550;    0.000;    0.000
387.986;  946.550;    0.000;    0.000
388.045;  894.550;    0.000;    0.000
388.103;  907.550;    0.000;    0.000
388.162;  910.550;    0.000;    0.000
388.221;  908.550;    0.000;    0.000
388.279;  950.550;    0.000;    0.000
388.338;  914.550;    0.000;    0.000
388.396;  927.550;    0.000;    0.000
388.455;  924.550;    0.000;    0.000
388.513;  941.550;    0.000;    0.000
388.572;  990.550;    0.000;    0.000
388.630;  980.550;    0.000;    0.000
388.689;  971.550;    0.000;    0.000
388.747;  915.550;    0.000;    0.000
388.806;  944.550;    0.000;    0.000
388.864;  842.550;    0.000;    0.000
388.922;  895.550;    0.000;    0.000
388.981;  833.550;    0.000;    0.000
389.039;  859.550;    0.000;    0.000
389.098;  879.550;    0.000;    0.000
389.156;  914.550;    0.000;    0.000
389.214;  857.550;    0.000;    0.000
389.273;  856.550;    0.000;    0.000
389.331;  921.550;    0.000;    0.000
389.390;  839.550;    0.000;    0.000
389.448;  854.550;    0.000;    0.000
389.506;  920.550;    0.000;    0.000
389.565;  939.550;    0.000;    0.000
389.623;  934.550;    0.000;    0.000
389.681;  901.550;    0.000;    0.000
389.740;  868.550;    0.000;    0.000
389.798;  865.550;    0.000;    0.000
389.856;  867.550;    0.000;    0.000
389.914;  898.550;    0.000;    0.000
389.973;  868.550;    0.000;    0.000
390.031;  891.550;    0.000;    0.000
390.089;  878.550;    0.000;    0.000
390.147;  835.550;    0.000;    0.000
390.206;  870.550;    0.000;    0.000
390.264;  883.550;    0.000;    0.000
390.322;  891.550;    0.000;    0.000
390.380;  806.550;    0.000;    0.000
390.439;  865.550;    0.000;    0.000
390.497; 1056.550;    0.000;    0.000
390.555; 1141.550;    0.000;    0.000
390.613; 1037.550;    0.000;    0.000
390.671;  944.550;    0.000;    0.000
390.729;  832.550;    0.000;    0.000
390.788;  855.550;    0.000;    0.000
390.846;  730.550;    0.000;    0.000
390.904;  818.550;    0.000;    0.000
390.962;  767.550;    0.000;    0.000
391.020;  845.550;    0.000;    0.000
391.078;  809.550;    0.000;    0.000
391.136;  784.550;    0.000;    0.000
391.194;  768.550;    0.000;    0.000
391.253;  799.550;    0.000;    0.000
391.311;  774.550;    0.000;    0.000
391.369;  790.550;    0.000;    0.000
391.427;  773.550;    0.000;    0.000
391.485;  763.550;    0.000;    0.000
391.543;  779.550;    0.000;    0.000
391.601;  774.550;    0.000;    0.000
391.659;  774.550;    0.000;    0.000
391.717;  752.550;    0.000;    0.000
391.775;  757.550;    0.000;    0.000
391.833;  749.550;    0.000;    0.000
391.891;  702.550;    0.000;    0.000
391.949;  754.550;    0.000;    0.000
392.007;  791.550;    0.000;    0.000
392.065;  752.550;    0.000;    0.000
392.123;  712.550;    0.000;    0.000
392.180;  712.550;    0.000;    0.000
392.238;  778.550;    0.000;    0.000
392.296;  761.550;    0.000;    0.000
392.354;  785.550;    0.000;    0.000
392.412;  777.550;    0.000;    0.000
392.470;  759.550;    0.000;    0.000
392.528;  768.550;    0.000;    0.000
392.586;  772.550;    0.000;    0.000
392.644;  712.550;    0.000;    0.000
392.701;  788.550;    0.000;    0.000
392.759;  843.550;    0.000;    0.000
392.817;  871.550;    0.000;    0.000
392.875;  881.550;    0.000;    0.000
392.933;  827.550;    0.000;    0.000
392.991;  909.550;    0.000;    0.000
393.048;  945.550;    0.000;    0.000
393.106; 1025.550;    0.000;    0.000
393.164; 1088.550;    0.000;    0.000
393.222; 1441.550;    0.000;    0.000
393.279; 2200.550;    0.000;    0.000
393.337; 2604.550;    0.000;    0.000
393.395; 2076.550;    0.000;    0.000
393.453; 1273.550;    0.000;    0.000
393.510;  988.550;    0.000;    0.000
393.568;  879.550;    0.000;    0.000
393.626;  819.550;    0.000;    0.000
393.684;  809.550;    0.000;    0.000
393.741;  856.550;    0.000;    0.000
393.799;  819.550;    0.000;    0.000
393.857;  747.550;    0.000;    0.000
393.914;  741.550;    0.000;    0.000
393.972;  758.550;    0.000;    0.000
394.030;  741.550;    0.000;    0.000
394.087;  713.550;    0.000;    0.000
394.145;  763.550;    0.000;    0.000
394.202;  754.550;    0.000;    0.000
394.260;  776.550;    0.000;    0.000
394.318;  926.550;    0.000;    0.000
394.375; 1056.550;    0.000;    0.000
394.433; 1071.550;    0.000;    0.000
394.490;  806.550;    0.000;    0.000
394.548;  747.550;    0.000;    0.000
394.605;  778.550;    0.000;    0.000
394.663;  723.550;    0.000;    0.000
394.720;  735.550;    0.000;    0.000
394.778;  778.550;    0.000;    0.000
394.836;  741.550;    0.000;    0.000
394.893;  736.550;    0.000;    0.000
394.951;  719.550;    0.000;    0.000
395.008;  697.550;    0.000;    0.000
395.065;  662.550;    0.000;    0.000
395.123;  656.550;    0.000;    0.000
395.180;  703.550;    0.000;    0.000
395.238;  711.550;    0.000;    0.000
395.295;  756.550;    0.000;    0.000
395.353;  702.550;    0.000;    0.000
395.410;  639.550;    0.000;    0.000
395.468;  721.550;    0.000;    0.000
395.525;  711.550;    0.000;    0.000
395.582;  723.550;    0.000;    0.000
395.640;  768.550;    0.000;    0.000
395.697;  749.550;    0.000;    0.000
395.754;  726.550;    0.000;    0.000
395.812;  721.550;    0.000;    0.000
395.869;  747.550;    0.000;    0.000
395.927;  703.550;    0.000;    0.000
395.984;  774.550;    0.000;    0.000
396.041;  894.550;    0.000;    0.000
396.098; 1220.550;    0.000;    0.000
396.156; 1297.550;    0.000;    0.000
396.213; 1147.550;    0.000;    0.000
396.270;  950.550;    0.000;    0.000
396.328;  860.550;    0.000;    0.000
396.385;  849.550;    0.000;    0.000
396.442;  768.550;    0.000;    0.000
396.499;  787.550;    0.000;    0.000
396.557;  814.550;    0.000;    0.000
396.614;  963.550;    0.000;    0.000
396.671; 1014.550;    0.000;    0.000
396.728; 1379.550;    0.000;    0.000
396.785; 1871.550;    0.000;    0.000
396.843; 1938.550;    0.000;    0.000
396.900; 1535.550;    0.000;    0.000
396.957;  996.550;    0.000;    0.000
397.014;  899.550;    0.000;    0.000
397.071;  815.550;    0.000;    0.000
397.128;  812.550;    0.000;    0.000
397.186;  767.550;    0.000;    0.000
397.243;  729.550;    0.000;    0.000
397.300;  735.550;    0.000;    0.000
397.357;  697.550;    0.000;    0.000
397.414;  801.550;    0.000;    0.000
397.471;  703.550;    0.000;    0.000
397.528;  656.550;    0.000;    0.000
397.585;  699.550;    0.000;    0.000
397.642;  728.550;    0.000;    0.000
397.699;  768.550;    0.000;    0.000
397.756;  665.550;    0.000;    0.000
397.814;  713.550;    0.000;    0.000
397.871;  673.550;    0.000;    0.000
397.928;  707.550;    0.000;    0.000
397.985;  707.550;    0.000;    0.000
398.042;  718.550;    0.000;    0.000
398.099;  734.550;    0.000;    0.000
398.156;  702.550;    0.000;    0.000
398.212;  717.550;    0.000;    0.000
398.269;  735.550;    0.000;    0.000
398.326;  678.550;    0.000;    0.000
398.383;  706.550;    0.000;    0.000
398.440;  662.550;    0.000;    0.000
398.497;  728.550;    0.000;    0.000
398.554;  685.550;    0.000;    0.000
398.611;  696.550;    0.000;    0.000
398.668;  670.550;    0.000;    0.000
398.725;  682.550;    0.000;    0.000
398.782;  715.550;    0.000;    0.000
398.839;  724.550;    0.000;    0.000
398.895;  713.550;    0.000;    0.000
398.952;  686.550;    0.000;    0.000
399.009;  676.550;    0.000;    0.000
399.066;  731.550;    0.000;    0.000
399.123;  699.550;    0.000;    0.000
399.180;  716.550;    0.000;    0.000
399.236;  728.550;    0.000;    0.000
399.293;  701.550;    0.000;    0.000
399.350;  755.550;    0.000;    0.000
399.407;  775.550;    0.000;    0.000
399.463;  689.550;    0.000;    0.000
399.520;  715.550;    0.000;    0.000
399.577;  658.550;    0.000;    0.000
399.634;  797.550;    0.000;    0.000
399.690;  747.550;    0.000;    0.000
399.747;  780.550;    0.000;    0.000
399.804;  801.550;    0.000;    0.000
399.861;  776.550;    0.000;    0.000
399.917;  744.550;    0.000;    0.000
399.974;  725.550;    0.000;    0.000
400.031;  745.550;    0.000;    0.000
400.087;  724.550;    0.000;    0.000
400.144;  761.550;    0.000;    0.000
400.201;  695.550;    0.000;    0.000
400.257;  738.550;    0.000;    0.000
400.314;  760.550;    0.000;    0.000
400.370;  751.550;    0.000;    0.000
400.427;  762.550;    0.000;    0.000
400.484;  713.550;    0.000;    0.000
400.540;  776.550;    0.000;    0.000
400.597;  757.550;    0.000;    0.000
400.653;  745.550;    0.000;    0.000
400.710;  714.550;    0.000;    0.000
400.766;  750.550;    0.000;    0.000
400.823;  723.550;    0.000;    0.000
400.879;  714.550;    0.000;    0.000
400.936;  690.550;    0.000;    0.000
400.993;  636.550;    0.000;    0.000
401.049;  730.550;    0.000;    0.000
401.105;  725.550;    0.000;    0.000
401.162;  710.550;    0.000;    0.000
401.218;  730.550;    0.000;    0.000
401.275;  695.550;    0.000;    0.000
401.331;  698.550;    0.000;    0.000
401.388;  690.550;    0.000;    0.000
401.444;  736.550;    0.000;    0.000
401.501;  700.550;    0.000;    0.000
401.557;  679.550;    0.000;    0.000
401.614;  670.550;    0.000;    0.000
401.670;  690.550;    0.000;    0.000
401.726;  683.550;    0.000;    0.000
401.783;  653.550;    0.000;    0.000
401.839;  693.550;    0.000;    0.000
401.895;  730.550;    0.000;    0.000
401.952;  640.550;    0.000;    0.000
402.008;  661.550;    0.000;    0.000
402.064;  668.550;    0.000;    0.000
402.121;  722.550;    0.000;    0.000
402.177;  682.550;    0.000;    0.000
402.233;  701.550;    0.000;    0.000
402.290;  646.550;    0.000;    0.000
402.346;  689.550;    0.000;    0.000
402.402;  664.550;    0.000;    0.000
402.458;  682.550;    0.000;    0.000
402.515;  688.550;    0.000;    0.000
402.571;  706.550;    0.000;    0.000
402.627;  670.550;    0.000;    0.000
402.683;  665.550;    0.000;    0.000
402.740;  636.550;    0.000;    0.000
402.796;  663.550;    0.000;    0.000
402.852;  708.550;    0.000;    0.000
402.908;  712.550;    0.000;    0.000
402.964;  714.550;    0.000;    0.000
403.021;  753.550;    0.000;    0.000
403.077;  761.550;    0.000;    0.000
403.133;  723.550;    0.000;    0.000
403.189;  739.550;    0.000;    0.000
403.245;  714.550;    0.000;    0.000
403.301;  772.550;    0.000;    0.000
403.357;  732.550;    0.000;    0.000
403.414;  729.550;    0.000;    0.000
403.470;  735.550;    0.000;    0.000
403.526;  690.550;    0.000;    0.000
403.582;  733.550;    0.000;    0.000
403.638;  703.550;    0.000;    0.000
403.694;  678.550;    0.000;    0.000
403.750;  723.550;    0.000;    0.000
403.806;  708.550;    0.000;    0.000
403.862;  714.550;    0.000;    0.000
403.918;  767.550;    0.000;    0.000
403.974;  660.550;    0.000;    0.000
404.030;  635.550;    0.000;    0.000
404.086;  635.550;    0.000;    0.000
404.142;  746.550;    0.000;    0.000
404.198;  731.550;    0.000;    0.000
404.254;  719.550;    0.000;    0.000
404.310;  663.550;    0.000;    0.000
404.366;  723.550;    0.000;    0.000
404.422;  772.550;    0.000;    0.000
404.478;  821.550;    0.000;    0.000
404.534; 1189.550;    0.000;    0.000
404.590; 1133.550;    0.000;    0.000
404.646;  913.550;    0.000;    0.000
404.701;  741.550;    0.000;    0.000
404.757;  720.550;    0.000;    0.000
404.813;  670.550;    0.000;    0.000
404.869;  710.550;    0.000;    0.000
404.925;  698.550;    0.000;    0.000
404.981;  704.550;    0.000;    0.000
405.037;  725.550;    0.000;    0.000
405.092;  702.550;    0.000;    0.000
405.148;  698.550;    0.000;    0.000
405.204;  706.550;    0.000;    0.000
405.260;  651.550;    0.000;    0.000
405.316;  662.550;    0.000;    0.000
405.371;  700.550;    0.000;    0.000
405.427;  738.550;    0.000;    0.000
405.483;  730.550;    0.000;    0.000
405.539;  667.550;    0.000;    0.000
405.594;  758.550;    0.000;    0.000
405.650;  661.550;    0.000;    0.000
405.706;  680.550;    0.000;    0.000
405.761;  728.550;    0.000;    0.000
405.817;  643.550;    0.000;    0.000
405.873;  678.550;    0.000;    0.000
405.928;  762.550;    0.000;    0.000
405.984;  799.550;    0.000;    0.000
406.040;  753.550;    0.000;    0.000
406.095;  661.550;    0.000;    0.000
406.151;  724.550;    0.000;    0.000
406.207;  784.550;    0.000;    0.000
406.262;  901.550;    0.000;    0.000
406.318; 1002.550;    0.000;    0.000
406.374;  968.550;    0.000;    0.000
406.429;  877.550;    0.000;    0.000
406.485;  803.550;    0.000;    0.000
406.540;  782.550;    0.000;    0.000
406.596;  740.550;    0.000;    0.000
406.651;  763.550;    0.000;    0.000
406.707;  734.550;    0.000;    0.000
406.763;  765.550;    0.000;    0.000
406.818;  778.550;    0.000;    0.000
406.874;  733.550;    0.000;    0.000
406.929;  753.550;    0.000;    0.000
406.985;  756.550;    0.000;    0.000
407.040;  816.550;    0.000;    0.000
407.095;  904.550;    0.000;    0.000
407.151; 1032.550;    0.000;    0.000
407.206; 1018.550;    0.000;    0.000
407.262;  833.550;    0.000;    0.000
407.317;  765.550;    0.000;    0.000
407.373;  845.550;    0.000;    0.000
407.428;  771.550;    0.000;    0.000
407.484;  838.550;    0.000;    0.000
407.539;  824.550;    0.000;    0.000
407.594;  862.550;    0.000;    0.000
407.650;  786.550;    0.000;    0.000
407.705;  787.550;    0.000;    0.000
407.760;  828.550;    0.000;    0.000
407.816;  815.550;    0.000;    0.000
407.871;  834.550;    0.000;    0.000
407.926;  794.550;    0.000;    0.000
407.982;  843.550;    0.000;    0.000
408.037;  803.550;    0.000;    0.000
408.092;  797.550;    0.000;    0.000
408.148;  814.550;    0.000;    0.000
408.203;  784.550;    0.000;    0.000
408.258;  783.550;    0.000;    0.000
408.314;  811.550;    0.000;    0.000
408.369;  790.550;    0.000;    0.000
408.424;  796.550;    0.000;    0.000
408.479;  827.550;    0.000;    0.000
408.534;  831.550;    0.000;    0.000
408.590;  757.550;    0.000;    0.000
408.645;  780.550;    0.000;    0.000
408.700;  777.550;    0.000;    0.000
408.755;  851.550;    0.000;    0.000
408.810;  727.550;    0.000;    0.000
408.866;  766.550;    0.000;    0.000
408.921;  781.550;    0.000;    0.000
408.976;  752.550;    0.000;    0.000
409.031;  779.550;    0.000;    0.000
409.086;  735.550;    0.000;    0.000
409.141;  820.550;    0.000;    0.000
409.196;  798.550;    0.000;    0.000
409.252;  787.550;    0.000;    0.000
409.307;  777.550;    0.000;    0.000
409.362;  767.550;    0.000;    0.000
409.417;  757.550;    0.000;    0.000
409.472;  796.550;    0.000;    0.000
409.527;  791.550;    0.000;    0.000
409.582;  784.550;    0.000;    0.000
409.637;  749.550;    0.000;    0.000
409.692;  790.550;    0.000;    0.000
409.747;  719.550;    0.000;    0.000
409.802;  795.550;    0.000;    0.000
409.857;  749.550;    0.000;    0.000
409.912;  820.550;    0.000;    0.000
409.967;  744.550;    0.000;    0.000
410.022;  769.550;    0.000;    0.000
410.077;  777.550;    0.000;    0.000
410.132;  772.550;    0.000;    0.000
410.187;  749.550;    0.000;    0.000
410.242;  779.550;    0.000;    0.000
410.297;  796.550;    0.000;    0.000
410.351;  786.550;    0.000;    0.000
410.406;  783.550;    0.000;    0.000
410.461;  790.550;    0.000;    0.000
410.516;  747.550;    0.000;    0.000
410.571;  827.550;    0.000;    0.000
410.626;  788.550;    0.000;    0.000
410.681;  871.550;    0.000;    0.000
410.736;  794.550;    0.000;    0.000
410.790;  783.550;    0.000;    0.000
410.845;  839.550;    0.000;    0.000
410.900;  799.550;    0.000;    0.000
410.955;  825.550;    0.000;    0.000
411.010;  856.550;    0.000;    0.000
411.064;  805.550;    0.000;    0.000
411.119;  829.550;    0.000;    0.000
411.174;  833.550;    0.000;    0.000
411.229;  838.550;    0.000;    0.000
411.283;  867.550;    0.000;    0.000
411.338;  814.550;    0.000;    0.000
411.393;  790.550;    0.000;    0.000
411.447;  808.550;    0.000;    0.000
411.502;  886.550;    0.000;    0.000
411.557;  849.550;    0.000;    0.000
411.612;  866.550;    0.000;    0.000
411.666;  808.550;    0.000;    0.000
411.721;  807.550;    0.000;    0.000
411.776;  854.550;    0.000;    0.000
411.830;  880.550;    0.000;    0.000
411.885;  822.550;    0.000;    0.000
411.939;  891.550;    0.000;    0.000
411.994;  829.550;    0.000;    0.000
412.049;  846.550;    0.000;    0.000
412.103;  899.550;    0.000;    0.000
412.158;  920.550;    0.000;    0.000
412.212;  845.550;    0.000;    0.000
412.267;  896.550;    0.000;    0.000
412.322; 1006.550;    0.000;    0.000
412.376;  939.550;    0.000;    0.000
412.431;  845.550;    0.000;    0.000
412.485;  932.550;    0.000;    0.000
412.540;  909.550;    0.000;    0.000
412.594;  902.550;    0.000;    0.000
412.649;  941.550;    0.000;    0.000
412.703;  906.550;    0.000;    0.000
412.758;  937.550;    0.000;    0.000
412.812;  888.550;    0.000;    0.000
412.866;  928.550;    0.000;    0.000
412.921;  936.550;    0.000;    0.000
412.975;  918.550;    0.000;    0.000
413.030;  934.550;    0.000;    0.000
413.084;  915.550;    0.000;    0.000
413.139;  999.550;    0.000;    0.000
413.193;  979.550;    0.000;    0.000
413.247;  974.550;    0.000;    0.000
413.302;  938.550;    0.000;    0.000
413.356;  923.550;    0.000;    0.000
413.410;  905.550;    0.000;    0.000
413.465;  889.550;    0.000;    0.000
413.519;  904.550;    0.000;    0.000
413.573;  824.550;    0.000;    0.000
413.628;  887.550;    0.000;    0.000
413.682;  880.550;    0.000;    0.000
413.736;  848.550;    0.000;    0.000
413.791;  821.550;    0.000;    0.000
413.845;  899.550;    0.000;    0.000
413.899;  853.550;    0.000;    0.000
413.953;  845.550;    0.000;    0.000
414.008;  795.550;    0.000;    0.000
414.062;  824.550;    0.000;    0.000
414.116;  815.550;    0.000;    0.000
414.170;  848.550;    0.000;    0.000
414.225;  804.550;    0.000;    0.000
414.279;  885.550;    0.000;    0.000
414.333;  979.550;    0.000;    0.000
414.387;  955.550;    0.000;    0.000
414.441;  839.550;    0.000;    0.000
414.496;  811.550;    0.000;    0.000
414.550;  874.550;    0.000;    0.000
414.604;  817.550;    0.000;    0.000
414.658;  773.550;    0.000;    0.000
414.712;  809.550;    0.000;    0.000
414.766;  823.550;    0.000;    0.000
414.820;  816.550;    0.000;    0.000
414.874;  834.550;    0.000;    0.000
414.928;  822.550;    0.000;    0.000
414.982;  800.550;    0.000;    0.000
415.037;  805.550;    0.000;    0.000
415.091;  795.550;    0.000;    0.000
415.145;  826.550;    0.000;    0.000
415.199;  798.550;    0.000;    0.000
415.253;  807.550;    0.000;    0.000
415.307;  796.550;    0.000;    0.000
415.361;  845.550;    0.000;    0.000
415.415;  834.550;    0.000;    0.000
415.469;  868.550;    0.000;    0.000
415.523;  837.550;    0.000;    0.000
415.577;  781.550;    0.000;    0.000
415.631;  816.550;    0.000;    0.000
415.684;  834.550;    0.000;    0.000
415.738;  811.550;    0.000;    0.000
415.792;  812.550;    0.000;    0.000
415.846;  808.550;    0.000;    0.000
415.900;  789.550;    0.000;    0.000
415.954;  832.550;    0.000;    0.000
416.008;  819.550;    0.000;    0.000
416.062;  777.550;    0.000;    0.000
416.116;  799.550;    0.000;    0.000
416.169;  834.550;    0.000;    0.000
416.223;  849.550;    0.000;    0.000
416.277;  771.550;    0.000;    0.000
416.331;  768.550;    0.000;    0.000
416.385;  769.550;    0.000;    0.000
416.439;  802.550;    0.000;    0.000
416.492;  832.550;    0.000;    0.000
416.546;  809.550;    0.000;    0.000
416.600;  811.550;    0.000;    0.000
416.654;  822.550;    0.000;    0.000
416.707;  782.550;    0.000;    0.000
416.761;  813.550;    0.000;    0.000
416.815;  806.550;    0.000;    0.000
416.869;  793.550;    0.000;    0.000
416.922;  792.550;    0.000;    0.000
416.976;  754.550;    0.000;    0.000
417.030;  768.550;    0.000;    0.000
417.083;  748.550;    0.000;    0.000
417.137;  810.550;    0.000;    0.000
417.191;  769.550;    0.000;    0.000
417.244;  826.550;    0.000;    0.000
417.298;  761.550;    0.000;    0.000
417.352;  775.550;    0.000;    0.000
417.405;  802.550;    0.000;    0.000
417.459;  786.550;    0.000;    0.000
417.512;  836.550;    0.000;    0.000
417.566;  818.550;    0.000;    0.000
417.620;  811.550;    0.000;    0.000
417.673;  754.550;    0.000;    0.000
417.727;  774.550;    0.000;    0.000
417.780;  815.550;    0.000;    0.000
417.834;  804.550;    0.000;    0.000
417.887;  765.550;    0.000;    0.000
417.941;  836.550;    0.000;    0.000
417.994;  778.550;    0.000;    0.000
418.048;  829.550;    0.000;    0.000
418.101;  795.550;    0.000;    0.000
418.155;  830.550;    0.000;    0.000
418.208;  827.550;    0.000;    0.000
418.262;  830.550;    0.000;    0.000
418.315;  774.550;    0.000;    0.000
418.369;  759.550;    0.000;    0.000
418.422;  780.550;    0.000;    0.000
418.476;  805.550;    0.000;    0.000
418.529;  840.550;    0.000;    0.000
418.582;  858.550;    0.000;    0.000
418.636;  825.550;    0.000;    0.000
418.689;  781.550;    0.000;    0.000
418.743;  826.550;    0.000;    0.000
418.796;  799.550;    0.000;    0.000
418.849;  804.550;    0.000;    0.000
418.903;  846.550;    0.000;    0.000
418.956;  826.550;    0.000;    0.000
419.009;  852.550;    0.000;    0.000
419.063;  793.550;    0.000;    0.000
419.116;  817.550;    0.000;    0.000
419.169;  844.550;    0.000;    0.000
419.222;  834.550;    0.000;    0.000
419.276;  777.550;    0.000;    0.000
419.329;  786.550;    0.000;    0.000
419.382;  768.550;    0.000;    0.000
419.435;  743.550;    0.000;    0.000
419.489;  806.550;    0.000;    0.000
419.542;  758.550;    0.000;    0.000
419.595;  824.550;    0.000;    0.000
419.648;  765.550;    0.000;    0.000
419.701;  769.550;    0.000;    0.000
419.755;  784.550;    0.000;    0.000
419.808;  834.550;    0.000;    0.000
419.861;  871.550;    0.000;    0.000
419.914;  902.550;    0.000;    0.000
419.967;  840.550;    0.000;    0.000
420.020;  795.550;    0.000;    0.000
420.073;  794.550;    0.000;    0.000
420.127;  847.550;    0.000;    0.000
420.180;  854.550;    0.000;    0.000
420.233;  873.550;    0.000;    0.000
420.286;  793.550;    0.000;    0.000
420.339;  770.550;    0.000;    0.000
420.392;  805.550;    0.000;    0.000
420.445;  798.550;    0.000;    0.000
420.498;  784.550;    0.000;    0.000
420.551;  716.550;    0.000;    0.000
420.604;  792.550;    0.000;    0.000
420.657;  778.550;    0.000;    0.000
420.710;  812.550;    0.000;    0.000
420.763;  785.550;    0.000;    0.000
420.816;  737.550;    0.000;    0.000
420.869;  745.550;    0.000;    0.000
420.922;  734.550;    0.000;    0.000
420.975;  825.550;    0.000;    0.000
421.028;  816.550;    0.000;    0.000
421.081;  772.550;    0.000;    0.000
421.134;  788.550;    0.000;    0.000
421.187;  742.550;    0.000;    0.000
421.239;  778.550;    0.000;    0.000
421.292;  717.550;    0.000;    0.000
421.345;  811.550;    0.000;    0.000
421.398;  749.550;    0.000;    0.000
421.451;  768.550;    0.000;    0.000
421.504;  770.550;    0.000;    0.000
421.557;  778.550;    0.000;    0.000
421.609;  753.550;    0.000;    0.000
421.662;  824.550;    0.000;    0.000
421.715;  751.550;    0.000;    0.000
421.768;  740.550;    0.000;    0.000
421.821;  788.550;    0.000;    0.000
421.873;  766.550;    0.000;    0.000
421.926;  763.550;    0.000;    0.000
421.979;  769.550;    0.000;    0.000
422.032;  763.550;    0.000;    0.000
422.084;  801.550;    0.000;    0.000
422.137;  766.550;    0.000;    0.000
422.190;  743.550;    0.000;    0.000
422.243;  800.550;    0.000;    0.000
422.295;  775.550;    0.000;    0.000
422.348;  804.550;    0.000;    0.000
422.401;  796.550;    0.000;    0.000
422.453;  867.550;    0.000;    0.000
422.506;  819.550;    0.000;    0.000
422.559;  897.550;    0.000;    0.000
422.611; 1279.550;    0.000;    0.000
422.664; 1403.550;    0.000;    0.000
422.716; 1265.550;    0.000;    0.000
422.769;  911.550;    0.000;    0.000
422.822;  804.550;    0.000;    0.000
422.874;  751.550;    0.000;    0.000
422.927;  795.550;    0.000;    0.000
422.979;  714.550;    0.000;    0.000
423.032;  755.550;    0.000;    0.000
423.084;  757.550;    0.000;    0.000
423.137;  759.550;    0.000;    0.000
423.189;  747.550;    0.000;    0.000
423.242;  756.550;    0.000;    0.000
423.294;  785.550;    0.000;    0.000
423.347;  746.550;    0.000;    0.000
423.399;  787.550;    0.000;    0.000
423.452;  747.550;    0.000;    0.000
423.504;  745.550;    0.000;    0.000
423.557;  762.550;    0.000;    0.000
423.609;  806.550;    0.000;    0.000
423.662;  801.550;    0.000;    0.000
423.714;  759.550;    0.000;    0.000
423.766;  730.550;    0.000;    0.000
423.819;  730.550;    0.000;    0.000
423.871;  746.550;    0.000;    0.000
423.923;  738.550;    0.000;    0.000
423.976;  765.550;    0.000;    0.000
424.028;  720.550;    0.000;    0.000
424.081;  758.550;    0.000;    0.000
424.133;  760.550;    0.000;    0.000
424.185;  774.550;    0.000;    0.000
424.238;  748.550;    0.000;    0.000
424.290;  755.550;    0.000;    0.000
424.342;  738.550;    0.000;    0.000
424.394;  783.550;    0.000;    0.000
424.447;  744.550;    0.000;    0.000
424.499;  763.550;    0.000;    0.000
424.551;  765.550;    0.000;    0.000
424.603;  732.550;    0.000;    0.000
424.656;  769.550;    0.000;    0.000
424.708;  727.550;    0.000;    0.000
424.760;  715.550;    0.000;    0.000
424.812;  786.550;    0.000;    0.000
424.864;  775.550;    0.000;    0.000
424.917;  718.550;    0.000;    0.000
424.969;  793.550;    0.000;    0.000
425.021;  839.550;    0.000;    0.000
425.073;  814.550;    0.000;    0.000
425.125;  753.550;    0.000;    0.000
425.177;  780.550;    0.000;    0.000
425.229;  790.550;    0.000;    0.000
425.282;  759.550;    0.000;    0.000
425.334;  752.550;    0.000;    0.000
425.386;  776.550;    0.000;    0.000
425.438;  773.550;    0.000;    0.000
425.490;  726.550;    0.000;    0.000
425.542;  773.550;    0.000;    0.000
425.594;  693.550;    0.000;    0.000
425.646;  731.550;    0.000;    0.000
425.698;  744.550;    0.000;    0.000
425.750;  682.550;    0.000;    0.000
425.802;  728.550;    0.000;    0.000
425.854;  720.550;    0.000;    0.000
425.906;  813.550;    0.000;    0.000
425.958;  797.550;    0.000;    0.000
426.010;  794.550;    0.000;    0.000
426.062;  823.550;    0.000;    0.000
426.114;  829.550;    0.000;    0.000
426.166;  778.550;    0.000;    0.000
426.218;  754.550;    0.000;    0.000
426.270;  766.550;    0.000;    0.000
426.321;  757.550;    0.000;    0.000
426.373;  686.550;    0.000;    0.000
426.425;  752.550;    0.000;    0.000
426.477;  722.550;    0.000;    0.000
426.529;  760.550;    0.000;    0.000
426.581;  744.550;    0.000;    0.000
426.633;  712.550;    0.000;    0.000
426.684;  743.550;    0.000;    0.000
426.736;  734.550;    0.000;    0.000
426.788;  739.550;    0.000;    0.000
426.840;  759.550;    0.000;    0.000
426.892;  705.550;    0.000;    0.000
426.943;  741.550;    0.000;    0.000
426.995;  726.550;    0.000;    0.000
427.047;  753.550;    0.000;    0.000
427.099;  935.550;    0.000;    0.000
427.150; 1032.550;    0.000;    0.000
427.202;  956.550;    0.000;    0.000
427.254;  786.550;    0.000;    0.000
427.306;  730.550;    0.000;    0.000
427.357;  763.550;    0.000;    0.000
427.409;  757.550;    0.000;    0.000
427.461;  709.550;    0.000;    0.000
427.512;  770.550;    0.000;    0.000
427.564;  720.550;    0.000;    0.000
427.616;  697.550;    0.000;    0.000
427.667;  644.550;    0.000;    0.000
427.719;  722.550;    0.000;    0.000
427.770;  704.550;    0.000;    0.000
427.822;  745.550;    0.000;    0.000
427.874;  724.550;    0.000;    0.000
427.925;  685.550;    0.000;    0.000
427.977;  678.550;    0.000;    0.000
428.028;  689.550;    0.000;    0.000
428.080;  700.550;    0.000;    0.000
428.131;  711.550;    0.000;    0.000
428.183;  754.550;    0.000;    0.000
428.234;  748.550;    0.000;    0.000
428.286;  740.550;    0.000;    0.000
428.337;  711.550;    0.000;    0.000
428.389;  699.550;    0.000;    0.000
428.440;  664.550;    0.000;    0.000
428.492;  709.550;    0.000;    0.000
428.543;  725.550;    0.000;    0.000
428.595;  701.550;    0.000;    0.000
428.646;  719.550;    0.000;    0.000
428.697;  719.550;    0.000;    0.000
428.749;  746.550;    0.000;    0.000
428.800;  732.550;    0.000;    0.000
428.852;  660.550;    0.000;    0.000
428.903;  763.550;    0.000;    0.000
428.954;  763.550;    0.000;    0.000
429.006;  684.550;    0.000;    0.000
429.057;  667.550;    0.000;    0.000
429.108;  709.550;    0.000;    0.000
429.160;  663.550;    0.000;    0.000
429.211;  687.550;    0.000;    0.000
429.262;  683.550;    0.000;    0.000
429.314;  705.550;    0.000;    0.000
429.365;  726.550;    0.000;    0.000
429.416;  797.550;    0.000;    0.000
429.467;  743.550;    0.000;    0.000
429.519;  637.550;    0.000;    0.000
429.570;  738.550;    0.000;    0.000
429.621;  660.550;    0.000;    0.000
429.672;  708.550;    0.000;    0.000
429.724;  755.550;    0.000;    0.000
429.775;  728.550;    0.000;    0.000
429.826;  700.550;    0.000;    0.000
429.877;  785.550;    0.000;    0.000
429.928;  737.550;    0.000;    0.000
429.980;  761.550;    0.000;    0.000
430.031;  751.550;    0.000;    0.000
430.082;  777.550;    0.000;    0.000
430.133;  738.550;    0.000;    0.000
430.184;  754.550;    0.000;    0.000
430.235;  780.550;    0.000;    0.000
430.286;  741.550;    0.000;    0.000
430.337;  698.550;    0.000;    0.000
430.388;  636.550;    0.000;    0.000
430.439;  660.550;    0.000;    0.000
430.490;  731.550;    0.000;    0.000
430.542;  716.550;    0.000;    0.000
430.593;  736.550;    0.000;    0.000
430.644;  765.550;    0.000;    0.000
430.695;  781.550;    0.000;    0.000
430.746;  981.550;    0.000;    0.000
430.797;  995.550;    0.000;    0.000
430.848;  915.550;    0.000;    0.000
430.898;  734.550;    0.000;    0.000
430.949;  694.550;    0.000;    0.000
431.000;  716.550;    0.000;    0.000
431.051;  755.550;    0.000;    0.000
431.102;  699.550;    0.000;    0.000
431.153;  724.550;    0.000;    0.000
431.204;  690.550;    0.000;    0.000
431.255;  701.550;    0.000;    0.000
431.306;  679.550;    0.000;    0.000
431.357;  707.550;    0.000;    0.000
431.408;  649.550;    0.000;    0.000
431.458;  718.550;    0.000;    0.000
431.509;  710.550;    0.000;    0.000
431.560;  719.550;    0.000;    0.000
431.611;  667.550;    0.000;    0.000
431.662;  690.550;    0.000;    0.000
431.713;  686.550;    0.000;    0.000
431.763;  712.550;    0.000;    0.000
431.814;  723.550;    0.000;    0.000
431.865;  659.550;    0.000;    0.000
431.916;  672.550;    0.000;    0.000
431.966;  732.550;    0.000;    0.000
432.017;  713.550;    0.000;    0.000
432.068;  751.550;    0.000;    0.000
432.118;  689.550;    0.000;    0.000
432.169;  699.550;    0.000;    0.000
432.220;  691.550;    0.000;    0.000
432.271;  678.550;    0.000;    0.000
432.321;  699.550;    0.000;    0.000
432.372;  684.550;    0.000;    0.000
432.423;  689.550;    0.000;    0.000
432.473;  807.550;    0.000;    0.000
432.524;  958.550;    0.000;    0.000
432.574;  971.550;    0.000;    0.000
432.625;  863.550;    0.000;    0.000
432.676;  744.550;    0.000;    0.000
432.726;  695.550;    0.000;    0.000
432.777;  646.550;    0.000;    0.000
432.827;  727.550;    0.000;    0.000
432.878;  709.550;    0.000;    0.000
432.928;  667.550;    0.000;    0.000
432.979;  711.550;    0.000;    0.000
433.029;  714.550;    0.000;    0.000
433.080;  673.550;    0.000;    0.000
433.130;  720.550;    0.000;    0.000
433.181;  717.550;    0.000;    0.000
433.231;  711.550;    0.000;    0.000
433.282;  672.550;    0.000;    0.000
433.332;  734.550;    0.000;    0.000
433.383;  769.550;    0.000;    0.000
433.433;  726.550;    0.000;    0.000
433.484;  713.550;    0.000;    0.000
433.534;  713.550;    0.000;    0.000
433.585;  706.550;    0.000;    0.000
433.635;  696.550;    0.000;    0.000
433.685;  720.550;    0.000;    0.000
433.736;  730.550;    0.000;    0.000
433.786;  784.550;    0.000;    0.000
433.836;  722.550;    0.000;    0.000
433.887;  747.550;    0.000;    0.000
433.937;  733.550;    0.000;    0.000
433.987;  680.550;    0.000;    0.000
434.038;  739.550;    0.000;    0.000
434.088;  730.550;    0.000;    0.000
434.138;  773.550;    0.000;    0.000
434.189;  728.550;    0.000;    0.000
434.239;  725.550;    0.000;    0.000
434.289;  717.550;    0.000;    0.000
434.339;  760.550;    0.000;    0.000
434.389;  750.550;    0.000;    0.000
434.440;  773.550;    0.000;    0.000
434.490;  756.550;    0.000;    0.000
434.540;  792.550;    0.000;    0.000
434.590;  749.550;    0.000;    0.000
434.640;  682.550;    0.000;    0.000
434.691;  742.550;    0.000;    0.000
434.741;  707.550;    0.000;    0.000
434.791;  727.550;    0.000;    0.000
434.841;  790.550;    0.000;    0.000
434.891;  766.550;    0.000;    0.000
434.941;  724.550;    0.000;    0.000
434.991;  739.550;    0.000;    0.000
435.042;  783.550;    0.000;    0.000
435.092;  748.550;    0.000;    0.000
435.142;  770.550;    0.000;    0.000
435.192;  765.550;    0.000;    0.000
435.242;  771.550;    0.000;    0.000
435.292;  793.550;    0.000;    0.000
435.342;  797.550;    0.000;    0.000
435.392;  734.550;    0.000;    0.000
435.442;  750.550;    0.000;    0.000
435.492;  749.550;    0.000;    0.000
435.542;  702.550;    0.000;    0.000
435.592;  738.550;    0.000;    0.000
435.642;  768.550;    0.000;    0.000
435.692;  714.550;    0.000;    0.000
435.742;  752.550;    0.000;    0.000
435.792;  760.550;    0.000;    0.000
435.842;  744.550;    0.000;    0.000
435.891;  731.550;    0.000;    0.000
435.941;  710.550;    0.000;    0.000
435.991;  735.550;    0.000;    0.000
436.041;  693.550;    0.000;    0.000
436.091;  779.550;    0.000;    0.000
436.141;  647.550;    0.000;    0.000
436.191;  710.550;    0.000;    0.000
436.241;  711.550;    0.000;    0.000
436.290;  756.550;    0.000;    0.000
436.340;  705.550;    0.000;    0.000
436.390;  705.550;    0.000;    0.000
436.440;  718.550;    0.000;    0.000
436.490;  695.550;    0.000;    0.000
436.539;  725.550;    0.000;    0.000
436.589;  694.550;    0.000;    0.000
436.639;  682.550;    0.000;    0.000
436.689;  690.550;    0.000;    0.000
436.738;  703.550;    0.000;    0.000
436.788;  654.550;    0.000;    0.000
436.838;  716.550;    0.000;    0.000
436.887;  718.550;    0.000;    0.000
436.937;  696.550;    0.000;    0.000
436.987;  661.550;    0.000;    0.000
437.036;  708.550;    0.000;    0.000
437.086;  693.550;    0.000;    0.000
437.136;  768.550;    0.000;    0.000
437.185;  739.550;    0.000;    0.000
437.235;  766.550;    0.000;    0.000
437.285;  749.550;    0.000;    0.000
437.334;  758.550;    0.000;    0.000
437.384;  753.550;    0.000;    0.000
437.433;  677.550;    0.000;    0.000
437.483;  720.550;    0.000;    0.000
437.532;  716.550;    0.000;    0.000
437.582;  736.550;    0.000;    0.000
437.631;  714.550;    0.000;    0.000
437.681;  746.550;    0.000;    0.000
437.730;  735.550;    0.000;    0.000
437.780;  677.550;    0.000;    0.000
437.829;  707.550;    0.000;    0.000
437.879;  710.550;    0.000;    0.000
437.928;  684.550;    0.000;    0.000
437.978;  751.550;    0.000;    0.000
438.027;  776.550;    0.000;    0.000
438.077;  675.550;    0.000;    0.000
438.126;  720.550;    0.000;    0.000
438.176;  731.550;    0.000;    0.000
438.225;  839.550;    0.000;    0.000
438.274; 1049.550;    0.000;    0.000
438.324; 1257.550;    0.000;    0.000
438.373; 1151.550;    0.000;    0.000
438.422;  923.550;    0.000;    0.000
438.472;  757.550;    0.000;    0.000
438.521;  758.550;    0.000;    0.000
438.570;  736.550;    0.000;    0.000
438.620;  803.550;    0.000;    0.000
438.669;  731.550;    0.000;    0.000
438.718;  716.550;    0.000;    0.000
438.768;  708.550;    0.000;    0.000
438.817;  721.550;    0.000;    0.000
438.866;  733.550;    0.000;    0.000
438.915;  747.550;    0.000;    0.000
438.965;  703.550;    0.000;    0.000
439.014;  759.550;    0.000;    0.000
439.063;  774.550;    0.000;    0.000
439.112;  700.550;    0.000;    0.000
439.162;  753.550;    0.000;    0.000
439.211;  761.550;    0.000;    0.000
439.260;  785.550;    0.000;    0.000
439.309;  690.550;    0.000;    0.000
439.358;  727.550;    0.000;    0.000
439.407;  756.550;    0.000;    0.000
439.456;  726.550;    0.000;    0.000
439.506;  780.550;    0.000;    0.000
439.555;  718.550;    0.000;    0.000
439.604;  751.550;    0.000;    0.000
439.653;  745.550;    0.000;    0.000
439.702;  736.550;    0.000;    0.000
439.751;  719.550;    0.000;    0.000
439.800;  702.550;    0.000;    0.000
439.849;  705.550;    0.000;    0.000
439.898;  760.550;    0.000;    0.000
439.947;  735.550;    0.000;    0.000
439.996;  753.550;    0.000;    0.000
440.045;  752.550;    0.000;    0.000
440.094;  744.550;    0.000;    0.000
440.143;  723.550;    0.000;    0.000
440.192;  769.550;    0.000;    0.000
440.241;  796.550;    0.000;    0.000
440.290;  777.550;    0.000;    0.000
440.339;  755.550;    0.000;    0.000
440.388;  825.550;    0.000;    0.000
440.437; 1016.550;    0.000;    0.000
440.486;  975.550;    0.000;    0.000
440.535;  938.550;    0.000;    0.000
440.583;  813.550;    0.000;    0.000
440.632;  792.550;    0.000;    0.000
440.681;  735.550;    0.000;    0.000
440.730;  823.550;    0.000;    0.000
440.779;  728.550;    0.000;    0.000
440.828;  750.550;    0.000;    0.000
440.876;  817.550;    0.000;    0.000
440.925;  747.550;    0.000;    0.000
440.974;  745.550;    0.000;    0.000
441.023;  731.550;    0.000;    0.000
441.072;  898.550;    0.000;    0.000
441.120;  810.550;    0.000;    0.000
441.169;  749.550;    0.000;    0.000
441.218;  792.550;    0.000;    0.000
441.267;  791.550;    0.000;    0.000
441.315;  798.550;    0.000;    0.000
441.364;  784.550;    0.000;    0.000
441.413;  868.550;    0.000;    0.000
441.461;  891.550;    0.000;    0.000
441.510;  891.550;    0.000;    0.000
441.559;  822.550;    0.000;    0.000
441.607;  821.550;    0.000;    0.000
441.656;  831.550;    0.000;    0.000
441.705;  821.550;    0.000;    0.000
441.753;  835.550;    0.000;    0.000
441.802;  808.550;    0.000;    0.000
441.850;  778.550;    0.000;    0.000
441.899;  823.550;    0.000;    0.000
441.948;  836.550;    0.000;    0.000
441.996;  809.550;    0.000;    0.000
442.045;  833.550;    0.000;    0.000
442.093;  812.550;    0.000;    0.000
442.142;  855.550;    0.000;    0.000
442.190;  821.550;    0.000;    0.000
442.239;  800.550;    0.000;    0.000
442.287;  804.550;    0.000;    0.000
442.336;  839.550;    0.000;    0.000
442.384;  849.550;    0.000;    0.000
442.433;  854.550;    0.000;    0.000
442.481;  873.550;    0.000;    0.000
442.529;  875.550;    0.000;    0.000
442.578;  845.550;    0.000;    0.000
442.626;  856.550;    0.000;    0.000
442.675;  884.550;    0.000;    0.000
442.723;  814.550;    0.000;    0.000
442.771;  821.550;    0.000;    0.000
442.820;  812.550;    0.000;    0.000
442.868;  825.550;    0.000;    0.000
442.917;  865.550;    0.000;    0.000
442.965;  830.550;    0.000;    0.000
443.013;  878.550;    0.000;    0.000
443.062;  837.550;    0.000;    0.000
443.110;  880.550;    0.000;    0.000
443.158;  846.550;    0.000;    0.000
443.206;  868.550;    0.000;    0.000
443.255;  906.550;    0.000;    0.000
443.303;  898.550;    0.000;    0.000
443.351;  865.550;    0.000;    0.000
443.399;  888.550;    0.000;    0.000
443.448;  883.550;    0.000;    0.000
443.496;  908.550;    0.000;    0.000
443.544;  864.550;    0.000;    0.000
443.592;  896.550;    0.000;    0.000
443.640;  937.550;    0.000;    0.000
443.689;  887.550;    0.000;    0.000
443.737;  893.550;    0.000;    0.000
443.785;  925.550;    0.000;    0.000
443.833;  887.550;    0.000;    0.000
443.881;  874.550;    0.000;    0.000
443.929;  933.550;    0.000;    0.000
443.977;  882.550;    0.000;    0.000
444.025;  864.550;    0.000;    0.000
444.074;  925.550;    0.000;    0.000
444.122;  934.550;    0.000;    0.000
444.170;  924.550;    0.000;    0.000
444.218;  958.550;    0.000;    0.000
444.266;  935.550;    0.000;    0.000
444.314;  968.550;    0.000;    0.000
444.362;  922.550;    0.000;    0.000
444.410;  923.550;    0.000;    0.000
444.458;  968.550;    0.000;    0.000
444.506;  951.550;    0.000;    0.000
444.554;  911.550;    0.000;    0.000
444.602;  930.550;    0.000;    0.000
444.650;  925.550;    0.000;    0.000
444.698;  979.550;    0.000;    0.000
444.746;  977.550;    0.000;    0.000
444.793;  983.550;    0.000;    0.000
444.841; 1042.550;    0.000;    0.000
444.889;  998.550;    0.000;    0.000
444.937;  953.550;    0.000;    0.000
444.985;  946.550;    0.000;    0.000
445.033;  999.550;    0.000;    0.000
445.081;  984.550;    0.000;    0.000
445.129; 1026.550;    0.000;    0.000
445.176;  966.550;    0.000;    0.000
445.224;  974.550;    0.000;    0.000
445.272; 1053.550;    0.000;    0.000
445.320; 1043.550;    0.000;    0.000
445.368; 1030.550;    0.000;    0.000
445.415; 1074.550;    0.000;    0.000
445.463; 1050.550;    0.000;    0.000
445.511; 1050.550;    0.000;    0.000
445.559; 1127.550;    0.000;    0.000
445.606; 1026.550;    0.000;    0.000
445.654; 1020.550;    0.000;    0.000
445.702; 1044.550;    0.000;    0.000
445.749; 1046.550;    0.000;    0.000
445.797; 1089.550;    0.000;    0.000
445.845; 1092.550;    0.000;    0.000
445.892; 1091.550;    0.000;    0.000
445.940; 1089.550;    0.000;    0.000
445.988; 1144.550;    0.000;    0.000
446.035; 1126.550;    0.000;    0.000
446.083; 1115.550;    0.000;    0.000
446.130; 1075.550;    0.000;    0.000
446.178; 1114.550;    0.000;    0.000
446.226; 1115.550;    0.000;    0.000
446.273; 1104.550;    0.000;    0.000
446.321; 1077.550;    0.000;    0.000
446.368; 1123.550;    0.000;    0.000
446.416; 1190.550;    0.000;    0.000
446.463; 1073.550;    0.000;    0.000
446.511; 1143.550;    0.000;    0.000
446.558; 1162.550;    0.000;    0.000
446.606; 1203.550;    0.000;    0.000
446.653; 1178.550;    0.000;    0.000
446.701; 1236.550;    0.000;    0.000
446.748; 1269.550;    0.000;    0.000
446.796; 1234.550;    0.000;    0.000
446.843; 1295.550;    0.000;    0.000
446.891; 1270.550;    0.000;    0.000
446.938; 1271.550;    0.000;    0.000
446.985; 1310.550;    0.000;    0.000
447.033; 1310.550;    0.000;    0.000
447.080; 1331.550;    0.000;    0.000
447.128; 1316.550;    0.000;    0.000
447.175; 1381.550;    0.000;    0.000
447.222; 1354.550;    0.000;    0.000
447.270; 1446.550;    0.000;    0.000
447.317; 1425.550;    0.000;    0.000
447.364; 1433.550;    0.000;    0.000
447.411; 1486.550;    0.000;    0.000
447.459; 1544.550;    0.000;    0.000
447.506; 1498.550;    0.000;    0.000
447.553; 1638.550;    0.000;    0.000
447.601; 1622.550;    0.000;    0.000
447.648; 1620.550;    0.000;    0.000
447.695; 1615.550;    0.000;    0.000
447.742; 1668.550;    0.000;    0.000
447.789; 1772.550;    0.000;    0.000
447.837; 1794.550;    0.000;    0.000
447.884; 1813.550;    0.000;    0.000
447.931; 1833.550;    0.000;    0.000
447.978; 1879.550;    0.000;    0.000
448.025; 1903.550;    0.000;    0.000
448.072; 1922.550;    0.000;    0.000
448.120; 1878.550;    0.000;    0.000
448.167; 1916.550;    0.000;    0.000
448.214; 1853.550;    0.000;    0.000
448.261; 1739.550;    0.000;    0.000
448.308; 1788.550;    0.000;    0.000
448.355; 1734.550;    0.000;    0.000
448.402; 1661.550;    0.000;    0.000
448.449; 1710.550;    0.000;    0.000
448.496; 1659.550;    0.000;    0.000
448.543; 1581.550;    0.000;    0.000
448.590; 1530.550;    0.000;    0.000
448.637; 1516.550;    0.000;    0.000
448.684; 1460.550;    0.000;    0.000
448.731; 1415.550;    0.000;    0.000
448.778; 1456.550;    0.000;    0.000
448.825; 1430.550;    0.000;    0.000
448.872; 1387.550;    0.000;    0.000
448.919; 1411.550;    0.000;    0.000
448.966; 1427.550;    0.000;    0.000
449.013; 1303.550;    0.000;    0.000
449.060; 1388.550;    0.000;    0.000
449.107; 1253.550;    0.000;    0.000
449.154; 1275.550;    0.000;    0.000
449.200; 1265.550;    0.000;    0.000
449.247; 1253.550;    0.000;    0.000
449.294; 1271.550;    0.000;    0.000
449.341; 1242.550;    0.000;    0.000
449.388; 1169.550;    0.000;    0.000
449.435; 1228.550;    0.000;    0.000
449.481; 1252.550;    0.000;    0.000
449.528; 1175.550;    0.000;    0.000
449.575; 1154.550;    0.000;    0.000
449.622; 1130.550;    0.000;    0.000
449.668; 1097.550;    0.000;    0.000
449.715; 1087.550;    0.000;    0.000
449.762; 1083.550;    0.000;    0.000
449.809; 1146.550;    0.000;    0.000
449.855; 1128.550;    0.000;    0.000
449.902; 1130.550;    0.000;    0.000
449.949; 1053.550;    0.000;    0.000
449.995; 1091.550;    0.000;    0.000
450.042; 1018.550;    0.000;    0.000
450.089; 1129.550;    0.000;    0.000
450.135; 1116.550;    0.000;    0.000
450.182; 1002.550;    0.000;    0.000
450.229; 1015.550;    0.000;    0.000
450.275; 1042.550;    0.000;    0.000
450.322; 1058.550;    0.000;    0.000
450.368;  977.550;    0.000;    0.000
450.415; 1038.550;    0.000;    0.000
450.462; 1041.550;    0.000;    0.000
450.508;  992.550;    0.000;    0.000
450.555; 1000.550;    0.000;    0.000
450.601; 1032.550;    0.000;    0.000
450.648;  988.550;    0.000;    0.000
450.694; 1036.550;    0.000;    0.000
450.741;  991.550;    0.000;    0.000
450.787;  975.550;    0.000;    0.000
450.834;  977.550;    0.000;    0.000
450.880;  973.550;    0.000;    0.000
450.927; 1011.550;    0.000;    0.000
450.973;  969.550;    0.000;    0.000
451.019;  989.550;    0.000;    0.000
451.066;  986.550;    0.000;    0.000
451.112;  970.550;    0.000;    0.000
451.159;  917.550;    0.000;    0.000
451.205;  942.550;    0.000;    0.000
451.251;  972.550;    0.000;    0.000
451.298;  928.550;    0.000;    0.000
451.344;  970.550;    0.000;    0.000
451.390;  956.550;    0.000;    0.000
451.437;  914.550;    0.000;    0.000
451.483;  977.550;    0.000;    0.000
451.529;  907.550;    0.000;    0.000
451.576;  904.550;    0.000;    0.000
451.622;  915.550;    0.000;    0.000
451.668;  942.550;    0.000;    0.000
451.714;  950.550;    0.000;    0.000
451.761;  905.550;    0.000;    0.000
451.807;  893.550;    0.000;    0.000
451.853;  923.550;    0.000;    0.000
451.899;  860.550;    0.000;    0.000
451.945;  886.550;    0.000;    0.000
451.992;  886.550;    0.000;    0.000
452.038;  870.550;    0.000;    0.000
452.084;  851.550;    0.000;    0.000
452.130;  933.550;    0.000;    0.000
452.176;  886.550;    0.000;    0.000
452.222;  874.550;    0.000;    0.000
452.268;  856.550;    0.000;    0.000
452.315;  899.550;    0.000;    0.000
452.361;  854.550;    0.000;    0.000
452.407;  862.550;    0.000;    0.000
452.453;  836.550;    0.000;    0.000
452.499;  905.550;    0.000;    0.000
452.545;  869.550;    0.000;    0.000
452.591;  936.550;    0.000;    0.000
452.637;  832.550;    0.000;    0.000
452.683;  863.550;    0.000;    0.000
452.729;  884.550;    0.000;    0.000
452.775;  916.550;    0.000;    0.000
452.821;  841.550;    0.000;    0.000
452.867;  819.550;    0.000;    0.000
452.913;  859.550;    0.000;    0.000
452.959;  837.550;    0.000;    0.000
453.005;  855.550;    0.000;    0.000
453.051;  864.550;    0.000;    0.000
453.097;  803.550;    0.000;    0.000
453.142;  829.550;    0.000;    0.000
453.188;  858.550;    0.000;    0.000
453.234;  867.550;    0.000;    0.000
453.280;  855.550;    0.000;    0.000
453.326;  911.550;    0.000;    0.000
453.372;  846.550;    0.000;    0.000
453.418;  876.550;    0.000;    0.000
453.463;  873.550;    0.000;    0.000
453.509;  949.550;    0.000;    0.000
453.555;  941.550;    0.000;    0.000
453.601;  798.550;    0.000;    0.000
453.647;  879.550;    0.000;    0.000
453.692;  836.550;    0.000;    0.000
453.738;  790.550;    0.000;    0.000
453.784;  858.550;    0.000;    0.000
453.829;  824.550;    0.000;    0.000
453.875;  813.550;    0.000;    0.000
453.921;  765.550;    0.000;    0.000
453.967;  778.550;    0.000;    0.000
454.012;  838.550;    0.000;    0.000
454.058;  801.550;    0.000;    0.000
454.104;  792.550;    0.000;    0.000
454.149;  800.550;    0.000;    0.000
454.195;  804.550;    0.000;    0.000
454.240;  826.550;    0.000;    0.000
454.286;  824.550;    0.000;    0.000
454.332;  803.550;    0.000;    0.000
454.377;  819.550;    0.000;    0.000
454.423;  797.550;    0.000;    0.000
454.468;  796.550;    0.000;    0.000
454.514;  789.550;    0.000;    0.000
454.559;  811.550;    0.000;    0.000
454.605;  793.550;    0.000;    0.000
454.650;  776.550;    0.000;    0.000
454.696;  819.550;    0.000;    0.000
454.741;  814.550;    0.000;    0.000
454.787;  771.550;    0.000;    0.000
454.832;  810.550;    0.000;    0.000
454.878;  821.550;    0.000;    0.000
454.923;  833.550;    0.000;    0.000
454.969;  816.550;    0.000;    0.000
455.014;  813.550;    0.000;    0.000
455.060;  802.550;    0.000;    0.000
455.105;  780.550;    0.000;    0.000
455.150;  820.550;    0.000;    0.000
455.196;  767.550;    0.000;    0.000
455.241;  792.550;    0.000;    0.000
455.286;  786.550;    0.000;    0.000
455.332;  801.550;    0.000;    0.000
455.377;  783.550;    0.000;    0.000
455.422;  783.550;    0.000;    0.000
455.468;  817.550;    0.000;    0.000
455.513;  800.550;    0.000;    0.000
455.558;  704.550;    0.000;    0.000
455.604;  807.550;    0.000;    0.000
455.649;  767.550;    0.000;    0.000
455.694;  718.550;    0.000;    0.000
455.739;  713.550;    0.000;    0.000
455.785;  793.550;    0.000;    0.000
455.830;  775.550;    0.000;    0.000
455.875;  749.550;    0.000;    0.000
455.920;  716.550;    0.000;    0.000
455.965;  764.550;    0.000;    0.000
456.010;  746.550;    0.000;    0.000
456.056;  785.550;    0.000;    0.000
456.101;  766.550;    0.000;    0.000
456.146;  823.550;    0.000;    0.000
456.191;  779.550;    0.000;    0.000
456.236;  750.550;    0.000;    0.000
456.281;  764.550;    0.000;    0.000
456.326;  716.550;    0.000;    0.000
456.371;  769.550;    0.000;    0.000
456.416;  795.550;    0.000;    0.000
456.461;  778.550;    0.000;    0.000
456.507;  749.550;    0.000;    0.000
456.552;  749.550;    0.000;    0.000
456.597;  716.550;    0.000;    0.000
456.642;  761.550;    0.000;    0.000
456.687;  780.550;    0.000;    0.000
456.732;  788.550;    0.000;    0.000
456.776;  768.550;    0.000;    0.000
456.821;  723.550;    0.000;    0.000
456.866;  726.550;    0.000;    0.000
456.911;  691.550;    0.000;    0.000
456.956;  797.550;    0.000;    0.000
457.001;  713.550;    0.000;    0.000
457.046;  751.550;    0.000;    0.000
457.091;  772.550;    0.000;    0.000
457.136;  735.550;    0.000;    0.000
457.181;  748.550;    0.000;    0.000
457.225;  794.550;    0.000;    0.000
457.270;  785.550;    0.000;    0.000
457.315;  789.550;    0.000;    0.000
457.360;  725.550;    0.000;    0.000
457.405;  693.550;    0.000;    0.000
457.450;  792.550;    0.000;    0.000
457.494;  762.550;    0.000;    0.000
457.539;  712.550;    0.000;    0.000
457.584;  764.550;    0.000;    0.000
457.629;  730.550;    0.000;    0.000
457.673;  703.550;    0.000;    0.000
457.718;  730.550;    0.000;    0.000
457.763;  783.550;    0.000;    0.000
457.807;  753.550;    0.000;    0.000
457.852;  716.550;    0.000;    0.000
457.897;  761.550;    0.000;    0.000
457.941;  736.550;    0.000;    0.000
457.986;  797.550;    0.000;    0.000
458.031;  762.550;    0.000;    0.000
458.075;  743.550;    0.000;    0.000
458.120;  764.550;    0.000;    0.000
458.165;  733.550;    0.000;    0.000
458.209;  728.550;    0.000;    0.000
458.254;  756.550;    0.000;    0.000
458.298;  727.550;    0.000;    0.000
458.343;  765.550;    0.000;    0.000
458.387;  766.550;    0.000;    0.000
458.432;  783.550;    0.000;    0.000
458.476;  813.550;    0.000;    0.000
458.521;  719.550;    0.000;    0.000
458.565;  778.550;    0.000;    0.000
458.610;  794.550;    0.000;    0.000
458.654;  753.550;    0.000;    0.000
458.699;  732.550;    0.000;    0.000
458.743;  759.550;    0.000;    0.000
458.788;  788.550;    0.000;    0.000
458.832;  788.550;    0.000;    0.000
458.877;  800.550;    0.000;    0.000
458.921;  695.550;    0.000;    0.000
458.965;  743.550;    0.000;    0.000
459.010;  801.550;    0.000;    0.000
459.054;  797.550;    0.000;    0.000
459.099;  795.550;    0.000;    0.000
459.143;  833.550;    0.000;    0.000
459.187;  777.550;    0.000;    0.000
459.231;  754.550;    0.000;    0.000
459.276;  816.550;    0.000;    0.000
459.320;  803.550;    0.000;    0.000
459.364;  764.550;    0.000;    0.000
459.409;  826.550;    0.000;    0.000
459.453;  806.550;    0.000;    0.000
459.497;  795.550;    0.000;    0.000
459.541;  815.550;    0.000;    0.000
459.586;  765.550;    0.000;    0.000
459.630;  720.550;    0.000;    0.000
459.674;  772.550;    0.000;    0.000
459.718;  739.550;    0.000;    0.000
459.762;  807.550;    0.000;    0.000
459.807;  838.550;    0.000;    0.000
459.851;  781.550;    0.000;    0.000
459.895;  733.550;    0.000;    0.000
459.939;  829.550;    0.000;    0.000
459.983;  731.550;    0.000;    0.000
460.027;  768.550;    0.000;    0.000
460.071;  750.550;    0.000;    0.000
460.115;  834.550;    0.000;    0.000
460.159;  826.550;    0.000;    0.000
460.204;  795.550;    0.000;    0.000
460.248;  859.550;    0.000;    0.000
460.292;  844.550;    0.000;    0.000
460.336;  796.550;    0.000;    0.000
460.380;  756.550;    0.000;    0.000
460.424;  791.550;    0.000;    0.000
460.468;  809.550;    0.000;    0.000
460.512;  827.550;    0.000;    0.000
460.556;  829.550;    0.000;    0.000
460.599;  801.550;    0.000;    0.000
460.643;  773.550;    0.000;    0.000
460.687;  824.550;    0.000;    0.000
460.731;  781.550;    0.000;    0.000
460.775;  748.550;    0.000;    0.000
460.819;  780.550;    0.000;    0.000
460.863;  740.550;    0.000;    0.000
460.907;  745.550;    0.000;    0.000
460.951;  776.550;    0.000;    0.000
460.995;  823.550;    0.000;    0.000
461.038;  789.550;    0.000;    0.000
461.082;  807.550;    0.000;    0.000
461.126;  776.550;    0.000;    0.000
461.170;  751.550;    0.000;    0.000
461.214;  803.550;    0.000;    0.000
461.257;  856.550;    0.000;    0.000
461.301;  821.550;    0.000;    0.000
461.345;  773.550;    0.000;    0.000
461.389;  785.550;    0.000;    0.000
461.432;  815.550;    0.000;    0.000
461.476;  757.550;    0.000;    0.000
461.520;  808.550;    0.000;    0.000
461.563;  794.550;    0.000;    0.000
461.607;  772.550;    0.000;    0.000
461.651;  831.550;    0.000;    0.000
461.694;  746.550;    0.000;    0.000
461.738;  815.550;    0.000;    0.000
461.782;  806.550;    0.000;    0.000
461.825;  791.550;    0.000;    0.000
461.869;  799.550;    0.000;    0.000
461.913;  738.550;    0.000;    0.000
461.956;  793.550;    0.000;    0.000
462.000;  830.550;    0.000;    0.000
462.043;  825.550;    0.000;    0.000
462.087;  777.550;    0.000;    0.000
462.130;  808.550;    0.000;    0.000
462.174;  862.550;    0.000;    0.000
462.217;  806.550;    0.000;    0.000
462.261;  824.550;    0.000;    0.000
462.304;  820.550;    0.000;    0.000
462.348;  795.550;    0.000;    0.000
462.391;  784.550;    0.000;    0.000
462.435;  846.550;    0.000;    0.000
462.478;  803.550;    0.000;    0.000
462.522;  811.550;    0.000;    0.000
462.565;  827.550;    0.000;    0.000
462.608;  833.550;    0.000;    0.000
462.652;  862.550;    0.000;    0.000
462.695;  841.550;    0.000;    0.000
462.739;  831.550;    0.000;    0.000
462.782;  851.550;    0.000;    0.000
462.825;  870.550;    0.000;    0.000
462.869;  858.550;    0.000;    0.000
462.912;  876.550;    0.000;    0.000
462.955;  851.550;    0.000;    0.000
462.998;  829.550;    0.000;    0.000
463.042;  854.550;    0.000;    0.000
463.085;  908.550;    0.000;    0.000
463.128;  905.550;    0.000;    0.000
463.172;  817.550;    0.000;    0.000
463.215;  354.550;    0.000;    0.000
463.258;  300.550;    0.000;    0.000
463.301;  291.550;    0.000;    0.000
463.344;  362.550;    0.000;    0.000
463.388;  312.550;    0.000;    0.000
463.431;  310.550;    0.000;    0.000
463.474;  341.550;    0.000;    0.000
463.517;  303.550;    0.000;    0.000
463.560;  348.550;    0.000;    0.000
463.603;  339.550;    0.000;    0.000
463.646;  324.550;    0.000;    0.000
463.690;  328.550;    0.000;    0.000
463.733;  355.550;    0.000;    0.000
463.776;  317.550;    0.000;    0.000
463.819;  335.550;    0.000;    0.000
463.862;  329.550;    0.000;    0.000

