
Integration time [ms]:   1.000
Averaging Nr. [scans]: 1
Smoothing Nr. [pixels]: 0
Data measured with spectrometer [name]: VIS
Wave   ;Sample   ;Dark     ;Reference
[nm]   ;[counts] ;[counts] ;[counts] 

450.961;  201.475;    0.000;    0.000
451.100;  184.475;    0.000;    0.000
451.239;  201.475;    0.000;    0.000
451.377;  221.475;    0.000;    0.000
451.516;  192.475;    0.000;    0.000
451.655;  222.475;    0.000;    0.000
451.794;  223.475;    0.000;    0.000
451.932;  222.475;    0.000;    0.000
452.071;  192.475;    0.000;    0.000
452.210;  209.475;    0.000;    0.000
452.348;  196.475;    0.000;    0.000
452.487;  191.475;    0.000;    0.000
452.626;  208.475;    0.000;    0.000
452.764;  207.475;    0.000;    0.000
452.903;  208.475;    0.000;    0.000
453.042;  237.475;    0.000;    0.000
453.180; 1373.475;    0.000;    0.000
453.319; 1661.475;    0.000;    0.000
453.458; 1659.475;    0.000;    0.000
453.596; 1297.475;    0.000;    0.000
453.735; 1122.475;    0.000;    0.000
453.873; 1046.475;    0.000;    0.000
454.012;  964.475;    0.000;    0.000
454.150; 1013.475;    0.000;    0.000
454.289; 1086.475;    0.000;    0.000
454.427; 1066.475;    0.000;    0.000
454.566; 1030.475;    0.000;    0.000
454.704; 1181.475;    0.000;    0.000
454.843; 1244.475;    0.000;    0.000
454.981; 1296.475;    0.000;    0.000
455.120; 1256.475;    0.000;    0.000
455.258; 1348.475;    0.000;    0.000
455.397; 1268.475;    0.000;    0.000
455.535; 1173.475;    0.000;    0.000
455.674; 1079.475;    0.000;    0.000
455.812; 1057.475;    0.000;    0.000
455.951; 1013.475;    0.000;    0.000
456.089; 1099.475;    0.000;    0.000
456.227; 1072.475;    0.000;    0.000
456.366; 1187.475;    0.000;    0.000
456.504; 1132.475;    0.000;    0.000
456.642; 1130.475;    0.000;    0.000
456.781; 1109.475;    0.000;    0.000
456.919; 1139.475;    0.000;    0.000
457.057; 1191.475;    0.000;    0.000
457.196; 1233.475;    0.000;    0.000
457.334; 1202.475;    0.000;    0.000
457.472; 1136.475;    0.000;    0.000
457.610; 1177.475;    0.000;    0.000
457.749; 1149.475;    0.000;    0.000
457.887; 1156.475;    0.000;    0.000
458.025; 1220.475;    0.000;    0.000
458.163; 1251.475;    0.000;    0.000
458.301; 1306.475;    0.000;    0.000
458.440; 1190.475;    0.000;    0.000
458.578; 1247.475;    0.000;    0.000
458.716; 1217.475;    0.000;    0.000
458.854; 1287.475;    0.000;    0.000
458.992; 1234.475;    0.000;    0.000
459.130; 1278.475;    0.000;    0.000
459.269; 1271.475;    0.000;    0.000
459.407; 1276.475;    0.000;    0.000
459.545; 1261.475;    0.000;    0.000
459.683; 1216.475;    0.000;    0.000
459.821; 1292.475;    0.000;    0.000
459.959; 1365.475;    0.000;    0.000
460.097; 1331.475;    0.000;    0.000
460.235; 1314.475;    0.000;    0.000
460.373; 1455.475;    0.000;    0.000
460.511; 1357.475;    0.000;    0.000
460.649; 1406.475;    0.000;    0.000
460.787; 1477.475;    0.000;    0.000
460.925; 1390.475;    0.000;    0.000
461.063; 1415.475;    0.000;    0.000
461.201; 1356.475;    0.000;    0.000
461.339; 1484.475;    0.000;    0.000
461.477; 1448.475;    0.000;    0.000
461.615; 1514.475;    0.000;    0.000
461.753; 1525.475;    0.000;    0.000
461.891; 1435.475;    0.000;    0.000
462.029; 1499.475;    0.000;    0.000
462.166; 1545.475;    0.000;    0.000
462.304; 1506.475;    0.000;    0.000
462.442; 1544.475;    0.000;    0.000
462.580; 1585.475;    0.000;    0.000
462.718; 1501.475;    0.000;    0.000
462.856; 1470.475;    0.000;    0.000
462.993; 1582.475;    0.000;    0.000
463.131; 1549.475;    0.000;    0.000
463.269; 1536.475;    0.000;    0.000
463.407; 1504.475;    0.000;    0.000
463.545; 1532.475;    0.000;    0.000
463.682; 1530.475;    0.000;    0.000
463.820; 1680.475;    0.000;    0.000
463.958; 1657.475;    0.000;    0.000
464.095; 1539.475;    0.000;    0.000
464.233; 1587.475;    0.000;    0.000
464.371; 1560.475;    0.000;    0.000
464.509; 1589.475;    0.000;    0.000
464.646; 1572.475;    0.000;    0.000
464.784; 1551.475;    0.000;    0.000
464.921; 1553.475;    0.000;    0.000
465.059; 1479.475;    0.000;    0.000
465.197; 1506.475;    0.000;    0.000
465.334; 1431.475;    0.000;    0.000
465.472; 1537.475;    0.000;    0.000
465.609; 1474.475;    0.000;    0.000
465.747; 1569.475;    0.000;    0.000
465.885; 1496.475;    0.000;    0.000
466.022; 1517.475;    0.000;    0.000
466.160; 1422.475;    0.000;    0.000
466.297; 1448.475;    0.000;    0.000
466.435; 1428.475;    0.000;    0.000
466.572; 1463.475;    0.000;    0.000
466.710; 1520.475;    0.000;    0.000
466.847; 1514.475;    0.000;    0.000
466.985; 1431.475;    0.000;    0.000
467.122; 1403.475;    0.000;    0.000
467.260; 1413.475;    0.000;    0.000
467.397; 1415.475;    0.000;    0.000
467.534; 1472.475;    0.000;    0.000
467.672; 1441.475;    0.000;    0.000
467.809; 1405.475;    0.000;    0.000
467.947; 1498.475;    0.000;    0.000
468.084; 1449.475;    0.000;    0.000
468.221; 1519.475;    0.000;    0.000
468.359; 1484.475;    0.000;    0.000
468.496; 1468.475;    0.000;    0.000
468.633; 1362.475;    0.000;    0.000
468.771; 1428.475;    0.000;    0.000
468.908; 1447.475;    0.000;    0.000
469.045; 1473.475;    0.000;    0.000
469.183; 1509.475;    0.000;    0.000
469.320; 1434.475;    0.000;    0.000
469.457; 1459.475;    0.000;    0.000
469.594; 1475.475;    0.000;    0.000
469.732; 1418.475;    0.000;    0.000
469.869; 1476.475;    0.000;    0.000
470.006; 1418.475;    0.000;    0.000
470.143; 1445.475;    0.000;    0.000
470.280; 1445.475;    0.000;    0.000
470.417; 1434.475;    0.000;    0.000
470.555; 1441.475;    0.000;    0.000
470.692; 1450.475;    0.000;    0.000
470.829; 1440.475;    0.000;    0.000
470.966; 1444.475;    0.000;    0.000
471.103; 1490.475;    0.000;    0.000
471.240; 1464.475;    0.000;    0.000
471.377; 1356.475;    0.000;    0.000
471.514; 1459.475;    0.000;    0.000
471.651; 1443.475;    0.000;    0.000
471.789; 1362.475;    0.000;    0.000
471.926; 1389.475;    0.000;    0.000
472.063; 1429.475;    0.000;    0.000
472.200; 1447.475;    0.000;    0.000
472.337; 1407.475;    0.000;    0.000
472.474; 1436.475;    0.000;    0.000
472.611; 1484.475;    0.000;    0.000
472.748; 1422.475;    0.000;    0.000
472.884; 1401.475;    0.000;    0.000
473.021; 1519.475;    0.000;    0.000
473.158; 1421.475;    0.000;    0.000
473.295; 1375.475;    0.000;    0.000
473.432; 1366.475;    0.000;    0.000
473.569; 1394.475;    0.000;    0.000
473.706; 1397.475;    0.000;    0.000
473.843; 1388.475;    0.000;    0.000
473.980; 1319.475;    0.000;    0.000
474.117; 1374.475;    0.000;    0.000
474.253; 1518.475;    0.000;    0.000
474.390; 1406.475;    0.000;    0.000
474.527; 1395.475;    0.000;    0.000
474.664; 1433.475;    0.000;    0.000
474.801; 1380.475;    0.000;    0.000
474.937; 1416.475;    0.000;    0.000
475.074; 1392.475;    0.000;    0.000
475.211; 1467.475;    0.000;    0.000
475.348; 1424.475;    0.000;    0.000
475.484; 1467.475;    0.000;    0.000
475.621; 1497.475;    0.000;    0.000
475.758; 1599.475;    0.000;    0.000
475.894; 1599.475;    0.000;    0.000
476.031; 1593.475;    0.000;    0.000
476.168; 1469.475;    0.000;    0.000
476.304; 1476.475;    0.000;    0.000
476.441; 1475.475;    0.000;    0.000
476.578; 1449.475;    0.000;    0.000
476.714; 1468.475;    0.000;    0.000
476.851; 1428.475;    0.000;    0.000
476.987; 1451.475;    0.000;    0.000
477.124; 1477.475;    0.000;    0.000
477.261; 1500.475;    0.000;    0.000
477.397; 1423.475;    0.000;    0.000
477.534; 1419.475;    0.000;    0.000
477.670; 1413.475;    0.000;    0.000
477.807; 1448.475;    0.000;    0.000
477.943; 1497.475;    0.000;    0.000
478.080; 1535.475;    0.000;    0.000
478.216; 1437.475;    0.000;    0.000
478.353; 1454.475;    0.000;    0.000
478.489; 1485.475;    0.000;    0.000
478.626; 1476.475;    0.000;    0.000
478.762; 1493.475;    0.000;    0.000
478.898; 1518.475;    0.000;    0.000
479.035; 1554.475;    0.000;    0.000
479.171; 1536.475;    0.000;    0.000
479.308; 1497.475;    0.000;    0.000
479.444; 1476.475;    0.000;    0.000
479.580; 1530.475;    0.000;    0.000
479.717; 1542.475;    0.000;    0.000
479.853; 1573.475;    0.000;    0.000
479.989; 1508.475;    0.000;    0.000
480.126; 1567.475;    0.000;    0.000
480.262; 1538.475;    0.000;    0.000
480.398; 1642.475;    0.000;    0.000
480.535; 1628.475;    0.000;    0.000
480.671; 1547.475;    0.000;    0.000
480.807; 1545.475;    0.000;    0.000
480.943; 1484.475;    0.000;    0.000
481.080; 1564.475;    0.000;    0.000
481.216; 1495.475;    0.000;    0.000
481.352; 1541.475;    0.000;    0.000
481.488; 1460.475;    0.000;    0.000
481.624; 1463.475;    0.000;    0.000
481.760; 1533.475;    0.000;    0.000
481.897; 1529.475;    0.000;    0.000
482.033; 1552.475;    0.000;    0.000
482.169; 1547.475;    0.000;    0.000
482.305; 1533.475;    0.000;    0.000
482.441; 1456.475;    0.000;    0.000
482.577; 1520.475;    0.000;    0.000
482.713; 1521.475;    0.000;    0.000
482.849; 1515.475;    0.000;    0.000
482.985; 1444.475;    0.000;    0.000
483.121; 1499.475;    0.000;    0.000
483.258; 1485.475;    0.000;    0.000
483.394; 1488.475;    0.000;    0.000
483.530; 1473.475;    0.000;    0.000
483.665; 1547.475;    0.000;    0.000
483.801; 1493.475;    0.000;    0.000
483.937; 1534.475;    0.000;    0.000
484.073; 1637.475;    0.000;    0.000
484.209; 1608.475;    0.000;    0.000
484.345; 1579.475;    0.000;    0.000
484.481; 1562.475;    0.000;    0.000
484.617; 1602.475;    0.000;    0.000
484.753; 1506.475;    0.000;    0.000
484.889; 1631.475;    0.000;    0.000
485.025; 1561.475;    0.000;    0.000
485.161; 1536.475;    0.000;    0.000
485.296; 1558.475;    0.000;    0.000
485.432; 1614.475;    0.000;    0.000
485.568; 1593.475;    0.000;    0.000
485.704; 1646.475;    0.000;    0.000
485.840; 1589.475;    0.000;    0.000
485.975; 1622.475;    0.000;    0.000
486.111; 1504.475;    0.000;    0.000
486.247; 1584.475;    0.000;    0.000
486.383; 1546.475;    0.000;    0.000
486.518; 1548.475;    0.000;    0.000
486.654; 1548.475;    0.000;    0.000
486.790; 1651.475;    0.000;    0.000
486.926; 1737.475;    0.000;    0.000
487.061; 1708.475;    0.000;    0.000
487.197; 1739.475;    0.000;    0.000
487.333; 1687.475;    0.000;    0.000
487.468; 1613.475;    0.000;    0.000
487.604; 1708.475;    0.000;    0.000
487.740; 1631.475;    0.000;    0.000
487.875; 1731.475;    0.000;    0.000
488.011; 1597.475;    0.000;    0.000
488.146; 1548.475;    0.000;    0.000
488.282; 1643.475;    0.000;    0.000
488.417; 1661.475;    0.000;    0.000
488.553; 1683.475;    0.000;    0.000
488.688; 1710.475;    0.000;    0.000
488.824; 1549.475;    0.000;    0.000
488.960; 1669.475;    0.000;    0.000
489.095; 1676.475;    0.000;    0.000
489.230; 1671.475;    0.000;    0.000
489.366; 1634.475;    0.000;    0.000
489.501; 1554.475;    0.000;    0.000
489.637; 1538.475;    0.000;    0.000
489.772; 1599.475;    0.000;    0.000
489.908; 1691.475;    0.000;    0.000
490.043; 1770.475;    0.000;    0.000
490.178; 1654.475;    0.000;    0.000
490.314; 1552.475;    0.000;    0.000
490.449; 1555.475;    0.000;    0.000
490.585; 1525.475;    0.000;    0.000
490.720; 1534.475;    0.000;    0.000
490.855; 1528.475;    0.000;    0.000
490.991; 1491.475;    0.000;    0.000
491.126; 1625.475;    0.000;    0.000
491.261; 1682.475;    0.000;    0.000
491.396; 1654.475;    0.000;    0.000
491.532; 1605.475;    0.000;    0.000
491.667; 1619.475;    0.000;    0.000
491.802; 1638.475;    0.000;    0.000
491.937; 1816.475;    0.000;    0.000
492.073; 1872.475;    0.000;    0.000
492.208; 1824.475;    0.000;    0.000
492.343; 1633.475;    0.000;    0.000
492.478; 1668.475;    0.000;    0.000
492.613; 1635.475;    0.000;    0.000
492.749; 1635.475;    0.000;    0.000
492.884; 1591.475;    0.000;    0.000
493.019; 1626.475;    0.000;    0.000
493.154; 1659.475;    0.000;    0.000
493.289; 1733.475;    0.000;    0.000
493.424; 1867.475;    0.000;    0.000
493.559; 1745.475;    0.000;    0.000
493.694; 1592.475;    0.000;    0.000
493.829; 1665.475;    0.000;    0.000
493.964; 1628.475;    0.000;    0.000
494.099; 1657.475;    0.000;    0.000
494.234; 1520.475;    0.000;    0.000
494.369; 1555.475;    0.000;    0.000
494.504; 1606.475;    0.000;    0.000
494.639; 1647.475;    0.000;    0.000
494.774; 1574.475;    0.000;    0.000
494.909; 1619.475;    0.000;    0.000
495.044; 1573.475;    0.000;    0.000
495.179; 1524.475;    0.000;    0.000
495.314; 1571.475;    0.000;    0.000
495.449; 1634.475;    0.000;    0.000
495.584; 1705.475;    0.000;    0.000
495.719; 1920.475;    0.000;    0.000
495.854; 1909.475;    0.000;    0.000
495.988; 1783.475;    0.000;    0.000
496.123; 1654.475;    0.000;    0.000
496.258; 1648.475;    0.000;    0.000
496.393; 1599.475;    0.000;    0.000
496.528; 1664.475;    0.000;    0.000
496.663; 1659.475;    0.000;    0.000
496.797; 1668.475;    0.000;    0.000
496.932; 1679.475;    0.000;    0.000
497.067; 1635.475;    0.000;    0.000
497.202; 1691.475;    0.000;    0.000
497.336; 1725.475;    0.000;    0.000
497.471; 1781.475;    0.000;    0.000
497.606; 1753.475;    0.000;    0.000
497.740; 1751.475;    0.000;    0.000
497.875; 1919.475;    0.000;    0.000
498.010; 2312.475;    0.000;    0.000
498.144; 2964.475;    0.000;    0.000
498.279; 2726.475;    0.000;    0.000
498.414; 2129.475;    0.000;    0.000
498.548; 1887.475;    0.000;    0.000
498.683; 1933.475;    0.000;    0.000
498.817; 2029.475;    0.000;    0.000
498.952; 2504.475;    0.000;    0.000
499.087; 3040.475;    0.000;    0.000
499.221; 2767.475;    0.000;    0.000
499.356; 2274.475;    0.000;    0.000
499.490; 2192.475;    0.000;    0.000
499.625; 2241.475;    0.000;    0.000
499.759; 2505.475;    0.000;    0.000
499.894; 3037.475;    0.000;    0.000
500.028; 3018.475;    0.000;    0.000
500.162; 2645.475;    0.000;    0.000
500.297; 2432.475;    0.000;    0.000
500.431; 2636.475;    0.000;    0.000
500.566; 2680.475;    0.000;    0.000
500.700; 3072.475;    0.000;    0.000
500.835; 2836.475;    0.000;    0.000
500.969; 2447.475;    0.000;    0.000
501.103; 2333.475;    0.000;    0.000
501.238; 2583.475;    0.000;    0.000
501.372; 2871.475;    0.000;    0.000
501.506; 2757.475;    0.000;    0.000
501.641; 2397.475;    0.000;    0.000
501.775; 2146.475;    0.000;    0.000
501.909; 2209.475;    0.000;    0.000
502.043; 2223.475;    0.000;    0.000
502.178; 2216.475;    0.000;    0.000
502.312; 2180.475;    0.000;    0.000
502.446; 2258.475;    0.000;    0.000
502.580; 2048.475;    0.000;    0.000
502.715; 1957.475;    0.000;    0.000
502.849; 1775.475;    0.000;    0.000
502.983; 1841.475;    0.000;    0.000
503.117; 1754.475;    0.000;    0.000
503.251; 1779.475;    0.000;    0.000
503.385; 1812.475;    0.000;    0.000
503.520; 2047.475;    0.000;    0.000
503.654; 2202.475;    0.000;    0.000
503.788; 2202.475;    0.000;    0.000
503.922; 2057.475;    0.000;    0.000
504.056; 2015.475;    0.000;    0.000
504.190; 1825.475;    0.000;    0.000
504.324; 1818.475;    0.000;    0.000
504.458; 1718.475;    0.000;    0.000
504.592; 1652.475;    0.000;    0.000
504.726; 1655.475;    0.000;    0.000
504.860; 1642.475;    0.000;    0.000
504.994; 1612.475;    0.000;    0.000
505.128; 1616.475;    0.000;    0.000
505.262; 1575.475;    0.000;    0.000
505.396; 1587.475;    0.000;    0.000
505.530; 1622.475;    0.000;    0.000
505.664; 1595.475;    0.000;    0.000
505.798; 1539.475;    0.000;    0.000
505.932; 1527.475;    0.000;    0.000
506.066; 1573.475;    0.000;    0.000
506.199; 1578.475;    0.000;    0.000
506.333; 1719.475;    0.000;    0.000
506.467; 1803.475;    0.000;    0.000
506.601; 1675.475;    0.000;    0.000
506.735; 1516.475;    0.000;    0.000
506.869; 1524.475;    0.000;    0.000
507.002; 1555.475;    0.000;    0.000
507.136; 1549.475;    0.000;    0.000
507.270; 1541.475;    0.000;    0.000
507.404; 1447.475;    0.000;    0.000
507.537; 1395.475;    0.000;    0.000
507.671; 1479.475;    0.000;    0.000
507.805; 1442.475;    0.000;    0.000
507.939; 1454.475;    0.000;    0.000
508.072; 1425.475;    0.000;    0.000
508.206; 1379.475;    0.000;    0.000
508.340; 1373.475;    0.000;    0.000
508.473; 1416.475;    0.000;    0.000
508.607; 1406.475;    0.000;    0.000
508.740; 1398.475;    0.000;    0.000
508.874; 1391.475;    0.000;    0.000
509.008; 1376.475;    0.000;    0.000
509.141; 1383.475;    0.000;    0.000
509.275; 1306.475;    0.000;    0.000
509.408; 1400.475;    0.000;    0.000
509.542; 1347.475;    0.000;    0.000
509.675; 1369.475;    0.000;    0.000
509.809; 1321.475;    0.000;    0.000
509.942; 1374.475;    0.000;    0.000
510.076; 1339.475;    0.000;    0.000
510.209; 1359.475;    0.000;    0.000
510.343; 1378.475;    0.000;    0.000
510.476; 1352.475;    0.000;    0.000
510.610; 1292.475;    0.000;    0.000
510.743; 1399.475;    0.000;    0.000
510.877; 1371.475;    0.000;    0.000
511.010; 1380.475;    0.000;    0.000
511.143; 1351.475;    0.000;    0.000
511.277; 1389.475;    0.000;    0.000
511.410; 1383.475;    0.000;    0.000
511.543; 1379.475;    0.000;    0.000
511.677; 1313.475;    0.000;    0.000
511.810; 1313.475;    0.000;    0.000
511.943; 1364.475;    0.000;    0.000
512.077; 1399.475;    0.000;    0.000
512.210; 1347.475;    0.000;    0.000
512.343; 1382.475;    0.000;    0.000
512.476; 1378.475;    0.000;    0.000
512.610; 1273.475;    0.000;    0.000
512.743; 1287.475;    0.000;    0.000
512.876; 1343.475;    0.000;    0.000
513.009; 1360.475;    0.000;    0.000
513.142; 1372.475;    0.000;    0.000
513.276; 1298.475;    0.000;    0.000
513.409; 1325.475;    0.000;    0.000
513.542; 1289.475;    0.000;    0.000
513.675; 1307.475;    0.000;    0.000
513.808; 1341.475;    0.000;    0.000
513.941; 1386.475;    0.000;    0.000
514.074; 1346.475;    0.000;    0.000
514.207; 1320.475;    0.000;    0.000
514.340; 1381.475;    0.000;    0.000
514.474; 1334.475;    0.000;    0.000
514.607; 1366.475;    0.000;    0.000
514.740; 1308.475;    0.000;    0.000
514.873; 1313.475;    0.000;    0.000
515.006; 1356.475;    0.000;    0.000
515.139; 1412.475;    0.000;    0.000
515.272; 1364.475;    0.000;    0.000
515.404; 1331.475;    0.000;    0.000
515.537; 1360.475;    0.000;    0.000
515.670; 1355.475;    0.000;    0.000
515.803; 1355.475;    0.000;    0.000
515.936; 1415.475;    0.000;    0.000
516.069; 1321.475;    0.000;    0.000
516.202; 1411.475;    0.000;    0.000
516.335; 1415.475;    0.000;    0.000
516.468; 1475.475;    0.000;    0.000
516.600; 1659.475;    0.000;    0.000
516.733; 1866.475;    0.000;    0.000
516.866; 1785.475;    0.000;    0.000
516.999; 1715.475;    0.000;    0.000
517.132; 1919.475;    0.000;    0.000
517.264; 2589.475;    0.000;    0.000
517.397; 2390.475;    0.000;    0.000
517.530; 1852.475;    0.000;    0.000
517.663; 1643.475;    0.000;    0.000
517.795; 1617.475;    0.000;    0.000
517.928; 1540.475;    0.000;    0.000
518.061; 1590.475;    0.000;    0.000
518.193; 2055.475;    0.000;    0.000
518.326; 2765.475;    0.000;    0.000
518.459; 2814.475;    0.000;    0.000
518.591; 2053.475;    0.000;    0.000
518.724; 1774.475;    0.000;    0.000
518.857; 1681.475;    0.000;    0.000
518.989; 1616.475;    0.000;    0.000
519.122; 1626.475;    0.000;    0.000
519.254; 1742.475;    0.000;    0.000
519.387; 1652.475;    0.000;    0.000
519.519; 1482.475;    0.000;    0.000
519.652; 1391.475;    0.000;    0.000
519.784; 1340.475;    0.000;    0.000
519.917; 1326.475;    0.000;    0.000
520.049; 1343.475;    0.000;    0.000
520.182; 1334.475;    0.000;    0.000
520.314; 1427.475;    0.000;    0.000
520.447; 1393.475;    0.000;    0.000
520.579; 1360.475;    0.000;    0.000
520.712; 1341.475;    0.000;    0.000
520.844; 1418.475;    0.000;    0.000
520.976; 1559.475;    0.000;    0.000
521.109; 1508.475;    0.000;    0.000
521.241; 1307.475;    0.000;    0.000
521.373; 1258.475;    0.000;    0.000
521.506; 1224.475;    0.000;    0.000
521.638; 1265.475;    0.000;    0.000
521.770; 1281.475;    0.000;    0.000
521.903; 1215.475;    0.000;    0.000
522.035; 1266.475;    0.000;    0.000
522.167; 1301.475;    0.000;    0.000
522.300; 1234.475;    0.000;    0.000
522.432; 1382.475;    0.000;    0.000
522.564; 1395.475;    0.000;    0.000
522.696; 1362.475;    0.000;    0.000
522.828; 1322.475;    0.000;    0.000
522.961; 1262.475;    0.000;    0.000
523.093; 1200.475;    0.000;    0.000
523.225; 1263.475;    0.000;    0.000
523.357; 1340.475;    0.000;    0.000
523.489; 1252.475;    0.000;    0.000
523.621; 1236.475;    0.000;    0.000
523.753; 1161.475;    0.000;    0.000
523.885; 1217.475;    0.000;    0.000
524.018; 1207.475;    0.000;    0.000
524.150; 1247.475;    0.000;    0.000
524.282; 1167.475;    0.000;    0.000
524.414; 1150.475;    0.000;    0.000
524.546; 1168.475;    0.000;    0.000
524.678; 1221.475;    0.000;    0.000
524.810; 1225.475;    0.000;    0.000
524.942; 1105.475;    0.000;    0.000
525.074; 1142.475;    0.000;    0.000
525.206; 1191.475;    0.000;    0.000
525.338; 1166.475;    0.000;    0.000
525.469; 1180.475;    0.000;    0.000
525.601; 1142.475;    0.000;    0.000
525.733; 1146.475;    0.000;    0.000
525.865; 1163.475;    0.000;    0.000
525.997; 1184.475;    0.000;    0.000
526.129; 1331.475;    0.000;    0.000
526.261; 1416.475;    0.000;    0.000
526.393; 1430.475;    0.000;    0.000
526.524; 1521.475;    0.000;    0.000
526.656; 1407.475;    0.000;    0.000
526.788; 1447.475;    0.000;    0.000
526.920; 1741.475;    0.000;    0.000
527.052; 1740.475;    0.000;    0.000
527.183; 1404.475;    0.000;    0.000
527.315; 1239.475;    0.000;    0.000
527.447; 1181.475;    0.000;    0.000
527.578; 1108.475;    0.000;    0.000
527.710; 1229.475;    0.000;    0.000
527.842; 1135.475;    0.000;    0.000
527.973; 1085.475;    0.000;    0.000
528.105; 1104.475;    0.000;    0.000
528.237; 1161.475;    0.000;    0.000
528.368; 1196.475;    0.000;    0.000
528.500; 1151.475;    0.000;    0.000
528.632; 1102.475;    0.000;    0.000
528.763; 1089.475;    0.000;    0.000
528.895; 1052.475;    0.000;    0.000
529.026; 1083.475;    0.000;    0.000
529.158; 1081.475;    0.000;    0.000
529.289; 1096.475;    0.000;    0.000
529.421; 1152.475;    0.000;    0.000
529.552; 1137.475;    0.000;    0.000
529.684; 1119.475;    0.000;    0.000
529.815; 1206.475;    0.000;    0.000
529.947; 1145.475;    0.000;    0.000
530.078; 1141.475;    0.000;    0.000
530.210; 1112.475;    0.000;    0.000
530.341; 1127.475;    0.000;    0.000
530.472; 1094.475;    0.000;    0.000
530.604; 1116.475;    0.000;    0.000
530.735; 1116.475;    0.000;    0.000
530.867; 1099.475;    0.000;    0.000
530.998; 1147.475;    0.000;    0.000
531.129; 1148.475;    0.000;    0.000
531.260; 1103.475;    0.000;    0.000
531.392; 1149.475;    0.000;    0.000
531.523; 1105.475;    0.000;    0.000
531.654; 1095.475;    0.000;    0.000
531.786; 1117.475;    0.000;    0.000
531.917; 1115.475;    0.000;    0.000
532.048; 1138.475;    0.000;    0.000
532.179; 1138.475;    0.000;    0.000
532.311; 1137.475;    0.000;    0.000
532.442; 1198.475;    0.000;    0.000
532.573; 1189.475;    0.000;    0.000
532.704; 1184.475;    0.000;    0.000
532.835; 1294.475;    0.000;    0.000
532.966; 1224.475;    0.000;    0.000
533.097; 1084.475;    0.000;    0.000
533.229; 1116.475;    0.000;    0.000
533.360; 1165.475;    0.000;    0.000
533.491; 1102.475;    0.000;    0.000
533.622; 1153.475;    0.000;    0.000
533.753; 1083.475;    0.000;    0.000
533.884; 1145.475;    0.000;    0.000
534.015; 1138.475;    0.000;    0.000
534.146; 1222.475;    0.000;    0.000
534.277; 1124.475;    0.000;    0.000
534.408; 1163.475;    0.000;    0.000
534.539; 1198.475;    0.000;    0.000
534.670; 1114.475;    0.000;    0.000
534.801; 1180.475;    0.000;    0.000
534.932; 1187.475;    0.000;    0.000
535.063; 1185.475;    0.000;    0.000
535.194; 1148.475;    0.000;    0.000
535.324; 1102.475;    0.000;    0.000
535.455; 1101.475;    0.000;    0.000
535.586; 1143.475;    0.000;    0.000
535.717; 1046.475;    0.000;    0.000
535.848; 1195.475;    0.000;    0.000
535.979; 1086.475;    0.000;    0.000
536.109; 1116.475;    0.000;    0.000
536.240; 1099.475;    0.000;    0.000
536.371; 1168.475;    0.000;    0.000
536.502; 1227.475;    0.000;    0.000
536.632; 1144.475;    0.000;    0.000
536.763; 1157.475;    0.000;    0.000
536.894; 1229.475;    0.000;    0.000
537.025; 1215.475;    0.000;    0.000
537.155; 1315.475;    0.000;    0.000
537.286; 1151.475;    0.000;    0.000
537.417; 1198.475;    0.000;    0.000
537.547; 1096.475;    0.000;    0.000
537.678; 1121.475;    0.000;    0.000
537.808; 1067.475;    0.000;    0.000
537.939; 1205.475;    0.000;    0.000
538.070; 1122.475;    0.000;    0.000
538.200; 1175.475;    0.000;    0.000
538.331; 1170.475;    0.000;    0.000
538.461; 1113.475;    0.000;    0.000
538.592; 1130.475;    0.000;    0.000
538.722; 1128.475;    0.000;    0.000
538.853; 1063.475;    0.000;    0.000
538.983; 1092.475;    0.000;    0.000
539.114; 1122.475;    0.000;    0.000
539.244; 1136.475;    0.000;    0.000
539.375; 1129.475;    0.000;    0.000
539.505; 1173.475;    0.000;    0.000
539.636; 1167.475;    0.000;    0.000
539.766; 1216.475;    0.000;    0.000
539.896; 1133.475;    0.000;    0.000
540.027; 1144.475;    0.000;    0.000
540.157; 1096.475;    0.000;    0.000
540.287; 1139.475;    0.000;    0.000
540.418; 1265.475;    0.000;    0.000
540.548; 1252.475;    0.000;    0.000
540.678; 1175.475;    0.000;    0.000
540.809; 1163.475;    0.000;    0.000
540.939; 1177.475;    0.000;    0.000
541.069; 1142.475;    0.000;    0.000
541.200; 1065.475;    0.000;    0.000
541.330; 1109.475;    0.000;    0.000
541.460; 1167.475;    0.000;    0.000
541.590; 1116.475;    0.000;    0.000
541.720; 1092.475;    0.000;    0.000
541.851; 1136.475;    0.000;    0.000
541.981; 1092.475;    0.000;    0.000
542.111; 1209.475;    0.000;    0.000
542.241; 1147.475;    0.000;    0.000
542.371; 1141.475;    0.000;    0.000
542.501; 1133.475;    0.000;    0.000
542.631; 1155.475;    0.000;    0.000
542.761; 1146.475;    0.000;    0.000
542.891; 1193.475;    0.000;    0.000
543.021; 1198.475;    0.000;    0.000
543.151; 1188.475;    0.000;    0.000
543.281; 1091.475;    0.000;    0.000
543.411; 1142.475;    0.000;    0.000
543.542; 1098.475;    0.000;    0.000
543.671; 1144.475;    0.000;    0.000
543.801; 1107.475;    0.000;    0.000
543.931; 1135.475;    0.000;    0.000
544.061; 1088.475;    0.000;    0.000
544.191; 1166.475;    0.000;    0.000
544.321; 1103.475;    0.000;    0.000
544.451; 1091.475;    0.000;    0.000
544.581; 1159.475;    0.000;    0.000
544.711; 1197.475;    0.000;    0.000
544.841; 1134.475;    0.000;    0.000
544.970; 1191.475;    0.000;    0.000
545.100; 1145.475;    0.000;    0.000
545.230; 1187.475;    0.000;    0.000
545.360; 1162.475;    0.000;    0.000
545.490; 1178.475;    0.000;    0.000
545.619; 1145.475;    0.000;    0.000
545.749; 1122.475;    0.000;    0.000
545.879; 1147.475;    0.000;    0.000
546.009; 1112.475;    0.000;    0.000
546.138; 1112.475;    0.000;    0.000
546.268; 1162.475;    0.000;    0.000
546.398; 1112.475;    0.000;    0.000
546.527; 1069.475;    0.000;    0.000
546.657; 1103.475;    0.000;    0.000
546.786; 1163.475;    0.000;    0.000
546.916; 1162.475;    0.000;    0.000
547.046; 1175.475;    0.000;    0.000
547.175; 1166.475;    0.000;    0.000
547.305; 1169.475;    0.000;    0.000
547.434; 1175.475;    0.000;    0.000
547.564; 1160.475;    0.000;    0.000
547.693; 1175.475;    0.000;    0.000
547.823; 1186.475;    0.000;    0.000
547.953; 1170.475;    0.000;    0.000
548.082; 1171.475;    0.000;    0.000
548.211; 1111.475;    0.000;    0.000
548.341; 1157.475;    0.000;    0.000
548.470; 1180.475;    0.000;    0.000
548.600; 1122.475;    0.000;    0.000
548.729; 1223.475;    0.000;    0.000
548.859; 1143.475;    0.000;    0.000
548.988; 1160.475;    0.000;    0.000
549.117; 1215.475;    0.000;    0.000
549.247; 1186.475;    0.000;    0.000
549.376; 1207.475;    0.000;    0.000
549.505; 1167.475;    0.000;    0.000
549.635; 1157.475;    0.000;    0.000
549.764; 1165.475;    0.000;    0.000
549.893; 1150.475;    0.000;    0.000
550.023; 1163.475;    0.000;    0.000
550.152; 1149.475;    0.000;    0.000
550.281; 1210.475;    0.000;    0.000
550.410; 1224.475;    0.000;    0.000
550.539; 1248.475;    0.000;    0.000
550.669; 1223.475;    0.000;    0.000
550.798; 1272.475;    0.000;    0.000
550.927; 1254.475;    0.000;    0.000
551.056; 1223.475;    0.000;    0.000
551.185; 1353.475;    0.000;    0.000
551.314; 1421.475;    0.000;    0.000
551.443; 1451.475;    0.000;    0.000
551.573; 1248.475;    0.000;    0.000
551.702; 1181.475;    0.000;    0.000
551.831; 1240.475;    0.000;    0.000
551.960; 1162.475;    0.000;    0.000
552.089; 1251.475;    0.000;    0.000
552.218; 1233.475;    0.000;    0.000
552.347; 1290.475;    0.000;    0.000
552.476; 1253.475;    0.000;    0.000
552.605; 1244.475;    0.000;    0.000
552.734; 1279.475;    0.000;    0.000
552.863; 1288.475;    0.000;    0.000
552.992; 1246.475;    0.000;    0.000
553.121; 1298.475;    0.000;    0.000
553.249; 1213.475;    0.000;    0.000
553.378; 1323.475;    0.000;    0.000
553.507; 1415.475;    0.000;    0.000
553.636; 1358.475;    0.000;    0.000
553.765; 1268.475;    0.000;    0.000
553.894; 1266.475;    0.000;    0.000
554.023; 1231.475;    0.000;    0.000
554.151; 1337.475;    0.000;    0.000
554.280; 1254.475;    0.000;    0.000
554.409; 1207.475;    0.000;    0.000
554.538; 1258.475;    0.000;    0.000
554.666; 1269.475;    0.000;    0.000
554.795; 1220.475;    0.000;    0.000
554.924; 1224.475;    0.000;    0.000
555.052; 1295.475;    0.000;    0.000
555.181; 1250.475;    0.000;    0.000
555.310; 1216.475;    0.000;    0.000
555.439; 1263.475;    0.000;    0.000
555.567; 1135.475;    0.000;    0.000
555.696; 1199.475;    0.000;    0.000
555.824; 1220.475;    0.000;    0.000
555.953; 1227.475;    0.000;    0.000
556.082; 1203.475;    0.000;    0.000
556.210; 1195.475;    0.000;    0.000
556.339; 1207.475;    0.000;    0.000
556.467; 1233.475;    0.000;    0.000
556.596; 1249.475;    0.000;    0.000
556.724; 1183.475;    0.000;    0.000
556.853; 1247.475;    0.000;    0.000
556.981; 1239.475;    0.000;    0.000
557.110; 1234.475;    0.000;    0.000
557.238; 1278.475;    0.000;    0.000
557.367; 1193.475;    0.000;    0.000
557.495; 1165.475;    0.000;    0.000
557.623; 1197.475;    0.000;    0.000
557.752; 1140.475;    0.000;    0.000
557.880; 1140.475;    0.000;    0.000
558.008; 1184.475;    0.000;    0.000
558.137; 1274.475;    0.000;    0.000
558.265; 1278.475;    0.000;    0.000
558.393; 1299.475;    0.000;    0.000
558.522; 1205.475;    0.000;    0.000
558.650; 1393.475;    0.000;    0.000
558.778; 1774.475;    0.000;    0.000
558.906; 2158.475;    0.000;    0.000
559.035; 1785.475;    0.000;    0.000
559.163; 1430.475;    0.000;    0.000
559.291; 1392.475;    0.000;    0.000
559.419; 1636.475;    0.000;    0.000
559.548; 1622.475;    0.000;    0.000
559.676; 1456.475;    0.000;    0.000
559.804; 1592.475;    0.000;    0.000
559.932; 1615.475;    0.000;    0.000
560.060; 1523.475;    0.000;    0.000
560.188; 1488.475;    0.000;    0.000
560.316; 1389.475;    0.000;    0.000
560.444; 1273.475;    0.000;    0.000
560.572; 1239.475;    0.000;    0.000
560.700; 1231.475;    0.000;    0.000
560.828; 1243.475;    0.000;    0.000
560.956; 1120.475;    0.000;    0.000
561.085; 1252.475;    0.000;    0.000
561.212; 1237.475;    0.000;    0.000
561.340; 1241.475;    0.000;    0.000
561.468; 1289.475;    0.000;    0.000
561.596; 1315.475;    0.000;    0.000
561.724; 1265.475;    0.000;    0.000
561.852; 1202.475;    0.000;    0.000
561.980; 1246.475;    0.000;    0.000
562.108; 1180.475;    0.000;    0.000
562.236; 1223.475;    0.000;    0.000
562.364; 1162.475;    0.000;    0.000
562.492; 1230.475;    0.000;    0.000
562.619; 1294.475;    0.000;    0.000
562.747; 1219.475;    0.000;    0.000
562.875; 1297.475;    0.000;    0.000
563.003; 1242.475;    0.000;    0.000
563.130; 1296.475;    0.000;    0.000
563.258; 1216.475;    0.000;    0.000
563.386; 1261.475;    0.000;    0.000
563.514; 1240.475;    0.000;    0.000
563.641; 1284.475;    0.000;    0.000
563.769; 1313.475;    0.000;    0.000
563.897; 1269.475;    0.000;    0.000
564.024; 1308.475;    0.000;    0.000
564.152; 1295.475;    0.000;    0.000
564.280; 1315.475;    0.000;    0.000
564.407; 1340.475;    0.000;    0.000
564.535; 1270.475;    0.000;    0.000
564.662; 1309.475;    0.000;    0.000
564.790; 1335.475;    0.000;    0.000
564.917; 1331.475;    0.000;    0.000
565.045; 1323.475;    0.000;    0.000
565.173; 1370.475;    0.000;    0.000
565.300; 1336.475;    0.000;    0.000
565.428; 1403.475;    0.000;    0.000
565.555; 1343.475;    0.000;    0.000
565.682; 1373.475;    0.000;    0.000
565.810; 1362.475;    0.000;    0.000
565.937; 1417.475;    0.000;    0.000
566.065; 1471.475;    0.000;    0.000
566.192; 1449.475;    0.000;    0.000
566.320; 1458.475;    0.000;    0.000
566.447; 1494.475;    0.000;    0.000
566.574; 1514.475;    0.000;    0.000
566.702; 1555.475;    0.000;    0.000
566.829; 1578.475;    0.000;    0.000
566.956; 1556.475;    0.000;    0.000
567.083; 1496.475;    0.000;    0.000
567.211; 1550.475;    0.000;    0.000
567.338; 1503.475;    0.000;    0.000
567.465; 1556.475;    0.000;    0.000
567.593; 1549.475;    0.000;    0.000
567.720; 1563.475;    0.000;    0.000
567.847; 1516.475;    0.000;    0.000
567.974; 1531.475;    0.000;    0.000
568.101; 1465.475;    0.000;    0.000
568.228; 1534.475;    0.000;    0.000
568.356; 1411.475;    0.000;    0.000
568.483; 1511.475;    0.000;    0.000
568.610; 1451.475;    0.000;    0.000
568.737; 1440.475;    0.000;    0.000
568.864; 1476.475;    0.000;    0.000
568.991; 1413.475;    0.000;    0.000
569.118; 1397.475;    0.000;    0.000
569.245; 1375.475;    0.000;    0.000
569.372; 1389.475;    0.000;    0.000
569.499; 1315.475;    0.000;    0.000
569.626; 1338.475;    0.000;    0.000
569.753; 1364.475;    0.000;    0.000
569.880; 1345.475;    0.000;    0.000
570.007; 1330.475;    0.000;    0.000
570.134; 1369.475;    0.000;    0.000
570.261; 1314.475;    0.000;    0.000
570.388; 1393.475;    0.000;    0.000
570.515; 1338.475;    0.000;    0.000
570.642; 1378.475;    0.000;    0.000
570.768; 1328.475;    0.000;    0.000
570.895; 1300.475;    0.000;    0.000
571.022; 1308.475;    0.000;    0.000
571.149; 1266.475;    0.000;    0.000
571.276; 1336.475;    0.000;    0.000
571.402; 1311.475;    0.000;    0.000
571.529; 1333.475;    0.000;    0.000
571.656; 1349.475;    0.000;    0.000
571.783; 1284.475;    0.000;    0.000
571.909; 1319.475;    0.000;    0.000
572.036; 1329.475;    0.000;    0.000
572.163; 1234.475;    0.000;    0.000
572.289; 1256.475;    0.000;    0.000
572.416; 1263.475;    0.000;    0.000
572.543; 1267.475;    0.000;    0.000
572.669; 1212.475;    0.000;    0.000
572.796; 1218.475;    0.000;    0.000
572.922; 1267.475;    0.000;    0.000
573.049; 1185.475;    0.000;    0.000
573.176; 1189.475;    0.000;    0.000
573.302; 1245.475;    0.000;    0.000
573.429; 1250.475;    0.000;    0.000
573.555; 1295.475;    0.000;    0.000
573.682; 1264.475;    0.000;    0.000
573.808; 1344.475;    0.000;    0.000
573.935; 1288.475;    0.000;    0.000
574.061; 1270.475;    0.000;    0.000
574.188; 1205.475;    0.000;    0.000
574.314; 1233.475;    0.000;    0.000
574.440; 1211.475;    0.000;    0.000
574.567; 1249.475;    0.000;    0.000
574.693; 1232.475;    0.000;    0.000
574.820; 1250.475;    0.000;    0.000
574.946; 1232.475;    0.000;    0.000
575.072; 1245.475;    0.000;    0.000
575.198; 1256.475;    0.000;    0.000
575.325; 1171.475;    0.000;    0.000
575.451; 1170.475;    0.000;    0.000
575.577; 1183.475;    0.000;    0.000
575.704; 1198.475;    0.000;    0.000
575.830; 1207.475;    0.000;    0.000
575.956; 1201.475;    0.000;    0.000
576.082; 1212.475;    0.000;    0.000
576.208; 1233.475;    0.000;    0.000
576.335; 1256.475;    0.000;    0.000
576.461; 1147.475;    0.000;    0.000
576.587; 1220.475;    0.000;    0.000
576.713; 1233.475;    0.000;    0.000
576.839; 1200.475;    0.000;    0.000
576.965; 1227.475;    0.000;    0.000
577.091; 1279.475;    0.000;    0.000
577.217; 1247.475;    0.000;    0.000
577.343; 1170.475;    0.000;    0.000
577.469; 1271.475;    0.000;    0.000
577.596; 1163.475;    0.000;    0.000
577.722; 1207.475;    0.000;    0.000
577.848; 1255.475;    0.000;    0.000
577.974; 1224.475;    0.000;    0.000
578.099; 1189.475;    0.000;    0.000
578.225; 1217.475;    0.000;    0.000
578.351; 1233.475;    0.000;    0.000
578.477; 1259.475;    0.000;    0.000
578.603; 1187.475;    0.000;    0.000
578.729; 1180.475;    0.000;    0.000
578.855; 1140.475;    0.000;    0.000
578.981; 1184.475;    0.000;    0.000
579.107; 1235.475;    0.000;    0.000
579.232; 1221.475;    0.000;    0.000
579.358; 1167.475;    0.000;    0.000
579.484; 1223.475;    0.000;    0.000
579.610; 1173.475;    0.000;    0.000
579.735; 1189.475;    0.000;    0.000
579.861; 1148.475;    0.000;    0.000
579.987; 1197.475;    0.000;    0.000
580.113; 1239.475;    0.000;    0.000
580.238; 1218.475;    0.000;    0.000
580.364; 1206.475;    0.000;    0.000
580.490; 1203.475;    0.000;    0.000
580.615; 1218.475;    0.000;    0.000
580.741; 1185.475;    0.000;    0.000
580.867; 1192.475;    0.000;    0.000
580.992; 1188.475;    0.000;    0.000
581.118; 1211.475;    0.000;    0.000
581.243; 1220.475;    0.000;    0.000
581.369; 1176.475;    0.000;    0.000
581.494; 1219.475;    0.000;    0.000
581.620; 1241.475;    0.000;    0.000
581.745; 1213.475;    0.000;    0.000
581.871; 1209.475;    0.000;    0.000
581.996; 1231.475;    0.000;    0.000
582.122; 1201.475;    0.000;    0.000
582.247; 1242.475;    0.000;    0.000
582.373; 1162.475;    0.000;    0.000
582.498; 1232.475;    0.000;    0.000
582.624; 1221.475;    0.000;    0.000
582.749; 1226.475;    0.000;    0.000
582.874; 1260.475;    0.000;    0.000
583.000; 1204.475;    0.000;    0.000
583.125; 1145.475;    0.000;    0.000
583.250; 1246.475;    0.000;    0.000
583.376; 1226.475;    0.000;    0.000
583.501; 1185.475;    0.000;    0.000
583.626; 1173.475;    0.000;    0.000
583.751; 1208.475;    0.000;    0.000
583.877; 1216.475;    0.000;    0.000
584.002; 1238.475;    0.000;    0.000
584.127; 1178.475;    0.000;    0.000
584.252; 1174.475;    0.000;    0.000
584.377; 1251.475;    0.000;    0.000
584.503; 1195.475;    0.000;    0.000
584.628; 1264.475;    0.000;    0.000
584.753; 1280.475;    0.000;    0.000
584.878; 1174.475;    0.000;    0.000
585.003; 1209.475;    0.000;    0.000
585.128; 1251.475;    0.000;    0.000
585.253; 1199.475;    0.000;    0.000
585.378; 1201.475;    0.000;    0.000
585.503; 1250.475;    0.000;    0.000
585.628; 1406.475;    0.000;    0.000
585.753; 1495.475;    0.000;    0.000
585.878; 1457.475;    0.000;    0.000
586.003; 1320.475;    0.000;    0.000
586.128; 1272.475;    0.000;    0.000
586.253; 1290.475;    0.000;    0.000
586.378; 1293.475;    0.000;    0.000
586.503; 1320.475;    0.000;    0.000
586.628; 1375.475;    0.000;    0.000
586.753; 1309.475;    0.000;    0.000
586.878; 1204.475;    0.000;    0.000
587.003; 1220.475;    0.000;    0.000
587.127; 1243.475;    0.000;    0.000
587.252; 1231.475;    0.000;    0.000
587.377; 1236.475;    0.000;    0.000
587.502; 1253.475;    0.000;    0.000
587.627; 1279.475;    0.000;    0.000
587.751; 1299.475;    0.000;    0.000
587.876; 1269.475;    0.000;    0.000
588.001; 1243.475;    0.000;    0.000
588.125; 1314.475;    0.000;    0.000
588.250; 1219.475;    0.000;    0.000
588.375; 1403.475;    0.000;    0.000
588.499; 1268.475;    0.000;    0.000
588.624; 1409.475;    0.000;    0.000
588.749; 1788.475;    0.000;    0.000
588.873; 3845.475;    0.000;    0.000
588.998; 5741.475;    0.000;    0.000
589.122; 4351.475;    0.000;    0.000
589.247; 2122.475;    0.000;    0.000
589.372; 1923.475;    0.000;    0.000
589.496; 3626.475;    0.000;    0.000
589.621; 4430.475;    0.000;    0.000
589.745; 3013.475;    0.000;    0.000
589.870; 1636.475;    0.000;    0.000
589.994; 1469.475;    0.000;    0.000
590.118; 1362.475;    0.000;    0.000
590.243; 1360.475;    0.000;    0.000
590.367; 1362.475;    0.000;    0.000
590.492; 1277.475;    0.000;    0.000
590.616; 1294.475;    0.000;    0.000
590.740; 1278.475;    0.000;    0.000
590.865; 1287.475;    0.000;    0.000
590.989; 1272.475;    0.000;    0.000
591.114; 1246.475;    0.000;    0.000
591.238; 1260.475;    0.000;    0.000
591.362; 1280.475;    0.000;    0.000
591.486; 1369.475;    0.000;    0.000
591.611; 1331.475;    0.000;    0.000
591.735; 1330.475;    0.000;    0.000
591.859; 1357.475;    0.000;    0.000
591.983; 1313.475;    0.000;    0.000
592.107; 1324.475;    0.000;    0.000
592.232; 1303.475;    0.000;    0.000
592.356; 1266.475;    0.000;    0.000
592.480; 1252.475;    0.000;    0.000
592.604; 1324.475;    0.000;    0.000
592.728; 1345.475;    0.000;    0.000
592.852; 1345.475;    0.000;    0.000
592.976; 1342.475;    0.000;    0.000
593.100; 1337.475;    0.000;    0.000
593.224; 1397.475;    0.000;    0.000
593.349; 1428.475;    0.000;    0.000
593.473; 1342.475;    0.000;    0.000
593.597; 1356.475;    0.000;    0.000
593.721; 1384.475;    0.000;    0.000
593.844; 1390.475;    0.000;    0.000
593.968; 1369.475;    0.000;    0.000
594.092; 1346.475;    0.000;    0.000
594.216; 1341.475;    0.000;    0.000
594.340; 1265.475;    0.000;    0.000
594.464; 1392.475;    0.000;    0.000
594.588; 1358.475;    0.000;    0.000
594.712; 1308.475;    0.000;    0.000
594.836; 1308.475;    0.000;    0.000
594.959; 1264.475;    0.000;    0.000
595.083; 1389.475;    0.000;    0.000
595.207; 1350.475;    0.000;    0.000
595.331; 1285.475;    0.000;    0.000
595.455; 1325.475;    0.000;    0.000
595.578; 1295.475;    0.000;    0.000
595.702; 1352.475;    0.000;    0.000
595.826; 1350.475;    0.000;    0.000
595.949; 1266.475;    0.000;    0.000
596.073; 1300.475;    0.000;    0.000
596.197; 1325.475;    0.000;    0.000
596.320; 1339.475;    0.000;    0.000
596.444; 1314.475;    0.000;    0.000
596.568; 1278.475;    0.000;    0.000
596.691; 1299.475;    0.000;    0.000
596.815; 1308.475;    0.000;    0.000
596.938; 1341.475;    0.000;    0.000
597.062; 1286.475;    0.000;    0.000
597.186; 1316.475;    0.000;    0.000
597.309; 1257.475;    0.000;    0.000
597.433; 1259.475;    0.000;    0.000
597.556; 1226.475;    0.000;    0.000
597.680; 1348.475;    0.000;    0.000
597.803; 1315.475;    0.000;    0.000
597.926; 1328.475;    0.000;    0.000
598.050; 1275.475;    0.000;    0.000
598.173; 1298.475;    0.000;    0.000
598.297; 1251.475;    0.000;    0.000
598.420; 1319.475;    0.000;    0.000
598.543; 1261.475;    0.000;    0.000
598.667; 1231.475;    0.000;    0.000
598.790; 1290.475;    0.000;    0.000
598.913; 1265.475;    0.000;    0.000
599.037; 1251.475;    0.000;    0.000
599.160; 1248.475;    0.000;    0.000
599.283; 1305.475;    0.000;    0.000
599.406; 1238.475;    0.000;    0.000
599.530; 1260.475;    0.000;    0.000
599.653; 1201.475;    0.000;    0.000
599.776; 1191.475;    0.000;    0.000
599.899; 1318.475;    0.000;    0.000
600.022; 1282.475;    0.000;    0.000
600.145; 1195.475;    0.000;    0.000
600.269; 1272.475;    0.000;    0.000
600.392; 1263.475;    0.000;    0.000
600.515; 1258.475;    0.000;    0.000
600.638; 1284.475;    0.000;    0.000
600.761; 1213.475;    0.000;    0.000
600.884; 1247.475;    0.000;    0.000
601.007; 1265.475;    0.000;    0.000
601.130; 1270.475;    0.000;    0.000
601.253; 1261.475;    0.000;    0.000
601.376; 1334.475;    0.000;    0.000
601.499; 1259.475;    0.000;    0.000
601.622; 1226.475;    0.000;    0.000
601.745; 1170.475;    0.000;    0.000
601.868; 1232.475;    0.000;    0.000
601.991; 1238.475;    0.000;    0.000
602.113; 1239.475;    0.000;    0.000
602.236; 1206.475;    0.000;    0.000
602.359; 1250.475;    0.000;    0.000
602.482; 1267.475;    0.000;    0.000
602.605; 1248.475;    0.000;    0.000
602.728; 1237.475;    0.000;    0.000
602.850; 1258.475;    0.000;    0.000
602.973; 1244.475;    0.000;    0.000
603.096; 1251.475;    0.000;    0.000
603.219; 1231.475;    0.000;    0.000
603.341; 1250.475;    0.000;    0.000
603.464; 1208.475;    0.000;    0.000
603.587; 1199.475;    0.000;    0.000
603.709; 1251.475;    0.000;    0.000
603.832; 1253.475;    0.000;    0.000
603.955; 1216.475;    0.000;    0.000
604.077; 1237.475;    0.000;    0.000
604.200; 1207.475;    0.000;    0.000
604.323; 1201.475;    0.000;    0.000
604.445; 1178.475;    0.000;    0.000
604.568; 1233.475;    0.000;    0.000
604.690; 1182.475;    0.000;    0.000
604.813; 1207.475;    0.000;    0.000
604.935; 1176.475;    0.000;    0.000
605.058; 1222.475;    0.000;    0.000
605.180; 1298.475;    0.000;    0.000
605.303; 1244.475;    0.000;    0.000
605.425; 1197.475;    0.000;    0.000
605.547; 1255.475;    0.000;    0.000
605.670; 1194.475;    0.000;    0.000
605.792; 1240.475;    0.000;    0.000
605.915; 1247.475;    0.000;    0.000
606.037; 1264.475;    0.000;    0.000
606.159; 1233.475;    0.000;    0.000
606.282; 1214.475;    0.000;    0.000
606.404; 1211.475;    0.000;    0.000
606.526; 1163.475;    0.000;    0.000
606.648; 1257.475;    0.000;    0.000
606.771; 1192.475;    0.000;    0.000
606.893; 1156.475;    0.000;    0.000
607.015; 1199.475;    0.000;    0.000
607.137; 1121.475;    0.000;    0.000
607.260; 1200.475;    0.000;    0.000
607.382; 1177.475;    0.000;    0.000
607.504; 1219.475;    0.000;    0.000
607.626; 1211.475;    0.000;    0.000
607.748; 1214.475;    0.000;    0.000
607.870; 1135.475;    0.000;    0.000
607.992; 1198.475;    0.000;    0.000
608.114; 1169.475;    0.000;    0.000
608.237; 1143.475;    0.000;    0.000
608.359; 1128.475;    0.000;    0.000
608.481; 1107.475;    0.000;    0.000
608.603; 1150.475;    0.000;    0.000
608.725; 1132.475;    0.000;    0.000
608.847; 1219.475;    0.000;    0.000
608.969; 1219.475;    0.000;    0.000
609.090; 1213.475;    0.000;    0.000
609.212; 1140.475;    0.000;    0.000
609.334; 1197.475;    0.000;    0.000
609.456; 1169.475;    0.000;    0.000
609.578; 1221.475;    0.000;    0.000
609.700; 1164.475;    0.000;    0.000
609.822; 1131.475;    0.000;    0.000
609.944; 1214.475;    0.000;    0.000
610.065; 1192.475;    0.000;    0.000
610.187; 1336.475;    0.000;    0.000
610.309; 1437.475;    0.000;    0.000
610.431; 1385.475;    0.000;    0.000
610.552; 1238.475;    0.000;    0.000
610.674; 1167.475;    0.000;    0.000
610.796; 1161.475;    0.000;    0.000
610.918; 1130.475;    0.000;    0.000
611.039; 1152.475;    0.000;    0.000
611.161; 1204.475;    0.000;    0.000
611.282; 1139.475;    0.000;    0.000
611.404; 1178.475;    0.000;    0.000
611.526; 1170.475;    0.000;    0.000
611.647; 1183.475;    0.000;    0.000
611.769; 1159.475;    0.000;    0.000
611.890; 1189.475;    0.000;    0.000
612.012; 1296.475;    0.000;    0.000
612.133; 1694.475;    0.000;    0.000
612.255; 1975.475;    0.000;    0.000
612.377; 1559.475;    0.000;    0.000
612.498; 1304.475;    0.000;    0.000
612.619; 1281.475;    0.000;    0.000
612.741; 1242.475;    0.000;    0.000
612.862; 1245.475;    0.000;    0.000
612.984; 1157.475;    0.000;    0.000
613.105; 1203.475;    0.000;    0.000
613.226; 1148.475;    0.000;    0.000
613.348; 1212.475;    0.000;    0.000
613.469; 1186.475;    0.000;    0.000
613.590; 1234.475;    0.000;    0.000
613.712; 1205.475;    0.000;    0.000
613.833; 1223.475;    0.000;    0.000
613.954; 1203.475;    0.000;    0.000
614.076; 1276.475;    0.000;    0.000
614.197; 1340.475;    0.000;    0.000
614.318; 1222.475;    0.000;    0.000
614.439; 1267.475;    0.000;    0.000
614.560; 1217.475;    0.000;    0.000
614.682; 1221.475;    0.000;    0.000
614.803; 1183.475;    0.000;    0.000
614.924; 1148.475;    0.000;    0.000
615.045; 1137.475;    0.000;    0.000
615.166; 1136.475;    0.000;    0.000
615.287; 1124.475;    0.000;    0.000
615.408; 1167.475;    0.000;    0.000
615.529; 1187.475;    0.000;    0.000
615.650; 1250.475;    0.000;    0.000
615.771; 1151.475;    0.000;    0.000
615.892; 1227.475;    0.000;    0.000
616.013; 1331.475;    0.000;    0.000
616.134; 1987.475;    0.000;    0.000
616.255; 2412.475;    0.000;    0.000
616.376; 1839.475;    0.000;    0.000
616.497; 1443.475;    0.000;    0.000
616.618; 1347.475;    0.000;    0.000
616.739; 1291.475;    0.000;    0.000
616.860; 1397.475;    0.000;    0.000
616.981; 1463.475;    0.000;    0.000
617.102; 1381.475;    0.000;    0.000
617.222; 1287.475;    0.000;    0.000
617.343; 1217.475;    0.000;    0.000
617.464; 1246.475;    0.000;    0.000
617.585; 1167.475;    0.000;    0.000
617.705; 1146.475;    0.000;    0.000
617.826; 1177.475;    0.000;    0.000
617.947; 1190.475;    0.000;    0.000
618.068; 1140.475;    0.000;    0.000
618.188; 1201.475;    0.000;    0.000
618.309; 1184.475;    0.000;    0.000
618.430; 1158.475;    0.000;    0.000
618.550; 1198.475;    0.000;    0.000
618.671; 1151.475;    0.000;    0.000
618.791; 1154.475;    0.000;    0.000
618.912; 1201.475;    0.000;    0.000
619.033; 1218.475;    0.000;    0.000
619.153; 1226.475;    0.000;    0.000
619.274; 1181.475;    0.000;    0.000
619.394; 1154.475;    0.000;    0.000
619.515; 1128.475;    0.000;    0.000
619.635; 1170.475;    0.000;    0.000
619.756; 1192.475;    0.000;    0.000
619.876; 1120.475;    0.000;    0.000
619.996; 1136.475;    0.000;    0.000
620.117; 1209.475;    0.000;    0.000
620.237; 1186.475;    0.000;    0.000
620.358; 1217.475;    0.000;    0.000
620.478; 1145.475;    0.000;    0.000
620.598; 1151.475;    0.000;    0.000
620.719; 1172.475;    0.000;    0.000
620.839; 1142.475;    0.000;    0.000
620.959; 1196.475;    0.000;    0.000
621.079; 1136.475;    0.000;    0.000
621.200; 1225.475;    0.000;    0.000
621.320; 1153.475;    0.000;    0.000
621.440; 1186.475;    0.000;    0.000
621.560; 1169.475;    0.000;    0.000
621.681; 1123.475;    0.000;    0.000
621.801; 1190.475;    0.000;    0.000
621.921; 1126.475;    0.000;    0.000
622.041; 1242.475;    0.000;    0.000
622.161; 1212.475;    0.000;    0.000
622.281; 1221.475;    0.000;    0.000
622.401; 1224.475;    0.000;    0.000
622.521; 1206.475;    0.000;    0.000
622.641; 1152.475;    0.000;    0.000
622.761; 1195.475;    0.000;    0.000
622.882; 1172.475;    0.000;    0.000
623.002; 1219.475;    0.000;    0.000
623.121; 1130.475;    0.000;    0.000
623.241; 1191.475;    0.000;    0.000
623.361; 1175.475;    0.000;    0.000
623.481; 1129.475;    0.000;    0.000
623.601; 1201.475;    0.000;    0.000
623.721; 1230.475;    0.000;    0.000
623.841; 1161.475;    0.000;    0.000
623.961; 1167.475;    0.000;    0.000
624.081; 1196.475;    0.000;    0.000
624.201; 1130.475;    0.000;    0.000
624.320; 1184.475;    0.000;    0.000
624.440; 1194.475;    0.000;    0.000
624.560; 1125.475;    0.000;    0.000
624.680; 1119.475;    0.000;    0.000
624.799; 1140.475;    0.000;    0.000
624.919; 1121.475;    0.000;    0.000
625.039; 1120.475;    0.000;    0.000
625.159; 1180.475;    0.000;    0.000
625.278; 1155.475;    0.000;    0.000
625.398; 1093.475;    0.000;    0.000
625.518; 1152.475;    0.000;    0.000
625.637; 1213.475;    0.000;    0.000
625.757; 1307.475;    0.000;    0.000
625.876; 1321.475;    0.000;    0.000
625.996; 1314.475;    0.000;    0.000
626.115; 1229.475;    0.000;    0.000
626.235; 1148.475;    0.000;    0.000
626.354; 1131.475;    0.000;    0.000
626.474; 1118.475;    0.000;    0.000
626.594; 1096.475;    0.000;    0.000
626.713; 1100.475;    0.000;    0.000
626.832; 1049.475;    0.000;    0.000
626.952; 1041.475;    0.000;    0.000
627.071; 1128.475;    0.000;    0.000
627.191; 1013.475;    0.000;    0.000
627.310; 1057.475;    0.000;    0.000
627.429; 1120.475;    0.000;    0.000
627.549; 1054.475;    0.000;    0.000
627.668;  993.475;    0.000;    0.000
627.787; 1098.475;    0.000;    0.000
627.907; 1076.475;    0.000;    0.000
628.026; 1115.475;    0.000;    0.000
628.145; 1042.475;    0.000;    0.000
628.264; 1076.475;    0.000;    0.000
628.384; 1076.475;    0.000;    0.000
628.503;  995.475;    0.000;    0.000
628.622; 1017.475;    0.000;    0.000
628.741; 1056.475;    0.000;    0.000
628.860; 1075.475;    0.000;    0.000
628.980; 1015.475;    0.000;    0.000
629.099; 1073.475;    0.000;    0.000
629.218; 1010.475;    0.000;    0.000
629.337; 1057.475;    0.000;    0.000
629.456; 1077.475;    0.000;    0.000
629.575; 1027.475;    0.000;    0.000
629.694; 1066.475;    0.000;    0.000
629.813; 1054.475;    0.000;    0.000
629.932; 1034.475;    0.000;    0.000
630.051; 1062.475;    0.000;    0.000
630.170; 1041.475;    0.000;    0.000
630.289; 1062.475;    0.000;    0.000
630.408; 1028.475;    0.000;    0.000
630.527; 1068.475;    0.000;    0.000
630.646; 1016.475;    0.000;    0.000
630.764;  974.475;    0.000;    0.000
630.883;  970.475;    0.000;    0.000
631.002;  981.475;    0.000;    0.000
631.121; 1059.475;    0.000;    0.000
631.240; 1059.475;    0.000;    0.000
631.359; 1038.475;    0.000;    0.000
631.477; 1002.475;    0.000;    0.000
631.596; 1020.475;    0.000;    0.000
631.715; 1039.475;    0.000;    0.000
631.834; 1087.475;    0.000;    0.000
631.952; 1004.475;    0.000;    0.000
632.071; 1058.475;    0.000;    0.000
632.190;  987.475;    0.000;    0.000
632.308; 1033.475;    0.000;    0.000
632.427; 1001.475;    0.000;    0.000
632.546; 1043.475;    0.000;    0.000
632.664; 1066.475;    0.000;    0.000
632.783; 1029.475;    0.000;    0.000
632.901; 1010.475;    0.000;    0.000
633.020; 1060.475;    0.000;    0.000
633.138; 1091.475;    0.000;    0.000
633.257; 1132.475;    0.000;    0.000
633.375; 1076.475;    0.000;    0.000
633.494; 1012.475;    0.000;    0.000
633.612; 1091.475;    0.000;    0.000
633.731; 1099.475;    0.000;    0.000
633.849; 1139.475;    0.000;    0.000
633.968; 1109.475;    0.000;    0.000
634.086; 1107.475;    0.000;    0.000
634.204; 1177.475;    0.000;    0.000
634.323; 1095.475;    0.000;    0.000
634.441; 1191.475;    0.000;    0.000
634.559; 1130.475;    0.000;    0.000
634.678; 1147.475;    0.000;    0.000
634.796; 1138.475;    0.000;    0.000
634.914; 1155.475;    0.000;    0.000
635.032; 1129.475;    0.000;    0.000
635.151; 1058.475;    0.000;    0.000
635.269; 1065.475;    0.000;    0.000
635.387; 1062.475;    0.000;    0.000
635.505; 1099.475;    0.000;    0.000
635.623; 1088.475;    0.000;    0.000
635.742; 1088.475;    0.000;    0.000
635.860; 1088.475;    0.000;    0.000
635.978; 1094.475;    0.000;    0.000
636.096; 1157.475;    0.000;    0.000
636.214; 1049.475;    0.000;    0.000
636.332; 1045.475;    0.000;    0.000
636.450; 1085.475;    0.000;    0.000
636.568; 1080.475;    0.000;    0.000
636.686; 1050.475;    0.000;    0.000
636.804; 1044.475;    0.000;    0.000
636.922; 1032.475;    0.000;    0.000
637.040; 1102.475;    0.000;    0.000
637.158; 1061.475;    0.000;    0.000
637.276; 1098.475;    0.000;    0.000
637.394; 1039.475;    0.000;    0.000
637.512; 1027.475;    0.000;    0.000
637.629; 1048.475;    0.000;    0.000
637.747;  998.475;    0.000;    0.000
637.865;  972.475;    0.000;    0.000
637.983; 1001.475;    0.000;    0.000
638.101; 1027.475;    0.000;    0.000
638.218;  995.475;    0.000;    0.000
638.336;  984.475;    0.000;    0.000
638.454;  957.475;    0.000;    0.000
638.572;  968.475;    0.000;    0.000
638.689; 1015.475;    0.000;    0.000
638.807; 1007.475;    0.000;    0.000
638.925; 1017.475;    0.000;    0.000
639.042;  930.475;    0.000;    0.000
639.160; 1003.475;    0.000;    0.000
639.278;  949.475;    0.000;    0.000
639.395;  975.475;    0.000;    0.000
639.513;  902.475;    0.000;    0.000
639.630;  934.475;    0.000;    0.000
639.748;  959.475;    0.000;    0.000
639.865;  972.475;    0.000;    0.000
639.983;  951.475;    0.000;    0.000
640.100;  952.475;    0.000;    0.000
640.218;  976.475;    0.000;    0.000
640.335;  975.475;    0.000;    0.000
640.453;  957.475;    0.000;    0.000
640.570;  967.475;    0.000;    0.000
640.688;  943.475;    0.000;    0.000
640.805;  957.475;    0.000;    0.000
640.922;  967.475;    0.000;    0.000
641.040;  976.475;    0.000;    0.000
641.157;  933.475;    0.000;    0.000
641.274;  949.475;    0.000;    0.000
641.391;  980.475;    0.000;    0.000
641.509;  891.475;    0.000;    0.000
641.626; 1031.475;    0.000;    0.000
641.743;  942.475;    0.000;    0.000
641.860;  926.475;    0.000;    0.000
641.978;  987.475;    0.000;    0.000
642.095;  951.475;    0.000;    0.000
642.212;  909.475;    0.000;    0.000
642.329;  950.475;    0.000;    0.000
642.446;  972.475;    0.000;    0.000
642.563;  955.475;    0.000;    0.000
642.681;  989.475;    0.000;    0.000
642.798; 1018.475;    0.000;    0.000
642.915;  950.475;    0.000;    0.000
643.032;  947.475;    0.000;    0.000
643.149;  973.475;    0.000;    0.000
643.266;  950.475;    0.000;    0.000
643.383;  986.475;    0.000;    0.000
643.500;  958.475;    0.000;    0.000
643.617; 1005.475;    0.000;    0.000
643.734; 1218.475;    0.000;    0.000
643.850; 1800.475;    0.000;    0.000
643.967; 1842.475;    0.000;    0.000
644.084; 1380.475;    0.000;    0.000
644.201; 1068.475;    0.000;    0.000
644.318; 1020.475;    0.000;    0.000
644.435;  979.475;    0.000;    0.000
644.552; 1022.475;    0.000;    0.000
644.668; 1003.475;    0.000;    0.000
644.785;  985.475;    0.000;    0.000
644.902; 1127.475;    0.000;    0.000
645.019; 1129.475;    0.000;    0.000
645.135; 1036.475;    0.000;    0.000
645.252;  977.475;    0.000;    0.000
645.369;  968.475;    0.000;    0.000
645.485;  975.475;    0.000;    0.000
645.602; 1024.475;    0.000;    0.000
645.719;  965.475;    0.000;    0.000
645.835; 1022.475;    0.000;    0.000
645.952; 1003.475;    0.000;    0.000
646.068; 1149.475;    0.000;    0.000
646.185; 1537.475;    0.000;    0.000
646.302; 1646.475;    0.000;    0.000
646.418; 1320.475;    0.000;    0.000
646.535; 1069.475;    0.000;    0.000
646.651;  968.475;    0.000;    0.000
646.768; 1002.475;    0.000;    0.000
646.884;  976.475;    0.000;    0.000
647.000; 1021.475;    0.000;    0.000
647.117; 1120.475;    0.000;    0.000
647.233; 1041.475;    0.000;    0.000
647.350; 1044.475;    0.000;    0.000
647.466;  999.475;    0.000;    0.000
647.582;  964.475;    0.000;    0.000
647.699;  967.475;    0.000;    0.000
647.815;  984.475;    0.000;    0.000
647.931;  991.475;    0.000;    0.000
648.047; 1021.475;    0.000;    0.000
648.164; 1055.475;    0.000;    0.000
648.280;  999.475;    0.000;    0.000
648.396;  935.475;    0.000;    0.000
648.512; 1009.475;    0.000;    0.000
648.629;  982.475;    0.000;    0.000
648.745;  989.475;    0.000;    0.000
648.861; 1007.475;    0.000;    0.000
648.977;  987.475;    0.000;    0.000
649.093; 1054.475;    0.000;    0.000
649.209; 1104.475;    0.000;    0.000
649.325; 1384.475;    0.000;    0.000
649.441; 1331.475;    0.000;    0.000
649.557; 1183.475;    0.000;    0.000
649.673; 1168.475;    0.000;    0.000
649.789; 1147.475;    0.000;    0.000
649.905; 1111.475;    0.000;    0.000
650.021; 1117.475;    0.000;    0.000
650.137; 1027.475;    0.000;    0.000
650.253; 1105.475;    0.000;    0.000
650.369; 1053.475;    0.000;    0.000
650.485; 1025.475;    0.000;    0.000
650.601; 1036.475;    0.000;    0.000
650.717; 1025.475;    0.000;    0.000
650.833; 1070.475;    0.000;    0.000
650.948; 1096.475;    0.000;    0.000
651.064; 1008.475;    0.000;    0.000
651.180; 1115.475;    0.000;    0.000
651.296; 1060.475;    0.000;    0.000
651.411; 1092.475;    0.000;    0.000
651.527; 1091.475;    0.000;    0.000
651.643; 1041.475;    0.000;    0.000
651.759; 1081.475;    0.000;    0.000
651.874; 1065.475;    0.000;    0.000
651.990; 1095.475;    0.000;    0.000
652.105; 1033.475;    0.000;    0.000
652.221; 1074.475;    0.000;    0.000
652.337; 1034.475;    0.000;    0.000
652.452; 1118.475;    0.000;    0.000
652.568; 1079.475;    0.000;    0.000
652.683; 1074.475;    0.000;    0.000
652.799; 1108.475;    0.000;    0.000
652.914; 1058.475;    0.000;    0.000
653.030; 1100.475;    0.000;    0.000
653.145; 1135.475;    0.000;    0.000
653.261; 1130.475;    0.000;    0.000
653.376; 1117.475;    0.000;    0.000
653.492; 1134.475;    0.000;    0.000
653.607; 1123.475;    0.000;    0.000
653.722; 1167.475;    0.000;    0.000
653.838; 1194.475;    0.000;    0.000
653.953; 1150.475;    0.000;    0.000
654.068; 1214.475;    0.000;    0.000
654.184; 1203.475;    0.000;    0.000
654.299; 1235.475;    0.000;    0.000
654.414; 1200.475;    0.000;    0.000
654.530; 1272.475;    0.000;    0.000
654.645; 1250.475;    0.000;    0.000
654.760; 1305.475;    0.000;    0.000
654.875; 1323.475;    0.000;    0.000
654.990; 1277.475;    0.000;    0.000
655.106; 1311.475;    0.000;    0.000
655.221; 1370.475;    0.000;    0.000
655.336; 1324.475;    0.000;    0.000
655.451; 1419.475;    0.000;    0.000
655.566; 1472.475;    0.000;    0.000
655.681; 1473.475;    0.000;    0.000
655.796; 1466.475;    0.000;    0.000
655.911; 1527.475;    0.000;    0.000
656.026; 1555.475;    0.000;    0.000
656.141; 1599.475;    0.000;    0.000
656.256; 1572.475;    0.000;    0.000
656.371; 1622.475;    0.000;    0.000
656.486; 1611.475;    0.000;    0.000
656.601; 1651.475;    0.000;    0.000
656.716; 1607.475;    0.000;    0.000
656.831; 1507.475;    0.000;    0.000
656.946; 1528.475;    0.000;    0.000
657.060; 1529.475;    0.000;    0.000
657.175; 1523.475;    0.000;    0.000
657.290; 1523.475;    0.000;    0.000
657.405; 1529.475;    0.000;    0.000
657.520; 1405.475;    0.000;    0.000
657.634; 1436.475;    0.000;    0.000
657.749; 1435.475;    0.000;    0.000
657.864; 1375.475;    0.000;    0.000
657.979; 1426.475;    0.000;    0.000
658.093; 1360.475;    0.000;    0.000
658.208; 1351.475;    0.000;    0.000
658.323; 1303.475;    0.000;    0.000
658.437; 1341.475;    0.000;    0.000
658.552; 1300.475;    0.000;    0.000
658.666; 1283.475;    0.000;    0.000
658.781; 1313.475;    0.000;    0.000
658.895; 1255.475;    0.000;    0.000
659.010; 1278.475;    0.000;    0.000
659.125; 1201.475;    0.000;    0.000
659.239; 1231.475;    0.000;    0.000
659.353; 1270.475;    0.000;    0.000
659.468; 1257.475;    0.000;    0.000
659.582; 1220.475;    0.000;    0.000
659.697; 1234.475;    0.000;    0.000
659.811; 1245.475;    0.000;    0.000
659.926; 1214.475;    0.000;    0.000
660.040; 1132.475;    0.000;    0.000
660.154; 1189.475;    0.000;    0.000
660.269; 1216.475;    0.000;    0.000
660.383; 1088.475;    0.000;    0.000
660.497; 1156.475;    0.000;    0.000
660.612; 1201.475;    0.000;    0.000
660.726; 1182.475;    0.000;    0.000
660.840; 1123.475;    0.000;    0.000
660.954; 1091.475;    0.000;    0.000
661.068; 1129.475;    0.000;    0.000
661.183; 1118.475;    0.000;    0.000
661.297; 1082.475;    0.000;    0.000
661.411; 1105.475;    0.000;    0.000
661.525; 1103.475;    0.000;    0.000
661.639; 1118.475;    0.000;    0.000
661.753; 1026.475;    0.000;    0.000
661.867; 1082.475;    0.000;    0.000
661.981; 1022.475;    0.000;    0.000
662.095; 1033.475;    0.000;    0.000
662.209; 1082.475;    0.000;    0.000
662.323; 1070.475;    0.000;    0.000
662.437;  992.475;    0.000;    0.000
662.551; 1008.475;    0.000;    0.000
662.665; 1054.475;    0.000;    0.000
662.779; 1040.475;    0.000;    0.000
662.893; 1102.475;    0.000;    0.000
663.007;  995.475;    0.000;    0.000
663.121; 1071.475;    0.000;    0.000
663.235; 1040.475;    0.000;    0.000
663.349;  989.475;    0.000;    0.000
663.462; 1000.475;    0.000;    0.000
663.576;  965.475;    0.000;    0.000
663.690;  995.475;    0.000;    0.000
663.804; 1011.475;    0.000;    0.000
663.917;  942.475;    0.000;    0.000
664.031;  991.475;    0.000;    0.000
664.145;  966.475;    0.000;    0.000
664.258;  941.475;    0.000;    0.000
664.372;  947.475;    0.000;    0.000
664.486;  938.475;    0.000;    0.000
664.599;  953.475;    0.000;    0.000
664.713; 1058.475;    0.000;    0.000
664.827;  978.475;    0.000;    0.000
664.940;  955.475;    0.000;    0.000
665.054;  940.475;    0.000;    0.000
665.167;  914.475;    0.000;    0.000
665.281;  974.475;    0.000;    0.000
665.394;  928.475;    0.000;    0.000
665.508;  931.475;    0.000;    0.000
665.621;  993.475;    0.000;    0.000
665.735;  936.475;    0.000;    0.000
665.848;  936.475;    0.000;    0.000
665.961;  937.475;    0.000;    0.000
666.075;  951.475;    0.000;    0.000
666.188;  952.475;    0.000;    0.000
666.301;  925.475;    0.000;    0.000
666.415;  905.475;    0.000;    0.000
666.528;  962.475;    0.000;    0.000
666.641;  931.475;    0.000;    0.000
666.755;  925.475;    0.000;    0.000
666.868;  902.475;    0.000;    0.000
666.981;  910.475;    0.000;    0.000
667.094;  974.475;    0.000;    0.000
667.207;  907.475;    0.000;    0.000
667.321;  846.475;    0.000;    0.000
667.434;  904.475;    0.000;    0.000
667.547;  888.475;    0.000;    0.000
667.660;  930.475;    0.000;    0.000
667.773;  903.475;    0.000;    0.000
667.886;  850.475;    0.000;    0.000
667.999;  907.475;    0.000;    0.000
668.112;  889.475;    0.000;    0.000
668.225;  866.475;    0.000;    0.000
668.338;  865.475;    0.000;    0.000
668.451;  878.475;    0.000;    0.000
668.564;  873.475;    0.000;    0.000
668.677;  842.475;    0.000;    0.000
668.790;  894.475;    0.000;    0.000
668.903;  844.475;    0.000;    0.000
669.016;  820.475;    0.000;    0.000
669.129;  836.475;    0.000;    0.000
669.242;  814.475;    0.000;    0.000
669.354;  886.475;    0.000;    0.000
669.467;  907.475;    0.000;    0.000
669.580;  893.475;    0.000;    0.000
669.693;  867.475;    0.000;    0.000
669.806;  806.475;    0.000;    0.000
669.918;  848.475;    0.000;    0.000
670.031;  873.475;    0.000;    0.000
670.144;  854.475;    0.000;    0.000
670.256;  873.475;    0.000;    0.000
670.369;  872.475;    0.000;    0.000
670.482;  935.475;    0.000;    0.000
670.594; 1120.475;    0.000;    0.000
670.707; 1642.475;    0.000;    0.000
670.820; 1772.475;    0.000;    0.000
670.932; 1333.475;    0.000;    0.000
671.045;  981.475;    0.000;    0.000
671.157;  913.475;    0.000;    0.000
671.270;  886.475;    0.000;    0.000
671.382;  823.475;    0.000;    0.000
671.495;  888.475;    0.000;    0.000
671.607;  880.475;    0.000;    0.000
671.720;  852.475;    0.000;    0.000
671.832;  908.475;    0.000;    0.000
671.944;  829.475;    0.000;    0.000
672.057;  825.475;    0.000;    0.000
672.169;  847.475;    0.000;    0.000
672.281;  875.475;    0.000;    0.000
672.394;  867.475;    0.000;    0.000
672.506;  788.475;    0.000;    0.000
672.618;  870.475;    0.000;    0.000
672.731;  835.475;    0.000;    0.000
672.843;  827.475;    0.000;    0.000
672.955;  859.475;    0.000;    0.000
673.067;  843.475;    0.000;    0.000
673.180;  852.475;    0.000;    0.000
673.292;  813.475;    0.000;    0.000
673.404;  855.475;    0.000;    0.000
673.516;  813.475;    0.000;    0.000
673.628;  803.475;    0.000;    0.000
673.740;  809.475;    0.000;    0.000
673.852;  844.475;    0.000;    0.000
673.964;  823.475;    0.000;    0.000
674.076;  760.475;    0.000;    0.000
674.188;  861.475;    0.000;    0.000
674.300;  886.475;    0.000;    0.000
674.412;  863.475;    0.000;    0.000
674.524;  887.475;    0.000;    0.000
674.636;  849.475;    0.000;    0.000
674.748;  824.475;    0.000;    0.000
674.860;  816.475;    0.000;    0.000
674.972;  833.475;    0.000;    0.000
675.084;  783.475;    0.000;    0.000
675.196;  806.475;    0.000;    0.000
675.307;  805.475;    0.000;    0.000
675.419;  811.475;    0.000;    0.000
675.531;  898.475;    0.000;    0.000
675.643;  801.475;    0.000;    0.000
675.755;  844.475;    0.000;    0.000
675.866;  830.475;    0.000;    0.000
675.978;  811.475;    0.000;    0.000
676.090;  768.475;    0.000;    0.000
676.201;  744.475;    0.000;    0.000
676.313;  783.475;    0.000;    0.000
676.425;  826.475;    0.000;    0.000
676.536;  791.475;    0.000;    0.000
676.648;  855.475;    0.000;    0.000
676.759;  827.475;    0.000;    0.000
676.871;  821.475;    0.000;    0.000
676.983;  832.475;    0.000;    0.000
677.094;  773.475;    0.000;    0.000
677.206;  813.475;    0.000;    0.000
677.317;  797.475;    0.000;    0.000
677.429;  746.475;    0.000;    0.000
677.540;  797.475;    0.000;    0.000
677.651;  788.475;    0.000;    0.000
677.763;  738.475;    0.000;    0.000
677.874;  794.475;    0.000;    0.000
677.986;  790.475;    0.000;    0.000
678.097;  818.475;    0.000;    0.000
678.208;  849.475;    0.000;    0.000
678.320;  786.475;    0.000;    0.000
678.431;  764.475;    0.000;    0.000
678.542;  778.475;    0.000;    0.000
678.653;  732.475;    0.000;    0.000
678.765;  798.475;    0.000;    0.000
678.876;  752.475;    0.000;    0.000
678.987;  785.475;    0.000;    0.000
679.098;  766.475;    0.000;    0.000
679.209;  823.475;    0.000;    0.000
679.320;  732.475;    0.000;    0.000
679.432;  805.475;    0.000;    0.000
679.543;  776.475;    0.000;    0.000
679.654;  738.475;    0.000;    0.000
679.765;  759.475;    0.000;    0.000
679.876;  785.475;    0.000;    0.000
679.987;  774.475;    0.000;    0.000
680.098;  775.475;    0.000;    0.000
680.209;  674.475;    0.000;    0.000
680.320;  757.475;    0.000;    0.000
680.431;  816.475;    0.000;    0.000
680.542;  766.475;    0.000;    0.000
680.653;  805.475;    0.000;    0.000
680.763;  698.475;    0.000;    0.000
680.874;  716.475;    0.000;    0.000
680.985;  685.475;    0.000;    0.000
681.096;  832.475;    0.000;    0.000
681.207;  736.475;    0.000;    0.000
681.318;  756.475;    0.000;    0.000
681.428;  735.475;    0.000;    0.000
681.539;  718.475;    0.000;    0.000
681.650;  761.475;    0.000;    0.000
681.760;  755.475;    0.000;    0.000
681.871;  721.475;    0.000;    0.000
681.982;  745.475;    0.000;    0.000
682.093;  728.475;    0.000;    0.000
682.203;  748.475;    0.000;    0.000
682.314;  759.475;    0.000;    0.000
682.424;  762.475;    0.000;    0.000
682.535;  734.475;    0.000;    0.000
682.646;  793.475;    0.000;    0.000
682.756;  765.475;    0.000;    0.000
682.867;  753.475;    0.000;    0.000
682.977;  750.475;    0.000;    0.000
683.088;  698.475;    0.000;    0.000
683.198;  716.475;    0.000;    0.000
683.308;  720.475;    0.000;    0.000
683.419;  770.475;    0.000;    0.000
683.529;  676.475;    0.000;    0.000
683.640;  694.475;    0.000;    0.000
683.750;  707.475;    0.000;    0.000
683.860;  741.475;    0.000;    0.000
683.971;  796.475;    0.000;    0.000
684.081;  747.475;    0.000;    0.000
684.191;  818.475;    0.000;    0.000
684.301;  741.475;    0.000;    0.000
684.412;  766.475;    0.000;    0.000
684.522;  745.475;    0.000;    0.000
684.632;  775.475;    0.000;    0.000
684.742;  768.475;    0.000;    0.000
684.852;  732.475;    0.000;    0.000
684.963;  748.475;    0.000;    0.000
685.073;  736.475;    0.000;    0.000
685.183;  785.475;    0.000;    0.000
685.293;  769.475;    0.000;    0.000
685.403;  741.475;    0.000;    0.000
685.513;  789.475;    0.000;    0.000
685.623;  727.475;    0.000;    0.000
685.733;  812.475;    0.000;    0.000
685.843;  790.475;    0.000;    0.000
685.953;  722.475;    0.000;    0.000
686.063;  736.475;    0.000;    0.000
686.173;  751.475;    0.000;    0.000
686.283;  763.475;    0.000;    0.000
686.393;  720.475;    0.000;    0.000
686.503;  766.475;    0.000;    0.000
686.612;  717.475;    0.000;    0.000
686.722;  763.475;    0.000;    0.000
686.832;  711.475;    0.000;    0.000
686.942;  725.475;    0.000;    0.000
687.052;  720.475;    0.000;    0.000
687.161;  820.475;    0.000;    0.000
687.271;  771.475;    0.000;    0.000
687.381;  737.475;    0.000;    0.000
687.491;  666.475;    0.000;    0.000
687.600;  759.475;    0.000;    0.000
687.710;  771.475;    0.000;    0.000
687.820;  731.475;    0.000;    0.000
687.929;  742.475;    0.000;    0.000
688.039;  740.475;    0.000;    0.000
688.148;  723.475;    0.000;    0.000
688.258;  733.475;    0.000;    0.000
688.367;  747.475;    0.000;    0.000
688.477;  734.475;    0.000;    0.000
688.586;  711.475;    0.000;    0.000
688.696;  703.475;    0.000;    0.000
688.805;  766.475;    0.000;    0.000
688.915;  683.475;    0.000;    0.000
689.024;  728.475;    0.000;    0.000
689.134;  733.475;    0.000;    0.000
689.243;  655.475;    0.000;    0.000
689.352;  766.475;    0.000;    0.000
689.462;  701.475;    0.000;    0.000
689.571;  737.475;    0.000;    0.000
689.680;  696.475;    0.000;    0.000
689.790;  671.475;    0.000;    0.000
689.899;  692.475;    0.000;    0.000
690.008;  718.475;    0.000;    0.000
690.117;  712.475;    0.000;    0.000
690.227;  731.475;    0.000;    0.000
690.336;  707.475;    0.000;    0.000
690.445;  681.475;    0.000;    0.000
690.554;  694.475;    0.000;    0.000
690.663;  677.475;    0.000;    0.000
690.772;  709.475;    0.000;    0.000
690.881;  707.475;    0.000;    0.000
690.990;  736.475;    0.000;    0.000
691.099;  718.475;    0.000;    0.000
691.209;  746.475;    0.000;    0.000
691.318;  754.475;    0.000;    0.000
691.427;  685.475;    0.000;    0.000
691.536;  737.475;    0.000;    0.000
691.644;  722.475;    0.000;    0.000
691.753;  668.475;    0.000;    0.000
691.862;  754.475;    0.000;    0.000
691.971;  688.475;    0.000;    0.000
692.080;  740.475;    0.000;    0.000
692.189;  708.475;    0.000;    0.000
692.298;  707.475;    0.000;    0.000
692.406;  764.475;    0.000;    0.000
692.515;  777.475;    0.000;    0.000
692.624;  689.475;    0.000;    0.000
692.733;  727.475;    0.000;    0.000
692.842;  795.475;    0.000;    0.000
692.950;  671.475;    0.000;    0.000
693.059;  692.475;    0.000;    0.000
693.168;  774.475;    0.000;    0.000
693.276;  667.475;    0.000;    0.000
693.385;  723.475;    0.000;    0.000
693.494;  741.475;    0.000;    0.000
693.602;  667.475;    0.000;    0.000
693.711;  748.475;    0.000;    0.000
693.819;  757.475;    0.000;    0.000
693.928;  729.475;    0.000;    0.000
694.036;  730.475;    0.000;    0.000
694.145;  711.475;    0.000;    0.000
694.253;  753.475;    0.000;    0.000
694.362;  716.475;    0.000;    0.000
694.470;  770.475;    0.000;    0.000
694.579;  724.475;    0.000;    0.000
694.687;  781.475;    0.000;    0.000
694.795;  726.475;    0.000;    0.000
694.904;  695.475;    0.000;    0.000
695.012;  744.475;    0.000;    0.000
695.120;  717.475;    0.000;    0.000
695.229;  756.475;    0.000;    0.000
695.337;  744.475;    0.000;    0.000
695.445;  749.475;    0.000;    0.000
695.553;  747.475;    0.000;    0.000
695.662;  714.475;    0.000;    0.000
695.770;  721.475;    0.000;    0.000
695.878;  689.475;    0.000;    0.000
695.986;  754.475;    0.000;    0.000
696.094;  705.475;    0.000;    0.000
696.202;  718.475;    0.000;    0.000
696.310;  752.475;    0.000;    0.000
696.419;  728.475;    0.000;    0.000
696.527;  724.475;    0.000;    0.000
696.635;  698.475;    0.000;    0.000
696.743;  668.475;    0.000;    0.000
696.851;  751.475;    0.000;    0.000
696.959;  771.475;    0.000;    0.000
697.067;  703.475;    0.000;    0.000
697.174;  706.475;    0.000;    0.000
697.282;  713.475;    0.000;    0.000
697.390;  739.475;    0.000;    0.000
697.498;  713.475;    0.000;    0.000
697.606;  713.475;    0.000;    0.000
697.714;  726.475;    0.000;    0.000
697.822;  758.475;    0.000;    0.000
697.929;  685.475;    0.000;    0.000
698.037;  724.475;    0.000;    0.000
698.145;  690.475;    0.000;    0.000
698.253;  688.475;    0.000;    0.000
698.360;  726.475;    0.000;    0.000
698.468;  706.475;    0.000;    0.000
698.576;  797.475;    0.000;    0.000
698.683;  724.475;    0.000;    0.000
698.791;  727.475;    0.000;    0.000
698.899;  756.475;    0.000;    0.000
699.006;  756.475;    0.000;    0.000
699.114;  766.475;    0.000;    0.000
699.221;  713.475;    0.000;    0.000
699.329;  751.475;    0.000;    0.000
699.436;  785.475;    0.000;    0.000
699.544;  767.475;    0.000;    0.000
699.651;  740.475;    0.000;    0.000
699.759;  726.475;    0.000;    0.000
699.866;  745.475;    0.000;    0.000
699.974;  702.475;    0.000;    0.000
700.081;  747.475;    0.000;    0.000
700.188;  765.475;    0.000;    0.000
700.296;  734.475;    0.000;    0.000
700.403;  720.475;    0.000;    0.000
700.510;  690.475;    0.000;    0.000
700.618;  783.475;    0.000;    0.000
700.725;  720.475;    0.000;    0.000
700.832;  742.475;    0.000;    0.000
700.940;  715.475;    0.000;    0.000
701.047;  744.475;    0.000;    0.000
701.154;  703.475;    0.000;    0.000
701.261;  723.475;    0.000;    0.000
701.368;  762.475;    0.000;    0.000
701.475;  759.475;    0.000;    0.000
701.582;  771.475;    0.000;    0.000
701.690;  741.475;    0.000;    0.000
701.797;  749.475;    0.000;    0.000
701.904;  772.475;    0.000;    0.000
702.011;  809.475;    0.000;    0.000
702.118;  793.475;    0.000;    0.000
702.225;  748.475;    0.000;    0.000
702.332;  796.475;    0.000;    0.000
702.439;  819.475;    0.000;    0.000
702.546;  830.475;    0.000;    0.000
702.652;  766.475;    0.000;    0.000
702.759;  821.475;    0.000;    0.000
702.866;  781.475;    0.000;    0.000
702.973;  851.475;    0.000;    0.000
703.080;  806.475;    0.000;    0.000
703.187;  774.475;    0.000;    0.000
703.294;  866.475;    0.000;    0.000
703.400;  746.475;    0.000;    0.000
703.507;  407.475;    0.000;    0.000
703.614;  310.475;    0.000;    0.000
703.720;  300.475;    0.000;    0.000
703.827;  294.475;    0.000;    0.000
703.934;  354.475;    0.000;    0.000
704.040;  281.475;    0.000;    0.000
704.147;  308.475;    0.000;    0.000
704.254;  329.475;    0.000;    0.000
704.360;  270.475;    0.000;    0.000
704.467;  338.475;    0.000;    0.000
704.573;  338.475;    0.000;    0.000
704.680;  323.475;    0.000;    0.000
704.786;  312.475;    0.000;    0.000
704.893;  320.475;    0.000;    0.000
704.999;  312.475;    0.000;    0.000
705.106;  364.475;    0.000;    0.000

