Olivino_Burst5-n5
Integration time [ms]:   1.000
Averaging Nr. [scans]: 1
Smoothing Nr. [pixels]: 0
Data measured with spectrometer [name]: UV1
Wave   ;Sample   ;Dark     ;Reference
[nm]   ;[counts] ;[counts] ;[counts] 

236.381;  117.925;    0.000;    0.000
236.451;  189.925;    0.000;    0.000
236.520;  170.925;    0.000;    0.000
236.590;  197.925;    0.000;    0.000
236.660;  169.925;    0.000;    0.000
236.730;  203.925;    0.000;    0.000
236.799;  221.925;    0.000;    0.000
236.869;  200.925;    0.000;    0.000
236.939;  173.925;    0.000;    0.000
237.009;  177.925;    0.000;    0.000
237.078;  158.925;    0.000;    0.000
237.148;  153.925;    0.000;    0.000
237.218;  225.925;    0.000;    0.000
237.287;  189.925;    0.000;    0.000
237.357;  179.925;    0.000;    0.000
237.427;  164.925;    0.000;    0.000
237.496;  343.925;    0.000;    0.000
237.566;  283.925;    0.000;    0.000
237.636;  327.925;    0.000;    0.000
237.705;  312.925;    0.000;    0.000
237.775;  289.925;    0.000;    0.000
237.845;  300.925;    0.000;    0.000
237.914;  286.925;    0.000;    0.000
237.984;  308.925;    0.000;    0.000
238.054;  283.925;    0.000;    0.000
238.123;  341.925;    0.000;    0.000
238.193;  293.925;    0.000;    0.000
238.263;  324.925;    0.000;    0.000
238.332;  305.925;    0.000;    0.000
238.402;  300.925;    0.000;    0.000
238.471;  299.925;    0.000;    0.000
238.541;  253.925;    0.000;    0.000
238.611;  291.925;    0.000;    0.000
238.680;  285.925;    0.000;    0.000
238.750;  305.925;    0.000;    0.000
238.819;  338.925;    0.000;    0.000
238.889;  319.925;    0.000;    0.000
238.958;  316.925;    0.000;    0.000
239.028;  331.925;    0.000;    0.000
239.097;  297.925;    0.000;    0.000
239.167;  330.925;    0.000;    0.000
239.237;  342.925;    0.000;    0.000
239.306;  291.925;    0.000;    0.000
239.376;  326.925;    0.000;    0.000
239.445;  319.925;    0.000;    0.000
239.515;  296.925;    0.000;    0.000
239.584;  290.925;    0.000;    0.000
239.654;  282.925;    0.000;    0.000
239.723;  324.925;    0.000;    0.000
239.793;  290.925;    0.000;    0.000
239.862;  293.925;    0.000;    0.000
239.932;  256.925;    0.000;    0.000
240.001;  286.925;    0.000;    0.000
240.070;  293.925;    0.000;    0.000
240.140;  326.925;    0.000;    0.000
240.209;  307.925;    0.000;    0.000
240.279;  273.925;    0.000;    0.000
240.348;  332.925;    0.000;    0.000
240.418;  311.925;    0.000;    0.000
240.487;  284.925;    0.000;    0.000
240.556;  328.925;    0.000;    0.000
240.626;  271.925;    0.000;    0.000
240.695;  311.925;    0.000;    0.000
240.765;  300.925;    0.000;    0.000
240.834;  283.925;    0.000;    0.000
240.903;  293.925;    0.000;    0.000
240.973;  308.925;    0.000;    0.000
241.042;  302.925;    0.000;    0.000
241.112;  301.925;    0.000;    0.000
241.181;  296.925;    0.000;    0.000
241.250;  265.925;    0.000;    0.000
241.320;  325.925;    0.000;    0.000
241.389;  294.925;    0.000;    0.000
241.458;  305.925;    0.000;    0.000
241.528;  281.925;    0.000;    0.000
241.597;  301.925;    0.000;    0.000
241.666;  331.925;    0.000;    0.000
241.736;  308.925;    0.000;    0.000
241.805;  337.925;    0.000;    0.000
241.874;  299.925;    0.000;    0.000
241.943;  285.925;    0.000;    0.000
242.013;  312.925;    0.000;    0.000
242.082;  309.925;    0.000;    0.000
242.151;  305.925;    0.000;    0.000
242.221;  314.925;    0.000;    0.000
242.290;  325.925;    0.000;    0.000
242.359;  273.925;    0.000;    0.000
242.428;  359.925;    0.000;    0.000
242.498;  285.925;    0.000;    0.000
242.567;  328.925;    0.000;    0.000
242.636;  285.925;    0.000;    0.000
242.705;  269.925;    0.000;    0.000
242.774;  278.925;    0.000;    0.000
242.844;  277.925;    0.000;    0.000
242.913;  295.925;    0.000;    0.000
242.982;  281.925;    0.000;    0.000
243.051;  293.925;    0.000;    0.000
243.120;  314.925;    0.000;    0.000
243.190;  279.925;    0.000;    0.000
243.259;  312.925;    0.000;    0.000
243.328;  269.925;    0.000;    0.000
243.397;  309.925;    0.000;    0.000
243.466;  304.925;    0.000;    0.000
243.535;  300.925;    0.000;    0.000
243.605;  287.925;    0.000;    0.000
243.674;  309.925;    0.000;    0.000
243.743;  335.925;    0.000;    0.000
243.812;  253.925;    0.000;    0.000
243.881;  277.925;    0.000;    0.000
243.950;  272.925;    0.000;    0.000
244.019;  269.925;    0.000;    0.000
244.088;  276.925;    0.000;    0.000
244.158;  319.925;    0.000;    0.000
244.227;  265.925;    0.000;    0.000
244.296;  283.925;    0.000;    0.000
244.365;  265.925;    0.000;    0.000
244.434;  235.925;    0.000;    0.000
244.503;  306.925;    0.000;    0.000
244.572;  257.925;    0.000;    0.000
244.641;  272.925;    0.000;    0.000
244.710;  283.925;    0.000;    0.000
244.779;  292.925;    0.000;    0.000
244.848;  266.925;    0.000;    0.000
244.917;  271.925;    0.000;    0.000
244.986;  249.925;    0.000;    0.000
245.055;  316.925;    0.000;    0.000
245.124;  271.925;    0.000;    0.000
245.193;  280.925;    0.000;    0.000
245.262;  254.925;    0.000;    0.000
245.331;  259.925;    0.000;    0.000
245.400;  269.925;    0.000;    0.000
245.469;  286.925;    0.000;    0.000
245.538;  305.925;    0.000;    0.000
245.607;  324.925;    0.000;    0.000
245.676;  258.925;    0.000;    0.000
245.745;  293.925;    0.000;    0.000
245.814;  290.925;    0.000;    0.000
245.883;  259.925;    0.000;    0.000
245.952;  275.925;    0.000;    0.000
246.021;  304.925;    0.000;    0.000
246.090;  317.925;    0.000;    0.000
246.159;  282.925;    0.000;    0.000
246.227;  292.925;    0.000;    0.000
246.296;  276.925;    0.000;    0.000
246.365;  251.925;    0.000;    0.000
246.434;  289.925;    0.000;    0.000
246.503;  260.925;    0.000;    0.000
246.572;  275.925;    0.000;    0.000
246.641;  321.925;    0.000;    0.000
246.710;  332.925;    0.000;    0.000
246.779;  255.925;    0.000;    0.000
246.847;  281.925;    0.000;    0.000
246.916;  256.925;    0.000;    0.000
246.985;  257.925;    0.000;    0.000
247.054;  235.925;    0.000;    0.000
247.123;  252.925;    0.000;    0.000
247.192;  265.925;    0.000;    0.000
247.260;  205.925;    0.000;    0.000
247.329;  251.925;    0.000;    0.000
247.398;  264.925;    0.000;    0.000
247.467;  267.925;    0.000;    0.000
247.536;  311.925;    0.000;    0.000
247.604;  287.925;    0.000;    0.000
247.673;  276.925;    0.000;    0.000
247.742;  249.925;    0.000;    0.000
247.811;  312.925;    0.000;    0.000
247.879;  296.925;    0.000;    0.000
247.948;  268.925;    0.000;    0.000
248.017;  261.925;    0.000;    0.000
248.086;  281.925;    0.000;    0.000
248.154;  249.925;    0.000;    0.000
248.223;  277.925;    0.000;    0.000
248.292;  289.925;    0.000;    0.000
248.360;  265.925;    0.000;    0.000
248.429;  269.925;    0.000;    0.000
248.498;  247.925;    0.000;    0.000
248.567;  283.925;    0.000;    0.000
248.635;  305.925;    0.000;    0.000
248.704;  289.925;    0.000;    0.000
248.773;  259.925;    0.000;    0.000
248.841;  298.925;    0.000;    0.000
248.910;  308.925;    0.000;    0.000
248.979;  243.925;    0.000;    0.000
249.047;  261.925;    0.000;    0.000
249.116;  278.925;    0.000;    0.000
249.185;  290.925;    0.000;    0.000
249.253;  239.925;    0.000;    0.000
249.322;  258.925;    0.000;    0.000
249.390;  241.925;    0.000;    0.000
249.459;  248.925;    0.000;    0.000
249.528;  264.925;    0.000;    0.000
249.596;  220.925;    0.000;    0.000
249.665;  232.925;    0.000;    0.000
249.733;  289.925;    0.000;    0.000
249.802;  269.925;    0.000;    0.000
249.871;  273.925;    0.000;    0.000
249.939;  233.925;    0.000;    0.000
250.008;  267.925;    0.000;    0.000
250.076;  299.925;    0.000;    0.000
250.145;  245.925;    0.000;    0.000
250.213;  259.925;    0.000;    0.000
250.282;  245.925;    0.000;    0.000
250.350;  274.925;    0.000;    0.000
250.419;  276.925;    0.000;    0.000
250.487;  277.925;    0.000;    0.000
250.556;  258.925;    0.000;    0.000
250.624;  247.925;    0.000;    0.000
250.693;  232.925;    0.000;    0.000
250.761;  299.925;    0.000;    0.000
250.830;  317.925;    0.000;    0.000
250.898;  250.925;    0.000;    0.000
250.967;  230.925;    0.000;    0.000
251.035;  227.925;    0.000;    0.000
251.104;  240.925;    0.000;    0.000
251.172;  285.925;    0.000;    0.000
251.241;  224.925;    0.000;    0.000
251.309;  272.925;    0.000;    0.000
251.378;  272.925;    0.000;    0.000
251.446;  245.925;    0.000;    0.000
251.514;  259.925;    0.000;    0.000
251.583;  247.925;    0.000;    0.000
251.651;  241.925;    0.000;    0.000
251.720;  281.925;    0.000;    0.000
251.788;  279.925;    0.000;    0.000
251.856;  210.925;    0.000;    0.000
251.925;  186.925;    0.000;    0.000
251.993;  277.925;    0.000;    0.000
252.062;  265.925;    0.000;    0.000
252.130;  258.925;    0.000;    0.000
252.198;  272.925;    0.000;    0.000
252.267;  244.925;    0.000;    0.000
252.335;  247.925;    0.000;    0.000
252.403;  239.925;    0.000;    0.000
252.472;  228.925;    0.000;    0.000
252.540;  235.925;    0.000;    0.000
252.608;  247.925;    0.000;    0.000
252.677;  234.925;    0.000;    0.000
252.745;  274.925;    0.000;    0.000
252.813;  229.925;    0.000;    0.000
252.881;  216.925;    0.000;    0.000
252.950;  216.925;    0.000;    0.000
253.018;  242.925;    0.000;    0.000
253.086;  250.925;    0.000;    0.000
253.155;  205.925;    0.000;    0.000
253.223;  247.925;    0.000;    0.000
253.291;  245.925;    0.000;    0.000
253.359;  274.925;    0.000;    0.000
253.427;  266.925;    0.000;    0.000
253.496;  215.925;    0.000;    0.000
253.564;  226.925;    0.000;    0.000
253.632;  213.925;    0.000;    0.000
253.700;  240.925;    0.000;    0.000
253.769;  232.925;    0.000;    0.000
253.837;  228.925;    0.000;    0.000
253.905;  234.925;    0.000;    0.000
253.973;  245.925;    0.000;    0.000
254.041;  225.925;    0.000;    0.000
254.110;  233.925;    0.000;    0.000
254.178;  239.925;    0.000;    0.000
254.246;  240.925;    0.000;    0.000
254.314;  211.925;    0.000;    0.000
254.382;  251.925;    0.000;    0.000
254.450;  215.925;    0.000;    0.000
254.518;  214.925;    0.000;    0.000
254.587;  207.925;    0.000;    0.000
254.655;  216.925;    0.000;    0.000
254.723;  224.925;    0.000;    0.000
254.791;  210.925;    0.000;    0.000
254.859;  242.925;    0.000;    0.000
254.927;  240.925;    0.000;    0.000
254.995;  203.925;    0.000;    0.000
255.063;  205.925;    0.000;    0.000
255.131;  226.925;    0.000;    0.000
255.199;  210.925;    0.000;    0.000
255.267;  187.925;    0.000;    0.000
255.336;  228.925;    0.000;    0.000
255.404;  223.925;    0.000;    0.000
255.472;  264.925;    0.000;    0.000
255.540;  184.925;    0.000;    0.000
255.608;  202.925;    0.000;    0.000
255.676;  215.925;    0.000;    0.000
255.744;  212.925;    0.000;    0.000
255.812;  211.925;    0.000;    0.000
255.880;  245.925;    0.000;    0.000
255.948;  218.925;    0.000;    0.000
256.016;  240.925;    0.000;    0.000
256.084;  269.925;    0.000;    0.000
256.152;  218.925;    0.000;    0.000
256.220;  255.925;    0.000;    0.000
256.288;  248.925;    0.000;    0.000
256.356;  207.925;    0.000;    0.000
256.424;  185.925;    0.000;    0.000
256.491;  200.925;    0.000;    0.000
256.559;  194.925;    0.000;    0.000
256.627;  243.925;    0.000;    0.000
256.695;  212.925;    0.000;    0.000
256.763;  219.925;    0.000;    0.000
256.831;  219.925;    0.000;    0.000
256.899;  236.925;    0.000;    0.000
256.967;  214.925;    0.000;    0.000
257.035;  221.925;    0.000;    0.000
257.103;  264.925;    0.000;    0.000
257.171;  190.925;    0.000;    0.000
257.238;  197.925;    0.000;    0.000
257.306;  224.925;    0.000;    0.000
257.374;  203.925;    0.000;    0.000
257.442;  219.925;    0.000;    0.000
257.510;  218.925;    0.000;    0.000
257.578;  233.925;    0.000;    0.000
257.646;  257.925;    0.000;    0.000
257.713;  250.925;    0.000;    0.000
257.781;  220.925;    0.000;    0.000
257.849;  228.925;    0.000;    0.000
257.917;  223.925;    0.000;    0.000
257.985;  197.925;    0.000;    0.000
258.052;  236.925;    0.000;    0.000
258.120;  191.925;    0.000;    0.000
258.188;  249.925;    0.000;    0.000
258.256;  240.925;    0.000;    0.000
258.324;  261.925;    0.000;    0.000
258.391;  213.925;    0.000;    0.000
258.459;  236.925;    0.000;    0.000
258.527;  291.925;    0.000;    0.000
258.595;  289.925;    0.000;    0.000
258.662;  229.925;    0.000;    0.000
258.730;  249.925;    0.000;    0.000
258.798;  237.925;    0.000;    0.000
258.865;  208.925;    0.000;    0.000
258.933;  247.925;    0.000;    0.000
259.001;  279.925;    0.000;    0.000
259.069;  263.925;    0.000;    0.000
259.136;  271.925;    0.000;    0.000
259.204;  261.925;    0.000;    0.000
259.272;  284.925;    0.000;    0.000
259.339;  248.925;    0.000;    0.000
259.407;  284.925;    0.000;    0.000
259.475;  212.925;    0.000;    0.000
259.542;  201.925;    0.000;    0.000
259.610;  249.925;    0.000;    0.000
259.677;  273.925;    0.000;    0.000
259.745;  321.925;    0.000;    0.000
259.813;  455.925;    0.000;    0.000
259.880;  617.925;    0.000;    0.000
259.948;  537.925;    0.000;    0.000
260.016;  339.925;    0.000;    0.000
260.083;  309.925;    0.000;    0.000
260.151;  252.925;    0.000;    0.000
260.218;  239.925;    0.000;    0.000
260.286;  289.925;    0.000;    0.000
260.353;  256.925;    0.000;    0.000
260.421;  263.925;    0.000;    0.000
260.489;  323.925;    0.000;    0.000
260.556;  318.925;    0.000;    0.000
260.624;  373.925;    0.000;    0.000
260.691;  455.925;    0.000;    0.000
260.759;  386.925;    0.000;    0.000
260.826;  230.925;    0.000;    0.000
260.894;  284.925;    0.000;    0.000
260.961;  249.925;    0.000;    0.000
261.029;  272.925;    0.000;    0.000
261.096;  436.925;    0.000;    0.000
261.164;  548.925;    0.000;    0.000
261.231;  461.925;    0.000;    0.000
261.299;  367.925;    0.000;    0.000
261.366;  381.925;    0.000;    0.000
261.434;  353.925;    0.000;    0.000
261.501;  277.925;    0.000;    0.000
261.568;  265.925;    0.000;    0.000
261.636;  332.925;    0.000;    0.000
261.703;  345.925;    0.000;    0.000
261.771;  385.925;    0.000;    0.000
261.838;  329.925;    0.000;    0.000
261.906;  293.925;    0.000;    0.000
261.973;  283.925;    0.000;    0.000
262.040;  295.925;    0.000;    0.000
262.108;  295.925;    0.000;    0.000
262.175;  297.925;    0.000;    0.000
262.243;  325.925;    0.000;    0.000
262.310;  298.925;    0.000;    0.000
262.377;  290.925;    0.000;    0.000
262.445;  382.925;    0.000;    0.000
262.512;  443.925;    0.000;    0.000
262.579;  505.925;    0.000;    0.000
262.647;  404.925;    0.000;    0.000
262.714;  424.925;    0.000;    0.000
262.781;  442.925;    0.000;    0.000
262.849;  456.925;    0.000;    0.000
262.916;  421.925;    0.000;    0.000
262.983;  475.925;    0.000;    0.000
263.051;  689.925;    0.000;    0.000
263.118;  892.925;    0.000;    0.000
263.185;  629.925;    0.000;    0.000
263.252;  377.925;    0.000;    0.000
263.320;  360.925;    0.000;    0.000
263.387;  341.925;    0.000;    0.000
263.454;  287.925;    0.000;    0.000
263.522;  311.925;    0.000;    0.000
263.589;  351.925;    0.000;    0.000
263.656;  319.925;    0.000;    0.000
263.723;  295.925;    0.000;    0.000
263.790;  332.925;    0.000;    0.000
263.858;  346.925;    0.000;    0.000
263.925;  318.925;    0.000;    0.000
263.992;  312.925;    0.000;    0.000
264.059;  306.925;    0.000;    0.000
264.126;  343.925;    0.000;    0.000
264.194;  286.925;    0.000;    0.000
264.261;  322.925;    0.000;    0.000
264.328;  333.925;    0.000;    0.000
264.395;  340.925;    0.000;    0.000
264.462;  336.925;    0.000;    0.000
264.529;  320.925;    0.000;    0.000
264.597;  268.925;    0.000;    0.000
264.664;  335.925;    0.000;    0.000
264.731;  325.925;    0.000;    0.000
264.798;  305.925;    0.000;    0.000
264.865;  305.925;    0.000;    0.000
264.932;  319.925;    0.000;    0.000
264.999;  314.925;    0.000;    0.000
265.066;  315.925;    0.000;    0.000
265.133;  357.925;    0.000;    0.000
265.201;  353.925;    0.000;    0.000
265.268;  334.925;    0.000;    0.000
265.335;  288.925;    0.000;    0.000
265.402;  276.925;    0.000;    0.000
265.469;  337.925;    0.000;    0.000
265.536;  309.925;    0.000;    0.000
265.603;  340.925;    0.000;    0.000
265.670;  339.925;    0.000;    0.000
265.737;  345.925;    0.000;    0.000
265.804;  299.925;    0.000;    0.000
265.871;  371.925;    0.000;    0.000
265.938;  359.925;    0.000;    0.000
266.005;  356.925;    0.000;    0.000
266.072;  325.925;    0.000;    0.000
266.139;  414.925;    0.000;    0.000
266.206;  360.925;    0.000;    0.000
266.273;  384.925;    0.000;    0.000
266.340;  347.925;    0.000;    0.000
266.407;  415.925;    0.000;    0.000
266.474;  498.925;    0.000;    0.000
266.541;  427.925;    0.000;    0.000
266.608;  439.925;    0.000;    0.000
266.675;  506.925;    0.000;    0.000
266.742;  452.925;    0.000;    0.000
266.808;  376.925;    0.000;    0.000
266.875;  384.925;    0.000;    0.000
266.942;  342.925;    0.000;    0.000
267.009;  392.925;    0.000;    0.000
267.076;  357.925;    0.000;    0.000
267.143;  363.925;    0.000;    0.000
267.210;  357.925;    0.000;    0.000
267.277;  314.925;    0.000;    0.000
267.344;  377.925;    0.000;    0.000
267.410;  391.925;    0.000;    0.000
267.477;  318.925;    0.000;    0.000
267.544;  407.925;    0.000;    0.000
267.611;  400.925;    0.000;    0.000
267.678;  353.925;    0.000;    0.000
267.745;  420.925;    0.000;    0.000
267.811;  364.925;    0.000;    0.000
267.878;  402.925;    0.000;    0.000
267.945;  355.925;    0.000;    0.000
268.012;  377.925;    0.000;    0.000
268.079;  369.925;    0.000;    0.000
268.145;  421.925;    0.000;    0.000
268.212;  374.925;    0.000;    0.000
268.279;  374.925;    0.000;    0.000
268.346;  435.925;    0.000;    0.000
268.412;  407.925;    0.000;    0.000
268.479;  453.925;    0.000;    0.000
268.546;  408.925;    0.000;    0.000
268.613;  416.925;    0.000;    0.000
268.679;  412.925;    0.000;    0.000
268.746;  390.925;    0.000;    0.000
268.813;  383.925;    0.000;    0.000
268.879;  367.925;    0.000;    0.000
268.946;  445.925;    0.000;    0.000
269.013;  419.925;    0.000;    0.000
269.079;  406.925;    0.000;    0.000
269.146;  350.925;    0.000;    0.000
269.213;  434.925;    0.000;    0.000
269.279;  429.925;    0.000;    0.000
269.346;  402.925;    0.000;    0.000
269.413;  374.925;    0.000;    0.000
269.479;  416.925;    0.000;    0.000
269.546;  398.925;    0.000;    0.000
269.613;  347.925;    0.000;    0.000
269.679;  410.925;    0.000;    0.000
269.746;  374.925;    0.000;    0.000
269.813;  363.925;    0.000;    0.000
269.879;  384.925;    0.000;    0.000
269.946;  382.925;    0.000;    0.000
270.012;  366.925;    0.000;    0.000
270.079;  346.925;    0.000;    0.000
270.145;  416.925;    0.000;    0.000
270.212;  407.925;    0.000;    0.000
270.279;  450.925;    0.000;    0.000
270.345;  418.925;    0.000;    0.000
270.412;  454.925;    0.000;    0.000
270.478;  457.925;    0.000;    0.000
270.545;  412.925;    0.000;    0.000
270.611;  458.925;    0.000;    0.000
270.678;  408.925;    0.000;    0.000
270.744;  418.925;    0.000;    0.000
270.811;  405.925;    0.000;    0.000
270.877;  389.925;    0.000;    0.000
270.944;  384.925;    0.000;    0.000
271.010;  433.925;    0.000;    0.000
271.077;  440.925;    0.000;    0.000
271.143;  423.925;    0.000;    0.000
271.210;  477.925;    0.000;    0.000
271.276;  385.925;    0.000;    0.000
271.343;  451.925;    0.000;    0.000
271.409;  513.925;    0.000;    0.000
271.475;  508.925;    0.000;    0.000
271.542;  463.925;    0.000;    0.000
271.608;  463.925;    0.000;    0.000
271.675;  452.925;    0.000;    0.000
271.741;  425.925;    0.000;    0.000
271.807;  415.925;    0.000;    0.000
271.874;  556.925;    0.000;    0.000
271.940;  522.925;    0.000;    0.000
272.007;  507.925;    0.000;    0.000
272.073;  493.925;    0.000;    0.000
272.139;  428.925;    0.000;    0.000
272.206;  435.925;    0.000;    0.000
272.272;  450.925;    0.000;    0.000
272.338;  528.925;    0.000;    0.000
272.405;  455.925;    0.000;    0.000
272.471;  453.925;    0.000;    0.000
272.537;  452.925;    0.000;    0.000
272.604;  406.925;    0.000;    0.000
272.670;  517.925;    0.000;    0.000
272.736;  600.925;    0.000;    0.000
272.803;  549.925;    0.000;    0.000
272.869;  445.925;    0.000;    0.000
272.935;  432.925;    0.000;    0.000
273.001;  461.925;    0.000;    0.000
273.068;  479.925;    0.000;    0.000
273.134;  425.925;    0.000;    0.000
273.200;  427.925;    0.000;    0.000
273.266;  437.925;    0.000;    0.000
273.333;  501.925;    0.000;    0.000
273.399;  426.925;    0.000;    0.000
273.465;  497.925;    0.000;    0.000
273.531;  484.925;    0.000;    0.000
273.597;  475.925;    0.000;    0.000
273.664;  589.925;    0.000;    0.000
273.730;  594.925;    0.000;    0.000
273.796;  577.925;    0.000;    0.000
273.862;  789.925;    0.000;    0.000
273.928; 1026.925;    0.000;    0.000
273.994;  957.925;    0.000;    0.000
274.061;  604.925;    0.000;    0.000
274.127;  537.925;    0.000;    0.000
274.193;  569.925;    0.000;    0.000
274.259;  786.925;    0.000;    0.000
274.325;  841.925;    0.000;    0.000
274.391;  677.925;    0.000;    0.000
274.457;  621.925;    0.000;    0.000
274.524;  651.925;    0.000;    0.000
274.590;  900.925;    0.000;    0.000
274.656; 1207.925;    0.000;    0.000
274.722; 1003.925;    0.000;    0.000
274.788;  713.925;    0.000;    0.000
274.854;  996.925;    0.000;    0.000
274.920; 1213.925;    0.000;    0.000
274.986; 1052.925;    0.000;    0.000
275.052;  712.925;    0.000;    0.000
275.118;  553.925;    0.000;    0.000
275.184;  635.925;    0.000;    0.000
275.250;  663.925;    0.000;    0.000
275.316;  681.925;    0.000;    0.000
275.382;  717.925;    0.000;    0.000
275.448;  693.925;    0.000;    0.000
275.514; 1076.925;    0.000;    0.000
275.580; 1242.925;    0.000;    0.000
275.646;  917.925;    0.000;    0.000
275.712;  627.925;    0.000;    0.000
275.778;  589.925;    0.000;    0.000
275.844;  553.925;    0.000;    0.000
275.910;  574.925;    0.000;    0.000
275.976;  583.925;    0.000;    0.000
276.042;  588.925;    0.000;    0.000
276.108;  595.925;    0.000;    0.000
276.174;  557.925;    0.000;    0.000
276.240;  632.925;    0.000;    0.000
276.306;  534.925;    0.000;    0.000
276.372;  583.925;    0.000;    0.000
276.437;  624.925;    0.000;    0.000
276.503;  637.925;    0.000;    0.000
276.569;  665.925;    0.000;    0.000
276.635;  678.925;    0.000;    0.000
276.701;  794.925;    0.000;    0.000
276.767;  785.925;    0.000;    0.000
276.833;  783.925;    0.000;    0.000
276.899;  735.925;    0.000;    0.000
276.964;  756.925;    0.000;    0.000
277.030;  802.925;    0.000;    0.000
277.096;  757.925;    0.000;    0.000
277.162;  774.925;    0.000;    0.000
277.228;  814.925;    0.000;    0.000
277.293;  853.925;    0.000;    0.000
277.359;  888.925;    0.000;    0.000
277.425;  935.925;    0.000;    0.000
277.491; 1008.925;    0.000;    0.000
277.557; 1124.925;    0.000;    0.000
277.622; 1651.925;    0.000;    0.000
277.688; 1813.925;    0.000;    0.000
277.754; 1728.925;    0.000;    0.000
277.820; 1967.925;    0.000;    0.000
277.885; 2029.925;    0.000;    0.000
277.951; 2754.925;    0.000;    0.000
278.017; 2527.925;    0.000;    0.000
278.083; 2199.925;    0.000;    0.000
278.148; 1994.925;    0.000;    0.000
278.214; 1965.925;    0.000;    0.000
278.280; 2264.925;    0.000;    0.000
278.345; 2164.925;    0.000;    0.000
278.411; 1796.925;    0.000;    0.000
278.477; 1772.925;    0.000;    0.000
278.542; 1843.925;    0.000;    0.000
278.608; 1915.925;    0.000;    0.000
278.674; 2105.925;    0.000;    0.000
278.739; 2445.925;    0.000;    0.000
278.805; 2667.925;    0.000;    0.000
278.871; 2956.925;    0.000;    0.000
278.936; 3392.925;    0.000;    0.000
279.002; 4401.925;    0.000;    0.000
279.067; 5509.925;    0.000;    0.000
279.133; 5608.925;    0.000;    0.000
279.199; 5161.925;    0.000;    0.000
279.264; 5221.925;    0.000;    0.000
279.330; 5565.925;    0.000;    0.000
279.395; 6251.925;    0.000;    0.000
279.461; 7021.925;    0.000;    0.000
279.527; 6899.925;    0.000;    0.000
279.592; 7133.925;    0.000;    0.000
279.658; 7039.925;    0.000;    0.000
279.723; 7010.925;    0.000;    0.000
279.789; 7311.925;    0.000;    0.000
279.854; 6760.925;    0.000;    0.000
279.920; 6117.925;    0.000;    0.000
279.985; 5782.925;    0.000;    0.000
280.051; 5890.925;    0.000;    0.000
280.116; 6096.925;    0.000;    0.000
280.182; 7063.925;    0.000;    0.000
280.247; 7177.925;    0.000;    0.000
280.313; 7156.925;    0.000;    0.000
280.378; 6548.925;    0.000;    0.000
280.444; 5371.925;    0.000;    0.000
280.509; 4656.925;    0.000;    0.000
280.574; 4065.925;    0.000;    0.000
280.640; 3585.925;    0.000;    0.000
280.705; 3277.925;    0.000;    0.000
280.771; 2976.925;    0.000;    0.000
280.836; 2775.925;    0.000;    0.000
280.902; 2585.925;    0.000;    0.000
280.967; 2543.925;    0.000;    0.000
281.032; 2307.925;    0.000;    0.000
281.098; 2163.925;    0.000;    0.000
281.163; 1948.925;    0.000;    0.000
281.229; 1927.925;    0.000;    0.000
281.294; 1958.925;    0.000;    0.000
281.359; 1726.925;    0.000;    0.000
281.425; 1744.925;    0.000;    0.000
281.490; 1599.925;    0.000;    0.000
281.555; 1592.925;    0.000;    0.000
281.621; 1532.925;    0.000;    0.000
281.686; 1390.925;    0.000;    0.000
281.751; 1425.925;    0.000;    0.000
281.817; 1354.925;    0.000;    0.000
281.882; 1287.925;    0.000;    0.000
281.947; 1241.925;    0.000;    0.000
282.012; 1184.925;    0.000;    0.000
282.078; 1227.925;    0.000;    0.000
282.143; 1176.925;    0.000;    0.000
282.208; 1148.925;    0.000;    0.000
282.273; 1143.925;    0.000;    0.000
282.339; 1089.925;    0.000;    0.000
282.404; 1078.925;    0.000;    0.000
282.469; 1033.925;    0.000;    0.000
282.534; 1059.925;    0.000;    0.000
282.600; 1022.925;    0.000;    0.000
282.665;  993.925;    0.000;    0.000
282.730; 1008.925;    0.000;    0.000
282.795;  959.925;    0.000;    0.000
282.860;  970.925;    0.000;    0.000
282.926; 1028.925;    0.000;    0.000
282.991;  879.925;    0.000;    0.000
283.056;  917.925;    0.000;    0.000
283.121;  972.925;    0.000;    0.000
283.186;  972.925;    0.000;    0.000
283.251;  907.925;    0.000;    0.000
283.316;  932.925;    0.000;    0.000
283.382;  877.925;    0.000;    0.000
283.447;  883.925;    0.000;    0.000
283.512;  925.925;    0.000;    0.000
283.577;  940.925;    0.000;    0.000
283.642;  885.925;    0.000;    0.000
283.707;  845.925;    0.000;    0.000
283.772;  828.925;    0.000;    0.000
283.837;  791.925;    0.000;    0.000
283.902;  799.925;    0.000;    0.000
283.967;  867.925;    0.000;    0.000
284.032;  877.925;    0.000;    0.000
284.097;  933.925;    0.000;    0.000
284.163;  866.925;    0.000;    0.000
284.228;  876.925;    0.000;    0.000
284.293;  838.925;    0.000;    0.000
284.358;  925.925;    0.000;    0.000
284.423;  885.925;    0.000;    0.000
284.488;  938.925;    0.000;    0.000
284.553; 1009.925;    0.000;    0.000
284.618;  978.925;    0.000;    0.000
284.683; 1023.925;    0.000;    0.000
284.748; 1125.925;    0.000;    0.000
284.812; 1236.925;    0.000;    0.000
284.877; 1433.925;    0.000;    0.000
284.942; 1692.925;    0.000;    0.000
285.007; 2084.925;    0.000;    0.000
285.072; 2827.925;    0.000;    0.000
285.137; 3753.925;    0.000;    0.000
285.202; 4501.925;    0.000;    0.000
285.267; 4827.925;    0.000;    0.000
285.332; 3955.925;    0.000;    0.000
285.397; 2778.925;    0.000;    0.000
285.462; 2179.925;    0.000;    0.000
285.527; 1923.925;    0.000;    0.000
285.591; 1624.925;    0.000;    0.000
285.656; 1380.925;    0.000;    0.000
285.721; 1254.925;    0.000;    0.000
285.786; 1242.925;    0.000;    0.000
285.851; 1132.925;    0.000;    0.000
285.916; 1061.925;    0.000;    0.000
285.981;  985.925;    0.000;    0.000
286.045;  950.925;    0.000;    0.000
286.110;  928.925;    0.000;    0.000
286.175;  873.925;    0.000;    0.000
286.240;  839.925;    0.000;    0.000
286.305;  891.925;    0.000;    0.000
286.369;  912.925;    0.000;    0.000
286.434;  809.925;    0.000;    0.000
286.499;  831.925;    0.000;    0.000
286.564;  804.925;    0.000;    0.000
286.628;  760.925;    0.000;    0.000
286.693;  793.925;    0.000;    0.000
286.758;  743.925;    0.000;    0.000
286.823;  774.925;    0.000;    0.000
286.887;  741.925;    0.000;    0.000
286.952;  729.925;    0.000;    0.000
287.017;  763.925;    0.000;    0.000
287.082;  774.925;    0.000;    0.000
287.146;  728.925;    0.000;    0.000
287.211;  779.925;    0.000;    0.000
287.276;  741.925;    0.000;    0.000
287.340;  698.925;    0.000;    0.000
287.405;  722.925;    0.000;    0.000
287.470;  663.925;    0.000;    0.000
287.534;  720.925;    0.000;    0.000
287.599;  733.925;    0.000;    0.000
287.663;  692.925;    0.000;    0.000
287.728;  714.925;    0.000;    0.000
287.793;  744.925;    0.000;    0.000
287.857;  775.925;    0.000;    0.000
287.922;  777.925;    0.000;    0.000
287.987;  893.925;    0.000;    0.000
288.051; 1248.925;    0.000;    0.000
288.116; 2211.925;    0.000;    0.000
288.180; 2826.925;    0.000;    0.000
288.245; 2115.925;    0.000;    0.000
288.309; 1457.925;    0.000;    0.000
288.374; 1243.925;    0.000;    0.000
288.439; 1084.925;    0.000;    0.000
288.503;  922.925;    0.000;    0.000
288.568;  904.925;    0.000;    0.000
288.632;  849.925;    0.000;    0.000
288.697;  810.925;    0.000;    0.000
288.761;  731.925;    0.000;    0.000
288.826;  716.925;    0.000;    0.000
288.890;  723.925;    0.000;    0.000
288.955;  711.925;    0.000;    0.000
289.019;  698.925;    0.000;    0.000
289.084;  658.925;    0.000;    0.000
289.148;  683.925;    0.000;    0.000
289.212;  708.925;    0.000;    0.000
289.277;  602.925;    0.000;    0.000
289.341;  658.925;    0.000;    0.000
289.406;  684.925;    0.000;    0.000
289.470;  666.925;    0.000;    0.000
289.535;  663.925;    0.000;    0.000
289.599;  658.925;    0.000;    0.000
289.663;  634.925;    0.000;    0.000
289.728;  623.925;    0.000;    0.000
289.792;  628.925;    0.000;    0.000
289.857;  650.925;    0.000;    0.000
289.921;  630.925;    0.000;    0.000
289.985;  618.925;    0.000;    0.000
290.050;  596.925;    0.000;    0.000
290.114;  589.925;    0.000;    0.000
290.178;  626.925;    0.000;    0.000
290.243;  516.925;    0.000;    0.000
290.307;  608.925;    0.000;    0.000
290.371;  609.925;    0.000;    0.000
290.436;  623.925;    0.000;    0.000
290.500;  580.925;    0.000;    0.000
290.564;  609.925;    0.000;    0.000
290.629;  595.925;    0.000;    0.000
290.693;  613.925;    0.000;    0.000
290.757;  620.925;    0.000;    0.000
290.821;  613.925;    0.000;    0.000
290.886;  601.925;    0.000;    0.000
290.950;  652.925;    0.000;    0.000
291.014;  643.925;    0.000;    0.000
291.078;  625.925;    0.000;    0.000
291.143;  605.925;    0.000;    0.000
291.207;  651.925;    0.000;    0.000
291.271;  689.925;    0.000;    0.000
291.335;  656.925;    0.000;    0.000
291.399;  703.925;    0.000;    0.000
291.464;  787.925;    0.000;    0.000
291.528;  838.925;    0.000;    0.000
291.592;  909.925;    0.000;    0.000
291.656;  785.925;    0.000;    0.000
291.720;  760.925;    0.000;    0.000
291.784;  722.925;    0.000;    0.000
291.849;  714.925;    0.000;    0.000
291.913;  677.925;    0.000;    0.000
291.977;  673.925;    0.000;    0.000
292.041;  665.925;    0.000;    0.000
292.105;  708.925;    0.000;    0.000
292.169;  732.925;    0.000;    0.000
292.233;  795.925;    0.000;    0.000
292.297;  773.925;    0.000;    0.000
292.361;  809.925;    0.000;    0.000
292.425;  875.925;    0.000;    0.000
292.490;  901.925;    0.000;    0.000
292.554;  924.925;    0.000;    0.000
292.618; 1045.925;    0.000;    0.000
292.682; 1173.925;    0.000;    0.000
292.746; 1288.925;    0.000;    0.000
292.810; 1721.925;    0.000;    0.000
292.874; 2399.925;    0.000;    0.000
292.938; 2591.925;    0.000;    0.000
293.002; 2407.925;    0.000;    0.000
293.066; 2151.925;    0.000;    0.000
293.130; 1951.925;    0.000;    0.000
293.194; 1798.925;    0.000;    0.000
293.258; 1730.925;    0.000;    0.000
293.322; 1628.925;    0.000;    0.000
293.386; 1766.925;    0.000;    0.000
293.450; 1862.925;    0.000;    0.000
293.514; 1964.925;    0.000;    0.000
293.577; 2496.925;    0.000;    0.000
293.641; 3651.925;    0.000;    0.000
293.705; 4048.925;    0.000;    0.000
293.769; 3812.925;    0.000;    0.000
293.833; 3277.925;    0.000;    0.000
293.897; 2901.925;    0.000;    0.000
293.961; 2568.925;    0.000;    0.000
294.025; 2367.925;    0.000;    0.000
294.089; 2117.925;    0.000;    0.000
294.153; 2017.925;    0.000;    0.000
294.216; 1801.925;    0.000;    0.000
294.280; 1655.925;    0.000;    0.000
294.344; 1538.925;    0.000;    0.000
294.408; 1459.925;    0.000;    0.000
294.472; 1421.925;    0.000;    0.000
294.536; 1285.925;    0.000;    0.000
294.599; 1168.925;    0.000;    0.000
294.663; 1180.925;    0.000;    0.000
294.727; 1286.925;    0.000;    0.000
294.791; 1193.925;    0.000;    0.000
294.855; 1177.925;    0.000;    0.000
294.918; 1145.925;    0.000;    0.000
294.982; 1063.925;    0.000;    0.000
295.046;  972.925;    0.000;    0.000
295.110;  933.925;    0.000;    0.000
295.173;  885.925;    0.000;    0.000
295.237;  887.925;    0.000;    0.000
295.301;  868.925;    0.000;    0.000
295.364;  997.925;    0.000;    0.000
295.428;  899.925;    0.000;    0.000
295.492;  833.925;    0.000;    0.000
295.556;  772.925;    0.000;    0.000
295.619;  831.925;    0.000;    0.000
295.683;  823.925;    0.000;    0.000
295.747;  794.925;    0.000;    0.000
295.810;  679.925;    0.000;    0.000
295.874;  723.925;    0.000;    0.000
295.938;  754.925;    0.000;    0.000
296.001;  774.925;    0.000;    0.000
296.065;  720.925;    0.000;    0.000
296.128;  722.925;    0.000;    0.000
296.192;  736.925;    0.000;    0.000
296.256;  680.925;    0.000;    0.000
296.319;  678.925;    0.000;    0.000
296.383;  703.925;    0.000;    0.000
296.446;  676.925;    0.000;    0.000
296.510;  757.925;    0.000;    0.000
296.574;  755.925;    0.000;    0.000
296.637;  810.925;    0.000;    0.000
296.701;  840.925;    0.000;    0.000
296.764;  733.925;    0.000;    0.000
296.828;  653.925;    0.000;    0.000
296.891;  648.925;    0.000;    0.000
296.955;  704.925;    0.000;    0.000
297.018;  777.925;    0.000;    0.000
297.082;  719.925;    0.000;    0.000
297.145;  619.925;    0.000;    0.000
297.209;  625.925;    0.000;    0.000
297.272;  781.925;    0.000;    0.000
297.336;  805.925;    0.000;    0.000
297.399;  676.925;    0.000;    0.000
297.463;  634.925;    0.000;    0.000
297.526;  617.925;    0.000;    0.000
297.590;  643.925;    0.000;    0.000
297.653;  589.925;    0.000;    0.000
297.717;  613.925;    0.000;    0.000
297.780;  590.925;    0.000;    0.000
297.843;  577.925;    0.000;    0.000
297.907;  606.925;    0.000;    0.000
297.970;  593.925;    0.000;    0.000
298.034;  595.925;    0.000;    0.000
298.097;  644.925;    0.000;    0.000
298.160;  659.925;    0.000;    0.000
298.224;  630.925;    0.000;    0.000
298.287;  705.925;    0.000;    0.000
298.350;  784.925;    0.000;    0.000
298.414;  769.925;    0.000;    0.000
298.477;  742.925;    0.000;    0.000
298.540;  758.925;    0.000;    0.000
298.604;  645.925;    0.000;    0.000
298.667;  651.925;    0.000;    0.000
298.730;  699.925;    0.000;    0.000
298.794;  676.925;    0.000;    0.000
298.857;  694.925;    0.000;    0.000
298.920;  605.925;    0.000;    0.000
298.984;  602.925;    0.000;    0.000
299.047;  598.925;    0.000;    0.000
299.110;  585.925;    0.000;    0.000
299.173;  572.925;    0.000;    0.000
299.237;  621.925;    0.000;    0.000
299.300;  590.925;    0.000;    0.000
299.363;  582.925;    0.000;    0.000
299.426;  715.925;    0.000;    0.000
299.489;  647.925;    0.000;    0.000
299.553;  579.925;    0.000;    0.000
299.616;  604.925;    0.000;    0.000
299.679;  592.925;    0.000;    0.000
299.742;  546.925;    0.000;    0.000
299.805;  566.925;    0.000;    0.000
299.868;  566.925;    0.000;    0.000
299.932;  663.925;    0.000;    0.000
299.995;  653.925;    0.000;    0.000
300.058;  740.925;    0.000;    0.000
300.121;  756.925;    0.000;    0.000
300.184;  640.925;    0.000;    0.000
300.247;  628.925;    0.000;    0.000
300.310;  655.925;    0.000;    0.000
300.374;  635.925;    0.000;    0.000
300.437;  549.925;    0.000;    0.000
300.500;  581.925;    0.000;    0.000
300.563;  527.925;    0.000;    0.000
300.626;  582.925;    0.000;    0.000
300.689;  618.925;    0.000;    0.000
300.752;  595.925;    0.000;    0.000
300.815;  643.925;    0.000;    0.000
300.878;  652.925;    0.000;    0.000
300.941;  616.925;    0.000;    0.000
301.004;  634.925;    0.000;    0.000
301.067;  522.925;    0.000;    0.000
301.130;  544.925;    0.000;    0.000
301.193;  643.925;    0.000;    0.000
301.256;  559.925;    0.000;    0.000
301.319;  596.925;    0.000;    0.000
301.382;  574.925;    0.000;    0.000
301.445;  587.925;    0.000;    0.000
301.508;  546.925;    0.000;    0.000
301.571;  564.925;    0.000;    0.000
301.634;  557.925;    0.000;    0.000
301.697;  594.925;    0.000;    0.000
301.760;  570.925;    0.000;    0.000
301.823;  612.925;    0.000;    0.000
301.885;  595.925;    0.000;    0.000
301.948;  629.925;    0.000;    0.000
302.011;  962.925;    0.000;    0.000
302.074; 1222.925;    0.000;    0.000
302.137;  881.925;    0.000;    0.000
302.200;  612.925;    0.000;    0.000
302.263;  631.925;    0.000;    0.000
302.326;  618.925;    0.000;    0.000
302.388;  644.925;    0.000;    0.000
302.451;  611.925;    0.000;    0.000
302.514;  641.925;    0.000;    0.000
302.577;  672.925;    0.000;    0.000
302.640;  652.925;    0.000;    0.000
302.703;  613.925;    0.000;    0.000
302.765;  552.925;    0.000;    0.000
302.828;  617.925;    0.000;    0.000
302.891;  591.925;    0.000;    0.000
302.954;  571.925;    0.000;    0.000
303.016;  583.925;    0.000;    0.000
303.079;  629.925;    0.000;    0.000
303.142;  615.925;    0.000;    0.000
303.205;  596.925;    0.000;    0.000
303.267;  568.925;    0.000;    0.000
303.330;  586.925;    0.000;    0.000
303.393;  547.925;    0.000;    0.000
303.456;  560.925;    0.000;    0.000
303.518;  549.925;    0.000;    0.000
303.581;  531.925;    0.000;    0.000
303.644;  616.925;    0.000;    0.000
303.706;  722.925;    0.000;    0.000
303.769;  697.925;    0.000;    0.000
303.832;  585.925;    0.000;    0.000
303.894;  562.925;    0.000;    0.000
303.957;  573.925;    0.000;    0.000
304.020;  558.925;    0.000;    0.000
304.082;  557.925;    0.000;    0.000
304.145;  649.925;    0.000;    0.000
304.207;  560.925;    0.000;    0.000
304.270;  595.925;    0.000;    0.000
304.333;  606.925;    0.000;    0.000
304.395;  591.925;    0.000;    0.000
304.458;  615.925;    0.000;    0.000
304.520;  669.925;    0.000;    0.000
304.583;  638.925;    0.000;    0.000
304.646;  580.925;    0.000;    0.000
304.708;  736.925;    0.000;    0.000
304.771;  678.925;    0.000;    0.000
304.833;  657.925;    0.000;    0.000
304.896;  570.925;    0.000;    0.000
304.958;  593.925;    0.000;    0.000
305.021;  609.925;    0.000;    0.000
305.083;  574.925;    0.000;    0.000
305.146;  615.925;    0.000;    0.000
305.208;  572.925;    0.000;    0.000
305.271;  585.925;    0.000;    0.000
305.333;  617.925;    0.000;    0.000
305.396;  626.925;    0.000;    0.000
305.458;  622.925;    0.000;    0.000
305.520;  581.925;    0.000;    0.000
305.583;  571.925;    0.000;    0.000
305.645;  639.925;    0.000;    0.000
305.708;  718.925;    0.000;    0.000
305.770;  798.925;    0.000;    0.000
305.833;  709.925;    0.000;    0.000
305.895;  762.925;    0.000;    0.000
305.957;  664.925;    0.000;    0.000
306.020;  594.925;    0.000;    0.000
306.082;  576.925;    0.000;    0.000
306.144;  597.925;    0.000;    0.000
306.207;  616.925;    0.000;    0.000
306.269;  663.925;    0.000;    0.000
306.331;  554.925;    0.000;    0.000
306.394;  629.925;    0.000;    0.000
306.456;  593.925;    0.000;    0.000
306.518;  707.925;    0.000;    0.000
306.581;  708.925;    0.000;    0.000
306.643;  746.925;    0.000;    0.000
306.705;  691.925;    0.000;    0.000
306.768;  639.925;    0.000;    0.000
306.830;  622.925;    0.000;    0.000
306.892;  613.925;    0.000;    0.000
306.954;  664.925;    0.000;    0.000
307.017;  636.925;    0.000;    0.000
307.079;  650.925;    0.000;    0.000
307.141;  712.925;    0.000;    0.000
307.203;  743.925;    0.000;    0.000
307.266;  793.925;    0.000;    0.000
307.328;  759.925;    0.000;    0.000
307.390;  774.925;    0.000;    0.000
307.452;  819.925;    0.000;    0.000
307.514;  924.925;    0.000;    0.000
307.577;  791.925;    0.000;    0.000
307.639;  758.925;    0.000;    0.000
307.701;  682.925;    0.000;    0.000
307.763;  752.925;    0.000;    0.000
307.825;  899.925;    0.000;    0.000
307.887;  912.925;    0.000;    0.000
307.949;  804.925;    0.000;    0.000
308.011;  770.925;    0.000;    0.000
308.074;  781.925;    0.000;    0.000
308.136;  946.925;    0.000;    0.000
308.198; 1121.925;    0.000;    0.000
308.260; 1079.925;    0.000;    0.000
308.322;  902.925;    0.000;    0.000
308.384;  891.925;    0.000;    0.000
308.446;  822.925;    0.000;    0.000
308.508;  853.925;    0.000;    0.000
308.570;  850.925;    0.000;    0.000
308.632;  838.925;    0.000;    0.000
308.694;  918.925;    0.000;    0.000
308.756; 1088.925;    0.000;    0.000
308.818; 1155.925;    0.000;    0.000
308.880;  914.925;    0.000;    0.000
308.942;  960.925;    0.000;    0.000
309.004;  996.925;    0.000;    0.000
309.066;  995.925;    0.000;    0.000
309.128; 1094.925;    0.000;    0.000
309.190; 1264.925;    0.000;    0.000
309.252; 1771.925;    0.000;    0.000
309.314; 1797.925;    0.000;    0.000
309.376; 1496.925;    0.000;    0.000
309.438; 1204.925;    0.000;    0.000
309.500; 1159.925;    0.000;    0.000
309.562; 1134.925;    0.000;    0.000
309.624; 1223.925;    0.000;    0.000
309.686; 1469.925;    0.000;    0.000
309.747; 1387.925;    0.000;    0.000
309.809; 1244.925;    0.000;    0.000
309.871; 1086.925;    0.000;    0.000
309.933; 1084.925;    0.000;    0.000
309.995; 1157.925;    0.000;    0.000
310.057; 1054.925;    0.000;    0.000
310.119; 1059.925;    0.000;    0.000
310.180; 1016.925;    0.000;    0.000
310.242;  989.925;    0.000;    0.000
310.304;  953.925;    0.000;    0.000
310.366;  902.925;    0.000;    0.000
310.428;  936.925;    0.000;    0.000
310.489;  891.925;    0.000;    0.000
310.551;  893.925;    0.000;    0.000
310.613;  889.925;    0.000;    0.000
310.675;  850.925;    0.000;    0.000
310.737;  909.925;    0.000;    0.000
310.798;  794.925;    0.000;    0.000
310.860;  767.925;    0.000;    0.000
310.922;  763.925;    0.000;    0.000
310.983;  818.925;    0.000;    0.000
311.045;  783.925;    0.000;    0.000
311.107;  808.925;    0.000;    0.000
311.169;  738.925;    0.000;    0.000
311.230;  774.925;    0.000;    0.000
311.292;  762.925;    0.000;    0.000
311.354;  736.925;    0.000;    0.000
311.415;  769.925;    0.000;    0.000
311.477;  750.925;    0.000;    0.000
311.539;  684.925;    0.000;    0.000
311.600;  750.925;    0.000;    0.000
311.662;  763.925;    0.000;    0.000
311.724;  771.925;    0.000;    0.000
311.785;  740.925;    0.000;    0.000
311.847;  735.925;    0.000;    0.000
311.908;  710.925;    0.000;    0.000
311.970;  752.925;    0.000;    0.000
312.032;  732.925;    0.000;    0.000
312.093;  717.925;    0.000;    0.000
312.155;  670.925;    0.000;    0.000
312.216;  684.925;    0.000;    0.000
312.278;  687.925;    0.000;    0.000
312.339;  657.925;    0.000;    0.000
312.401;  701.925;    0.000;    0.000
312.462;  650.925;    0.000;    0.000
312.524;  753.925;    0.000;    0.000
312.585;  680.925;    0.000;    0.000
312.647;  703.925;    0.000;    0.000
312.708;  659.925;    0.000;    0.000
312.770;  646.925;    0.000;    0.000
312.831;  633.925;    0.000;    0.000
312.893;  677.925;    0.000;    0.000
312.954;  690.925;    0.000;    0.000
313.016;  668.925;    0.000;    0.000
313.077;  666.925;    0.000;    0.000
313.139;  703.925;    0.000;    0.000
313.200;  645.925;    0.000;    0.000
313.261;  708.925;    0.000;    0.000
313.323;  657.925;    0.000;    0.000
313.384;  726.925;    0.000;    0.000
313.446;  706.925;    0.000;    0.000
313.507;  651.925;    0.000;    0.000
313.568;  613.925;    0.000;    0.000
313.630;  675.925;    0.000;    0.000
313.691;  626.925;    0.000;    0.000
313.752;  656.925;    0.000;    0.000
313.814;  620.925;    0.000;    0.000
313.875;  613.925;    0.000;    0.000
313.936;  628.925;    0.000;    0.000
313.998;  624.925;    0.000;    0.000
314.059;  611.925;    0.000;    0.000
314.120;  619.925;    0.000;    0.000
314.182;  643.925;    0.000;    0.000
314.243;  591.925;    0.000;    0.000
314.304;  621.925;    0.000;    0.000
314.365;  684.925;    0.000;    0.000
314.427;  638.925;    0.000;    0.000
314.488;  612.925;    0.000;    0.000
314.549;  664.925;    0.000;    0.000
314.610;  655.925;    0.000;    0.000
314.672;  675.925;    0.000;    0.000
314.733;  638.925;    0.000;    0.000
314.794;  635.925;    0.000;    0.000
314.855;  631.925;    0.000;    0.000
314.916;  586.925;    0.000;    0.000
314.978;  648.925;    0.000;    0.000
315.039;  620.925;    0.000;    0.000
315.100;  636.925;    0.000;    0.000
315.161;  602.925;    0.000;    0.000
315.222;  654.925;    0.000;    0.000
315.283;  653.925;    0.000;    0.000
315.345;  633.925;    0.000;    0.000
315.406;  723.925;    0.000;    0.000
315.467;  658.925;    0.000;    0.000
315.528;  662.925;    0.000;    0.000
315.589;  665.925;    0.000;    0.000
315.650;  699.925;    0.000;    0.000
315.711;  654.925;    0.000;    0.000
315.772;  620.925;    0.000;    0.000
315.833;  704.925;    0.000;    0.000
315.894;  697.925;    0.000;    0.000
315.955;  748.925;    0.000;    0.000
316.016;  774.925;    0.000;    0.000
316.078;  755.925;    0.000;    0.000
316.139;  821.925;    0.000;    0.000
316.200;  753.925;    0.000;    0.000
316.261;  809.925;    0.000;    0.000
316.322;  746.925;    0.000;    0.000
316.383;  650.925;    0.000;    0.000
316.444;  699.925;    0.000;    0.000
316.504;  687.925;    0.000;    0.000
316.565;  683.925;    0.000;    0.000
316.626;  708.925;    0.000;    0.000
316.687;  694.925;    0.000;    0.000
316.748;  712.925;    0.000;    0.000
316.809;  826.925;    0.000;    0.000
316.870;  814.925;    0.000;    0.000
316.931;  707.925;    0.000;    0.000
316.992;  672.925;    0.000;    0.000
317.053;  657.925;    0.000;    0.000
317.114;  660.925;    0.000;    0.000
317.175;  670.925;    0.000;    0.000
317.235;  622.925;    0.000;    0.000
317.296;  677.925;    0.000;    0.000
317.357;  655.925;    0.000;    0.000
317.418;  671.925;    0.000;    0.000
317.479;  684.925;    0.000;    0.000
317.540;  678.925;    0.000;    0.000
317.601;  635.925;    0.000;    0.000
317.661;  622.925;    0.000;    0.000
317.722;  662.925;    0.000;    0.000
317.783;  715.925;    0.000;    0.000
317.844;  716.925;    0.000;    0.000
317.904;  812.925;    0.000;    0.000
317.965;  870.925;    0.000;    0.000
318.026;  868.925;    0.000;    0.000
318.087;  850.925;    0.000;    0.000
318.148;  819.925;    0.000;    0.000
318.208;  813.925;    0.000;    0.000
318.269;  722.925;    0.000;    0.000
318.330;  739.925;    0.000;    0.000
318.390;  690.925;    0.000;    0.000
318.451;  686.925;    0.000;    0.000
318.512;  707.925;    0.000;    0.000
318.572;  702.925;    0.000;    0.000
318.633;  692.925;    0.000;    0.000
318.694;  728.925;    0.000;    0.000
318.754;  676.925;    0.000;    0.000
318.815;  720.925;    0.000;    0.000
318.876;  712.925;    0.000;    0.000
318.936;  733.925;    0.000;    0.000
318.997;  671.925;    0.000;    0.000
319.058;  877.925;    0.000;    0.000
319.118;  857.925;    0.000;    0.000
319.179;  827.925;    0.000;    0.000
319.239;  775.925;    0.000;    0.000
319.300;  744.925;    0.000;    0.000
319.361;  733.925;    0.000;    0.000
319.421;  683.925;    0.000;    0.000
319.482;  696.925;    0.000;    0.000
319.542;  672.925;    0.000;    0.000
319.603;  713.925;    0.000;    0.000
319.663;  737.925;    0.000;    0.000
319.724;  642.925;    0.000;    0.000
319.784;  601.925;    0.000;    0.000
319.845;  653.925;    0.000;    0.000
319.905;  709.925;    0.000;    0.000
319.966;  759.925;    0.000;    0.000
320.026;  806.925;    0.000;    0.000
320.087;  719.925;    0.000;    0.000
320.147;  677.925;    0.000;    0.000
320.208;  705.925;    0.000;    0.000
320.268;  700.925;    0.000;    0.000
320.329;  710.925;    0.000;    0.000
320.389;  612.925;    0.000;    0.000
320.449;  677.925;    0.000;    0.000
320.510;  693.925;    0.000;    0.000
320.570;  647.925;    0.000;    0.000
320.631;  672.925;    0.000;    0.000
320.691;  643.925;    0.000;    0.000
320.751;  621.925;    0.000;    0.000
320.812;  621.925;    0.000;    0.000
320.872;  712.925;    0.000;    0.000
320.932;  623.925;    0.000;    0.000
320.993;  644.925;    0.000;    0.000
321.053;  707.925;    0.000;    0.000
321.113;  673.925;    0.000;    0.000
321.174;  673.925;    0.000;    0.000
321.234;  742.925;    0.000;    0.000
321.294;  703.925;    0.000;    0.000
321.355;  766.925;    0.000;    0.000
321.415;  763.925;    0.000;    0.000
321.475;  687.925;    0.000;    0.000
321.535;  726.925;    0.000;    0.000
321.596;  674.925;    0.000;    0.000
321.656;  770.925;    0.000;    0.000
321.716;  708.925;    0.000;    0.000
321.776;  764.925;    0.000;    0.000
321.837;  738.925;    0.000;    0.000
321.897;  746.925;    0.000;    0.000
321.957;  712.925;    0.000;    0.000
322.017;  695.925;    0.000;    0.000
322.077;  723.925;    0.000;    0.000
322.138;  712.925;    0.000;    0.000
322.198;  754.925;    0.000;    0.000
322.258;  803.925;    0.000;    0.000
322.318;  752.925;    0.000;    0.000
322.378;  774.925;    0.000;    0.000
322.438;  779.925;    0.000;    0.000
322.499;  780.925;    0.000;    0.000
322.559;  708.925;    0.000;    0.000
322.619;  715.925;    0.000;    0.000
322.679;  714.925;    0.000;    0.000
322.739;  756.925;    0.000;    0.000
322.799;  825.925;    0.000;    0.000
322.859;  885.925;    0.000;    0.000
322.919;  836.925;    0.000;    0.000
322.979;  772.925;    0.000;    0.000
323.039;  699.925;    0.000;    0.000
323.099;  723.925;    0.000;    0.000
323.159;  733.925;    0.000;    0.000
323.219;  731.925;    0.000;    0.000
323.279;  765.925;    0.000;    0.000
323.339;  880.925;    0.000;    0.000
323.399; 1248.925;    0.000;    0.000
323.459; 1305.925;    0.000;    0.000
323.519; 1044.925;    0.000;    0.000
323.579; 1057.925;    0.000;    0.000
323.639; 1221.925;    0.000;    0.000
323.699; 1049.925;    0.000;    0.000
323.759;  773.925;    0.000;    0.000
323.819;  857.925;    0.000;    0.000
323.879; 1031.925;    0.000;    0.000
323.939;  933.925;    0.000;    0.000
323.999;  775.925;    0.000;    0.000
324.059;  745.925;    0.000;    0.000
324.119;  763.925;    0.000;    0.000
324.179;  870.925;    0.000;    0.000
324.238;  805.925;    0.000;    0.000
324.298;  672.925;    0.000;    0.000
324.358;  679.925;    0.000;    0.000
324.418;  678.925;    0.000;    0.000
324.478;  660.925;    0.000;    0.000
324.538;  657.925;    0.000;    0.000
324.597;  611.925;    0.000;    0.000
324.657;  664.925;    0.000;    0.000
324.717;  682.925;    0.000;    0.000
324.777;  749.925;    0.000;    0.000
324.837;  837.925;    0.000;    0.000
324.896;  780.925;    0.000;    0.000
324.956;  661.925;    0.000;    0.000
325.016;  640.925;    0.000;    0.000
325.076;  641.925;    0.000;    0.000
325.135;  745.925;    0.000;    0.000
325.195;  719.925;    0.000;    0.000
325.255;  749.925;    0.000;    0.000
325.315;  743.925;    0.000;    0.000
325.374;  791.925;    0.000;    0.000
325.434;  695.925;    0.000;    0.000
325.494;  620.925;    0.000;    0.000
325.553;  641.925;    0.000;    0.000
325.613;  630.925;    0.000;    0.000
325.673;  652.925;    0.000;    0.000
325.732;  586.925;    0.000;    0.000
325.792;  605.925;    0.000;    0.000
325.852;  603.925;    0.000;    0.000
325.911;  628.925;    0.000;    0.000
325.971;  681.925;    0.000;    0.000
326.031;  686.925;    0.000;    0.000
326.090;  847.925;    0.000;    0.000
326.150;  844.925;    0.000;    0.000
326.209;  803.925;    0.000;    0.000
326.269;  641.925;    0.000;    0.000
326.328;  620.925;    0.000;    0.000
326.388;  604.925;    0.000;    0.000
326.448;  641.925;    0.000;    0.000
326.507;  618.925;    0.000;    0.000
326.567;  585.925;    0.000;    0.000
326.626;  571.925;    0.000;    0.000
326.686;  549.925;    0.000;    0.000
326.745;  583.925;    0.000;    0.000
326.805;  554.925;    0.000;    0.000
326.864;  567.925;    0.000;    0.000
326.924;  624.925;    0.000;    0.000
326.983;  585.925;    0.000;    0.000
327.043;  666.925;    0.000;    0.000
327.102;  642.925;    0.000;    0.000
327.161;  666.925;    0.000;    0.000
327.221;  683.925;    0.000;    0.000
327.280;  569.925;    0.000;    0.000
327.340;  620.925;    0.000;    0.000
327.399;  598.925;    0.000;    0.000
327.459;  548.925;    0.000;    0.000
327.518;  560.925;    0.000;    0.000
327.577;  555.925;    0.000;    0.000
327.637;  605.925;    0.000;    0.000
327.696;  622.925;    0.000;    0.000
327.755;  593.925;    0.000;    0.000
327.815;  651.925;    0.000;    0.000
327.874;  728.925;    0.000;    0.000
327.933;  639.925;    0.000;    0.000
327.993;  638.925;    0.000;    0.000
328.052;  587.925;    0.000;    0.000
328.111;  592.925;    0.000;    0.000
328.171;  563.925;    0.000;    0.000
328.230;  634.925;    0.000;    0.000
328.289;  662.925;    0.000;    0.000
328.349;  624.925;    0.000;    0.000
328.408;  611.925;    0.000;    0.000
328.467;  610.925;    0.000;    0.000
328.526;  608.925;    0.000;    0.000
328.586;  638.925;    0.000;    0.000
328.645;  655.925;    0.000;    0.000
328.704;  744.925;    0.000;    0.000
328.763;  700.925;    0.000;    0.000
328.822;  685.925;    0.000;    0.000
328.882;  660.925;    0.000;    0.000
328.941;  588.925;    0.000;    0.000
329.000;  591.925;    0.000;    0.000
329.059;  635.925;    0.000;    0.000
329.118;  583.925;    0.000;    0.000
329.177;  627.925;    0.000;    0.000
329.237;  635.925;    0.000;    0.000
329.296;  584.925;    0.000;    0.000
329.355;  618.925;    0.000;    0.000
329.414;  574.925;    0.000;    0.000
329.473;  584.925;    0.000;    0.000
329.532;  576.925;    0.000;    0.000
329.591;  567.925;    0.000;    0.000
329.650;  578.925;    0.000;    0.000
329.709;  620.925;    0.000;    0.000
329.768;  585.925;    0.000;    0.000
329.827;  585.925;    0.000;    0.000
329.886;  564.925;    0.000;    0.000
329.945;  556.925;    0.000;    0.000
330.004;  661.925;    0.000;    0.000
330.063;  563.925;    0.000;    0.000
330.122;  591.925;    0.000;    0.000
330.181;  613.925;    0.000;    0.000
330.240;  529.925;    0.000;    0.000
330.299;  535.925;    0.000;    0.000
330.358;  538.925;    0.000;    0.000
330.417;  598.925;    0.000;    0.000
330.476;  589.925;    0.000;    0.000
330.535;  649.925;    0.000;    0.000
330.594;  646.925;    0.000;    0.000
330.653;  588.925;    0.000;    0.000
330.712;  620.925;    0.000;    0.000
330.771;  573.925;    0.000;    0.000
330.830;  607.925;    0.000;    0.000
330.889;  580.925;    0.000;    0.000
330.948;  575.925;    0.000;    0.000
331.006;  585.925;    0.000;    0.000
331.065;  579.925;    0.000;    0.000
331.124;  590.925;    0.000;    0.000
331.183;  513.925;    0.000;    0.000
331.242;  596.925;    0.000;    0.000
331.301;  549.925;    0.000;    0.000
331.359;  542.925;    0.000;    0.000
331.418;  554.925;    0.000;    0.000
331.477;  613.925;    0.000;    0.000
331.536;  595.925;    0.000;    0.000
331.595;  573.925;    0.000;    0.000
331.653;  562.925;    0.000;    0.000
331.712;  554.925;    0.000;    0.000
331.771;  575.925;    0.000;    0.000
331.830;  618.925;    0.000;    0.000
331.888;  565.925;    0.000;    0.000
331.947;  572.925;    0.000;    0.000
332.006;  584.925;    0.000;    0.000
332.065;  554.925;    0.000;    0.000
332.123;  606.925;    0.000;    0.000
332.182;  621.925;    0.000;    0.000
332.241;  671.925;    0.000;    0.000
332.299;  687.925;    0.000;    0.000
332.358;  642.925;    0.000;    0.000
332.417;  596.925;    0.000;    0.000
332.475;  601.925;    0.000;    0.000
332.534;  590.925;    0.000;    0.000
332.592;  594.925;    0.000;    0.000
332.651;  630.925;    0.000;    0.000
332.710;  623.925;    0.000;    0.000
332.768;  573.925;    0.000;    0.000
332.827;  520.925;    0.000;    0.000
332.885;  730.925;    0.000;    0.000
332.944;  666.925;    0.000;    0.000
333.003;  700.925;    0.000;    0.000
333.061;  631.925;    0.000;    0.000
333.120;  721.925;    0.000;    0.000
333.178;  738.925;    0.000;    0.000
333.237;  782.925;    0.000;    0.000
333.295;  755.925;    0.000;    0.000
333.354;  654.925;    0.000;    0.000
333.412;  703.925;    0.000;    0.000
333.471;  720.925;    0.000;    0.000
333.529;  764.925;    0.000;    0.000
333.588;  788.925;    0.000;    0.000
333.646;  838.925;    0.000;    0.000
333.705;  846.925;    0.000;    0.000
333.763;  807.925;    0.000;    0.000
333.822;  697.925;    0.000;    0.000
333.880;  663.925;    0.000;    0.000
333.938;  702.925;    0.000;    0.000
333.997;  764.925;    0.000;    0.000
334.055;  818.925;    0.000;    0.000
334.114;  931.925;    0.000;    0.000
334.172;  952.925;    0.000;    0.000
334.230;  886.925;    0.000;    0.000
334.289;  753.925;    0.000;    0.000
334.347;  672.925;    0.000;    0.000
334.405;  674.925;    0.000;    0.000
334.464;  655.925;    0.000;    0.000
334.522;  648.925;    0.000;    0.000
334.580;  607.925;    0.000;    0.000
334.639;  685.925;    0.000;    0.000
334.697;  704.925;    0.000;    0.000
334.755;  758.925;    0.000;    0.000
334.814; 1007.925;    0.000;    0.000
334.872; 1522.925;    0.000;    0.000
334.930; 1627.925;    0.000;    0.000
334.988; 1155.925;    0.000;    0.000
335.047;  762.925;    0.000;    0.000
335.105;  690.925;    0.000;    0.000
335.163;  656.925;    0.000;    0.000
335.221;  612.925;    0.000;    0.000
335.280;  620.925;    0.000;    0.000
335.338;  632.925;    0.000;    0.000
335.396;  684.925;    0.000;    0.000
335.454;  665.925;    0.000;    0.000
335.512;  669.925;    0.000;    0.000
335.570;  651.925;    0.000;    0.000
335.629;  605.925;    0.000;    0.000
335.687;  625.925;    0.000;    0.000
335.745;  611.925;    0.000;    0.000
335.803;  617.925;    0.000;    0.000
335.861;  652.925;    0.000;    0.000
335.919;  691.925;    0.000;    0.000
335.977;  713.925;    0.000;    0.000
336.035;  972.925;    0.000;    0.000
336.094; 1215.925;    0.000;    0.000
336.152; 1027.925;    0.000;    0.000
336.210;  768.925;    0.000;    0.000
336.268;  649.925;    0.000;    0.000
336.326;  617.925;    0.000;    0.000
336.384;  604.925;    0.000;    0.000
336.442;  586.925;    0.000;    0.000
336.500;  599.925;    0.000;    0.000
336.558;  623.925;    0.000;    0.000
336.616;  693.925;    0.000;    0.000
336.674;  597.925;    0.000;    0.000
336.732;  580.925;    0.000;    0.000
336.790;  556.925;    0.000;    0.000
336.848;  646.925;    0.000;    0.000
336.906;  649.925;    0.000;    0.000
336.964;  673.925;    0.000;    0.000
337.022;  677.925;    0.000;    0.000
337.080;  749.925;    0.000;    0.000
337.138;  796.925;    0.000;    0.000
337.195;  941.925;    0.000;    0.000
337.253; 1089.925;    0.000;    0.000
337.311;  949.925;    0.000;    0.000
337.369;  721.925;    0.000;    0.000
337.427;  627.925;    0.000;    0.000
337.485;  609.925;    0.000;    0.000
337.543;  619.925;    0.000;    0.000
337.601;  599.925;    0.000;    0.000
337.658;  609.925;    0.000;    0.000
337.716;  590.925;    0.000;    0.000
337.774;  695.925;    0.000;    0.000
337.832;  622.925;    0.000;    0.000
337.890;  606.925;    0.000;    0.000
337.947;  651.925;    0.000;    0.000
338.005;  742.925;    0.000;    0.000
338.063;  696.925;    0.000;    0.000
338.121;  642.925;    0.000;    0.000
338.178;  624.925;    0.000;    0.000
338.236;  624.925;    0.000;    0.000
338.294;  866.925;    0.000;    0.000
338.352; 1017.925;    0.000;    0.000
338.409;  828.925;    0.000;    0.000
338.467;  629.925;    0.000;    0.000
338.525;  641.925;    0.000;    0.000
338.583;  620.925;    0.000;    0.000
338.640;  625.925;    0.000;    0.000
338.698;  639.925;    0.000;    0.000
338.756;  709.925;    0.000;    0.000
338.813;  647.925;    0.000;    0.000
338.871;  645.925;    0.000;    0.000
338.928;  641.925;    0.000;    0.000
338.986;  592.925;    0.000;    0.000
339.044;  625.925;    0.000;    0.000
339.101;  594.925;    0.000;    0.000
339.159;  585.925;    0.000;    0.000
339.217;  629.925;    0.000;    0.000
339.274;  637.925;    0.000;    0.000
339.332;  671.925;    0.000;    0.000
339.389;  636.925;    0.000;    0.000
339.447;  639.925;    0.000;    0.000
339.504;  605.925;    0.000;    0.000
339.562;  577.925;    0.000;    0.000
339.619;  636.925;    0.000;    0.000
339.677;  633.925;    0.000;    0.000
339.734;  546.925;    0.000;    0.000
339.792;  621.925;    0.000;    0.000
339.849;  581.925;    0.000;    0.000
339.907;  641.925;    0.000;    0.000
339.964;  587.925;    0.000;    0.000
340.022;  584.925;    0.000;    0.000
340.079;  599.925;    0.000;    0.000
340.137;  639.925;    0.000;    0.000
340.194;  633.925;    0.000;    0.000
340.252;  634.925;    0.000;    0.000
340.309;  605.925;    0.000;    0.000
340.366;  586.925;    0.000;    0.000
340.424;  596.925;    0.000;    0.000
340.481;  633.925;    0.000;    0.000
340.538;  554.925;    0.000;    0.000
340.596;  579.925;    0.000;    0.000
340.653;  644.925;    0.000;    0.000
340.711;  707.925;    0.000;    0.000
340.768;  703.925;    0.000;    0.000
340.825;  620.925;    0.000;    0.000
340.883;  566.925;    0.000;    0.000
340.940;  597.925;    0.000;    0.000
340.997;  574.925;    0.000;    0.000
341.054;  572.925;    0.000;    0.000
341.112;  625.925;    0.000;    0.000
341.169;  638.925;    0.000;    0.000
341.226;  635.925;    0.000;    0.000
341.284;  620.925;    0.000;    0.000
341.341;  627.925;    0.000;    0.000
341.398;  585.925;    0.000;    0.000
341.455;  652.925;    0.000;    0.000
341.512;  696.925;    0.000;    0.000
341.570;  595.925;    0.000;    0.000
341.627;  606.925;    0.000;    0.000
341.684;  587.925;    0.000;    0.000
341.741;  705.925;    0.000;    0.000
341.798;  617.925;    0.000;    0.000
341.856;  590.925;    0.000;    0.000
341.913;  576.925;    0.000;    0.000
341.970;  592.925;    0.000;    0.000
342.027;  661.925;    0.000;    0.000
342.084;  625.925;    0.000;    0.000
342.141;  636.925;    0.000;    0.000
342.198;  591.925;    0.000;    0.000
342.255;  643.925;    0.000;    0.000
342.313;  623.925;    0.000;    0.000
342.370;  609.925;    0.000;    0.000
342.427;  649.925;    0.000;    0.000
342.484;  614.925;    0.000;    0.000
342.541;  624.925;    0.000;    0.000
342.598;  672.925;    0.000;    0.000
342.655;  707.925;    0.000;    0.000
342.712;  673.925;    0.000;    0.000
342.769;  630.925;    0.000;    0.000
342.826;  631.925;    0.000;    0.000
342.883;  591.925;    0.000;    0.000
342.940;  546.925;    0.000;    0.000
342.997;  603.925;    0.000;    0.000
343.054;  622.925;    0.000;    0.000
343.111;  576.925;    0.000;    0.000
343.168;  592.925;    0.000;    0.000
343.225;  680.925;    0.000;    0.000
343.282;  618.925;    0.000;    0.000
343.339;  632.925;    0.000;    0.000
343.395;  625.925;    0.000;    0.000
343.452;  599.925;    0.000;    0.000
343.509;  603.925;    0.000;    0.000
343.566;  678.925;    0.000;    0.000
343.623;  611.925;    0.000;    0.000
343.680;  631.925;    0.000;    0.000
343.737;  576.925;    0.000;    0.000
343.794;  652.925;    0.000;    0.000
343.850;  608.925;    0.000;    0.000
343.907;  608.925;    0.000;    0.000
343.964;  732.925;    0.000;    0.000
344.021; 1035.925;    0.000;    0.000
344.078; 1037.925;    0.000;    0.000
344.134;  855.925;    0.000;    0.000
344.191;  669.925;    0.000;    0.000
344.248;  681.925;    0.000;    0.000
344.305;  632.925;    0.000;    0.000
344.361;  779.925;    0.000;    0.000
344.418;  726.925;    0.000;    0.000
344.475;  659.925;    0.000;    0.000
344.532;  703.925;    0.000;    0.000
344.588;  717.925;    0.000;    0.000
344.645;  660.925;    0.000;    0.000
344.702;  592.925;    0.000;    0.000
344.758;  642.925;    0.000;    0.000
344.815;  618.925;    0.000;    0.000
344.872;  609.925;    0.000;    0.000
344.928;  661.925;    0.000;    0.000
344.985;  651.925;    0.000;    0.000
345.042;  622.925;    0.000;    0.000
345.098;  638.925;    0.000;    0.000
345.155;  649.925;    0.000;    0.000
345.212;  649.925;    0.000;    0.000
345.268;  662.925;    0.000;    0.000
345.325;  632.925;    0.000;    0.000
345.381;  634.925;    0.000;    0.000
345.438;  667.925;    0.000;    0.000
345.495;  649.925;    0.000;    0.000
345.551;  682.925;    0.000;    0.000
345.608;  647.925;    0.000;    0.000
345.664;  674.925;    0.000;    0.000
345.721;  654.925;    0.000;    0.000
345.777;  653.925;    0.000;    0.000
345.834;  674.925;    0.000;    0.000
345.890;  662.925;    0.000;    0.000
345.947;  614.925;    0.000;    0.000
346.003;  634.925;    0.000;    0.000
346.060;  679.925;    0.000;    0.000
346.116;  676.925;    0.000;    0.000
346.173;  718.925;    0.000;    0.000
346.229;  684.925;    0.000;    0.000
346.285;  674.925;    0.000;    0.000
346.342;  642.925;    0.000;    0.000
346.398;  623.925;    0.000;    0.000
346.455;  634.925;    0.000;    0.000
346.511;  717.925;    0.000;    0.000
346.567;  748.925;    0.000;    0.000
346.624;  714.925;    0.000;    0.000
346.680;  676.925;    0.000;    0.000
346.737;  652.925;    0.000;    0.000
346.793;  625.925;    0.000;    0.000
346.849;  677.925;    0.000;    0.000
346.906;  694.925;    0.000;    0.000
346.962;  697.925;    0.000;    0.000
347.018;  671.925;    0.000;    0.000
347.074;  673.925;    0.000;    0.000
347.131;  629.925;    0.000;    0.000
347.187;  654.925;    0.000;    0.000
347.243;  693.925;    0.000;    0.000
347.300;  648.925;    0.000;    0.000
347.356;  667.925;    0.000;    0.000
347.412;  637.925;    0.000;    0.000
347.468;  798.925;    0.000;    0.000
347.524;  791.925;    0.000;    0.000
347.581;  753.925;    0.000;    0.000
347.637;  818.925;    0.000;    0.000
347.693;  761.925;    0.000;    0.000
347.749;  722.925;    0.000;    0.000
347.805;  630.925;    0.000;    0.000
347.862;  701.925;    0.000;    0.000
347.918;  688.925;    0.000;    0.000
347.974;  673.925;    0.000;    0.000
348.030;  686.925;    0.000;    0.000
348.086;  664.925;    0.000;    0.000
348.142;  703.925;    0.000;    0.000
348.198;  681.925;    0.000;    0.000
348.254;  643.925;    0.000;    0.000
348.311;  670.925;    0.000;    0.000
348.367;  705.925;    0.000;    0.000
348.423;  636.925;    0.000;    0.000
348.479;  629.925;    0.000;    0.000
348.535;  712.925;    0.000;    0.000
348.591;  688.925;    0.000;    0.000
348.647;  649.925;    0.000;    0.000
348.703;  671.925;    0.000;    0.000
348.759;  633.925;    0.000;    0.000
348.815;  669.925;    0.000;    0.000
348.871;  629.925;    0.000;    0.000
348.927;  707.925;    0.000;    0.000
348.983;  862.925;    0.000;    0.000
349.039;  873.925;    0.000;    0.000
349.095;  829.925;    0.000;    0.000
349.151;  719.925;    0.000;    0.000
349.207;  706.925;    0.000;    0.000
349.263;  734.925;    0.000;    0.000
349.319;  749.925;    0.000;    0.000
349.374;  711.925;    0.000;    0.000
349.430;  666.925;    0.000;    0.000
349.486;  646.925;    0.000;    0.000
349.542;  708.925;    0.000;    0.000
349.598;  673.925;    0.000;    0.000
349.654;  694.925;    0.000;    0.000
349.710;  770.925;    0.000;    0.000
349.766;  708.925;    0.000;    0.000
349.821;  713.925;    0.000;    0.000
349.877;  733.925;    0.000;    0.000
349.933;  694.925;    0.000;    0.000
349.989;  708.925;    0.000;    0.000
350.045;  653.925;    0.000;    0.000
350.100;  683.925;    0.000;    0.000
350.156;  679.925;    0.000;    0.000
350.212;  670.925;    0.000;    0.000
350.268;  685.925;    0.000;    0.000
350.323;  639.925;    0.000;    0.000
350.379;  752.925;    0.000;    0.000
350.435;  810.925;    0.000;    0.000
350.491;  770.925;    0.000;    0.000
350.546;  743.925;    0.000;    0.000
350.602;  752.925;    0.000;    0.000
350.658;  721.925;    0.000;    0.000
350.713;  686.925;    0.000;    0.000
350.769;  650.925;    0.000;    0.000
350.825;  642.925;    0.000;    0.000
350.880;  673.925;    0.000;    0.000
350.936;  759.925;    0.000;    0.000
350.992;  816.925;    0.000;    0.000
351.047;  822.925;    0.000;    0.000
351.103;  742.925;    0.000;    0.000
351.158;  711.925;    0.000;    0.000
351.214;  668.925;    0.000;    0.000
351.270;  661.925;    0.000;    0.000
351.325;  688.925;    0.000;    0.000
351.381;  722.925;    0.000;    0.000
351.436;  750.925;    0.000;    0.000
351.492;  763.925;    0.000;    0.000
351.547;  745.925;    0.000;    0.000
351.603;  671.925;    0.000;    0.000
351.658;  698.925;    0.000;    0.000
351.714;  668.925;    0.000;    0.000
351.769;  746.925;    0.000;    0.000
351.825;  695.925;    0.000;    0.000
351.880;  678.925;    0.000;    0.000
351.936;  720.925;    0.000;    0.000
351.991;  747.925;    0.000;    0.000
352.047;  802.925;    0.000;    0.000
352.102;  750.925;    0.000;    0.000
352.157;  752.925;    0.000;    0.000
352.213;  655.925;    0.000;    0.000
352.268;  714.925;    0.000;    0.000
352.324;  680.925;    0.000;    0.000
352.379;  790.925;    0.000;    0.000
352.434;  855.925;    0.000;    0.000
352.490;  842.925;    0.000;    0.000
352.545;  778.925;    0.000;    0.000
352.601;  807.925;    0.000;    0.000
352.656;  698.925;    0.000;    0.000
352.711;  710.925;    0.000;    0.000
352.767;  670.925;    0.000;    0.000
352.822;  680.925;    0.000;    0.000
352.877;  680.925;    0.000;    0.000
352.932;  684.925;    0.000;    0.000
352.988;  696.925;    0.000;    0.000
353.043;  736.925;    0.000;    0.000
353.098;  715.925;    0.000;    0.000
353.153;  687.925;    0.000;    0.000
353.209;  721.925;    0.000;    0.000
353.264;  733.925;    0.000;    0.000
353.319;  683.925;    0.000;    0.000
353.374;  726.925;    0.000;    0.000
353.430;  740.925;    0.000;    0.000
353.485;  777.925;    0.000;    0.000
353.540;  825.925;    0.000;    0.000
353.595;  752.925;    0.000;    0.000
353.650;  764.925;    0.000;    0.000
353.705;  731.925;    0.000;    0.000
353.761;  697.925;    0.000;    0.000
353.816;  741.925;    0.000;    0.000
353.871;  717.925;    0.000;    0.000
353.926;  697.925;    0.000;    0.000
353.981;  724.925;    0.000;    0.000
354.036;  707.925;    0.000;    0.000
354.091;  783.925;    0.000;    0.000
354.146;  811.925;    0.000;    0.000
354.201;  781.925;    0.000;    0.000
354.256;  721.925;    0.000;    0.000
354.311;  742.925;    0.000;    0.000
354.367;  674.925;    0.000;    0.000
354.422;  692.925;    0.000;    0.000
354.477;  703.925;    0.000;    0.000
354.532;  737.925;    0.000;    0.000
354.587;  698.925;    0.000;    0.000
354.642;  728.925;    0.000;    0.000
354.697;  707.925;    0.000;    0.000
354.752;  694.925;    0.000;    0.000
354.806;  697.925;    0.000;    0.000
354.861;  724.925;    0.000;    0.000
354.916;  715.925;    0.000;    0.000
354.971;  696.925;    0.000;    0.000
355.026;  728.925;    0.000;    0.000
355.081;  727.925;    0.000;    0.000
355.136;  709.925;    0.000;    0.000
355.191;  660.925;    0.000;    0.000
355.246;  767.925;    0.000;    0.000
355.301;  763.925;    0.000;    0.000
355.356;  750.925;    0.000;    0.000
355.410;  827.925;    0.000;    0.000
355.465;  783.925;    0.000;    0.000
355.520;  780.925;    0.000;    0.000
355.575;  778.925;    0.000;    0.000
355.630;  768.925;    0.000;    0.000
355.684;  740.925;    0.000;    0.000
355.739;  710.925;    0.000;    0.000
355.794;  899.925;    0.000;    0.000
355.849;  822.925;    0.000;    0.000
355.904;  783.925;    0.000;    0.000
355.958;  701.925;    0.000;    0.000
356.013;  668.925;    0.000;    0.000
356.068;  742.925;    0.000;    0.000
356.123;  744.925;    0.000;    0.000
356.177;  732.925;    0.000;    0.000
356.232;  717.925;    0.000;    0.000
356.287;  733.925;    0.000;    0.000
356.341;  732.925;    0.000;    0.000
356.396;  717.925;    0.000;    0.000
356.451;  929.925;    0.000;    0.000
356.505; 1259.925;    0.000;    0.000
356.560; 1227.925;    0.000;    0.000
356.615; 1005.925;    0.000;    0.000
356.669;  837.925;    0.000;    0.000
356.724;  795.925;    0.000;    0.000
356.778;  796.925;    0.000;    0.000
356.833;  830.925;    0.000;    0.000
356.888;  993.925;    0.000;    0.000
356.942; 1525.925;    0.000;    0.000
356.997; 1762.925;    0.000;    0.000
357.051; 1399.925;    0.000;    0.000
357.106;  968.925;    0.000;    0.000
357.160;  811.925;    0.000;    0.000
357.215;  755.925;    0.000;    0.000
357.269;  756.925;    0.000;    0.000
357.324;  784.925;    0.000;    0.000
357.378;  813.925;    0.000;    0.000
357.433;  774.925;    0.000;    0.000
357.487;  792.925;    0.000;    0.000
357.542;  777.925;    0.000;    0.000
357.596;  821.925;    0.000;    0.000
357.651;  777.925;    0.000;    0.000
357.705;  802.925;    0.000;    0.000
357.760;  763.925;    0.000;    0.000
357.814;  789.925;    0.000;    0.000
357.868;  855.925;    0.000;    0.000
357.923;  809.925;    0.000;    0.000
357.977;  872.925;    0.000;    0.000
358.032; 1378.925;    0.000;    0.000
358.086; 2023.925;    0.000;    0.000
358.140; 2060.925;    0.000;    0.000
358.195; 1205.925;    0.000;    0.000
358.249;  955.925;    0.000;    0.000
358.303;  880.925;    0.000;    0.000
358.358;  860.925;    0.000;    0.000
358.412;  909.925;    0.000;    0.000
358.466; 1033.925;    0.000;    0.000
358.521; 1042.925;    0.000;    0.000
358.575;  999.925;    0.000;    0.000
358.629;  979.925;    0.000;    0.000
358.683;  965.925;    0.000;    0.000
358.738;  937.925;    0.000;    0.000
358.792;  786.925;    0.000;    0.000
358.846;  848.925;    0.000;    0.000
358.900;  818.925;    0.000;    0.000
358.954;  791.925;    0.000;    0.000
359.009;  777.925;    0.000;    0.000
359.063;  784.925;    0.000;    0.000
359.117;  763.925;    0.000;    0.000
359.171;  812.925;    0.000;    0.000
359.225;  784.925;    0.000;    0.000
359.280;  747.925;    0.000;    0.000
359.334;  737.925;    0.000;    0.000
359.388;  838.925;    0.000;    0.000
359.442;  729.925;    0.000;    0.000
359.496;  741.925;    0.000;    0.000
359.550;  768.925;    0.000;    0.000
359.604;  791.925;    0.000;    0.000
359.658;  736.925;    0.000;    0.000
359.712;  787.925;    0.000;    0.000
359.766;  751.925;    0.000;    0.000
359.820;  707.925;    0.000;    0.000
359.875;  730.925;    0.000;    0.000
359.929;  779.925;    0.000;    0.000
359.983;  724.925;    0.000;    0.000
360.037;  732.925;    0.000;    0.000
360.091;  766.925;    0.000;    0.000
360.145;  740.925;    0.000;    0.000
360.199;  748.925;    0.000;    0.000
360.253;  823.925;    0.000;    0.000
360.306;  773.925;    0.000;    0.000
360.360;  792.925;    0.000;    0.000
360.414;  705.925;    0.000;    0.000
360.468;  849.925;    0.000;    0.000
360.522;  824.925;    0.000;    0.000
360.576;  943.925;    0.000;    0.000
360.630; 1007.925;    0.000;    0.000
360.684;  953.925;    0.000;    0.000
360.738;  815.925;    0.000;    0.000
360.792;  975.925;    0.000;    0.000
360.846; 1248.925;    0.000;    0.000
360.899; 1314.925;    0.000;    0.000
360.953; 1057.925;    0.000;    0.000
361.007;  898.925;    0.000;    0.000
361.061;  844.925;    0.000;    0.000
361.115;  805.925;    0.000;    0.000
361.168;  830.925;    0.000;    0.000
361.222;  755.925;    0.000;    0.000
361.276;  724.925;    0.000;    0.000
361.330;  745.925;    0.000;    0.000
361.384;  753.925;    0.000;    0.000
361.437;  732.925;    0.000;    0.000
361.491;  720.925;    0.000;    0.000
361.545;  789.925;    0.000;    0.000
361.599;  775.925;    0.000;    0.000
361.652;  809.925;    0.000;    0.000
361.706;  809.925;    0.000;    0.000
361.760;  931.925;    0.000;    0.000
361.813; 1287.925;    0.000;    0.000
361.867; 1500.925;    0.000;    0.000
361.921; 1241.925;    0.000;    0.000
361.974;  953.925;    0.000;    0.000
362.028;  836.925;    0.000;    0.000
362.082;  872.925;    0.000;    0.000
362.135;  859.925;    0.000;    0.000
362.189;  879.925;    0.000;    0.000
362.242;  835.925;    0.000;    0.000
362.296;  769.925;    0.000;    0.000
362.350;  781.925;    0.000;    0.000
362.403;  798.925;    0.000;    0.000
362.457;  736.925;    0.000;    0.000
362.510;  806.925;    0.000;    0.000
362.564;  775.925;    0.000;    0.000
362.617;  777.925;    0.000;    0.000
362.671;  740.925;    0.000;    0.000
362.724;  733.925;    0.000;    0.000
362.778;  758.925;    0.000;    0.000
362.831;  728.925;    0.000;    0.000
362.885;  721.925;    0.000;    0.000
362.938;  721.925;    0.000;    0.000
362.992;  299.925;    0.000;    0.000
363.045;  260.925;    0.000;    0.000
363.099;  267.925;    0.000;    0.000
363.152;  311.925;    0.000;    0.000
363.205;  285.925;    0.000;    0.000
363.259;  268.925;    0.000;    0.000
363.312;  303.925;    0.000;    0.000
363.366;  274.925;    0.000;    0.000
363.419;  326.925;    0.000;    0.000
363.472;  291.925;    0.000;    0.000
363.526;  307.925;    0.000;    0.000
363.579;  280.925;    0.000;    0.000
363.632;  292.925;    0.000;    0.000
363.686;  258.925;    0.000;    0.000
363.739;  276.925;    0.000;    0.000
363.792;  300.925;    0.000;    0.000

