
Integration time [ms]:   1.000
Averaging Nr. [scans]: 1
Smoothing Nr. [pixels]: 0
Data measured with spectrometer [name]: UV2
Wave   ;Sample   ;Dark     ;Reference
[nm]   ;[counts] ;[counts] ;[counts] 

353.533;  238.650;    0.000;    0.000
353.597;  261.650;    0.000;    0.000
353.660;  166.650;    0.000;    0.000
353.723;  209.650;    0.000;    0.000
353.786;  196.650;    0.000;    0.000
353.850;  229.650;    0.000;    0.000
353.913;  186.650;    0.000;    0.000
353.976;  223.650;    0.000;    0.000
354.039;  198.650;    0.000;    0.000
354.102;  226.650;    0.000;    0.000
354.166;  208.650;    0.000;    0.000
354.229;  193.650;    0.000;    0.000
354.292;  167.650;    0.000;    0.000
354.355;  209.650;    0.000;    0.000
354.418;  185.650;    0.000;    0.000
354.481;  208.650;    0.000;    0.000
354.545;  308.650;    0.000;    0.000
354.608;  261.650;    0.000;    0.000
354.671;  258.650;    0.000;    0.000
354.734;  274.650;    0.000;    0.000
354.797;  276.650;    0.000;    0.000
354.860;  268.650;    0.000;    0.000
354.923;  292.650;    0.000;    0.000
354.986;  229.650;    0.000;    0.000
355.050;  273.650;    0.000;    0.000
355.113;  280.650;    0.000;    0.000
355.176;  286.650;    0.000;    0.000
355.239;  316.650;    0.000;    0.000
355.302;  268.650;    0.000;    0.000
355.365;  312.650;    0.000;    0.000
355.428;  308.650;    0.000;    0.000
355.491;  327.650;    0.000;    0.000
355.554;  268.650;    0.000;    0.000
355.617;  288.650;    0.000;    0.000
355.680;  254.650;    0.000;    0.000
355.743;  278.650;    0.000;    0.000
355.806;  279.650;    0.000;    0.000
355.869;  344.650;    0.000;    0.000
355.932;  298.650;    0.000;    0.000
355.995;  283.650;    0.000;    0.000
356.058;  297.650;    0.000;    0.000
356.121;  317.650;    0.000;    0.000
356.184;  318.650;    0.000;    0.000
356.247;  277.650;    0.000;    0.000
356.310;  229.650;    0.000;    0.000
356.373;  306.650;    0.000;    0.000
356.436;  310.650;    0.000;    0.000
356.498;  299.650;    0.000;    0.000
356.561;  300.650;    0.000;    0.000
356.624;  330.650;    0.000;    0.000
356.687;  307.650;    0.000;    0.000
356.750;  317.650;    0.000;    0.000
356.813;  295.650;    0.000;    0.000
356.876;  320.650;    0.000;    0.000
356.939;  315.650;    0.000;    0.000
357.001;  355.650;    0.000;    0.000
357.064;  298.650;    0.000;    0.000
357.127;  297.650;    0.000;    0.000
357.190;  284.650;    0.000;    0.000
357.253;  285.650;    0.000;    0.000
357.316;  343.650;    0.000;    0.000
357.378;  307.650;    0.000;    0.000
357.441;  310.650;    0.000;    0.000
357.504;  284.650;    0.000;    0.000
357.567;  242.650;    0.000;    0.000
357.629;  323.650;    0.000;    0.000
357.692;  275.650;    0.000;    0.000
357.755;  255.650;    0.000;    0.000
357.818;  280.650;    0.000;    0.000
357.880;  309.650;    0.000;    0.000
357.943;  273.650;    0.000;    0.000
358.006;  331.650;    0.000;    0.000
358.069;  387.650;    0.000;    0.000
358.131;  386.650;    0.000;    0.000
358.194;  318.650;    0.000;    0.000
358.257;  268.650;    0.000;    0.000
358.319;  321.650;    0.000;    0.000
358.382;  307.650;    0.000;    0.000
358.445;  333.650;    0.000;    0.000
358.507;  365.650;    0.000;    0.000
358.570;  300.650;    0.000;    0.000
358.633;  340.650;    0.000;    0.000
358.695;  325.650;    0.000;    0.000
358.758;  340.650;    0.000;    0.000
358.821;  268.650;    0.000;    0.000
358.883;  328.650;    0.000;    0.000
358.946;  310.650;    0.000;    0.000
359.008;  314.650;    0.000;    0.000
359.071;  304.650;    0.000;    0.000
359.134;  278.650;    0.000;    0.000
359.196;  256.650;    0.000;    0.000
359.259;  321.650;    0.000;    0.000
359.321;  317.650;    0.000;    0.000
359.384;  308.650;    0.000;    0.000
359.446;  273.650;    0.000;    0.000
359.509;  328.650;    0.000;    0.000
359.571;  314.650;    0.000;    0.000
359.634;  324.650;    0.000;    0.000
359.696;  284.650;    0.000;    0.000
359.759;  306.650;    0.000;    0.000
359.821;  282.650;    0.000;    0.000
359.884;  311.650;    0.000;    0.000
359.946;  320.650;    0.000;    0.000
360.009;  302.650;    0.000;    0.000
360.071;  307.650;    0.000;    0.000
360.134;  335.650;    0.000;    0.000
360.196;  299.650;    0.000;    0.000
360.259;  298.650;    0.000;    0.000
360.321;  305.650;    0.000;    0.000
360.384;  281.650;    0.000;    0.000
360.446;  315.650;    0.000;    0.000
360.508;  351.650;    0.000;    0.000
360.571;  345.650;    0.000;    0.000
360.633;  334.650;    0.000;    0.000
360.696;  324.650;    0.000;    0.000
360.758;  291.650;    0.000;    0.000
360.820;  347.650;    0.000;    0.000
360.883;  322.650;    0.000;    0.000
360.945;  353.650;    0.000;    0.000
361.007;  362.650;    0.000;    0.000
361.070;  259.650;    0.000;    0.000
361.132;  347.650;    0.000;    0.000
361.194;  325.650;    0.000;    0.000
361.257;  292.650;    0.000;    0.000
361.319;  325.650;    0.000;    0.000
361.381;  343.650;    0.000;    0.000
361.443;  283.650;    0.000;    0.000
361.506;  352.650;    0.000;    0.000
361.568;  290.650;    0.000;    0.000
361.630;  306.650;    0.000;    0.000
361.693;  325.650;    0.000;    0.000
361.755;  321.650;    0.000;    0.000
361.817;  362.650;    0.000;    0.000
361.879;  353.650;    0.000;    0.000
361.941;  331.650;    0.000;    0.000
362.004;  326.650;    0.000;    0.000
362.066;  308.650;    0.000;    0.000
362.128;  309.650;    0.000;    0.000
362.190;  362.650;    0.000;    0.000
362.252;  349.650;    0.000;    0.000
362.315;  309.650;    0.000;    0.000
362.377;  338.650;    0.000;    0.000
362.439;  318.650;    0.000;    0.000
362.501;  353.650;    0.000;    0.000
362.563;  344.650;    0.000;    0.000
362.625;  356.650;    0.000;    0.000
362.688;  373.650;    0.000;    0.000
362.750;  377.650;    0.000;    0.000
362.812;  368.650;    0.000;    0.000
362.874;  338.650;    0.000;    0.000
362.936;  358.650;    0.000;    0.000
362.998;  278.650;    0.000;    0.000
363.060;  374.650;    0.000;    0.000
363.122;  380.650;    0.000;    0.000
363.184;  359.650;    0.000;    0.000
363.246;  387.650;    0.000;    0.000
363.308;  333.650;    0.000;    0.000
363.370;  387.650;    0.000;    0.000
363.432;  302.650;    0.000;    0.000
363.494;  365.650;    0.000;    0.000
363.556;  343.650;    0.000;    0.000
363.618;  334.650;    0.000;    0.000
363.680;  315.650;    0.000;    0.000
363.742;  323.650;    0.000;    0.000
363.804;  372.650;    0.000;    0.000
363.866;  351.650;    0.000;    0.000
363.928;  337.650;    0.000;    0.000
363.990;  389.650;    0.000;    0.000
364.052;  435.650;    0.000;    0.000
364.114;  406.650;    0.000;    0.000
364.176;  475.650;    0.000;    0.000
364.238;  420.650;    0.000;    0.000
364.300;  396.650;    0.000;    0.000
364.362;  349.650;    0.000;    0.000
364.424;  327.650;    0.000;    0.000
364.486;  381.650;    0.000;    0.000
364.548;  338.650;    0.000;    0.000
364.609;  374.650;    0.000;    0.000
364.671;  354.650;    0.000;    0.000
364.733;  375.650;    0.000;    0.000
364.795;  350.650;    0.000;    0.000
364.857;  295.650;    0.000;    0.000
364.919;  283.650;    0.000;    0.000
364.981;  343.650;    0.000;    0.000
365.042;  345.650;    0.000;    0.000
365.104;  343.650;    0.000;    0.000
365.166;  317.650;    0.000;    0.000
365.228;  355.650;    0.000;    0.000
365.290;  349.650;    0.000;    0.000
365.351;  386.650;    0.000;    0.000
365.413;  363.650;    0.000;    0.000
365.475;  332.650;    0.000;    0.000
365.537;  329.650;    0.000;    0.000
365.598;  328.650;    0.000;    0.000
365.660;  301.650;    0.000;    0.000
365.722;  329.650;    0.000;    0.000
365.784;  348.650;    0.000;    0.000
365.845;  282.650;    0.000;    0.000
365.907;  356.650;    0.000;    0.000
365.969;  418.650;    0.000;    0.000
366.030;  400.650;    0.000;    0.000
366.092;  354.650;    0.000;    0.000
366.154;  399.650;    0.000;    0.000
366.215;  354.650;    0.000;    0.000
366.277;  375.650;    0.000;    0.000
366.339;  354.650;    0.000;    0.000
366.400;  305.650;    0.000;    0.000
366.462;  331.650;    0.000;    0.000
366.524;  345.650;    0.000;    0.000
366.585;  341.650;    0.000;    0.000
366.647;  341.650;    0.000;    0.000
366.708;  296.650;    0.000;    0.000
366.770;  359.650;    0.000;    0.000
366.832;  362.650;    0.000;    0.000
366.893;  340.650;    0.000;    0.000
366.955;  328.650;    0.000;    0.000
367.016;  366.650;    0.000;    0.000
367.078;  343.650;    0.000;    0.000
367.139;  347.650;    0.000;    0.000
367.201;  368.650;    0.000;    0.000
367.262;  350.650;    0.000;    0.000
367.324;  393.650;    0.000;    0.000
367.385;  285.650;    0.000;    0.000
367.447;  357.650;    0.000;    0.000
367.508;  342.650;    0.000;    0.000
367.570;  369.650;    0.000;    0.000
367.631;  370.650;    0.000;    0.000
367.693;  362.650;    0.000;    0.000
367.754;  388.650;    0.000;    0.000
367.816;  347.650;    0.000;    0.000
367.877;  424.650;    0.000;    0.000
367.939;  387.650;    0.000;    0.000
368.000;  389.650;    0.000;    0.000
368.062;  410.650;    0.000;    0.000
368.123;  413.650;    0.000;    0.000
368.184;  400.650;    0.000;    0.000
368.246;  435.650;    0.000;    0.000
368.307;  520.650;    0.000;    0.000
368.369;  539.650;    0.000;    0.000
368.430;  800.650;    0.000;    0.000
368.491; 1060.650;    0.000;    0.000
368.553;  901.650;    0.000;    0.000
368.614;  594.650;    0.000;    0.000
368.675;  441.650;    0.000;    0.000
368.737;  406.650;    0.000;    0.000
368.798;  432.650;    0.000;    0.000
368.859;  400.650;    0.000;    0.000
368.921;  391.650;    0.000;    0.000
368.982;  400.650;    0.000;    0.000
369.043;  411.650;    0.000;    0.000
369.104;  398.650;    0.000;    0.000
369.166;  390.650;    0.000;    0.000
369.227;  317.650;    0.000;    0.000
369.288;  372.650;    0.000;    0.000
369.349;  373.650;    0.000;    0.000
369.411;  377.650;    0.000;    0.000
369.472;  373.650;    0.000;    0.000
369.533;  362.650;    0.000;    0.000
369.594;  390.650;    0.000;    0.000
369.656;  418.650;    0.000;    0.000
369.717;  308.650;    0.000;    0.000
369.778;  396.650;    0.000;    0.000
369.839;  391.650;    0.000;    0.000
369.900;  405.650;    0.000;    0.000
369.961;  377.650;    0.000;    0.000
370.023;  426.650;    0.000;    0.000
370.084;  384.650;    0.000;    0.000
370.145;  381.650;    0.000;    0.000
370.206;  394.650;    0.000;    0.000
370.267;  362.650;    0.000;    0.000
370.328;  391.650;    0.000;    0.000
370.389;  424.650;    0.000;    0.000
370.451;  402.650;    0.000;    0.000
370.512;  433.650;    0.000;    0.000
370.573;  489.650;    0.000;    0.000
370.634;  509.650;    0.000;    0.000
370.695;  440.650;    0.000;    0.000
370.756;  447.650;    0.000;    0.000
370.817;  422.650;    0.000;    0.000
370.878;  480.650;    0.000;    0.000
370.939;  440.650;    0.000;    0.000
371.000;  396.650;    0.000;    0.000
371.061;  437.650;    0.000;    0.000
371.122;  429.650;    0.000;    0.000
371.183;  370.650;    0.000;    0.000
371.244;  450.650;    0.000;    0.000
371.305;  366.650;    0.000;    0.000
371.366;  398.650;    0.000;    0.000
371.427;  394.650;    0.000;    0.000
371.488;  415.650;    0.000;    0.000
371.549;  399.650;    0.000;    0.000
371.610;  389.650;    0.000;    0.000
371.671;  369.650;    0.000;    0.000
371.732;  417.650;    0.000;    0.000
371.793;  455.650;    0.000;    0.000
371.853;  445.650;    0.000;    0.000
371.914;  454.650;    0.000;    0.000
371.975;  464.650;    0.000;    0.000
372.036;  502.650;    0.000;    0.000
372.097;  449.650;    0.000;    0.000
372.158;  428.650;    0.000;    0.000
372.219;  471.650;    0.000;    0.000
372.280;  424.650;    0.000;    0.000
372.340;  445.650;    0.000;    0.000
372.401;  442.650;    0.000;    0.000
372.462;  442.650;    0.000;    0.000
372.523;  425.650;    0.000;    0.000
372.584;  424.650;    0.000;    0.000
372.645;  416.650;    0.000;    0.000
372.705;  471.650;    0.000;    0.000
372.766;  435.650;    0.000;    0.000
372.827;  438.650;    0.000;    0.000
372.888;  462.650;    0.000;    0.000
372.948;  448.650;    0.000;    0.000
373.009;  437.650;    0.000;    0.000
373.070;  429.650;    0.000;    0.000
373.131;  425.650;    0.000;    0.000
373.191;  499.650;    0.000;    0.000
373.252;  448.650;    0.000;    0.000
373.313;  476.650;    0.000;    0.000
373.373;  476.650;    0.000;    0.000
373.434;  596.650;    0.000;    0.000
373.495;  607.650;    0.000;    0.000
373.555;  510.650;    0.000;    0.000
373.616;  526.650;    0.000;    0.000
373.677;  650.650;    0.000;    0.000
373.737;  614.650;    0.000;    0.000
373.798;  521.650;    0.000;    0.000
373.859;  527.650;    0.000;    0.000
373.919;  569.650;    0.000;    0.000
373.980;  549.650;    0.000;    0.000
374.041;  533.650;    0.000;    0.000
374.101;  676.650;    0.000;    0.000
374.162;  729.650;    0.000;    0.000
374.222;  574.650;    0.000;    0.000
374.283;  548.650;    0.000;    0.000
374.343;  548.650;    0.000;    0.000
374.404;  500.650;    0.000;    0.000
374.465;  494.650;    0.000;    0.000
374.525;  501.650;    0.000;    0.000
374.586;  582.650;    0.000;    0.000
374.646;  506.650;    0.000;    0.000
374.707;  524.650;    0.000;    0.000
374.767;  559.650;    0.000;    0.000
374.828;  532.650;    0.000;    0.000
374.888;  629.650;    0.000;    0.000
374.949;  601.650;    0.000;    0.000
375.009;  526.650;    0.000;    0.000
375.070;  471.650;    0.000;    0.000
375.130;  532.650;    0.000;    0.000
375.190;  494.650;    0.000;    0.000
375.251;  592.650;    0.000;    0.000
375.311;  583.650;    0.000;    0.000
375.372;  525.650;    0.000;    0.000
375.432;  502.650;    0.000;    0.000
375.493;  499.650;    0.000;    0.000
375.553;  516.650;    0.000;    0.000
375.613;  571.650;    0.000;    0.000
375.674;  650.650;    0.000;    0.000
375.734;  817.650;    0.000;    0.000
375.794;  929.650;    0.000;    0.000
375.855; 1262.650;    0.000;    0.000
375.915; 1373.650;    0.000;    0.000
375.975; 1203.650;    0.000;    0.000
376.036; 1098.650;    0.000;    0.000
376.096; 1238.650;    0.000;    0.000
376.156; 1053.650;    0.000;    0.000
376.217;  766.650;    0.000;    0.000
376.277;  653.650;    0.000;    0.000
376.337;  601.650;    0.000;    0.000
376.398;  581.650;    0.000;    0.000
376.458;  522.650;    0.000;    0.000
376.518;  539.650;    0.000;    0.000
376.578;  504.650;    0.000;    0.000
376.639;  508.650;    0.000;    0.000
376.699;  492.650;    0.000;    0.000
376.759;  537.650;    0.000;    0.000
376.819;  475.650;    0.000;    0.000
376.880;  498.650;    0.000;    0.000
376.940;  478.650;    0.000;    0.000
377.000;  438.650;    0.000;    0.000
377.060;  506.650;    0.000;    0.000
377.120;  457.650;    0.000;    0.000
377.180;  483.650;    0.000;    0.000
377.241;  451.650;    0.000;    0.000
377.301;  481.650;    0.000;    0.000
377.361;  447.650;    0.000;    0.000
377.421;  468.650;    0.000;    0.000
377.481;  525.650;    0.000;    0.000
377.541;  503.650;    0.000;    0.000
377.601;  492.650;    0.000;    0.000
377.661;  503.650;    0.000;    0.000
377.722;  528.650;    0.000;    0.000
377.782;  496.650;    0.000;    0.000
377.842;  489.650;    0.000;    0.000
377.902;  478.650;    0.000;    0.000
377.962;  469.650;    0.000;    0.000
378.022;  420.650;    0.000;    0.000
378.082;  494.650;    0.000;    0.000
378.142;  496.650;    0.000;    0.000
378.202;  493.650;    0.000;    0.000
378.262;  468.650;    0.000;    0.000
378.322;  470.650;    0.000;    0.000
378.382;  483.650;    0.000;    0.000
378.442;  508.650;    0.000;    0.000
378.502;  466.650;    0.000;    0.000
378.562;  538.650;    0.000;    0.000
378.622;  519.650;    0.000;    0.000
378.682;  547.650;    0.000;    0.000
378.742;  512.650;    0.000;    0.000
378.802;  483.650;    0.000;    0.000
378.862;  579.650;    0.000;    0.000
378.921;  507.650;    0.000;    0.000
378.981;  481.650;    0.000;    0.000
379.041;  504.650;    0.000;    0.000
379.101;  559.650;    0.000;    0.000
379.161;  513.650;    0.000;    0.000
379.221;  493.650;    0.000;    0.000
379.281;  506.650;    0.000;    0.000
379.341;  506.650;    0.000;    0.000
379.401;  567.650;    0.000;    0.000
379.460;  554.650;    0.000;    0.000
379.520;  590.650;    0.000;    0.000
379.580;  561.650;    0.000;    0.000
379.640;  529.650;    0.000;    0.000
379.700;  557.650;    0.000;    0.000
379.759;  623.650;    0.000;    0.000
379.819;  531.650;    0.000;    0.000
379.879;  558.650;    0.000;    0.000
379.939;  592.650;    0.000;    0.000
379.999;  606.650;    0.000;    0.000
380.058;  529.650;    0.000;    0.000
380.118;  579.650;    0.000;    0.000
380.178;  551.650;    0.000;    0.000
380.237;  564.650;    0.000;    0.000
380.297;  525.650;    0.000;    0.000
380.357;  532.650;    0.000;    0.000
380.417;  547.650;    0.000;    0.000
380.476;  555.650;    0.000;    0.000
380.536;  582.650;    0.000;    0.000
380.596;  542.650;    0.000;    0.000
380.655;  568.650;    0.000;    0.000
380.715;  605.650;    0.000;    0.000
380.775;  599.650;    0.000;    0.000
380.834;  627.650;    0.000;    0.000
380.894;  557.650;    0.000;    0.000
380.954;  548.650;    0.000;    0.000
381.013;  608.650;    0.000;    0.000
381.073;  569.650;    0.000;    0.000
381.132;  581.650;    0.000;    0.000
381.192;  584.650;    0.000;    0.000
381.252;  596.650;    0.000;    0.000
381.311;  610.650;    0.000;    0.000
381.371;  636.650;    0.000;    0.000
381.430;  648.650;    0.000;    0.000
381.490;  618.650;    0.000;    0.000
381.549;  678.650;    0.000;    0.000
381.609;  729.650;    0.000;    0.000
381.668;  712.650;    0.000;    0.000
381.728;  628.650;    0.000;    0.000
381.787;  681.650;    0.000;    0.000
381.847;  593.650;    0.000;    0.000
381.906;  690.650;    0.000;    0.000
381.966;  736.650;    0.000;    0.000
382.025;  800.650;    0.000;    0.000
382.085;  750.650;    0.000;    0.000
382.144;  640.650;    0.000;    0.000
382.204;  667.650;    0.000;    0.000
382.263;  648.650;    0.000;    0.000
382.323;  708.650;    0.000;    0.000
382.382;  723.650;    0.000;    0.000
382.441;  742.650;    0.000;    0.000
382.501;  815.650;    0.000;    0.000
382.560;  862.650;    0.000;    0.000
382.619;  852.650;    0.000;    0.000
382.679;  807.650;    0.000;    0.000
382.738;  975.650;    0.000;    0.000
382.798; 1027.650;    0.000;    0.000
382.857; 1101.650;    0.000;    0.000
382.916; 1114.650;    0.000;    0.000
382.976; 1077.650;    0.000;    0.000
383.035; 1029.650;    0.000;    0.000
383.094; 1171.650;    0.000;    0.000
383.154; 1458.650;    0.000;    0.000
383.213; 1537.650;    0.000;    0.000
383.272; 1318.650;    0.000;    0.000
383.331; 1106.650;    0.000;    0.000
383.391; 1031.650;    0.000;    0.000
383.450; 1007.650;    0.000;    0.000
383.509; 1060.650;    0.000;    0.000
383.568; 1101.650;    0.000;    0.000
383.628; 1147.650;    0.000;    0.000
383.687; 1291.650;    0.000;    0.000
383.746; 1589.650;    0.000;    0.000
383.805; 1788.650;    0.000;    0.000
383.864; 1498.650;    0.000;    0.000
383.924; 1141.650;    0.000;    0.000
383.983; 1043.650;    0.000;    0.000
384.042;  966.650;    0.000;    0.000
384.101;  908.650;    0.000;    0.000
384.160;  781.650;    0.000;    0.000
384.219;  766.650;    0.000;    0.000
384.279;  745.650;    0.000;    0.000
384.338;  691.650;    0.000;    0.000
384.397;  686.650;    0.000;    0.000
384.456;  704.650;    0.000;    0.000
384.515;  687.650;    0.000;    0.000
384.574;  746.650;    0.000;    0.000
384.633;  647.650;    0.000;    0.000
384.692;  617.650;    0.000;    0.000
384.751;  654.650;    0.000;    0.000
384.810;  689.650;    0.000;    0.000
384.869;  633.650;    0.000;    0.000
384.929;  699.650;    0.000;    0.000
384.988;  704.650;    0.000;    0.000
385.047;  731.650;    0.000;    0.000
385.106;  620.650;    0.000;    0.000
385.165;  638.650;    0.000;    0.000
385.224;  643.650;    0.000;    0.000
385.283;  688.650;    0.000;    0.000
385.342;  643.650;    0.000;    0.000
385.401;  710.650;    0.000;    0.000
385.459;  665.650;    0.000;    0.000
385.518;  715.650;    0.000;    0.000
385.577;  718.650;    0.000;    0.000
385.636;  769.650;    0.000;    0.000
385.695;  675.650;    0.000;    0.000
385.754;  738.650;    0.000;    0.000
385.813;  683.650;    0.000;    0.000
385.872;  703.650;    0.000;    0.000
385.931;  764.650;    0.000;    0.000
385.990;  769.650;    0.000;    0.000
386.049;  807.650;    0.000;    0.000
386.107;  641.650;    0.000;    0.000
386.166;  691.650;    0.000;    0.000
386.225;  706.650;    0.000;    0.000
386.284;  722.650;    0.000;    0.000
386.343;  689.650;    0.000;    0.000
386.402;  692.650;    0.000;    0.000
386.460;  601.650;    0.000;    0.000
386.519;  651.650;    0.000;    0.000
386.578;  639.650;    0.000;    0.000
386.637;  682.650;    0.000;    0.000
386.696;  658.650;    0.000;    0.000
386.754;  658.650;    0.000;    0.000
386.813;  655.650;    0.000;    0.000
386.872;  651.650;    0.000;    0.000
386.931;  635.650;    0.000;    0.000
386.989;  691.650;    0.000;    0.000
387.048;  591.650;    0.000;    0.000
387.107;  693.650;    0.000;    0.000
387.165;  639.650;    0.000;    0.000
387.224;  613.650;    0.000;    0.000
387.283;  661.650;    0.000;    0.000
387.342;  695.650;    0.000;    0.000
387.400;  678.650;    0.000;    0.000
387.459;  605.650;    0.000;    0.000
387.517;  638.650;    0.000;    0.000
387.576;  644.650;    0.000;    0.000
387.635;  637.650;    0.000;    0.000
387.693;  669.650;    0.000;    0.000
387.752;  704.650;    0.000;    0.000
387.811;  709.650;    0.000;    0.000
387.869;  692.650;    0.000;    0.000
387.928;  668.650;    0.000;    0.000
387.986;  650.650;    0.000;    0.000
388.045;  590.650;    0.000;    0.000
388.103;  626.650;    0.000;    0.000
388.162;  646.650;    0.000;    0.000
388.221;  658.650;    0.000;    0.000
388.279;  591.650;    0.000;    0.000
388.338;  719.650;    0.000;    0.000
388.396;  681.650;    0.000;    0.000
388.455;  659.650;    0.000;    0.000
388.513;  609.650;    0.000;    0.000
388.572;  755.650;    0.000;    0.000
388.630;  763.650;    0.000;    0.000
388.689;  680.650;    0.000;    0.000
388.747;  643.650;    0.000;    0.000
388.806;  638.650;    0.000;    0.000
388.864;  649.650;    0.000;    0.000
388.922;  655.650;    0.000;    0.000
388.981;  644.650;    0.000;    0.000
389.039;  635.650;    0.000;    0.000
389.098;  671.650;    0.000;    0.000
389.156;  698.650;    0.000;    0.000
389.214;  711.650;    0.000;    0.000
389.273;  700.650;    0.000;    0.000
389.331;  657.650;    0.000;    0.000
389.390;  657.650;    0.000;    0.000
389.448;  723.650;    0.000;    0.000
389.506;  703.650;    0.000;    0.000
389.565;  730.650;    0.000;    0.000
389.623;  690.650;    0.000;    0.000
389.681;  668.650;    0.000;    0.000
389.740;  755.650;    0.000;    0.000
389.798;  737.650;    0.000;    0.000
389.856;  733.650;    0.000;    0.000
389.914;  719.650;    0.000;    0.000
389.973;  886.650;    0.000;    0.000
390.031;  963.650;    0.000;    0.000
390.089;  926.650;    0.000;    0.000
390.147;  754.650;    0.000;    0.000
390.206;  723.650;    0.000;    0.000
390.264;  761.650;    0.000;    0.000
390.322;  705.650;    0.000;    0.000
390.380;  715.650;    0.000;    0.000
390.439;  825.650;    0.000;    0.000
390.497;  879.650;    0.000;    0.000
390.555;  880.650;    0.000;    0.000
390.613;  832.650;    0.000;    0.000
390.671;  793.650;    0.000;    0.000
390.729;  720.650;    0.000;    0.000
390.788;  725.650;    0.000;    0.000
390.846;  704.650;    0.000;    0.000
390.904;  718.650;    0.000;    0.000
390.962;  680.650;    0.000;    0.000
391.020;  758.650;    0.000;    0.000
391.078;  716.650;    0.000;    0.000
391.136;  742.650;    0.000;    0.000
391.194;  751.650;    0.000;    0.000
391.253;  836.650;    0.000;    0.000
391.311;  857.650;    0.000;    0.000
391.369;  918.650;    0.000;    0.000
391.427;  883.650;    0.000;    0.000
391.485;  795.650;    0.000;    0.000
391.543;  756.650;    0.000;    0.000
391.601;  728.650;    0.000;    0.000
391.659;  747.650;    0.000;    0.000
391.717;  771.650;    0.000;    0.000
391.775;  701.650;    0.000;    0.000
391.833;  728.650;    0.000;    0.000
391.891;  746.650;    0.000;    0.000
391.949;  785.650;    0.000;    0.000
392.007;  823.650;    0.000;    0.000
392.065;  746.650;    0.000;    0.000
392.123;  742.650;    0.000;    0.000
392.180;  833.650;    0.000;    0.000
392.238;  842.650;    0.000;    0.000
392.296;  793.650;    0.000;    0.000
392.354;  813.650;    0.000;    0.000
392.412;  905.650;    0.000;    0.000
392.470;  854.650;    0.000;    0.000
392.528;  891.650;    0.000;    0.000
392.586;  856.650;    0.000;    0.000
392.644;  962.650;    0.000;    0.000
392.701; 1000.650;    0.000;    0.000
392.759; 1025.650;    0.000;    0.000
392.817;  973.650;    0.000;    0.000
392.875; 1116.650;    0.000;    0.000
392.933; 1291.650;    0.000;    0.000
392.991; 1448.650;    0.000;    0.000
393.048; 1626.650;    0.000;    0.000
393.106; 1844.650;    0.000;    0.000
393.164; 2390.650;    0.000;    0.000
393.222; 3379.650;    0.000;    0.000
393.279; 4892.650;    0.000;    0.000
393.337; 5723.650;    0.000;    0.000
393.395; 4724.650;    0.000;    0.000
393.453; 2937.650;    0.000;    0.000
393.510; 1987.650;    0.000;    0.000
393.568; 1540.650;    0.000;    0.000
393.626; 1307.650;    0.000;    0.000
393.684; 1212.650;    0.000;    0.000
393.741; 1104.650;    0.000;    0.000
393.799; 1041.650;    0.000;    0.000
393.857;  918.650;    0.000;    0.000
393.914;  959.650;    0.000;    0.000
393.972;  912.650;    0.000;    0.000
394.030;  802.650;    0.000;    0.000
394.087;  876.650;    0.000;    0.000
394.145;  879.650;    0.000;    0.000
394.202;  889.650;    0.000;    0.000
394.260;  878.650;    0.000;    0.000
394.318; 1213.650;    0.000;    0.000
394.375; 1396.650;    0.000;    0.000
394.433; 1397.650;    0.000;    0.000
394.490; 1062.650;    0.000;    0.000
394.548;  895.650;    0.000;    0.000
394.605;  918.650;    0.000;    0.000
394.663;  820.650;    0.000;    0.000
394.720;  850.650;    0.000;    0.000
394.778;  887.650;    0.000;    0.000
394.836;  887.650;    0.000;    0.000
394.893;  873.650;    0.000;    0.000
394.951;  856.650;    0.000;    0.000
395.008;  791.650;    0.000;    0.000
395.065;  753.650;    0.000;    0.000
395.123;  797.650;    0.000;    0.000
395.180;  812.650;    0.000;    0.000
395.238;  830.650;    0.000;    0.000
395.295;  763.650;    0.000;    0.000
395.353;  760.650;    0.000;    0.000
395.410;  764.650;    0.000;    0.000
395.468;  784.650;    0.000;    0.000
395.525;  797.650;    0.000;    0.000
395.582;  889.650;    0.000;    0.000
395.640;  870.650;    0.000;    0.000
395.697;  848.650;    0.000;    0.000
395.754;  900.650;    0.000;    0.000
395.812;  956.650;    0.000;    0.000
395.869;  948.650;    0.000;    0.000
395.927;  849.650;    0.000;    0.000
395.984; 1002.650;    0.000;    0.000
396.041; 1174.650;    0.000;    0.000
396.098; 1636.650;    0.000;    0.000
396.156; 1940.650;    0.000;    0.000
396.213; 1736.650;    0.000;    0.000
396.270; 1319.650;    0.000;    0.000
396.328; 1115.650;    0.000;    0.000
396.385; 1178.650;    0.000;    0.000
396.442; 1160.650;    0.000;    0.000
396.499; 1268.650;    0.000;    0.000
396.557; 1445.650;    0.000;    0.000
396.614; 1655.650;    0.000;    0.000
396.671; 2181.650;    0.000;    0.000
396.728; 3188.650;    0.000;    0.000
396.785; 4450.650;    0.000;    0.000
396.843; 4522.650;    0.000;    0.000
396.900; 3113.650;    0.000;    0.000
396.957; 1874.650;    0.000;    0.000
397.014; 1398.650;    0.000;    0.000
397.071; 1237.650;    0.000;    0.000
397.128; 1151.650;    0.000;    0.000
397.186; 1074.650;    0.000;    0.000
397.243;  973.650;    0.000;    0.000
397.300;  909.650;    0.000;    0.000
397.357;  870.650;    0.000;    0.000
397.414;  829.650;    0.000;    0.000
397.471;  849.650;    0.000;    0.000
397.528;  852.650;    0.000;    0.000
397.585;  816.650;    0.000;    0.000
397.642;  825.650;    0.000;    0.000
397.699;  812.650;    0.000;    0.000
397.756;  752.650;    0.000;    0.000
397.814;  784.650;    0.000;    0.000
397.871;  784.650;    0.000;    0.000
397.928;  794.650;    0.000;    0.000
397.985;  746.650;    0.000;    0.000
398.042;  798.650;    0.000;    0.000
398.099;  852.650;    0.000;    0.000
398.156;  858.650;    0.000;    0.000
398.212;  843.650;    0.000;    0.000
398.269;  807.650;    0.000;    0.000
398.326;  763.650;    0.000;    0.000
398.383;  762.650;    0.000;    0.000
398.440;  799.650;    0.000;    0.000
398.497;  739.650;    0.000;    0.000
398.554;  765.650;    0.000;    0.000
398.611;  771.650;    0.000;    0.000
398.668;  675.650;    0.000;    0.000
398.725;  719.650;    0.000;    0.000
398.782;  757.650;    0.000;    0.000
398.839;  742.650;    0.000;    0.000
398.895;  807.650;    0.000;    0.000
398.952;  939.650;    0.000;    0.000
399.009;  831.650;    0.000;    0.000
399.066;  766.650;    0.000;    0.000
399.123;  699.650;    0.000;    0.000
399.180;  789.650;    0.000;    0.000
399.236;  725.650;    0.000;    0.000
399.293;  745.650;    0.000;    0.000
399.350;  721.650;    0.000;    0.000
399.407;  759.650;    0.000;    0.000
399.463;  730.650;    0.000;    0.000
399.520;  780.650;    0.000;    0.000
399.577;  774.650;    0.000;    0.000
399.634;  798.650;    0.000;    0.000
399.690;  787.650;    0.000;    0.000
399.747;  835.650;    0.000;    0.000
399.804;  884.650;    0.000;    0.000
399.861;  911.650;    0.000;    0.000
399.917;  907.650;    0.000;    0.000
399.974;  781.650;    0.000;    0.000
400.031;  817.650;    0.000;    0.000
400.087;  706.650;    0.000;    0.000
400.144;  771.650;    0.000;    0.000
400.201;  761.650;    0.000;    0.000
400.257;  742.650;    0.000;    0.000
400.314;  762.650;    0.000;    0.000
400.370;  719.650;    0.000;    0.000
400.427;  725.650;    0.000;    0.000
400.484;  748.650;    0.000;    0.000
400.540;  769.650;    0.000;    0.000
400.597;  667.650;    0.000;    0.000
400.653;  737.650;    0.000;    0.000
400.710;  664.650;    0.000;    0.000
400.766;  718.650;    0.000;    0.000
400.823;  694.650;    0.000;    0.000
400.879;  723.650;    0.000;    0.000
400.936;  720.650;    0.000;    0.000
400.993;  702.650;    0.000;    0.000
401.049;  641.650;    0.000;    0.000
401.105;  703.650;    0.000;    0.000
401.162;  707.650;    0.000;    0.000
401.218;  726.650;    0.000;    0.000
401.275;  701.650;    0.000;    0.000
401.331;  702.650;    0.000;    0.000
401.388;  713.650;    0.000;    0.000
401.444;  683.650;    0.000;    0.000
401.501;  679.650;    0.000;    0.000
401.557;  614.650;    0.000;    0.000
401.614;  625.650;    0.000;    0.000
401.670;  688.650;    0.000;    0.000
401.726;  657.650;    0.000;    0.000
401.783;  661.650;    0.000;    0.000
401.839;  657.650;    0.000;    0.000
401.895;  682.650;    0.000;    0.000
401.952;  662.650;    0.000;    0.000
402.008;  626.650;    0.000;    0.000
402.064;  608.650;    0.000;    0.000
402.121;  668.650;    0.000;    0.000
402.177;  645.650;    0.000;    0.000
402.233;  635.650;    0.000;    0.000
402.290;  653.650;    0.000;    0.000
402.346;  672.650;    0.000;    0.000
402.402;  630.650;    0.000;    0.000
402.458;  724.650;    0.000;    0.000
402.515;  653.650;    0.000;    0.000
402.571;  642.650;    0.000;    0.000
402.627;  652.650;    0.000;    0.000
402.683;  657.650;    0.000;    0.000
402.740;  638.650;    0.000;    0.000
402.796;  744.650;    0.000;    0.000
402.852;  713.650;    0.000;    0.000
402.908;  684.650;    0.000;    0.000
402.964;  668.650;    0.000;    0.000
403.021;  691.650;    0.000;    0.000
403.077;  706.650;    0.000;    0.000
403.133;  660.650;    0.000;    0.000
403.189;  684.650;    0.000;    0.000
403.245;  668.650;    0.000;    0.000
403.301;  701.650;    0.000;    0.000
403.357;  713.650;    0.000;    0.000
403.414;  712.650;    0.000;    0.000
403.470;  680.650;    0.000;    0.000
403.526;  634.650;    0.000;    0.000
403.582;  638.650;    0.000;    0.000
403.638;  646.650;    0.000;    0.000
403.694;  658.650;    0.000;    0.000
403.750;  642.650;    0.000;    0.000
403.806;  611.650;    0.000;    0.000
403.862;  583.650;    0.000;    0.000
403.918;  659.650;    0.000;    0.000
403.974;  595.650;    0.000;    0.000
404.030;  643.650;    0.000;    0.000
404.086;  639.650;    0.000;    0.000
404.142;  693.650;    0.000;    0.000
404.198;  639.650;    0.000;    0.000
404.254;  625.650;    0.000;    0.000
404.310;  609.650;    0.000;    0.000
404.366;  631.650;    0.000;    0.000
404.422;  688.650;    0.000;    0.000
404.478;  729.650;    0.000;    0.000
404.534;  850.650;    0.000;    0.000
404.590;  842.650;    0.000;    0.000
404.646;  715.650;    0.000;    0.000
404.701;  642.650;    0.000;    0.000
404.757;  656.650;    0.000;    0.000
404.813;  593.650;    0.000;    0.000
404.869;  661.650;    0.000;    0.000
404.925;  587.650;    0.000;    0.000
404.981;  687.650;    0.000;    0.000
405.037;  622.650;    0.000;    0.000
405.092;  558.650;    0.000;    0.000
405.148;  610.650;    0.000;    0.000
405.204;  631.650;    0.000;    0.000
405.260;  603.650;    0.000;    0.000
405.316;  687.650;    0.000;    0.000
405.371;  657.650;    0.000;    0.000
405.427;  683.650;    0.000;    0.000
405.483;  673.650;    0.000;    0.000
405.539;  651.650;    0.000;    0.000
405.594;  635.650;    0.000;    0.000
405.650;  586.650;    0.000;    0.000
405.706;  647.650;    0.000;    0.000
405.761;  646.650;    0.000;    0.000
405.817;  605.650;    0.000;    0.000
405.873;  653.650;    0.000;    0.000
405.928;  675.650;    0.000;    0.000
405.984;  669.650;    0.000;    0.000
406.040;  661.650;    0.000;    0.000
406.095;  592.650;    0.000;    0.000
406.151;  680.650;    0.000;    0.000
406.207;  725.650;    0.000;    0.000
406.262;  704.650;    0.000;    0.000
406.318;  770.650;    0.000;    0.000
406.374;  810.650;    0.000;    0.000
406.429;  726.650;    0.000;    0.000
406.485;  714.650;    0.000;    0.000
406.540;  702.650;    0.000;    0.000
406.596;  693.650;    0.000;    0.000
406.651;  619.650;    0.000;    0.000
406.707;  637.650;    0.000;    0.000
406.763;  617.650;    0.000;    0.000
406.818;  627.650;    0.000;    0.000
406.874;  672.650;    0.000;    0.000
406.929;  755.650;    0.000;    0.000
406.985;  678.650;    0.000;    0.000
407.040;  668.650;    0.000;    0.000
407.095;  793.650;    0.000;    0.000
407.151;  834.650;    0.000;    0.000
407.206;  751.650;    0.000;    0.000
407.262;  711.650;    0.000;    0.000
407.317;  748.650;    0.000;    0.000
407.373;  750.650;    0.000;    0.000
407.428;  715.650;    0.000;    0.000
407.484;  707.650;    0.000;    0.000
407.539;  693.650;    0.000;    0.000
407.594;  780.650;    0.000;    0.000
407.650;  785.650;    0.000;    0.000
407.705;  847.650;    0.000;    0.000
407.760;  823.650;    0.000;    0.000
407.816;  848.650;    0.000;    0.000
407.871;  802.650;    0.000;    0.000
407.926;  748.650;    0.000;    0.000
407.982;  707.650;    0.000;    0.000
408.037;  691.650;    0.000;    0.000
408.092;  710.650;    0.000;    0.000
408.148;  681.650;    0.000;    0.000
408.203;  674.650;    0.000;    0.000
408.258;  691.650;    0.000;    0.000
408.314;  685.650;    0.000;    0.000
408.369;  647.650;    0.000;    0.000
408.424;  708.650;    0.000;    0.000
408.479;  701.650;    0.000;    0.000
408.534;  721.650;    0.000;    0.000
408.590;  650.650;    0.000;    0.000
408.645;  671.650;    0.000;    0.000
408.700;  672.650;    0.000;    0.000
408.755;  696.650;    0.000;    0.000
408.810;  680.650;    0.000;    0.000
408.866;  705.650;    0.000;    0.000
408.921;  753.650;    0.000;    0.000
408.976;  652.650;    0.000;    0.000
409.031;  722.650;    0.000;    0.000
409.086;  682.650;    0.000;    0.000
409.141;  700.650;    0.000;    0.000
409.196;  688.650;    0.000;    0.000
409.252;  682.650;    0.000;    0.000
409.307;  645.650;    0.000;    0.000
409.362;  649.650;    0.000;    0.000
409.417;  698.650;    0.000;    0.000
409.472;  698.650;    0.000;    0.000
409.527;  715.650;    0.000;    0.000
409.582;  702.650;    0.000;    0.000
409.637;  664.650;    0.000;    0.000
409.692;  687.650;    0.000;    0.000
409.747;  673.650;    0.000;    0.000
409.802;  697.650;    0.000;    0.000
409.857;  685.650;    0.000;    0.000
409.912;  730.650;    0.000;    0.000
409.967;  685.650;    0.000;    0.000
410.022;  656.650;    0.000;    0.000
410.077;  686.650;    0.000;    0.000
410.132;  710.650;    0.000;    0.000
410.187;  623.650;    0.000;    0.000
410.242;  704.650;    0.000;    0.000
410.297;  732.650;    0.000;    0.000
410.351;  731.650;    0.000;    0.000
410.406;  725.650;    0.000;    0.000
410.461;  727.650;    0.000;    0.000
410.516;  714.650;    0.000;    0.000
410.571;  722.650;    0.000;    0.000
410.626;  731.650;    0.000;    0.000
410.681;  688.650;    0.000;    0.000
410.736;  689.650;    0.000;    0.000
410.790;  695.650;    0.000;    0.000
410.845;  705.650;    0.000;    0.000
410.900;  691.650;    0.000;    0.000
410.955;  752.650;    0.000;    0.000
411.010;  754.650;    0.000;    0.000
411.064;  729.650;    0.000;    0.000
411.119;  680.650;    0.000;    0.000
411.174;  747.650;    0.000;    0.000
411.229;  766.650;    0.000;    0.000
411.283;  703.650;    0.000;    0.000
411.338;  720.650;    0.000;    0.000
411.393;  720.650;    0.000;    0.000
411.447;  821.650;    0.000;    0.000
411.502;  777.650;    0.000;    0.000
411.557;  715.650;    0.000;    0.000
411.612;  790.650;    0.000;    0.000
411.666;  736.650;    0.000;    0.000
411.721;  766.650;    0.000;    0.000
411.776;  752.650;    0.000;    0.000
411.830;  731.650;    0.000;    0.000
411.885;  745.650;    0.000;    0.000
411.939;  748.650;    0.000;    0.000
411.994;  763.650;    0.000;    0.000
412.049;  742.650;    0.000;    0.000
412.103;  765.650;    0.000;    0.000
412.158;  780.650;    0.000;    0.000
412.212;  744.650;    0.000;    0.000
412.267;  833.650;    0.000;    0.000
412.322;  835.650;    0.000;    0.000
412.376;  802.650;    0.000;    0.000
412.431;  776.650;    0.000;    0.000
412.485;  764.650;    0.000;    0.000
412.540;  792.650;    0.000;    0.000
412.594;  793.650;    0.000;    0.000
412.649;  789.650;    0.000;    0.000
412.703;  790.650;    0.000;    0.000
412.758;  852.650;    0.000;    0.000
412.812;  840.650;    0.000;    0.000
412.866;  802.650;    0.000;    0.000
412.921;  802.650;    0.000;    0.000
412.975;  805.650;    0.000;    0.000
413.030;  860.650;    0.000;    0.000
413.084;  768.650;    0.000;    0.000
413.139;  847.650;    0.000;    0.000
413.193;  839.650;    0.000;    0.000
413.247;  836.650;    0.000;    0.000
413.302;  794.650;    0.000;    0.000
413.356;  768.650;    0.000;    0.000
413.410;  741.650;    0.000;    0.000
413.465;  771.650;    0.000;    0.000
413.519;  800.650;    0.000;    0.000
413.573;  709.650;    0.000;    0.000
413.628;  778.650;    0.000;    0.000
413.682;  756.650;    0.000;    0.000
413.736;  729.650;    0.000;    0.000
413.791;  714.650;    0.000;    0.000
413.845;  742.650;    0.000;    0.000
413.899;  713.650;    0.000;    0.000
413.953;  754.650;    0.000;    0.000
414.008;  662.650;    0.000;    0.000
414.062;  679.650;    0.000;    0.000
414.116;  693.650;    0.000;    0.000
414.170;  730.650;    0.000;    0.000
414.225;  765.650;    0.000;    0.000
414.279;  741.650;    0.000;    0.000
414.333;  813.650;    0.000;    0.000
414.387;  780.650;    0.000;    0.000
414.441;  735.650;    0.000;    0.000
414.496;  754.650;    0.000;    0.000
414.550;  688.650;    0.000;    0.000
414.604;  746.650;    0.000;    0.000
414.658;  686.650;    0.000;    0.000
414.712;  727.650;    0.000;    0.000
414.766;  775.650;    0.000;    0.000
414.820;  734.650;    0.000;    0.000
414.874;  767.650;    0.000;    0.000
414.928;  723.650;    0.000;    0.000
414.982;  655.650;    0.000;    0.000
415.037;  713.650;    0.000;    0.000
415.091;  743.650;    0.000;    0.000
415.145;  747.650;    0.000;    0.000
415.199;  735.650;    0.000;    0.000
415.253;  693.650;    0.000;    0.000
415.307;  752.650;    0.000;    0.000
415.361;  723.650;    0.000;    0.000
415.415;  701.650;    0.000;    0.000
415.469;  755.650;    0.000;    0.000
415.523;  752.650;    0.000;    0.000
415.577;  746.650;    0.000;    0.000
415.631;  753.650;    0.000;    0.000
415.684;  792.650;    0.000;    0.000
415.738;  679.650;    0.000;    0.000
415.792;  750.650;    0.000;    0.000
415.846;  699.650;    0.000;    0.000
415.900;  736.650;    0.000;    0.000
415.954;  726.650;    0.000;    0.000
416.008;  759.650;    0.000;    0.000
416.062;  715.650;    0.000;    0.000
416.116;  719.650;    0.000;    0.000
416.169;  734.650;    0.000;    0.000
416.223;  789.650;    0.000;    0.000
416.277;  763.650;    0.000;    0.000
416.331;  891.650;    0.000;    0.000
416.385;  873.650;    0.000;    0.000
416.439;  857.650;    0.000;    0.000
416.492;  840.650;    0.000;    0.000
416.546;  751.650;    0.000;    0.000
416.600;  739.650;    0.000;    0.000
416.654;  788.650;    0.000;    0.000
416.707;  740.650;    0.000;    0.000
416.761;  704.650;    0.000;    0.000
416.815;  729.650;    0.000;    0.000
416.869;  735.650;    0.000;    0.000
416.922;  758.650;    0.000;    0.000
416.976;  732.650;    0.000;    0.000
417.030;  740.650;    0.000;    0.000
417.083;  724.650;    0.000;    0.000
417.137;  807.650;    0.000;    0.000
417.191;  823.650;    0.000;    0.000
417.244;  812.650;    0.000;    0.000
417.298;  702.650;    0.000;    0.000
417.352;  778.650;    0.000;    0.000
417.405;  769.650;    0.000;    0.000
417.459;  815.650;    0.000;    0.000
417.512;  782.650;    0.000;    0.000
417.566;  719.650;    0.000;    0.000
417.620;  737.650;    0.000;    0.000
417.673;  700.650;    0.000;    0.000
417.727;  693.650;    0.000;    0.000
417.780;  729.650;    0.000;    0.000
417.834;  707.650;    0.000;    0.000
417.887;  680.650;    0.000;    0.000
417.941;  712.650;    0.000;    0.000
417.994;  734.650;    0.000;    0.000
418.048;  736.650;    0.000;    0.000
418.101;  709.650;    0.000;    0.000
418.155;  718.650;    0.000;    0.000
418.208;  764.650;    0.000;    0.000
418.262;  753.650;    0.000;    0.000
418.315;  712.650;    0.000;    0.000
418.369;  724.650;    0.000;    0.000
418.422;  739.650;    0.000;    0.000
418.476;  742.650;    0.000;    0.000
418.529;  718.650;    0.000;    0.000
418.582;  810.650;    0.000;    0.000
418.636;  758.650;    0.000;    0.000
418.689;  803.650;    0.000;    0.000
418.743;  745.650;    0.000;    0.000
418.796;  705.650;    0.000;    0.000
418.849;  717.650;    0.000;    0.000
418.903;  757.650;    0.000;    0.000
418.956;  719.650;    0.000;    0.000
419.009;  740.650;    0.000;    0.000
419.063;  754.650;    0.000;    0.000
419.116;  778.650;    0.000;    0.000
419.169;  714.650;    0.000;    0.000
419.222;  723.650;    0.000;    0.000
419.276;  722.650;    0.000;    0.000
419.329;  731.650;    0.000;    0.000
419.382;  687.650;    0.000;    0.000
419.435;  727.650;    0.000;    0.000
419.489;  769.650;    0.000;    0.000
419.542;  775.650;    0.000;    0.000
419.595;  733.650;    0.000;    0.000
419.648;  741.650;    0.000;    0.000
419.701;  709.650;    0.000;    0.000
419.755;  722.650;    0.000;    0.000
419.808;  739.650;    0.000;    0.000
419.861;  762.650;    0.000;    0.000
419.914;  784.650;    0.000;    0.000
419.967;  752.650;    0.000;    0.000
420.020;  673.650;    0.000;    0.000
420.073;  691.650;    0.000;    0.000
420.127;  737.650;    0.000;    0.000
420.180;  786.650;    0.000;    0.000
420.233;  736.650;    0.000;    0.000
420.286;  710.650;    0.000;    0.000
420.339;  721.650;    0.000;    0.000
420.392;  726.650;    0.000;    0.000
420.445;  667.650;    0.000;    0.000
420.498;  670.650;    0.000;    0.000
420.551;  699.650;    0.000;    0.000
420.604;  738.650;    0.000;    0.000
420.657;  689.650;    0.000;    0.000
420.710;  751.650;    0.000;    0.000
420.763;  685.650;    0.000;    0.000
420.816;  671.650;    0.000;    0.000
420.869;  653.650;    0.000;    0.000
420.922;  700.650;    0.000;    0.000
420.975;  741.650;    0.000;    0.000
421.028;  656.650;    0.000;    0.000
421.081;  693.650;    0.000;    0.000
421.134;  680.650;    0.000;    0.000
421.187;  676.650;    0.000;    0.000
421.239;  664.650;    0.000;    0.000
421.292;  674.650;    0.000;    0.000
421.345;  740.650;    0.000;    0.000
421.398;  724.650;    0.000;    0.000
421.451;  728.650;    0.000;    0.000
421.504;  752.650;    0.000;    0.000
421.557;  773.650;    0.000;    0.000
421.609;  706.650;    0.000;    0.000
421.662;  688.650;    0.000;    0.000
421.715;  682.650;    0.000;    0.000
421.768;  714.650;    0.000;    0.000
421.821;  672.650;    0.000;    0.000
421.873;  691.650;    0.000;    0.000
421.926;  712.650;    0.000;    0.000
421.979;  729.650;    0.000;    0.000
422.032;  693.650;    0.000;    0.000
422.084;  686.650;    0.000;    0.000
422.137;  705.650;    0.000;    0.000
422.190;  682.650;    0.000;    0.000
422.243;  674.650;    0.000;    0.000
422.295;  694.650;    0.000;    0.000
422.348;  687.650;    0.000;    0.000
422.401;  742.650;    0.000;    0.000
422.453;  777.650;    0.000;    0.000
422.506;  783.650;    0.000;    0.000
422.559;  979.650;    0.000;    0.000
422.611; 1453.650;    0.000;    0.000
422.664; 1615.650;    0.000;    0.000
422.716; 1454.650;    0.000;    0.000
422.769;  933.650;    0.000;    0.000
422.822;  835.650;    0.000;    0.000
422.874;  712.650;    0.000;    0.000
422.927;  763.650;    0.000;    0.000
422.979;  719.650;    0.000;    0.000
423.032;  682.650;    0.000;    0.000
423.084;  673.650;    0.000;    0.000
423.137;  702.650;    0.000;    0.000
423.189;  685.650;    0.000;    0.000
423.242;  697.650;    0.000;    0.000
423.294;  683.650;    0.000;    0.000
423.347;  648.650;    0.000;    0.000
423.399;  691.650;    0.000;    0.000
423.452;  724.650;    0.000;    0.000
423.504;  722.650;    0.000;    0.000
423.557;  707.650;    0.000;    0.000
423.609;  720.650;    0.000;    0.000
423.662;  747.650;    0.000;    0.000
423.714;  714.650;    0.000;    0.000
423.766;  671.650;    0.000;    0.000
423.819;  711.650;    0.000;    0.000
423.871;  730.650;    0.000;    0.000
423.923;  711.650;    0.000;    0.000
423.976;  639.650;    0.000;    0.000
424.028;  709.650;    0.000;    0.000
424.081;  657.650;    0.000;    0.000
424.133;  655.650;    0.000;    0.000
424.185;  693.650;    0.000;    0.000
424.238;  661.650;    0.000;    0.000
424.290;  654.650;    0.000;    0.000
424.342;  644.650;    0.000;    0.000
424.394;  651.650;    0.000;    0.000
424.447;  658.650;    0.000;    0.000
424.499;  698.650;    0.000;    0.000
424.551;  721.650;    0.000;    0.000
424.603;  708.650;    0.000;    0.000
424.656;  685.650;    0.000;    0.000
424.708;  679.650;    0.000;    0.000
424.760;  679.650;    0.000;    0.000
424.812;  678.650;    0.000;    0.000
424.864;  694.650;    0.000;    0.000
424.917;  688.650;    0.000;    0.000
424.969;  751.650;    0.000;    0.000
425.021;  771.650;    0.000;    0.000
425.073;  763.650;    0.000;    0.000
425.125;  687.650;    0.000;    0.000
425.177;  696.650;    0.000;    0.000
425.229;  721.650;    0.000;    0.000
425.282;  739.650;    0.000;    0.000
425.334;  715.650;    0.000;    0.000
425.386;  695.650;    0.000;    0.000
425.438;  678.650;    0.000;    0.000
425.490;  678.650;    0.000;    0.000
425.542;  697.650;    0.000;    0.000
425.594;  671.650;    0.000;    0.000
425.646;  673.650;    0.000;    0.000
425.698;  689.650;    0.000;    0.000
425.750;  673.650;    0.000;    0.000
425.802;  676.650;    0.000;    0.000
425.854;  681.650;    0.000;    0.000
425.906;  660.650;    0.000;    0.000
425.958;  676.650;    0.000;    0.000
426.010;  718.650;    0.000;    0.000
426.062;  692.650;    0.000;    0.000
426.114;  694.650;    0.000;    0.000
426.166;  710.650;    0.000;    0.000
426.218;  656.650;    0.000;    0.000
426.270;  703.650;    0.000;    0.000
426.321;  688.650;    0.000;    0.000
426.373;  673.650;    0.000;    0.000
426.425;  695.650;    0.000;    0.000
426.477;  680.650;    0.000;    0.000
426.529;  685.650;    0.000;    0.000
426.581;  642.650;    0.000;    0.000
426.633;  654.650;    0.000;    0.000
426.684;  661.650;    0.000;    0.000
426.736;  670.650;    0.000;    0.000
426.788;  632.650;    0.000;    0.000
426.840;  663.650;    0.000;    0.000
426.892;  669.650;    0.000;    0.000
426.943;  674.650;    0.000;    0.000
426.995;  643.650;    0.000;    0.000
427.047;  690.650;    0.000;    0.000
427.099;  779.650;    0.000;    0.000
427.150;  836.650;    0.000;    0.000
427.202;  831.650;    0.000;    0.000
427.254;  697.650;    0.000;    0.000
427.306;  719.650;    0.000;    0.000
427.357;  731.650;    0.000;    0.000
427.409;  746.650;    0.000;    0.000
427.461;  665.650;    0.000;    0.000
427.512;  714.650;    0.000;    0.000
427.564;  675.650;    0.000;    0.000
427.616;  663.650;    0.000;    0.000
427.667;  679.650;    0.000;    0.000
427.719;  662.650;    0.000;    0.000
427.770;  653.650;    0.000;    0.000
427.822;  671.650;    0.000;    0.000
427.874;  667.650;    0.000;    0.000
427.925;  597.650;    0.000;    0.000
427.977;  637.650;    0.000;    0.000
428.028;  692.650;    0.000;    0.000
428.080;  705.650;    0.000;    0.000
428.131;  679.650;    0.000;    0.000
428.183;  684.650;    0.000;    0.000
428.234;  778.650;    0.000;    0.000
428.286;  764.650;    0.000;    0.000
428.337;  646.650;    0.000;    0.000
428.389;  645.650;    0.000;    0.000
428.440;  688.650;    0.000;    0.000
428.492;  735.650;    0.000;    0.000
428.543;  728.650;    0.000;    0.000
428.595;  681.650;    0.000;    0.000
428.646;  730.650;    0.000;    0.000
428.697;  786.650;    0.000;    0.000
428.749;  761.650;    0.000;    0.000
428.800;  798.650;    0.000;    0.000
428.852;  818.650;    0.000;    0.000
428.903;  793.650;    0.000;    0.000
428.954;  843.650;    0.000;    0.000
429.006;  878.650;    0.000;    0.000
429.057;  843.650;    0.000;    0.000
429.108;  761.650;    0.000;    0.000
429.160;  696.650;    0.000;    0.000
429.211;  719.650;    0.000;    0.000
429.262;  693.650;    0.000;    0.000
429.314;  695.650;    0.000;    0.000
429.365;  732.650;    0.000;    0.000
429.416;  828.650;    0.000;    0.000
429.467;  749.650;    0.000;    0.000
429.519;  724.650;    0.000;    0.000
429.570;  715.650;    0.000;    0.000
429.621;  682.650;    0.000;    0.000
429.672;  682.650;    0.000;    0.000
429.724;  678.650;    0.000;    0.000
429.775;  726.650;    0.000;    0.000
429.826;  793.650;    0.000;    0.000
429.877;  903.650;    0.000;    0.000
429.928;  927.650;    0.000;    0.000
429.980; 1111.650;    0.000;    0.000
430.031; 1191.650;    0.000;    0.000
430.082; 1134.650;    0.000;    0.000
430.133; 1071.650;    0.000;    0.000
430.184;  901.650;    0.000;    0.000
430.235;  921.650;    0.000;    0.000
430.286;  845.650;    0.000;    0.000
430.337;  691.650;    0.000;    0.000
430.388;  707.650;    0.000;    0.000
430.439;  668.650;    0.000;    0.000
430.490;  788.650;    0.000;    0.000
430.542;  906.650;    0.000;    0.000
430.593;  965.650;    0.000;    0.000
430.644;  887.650;    0.000;    0.000
430.695;  820.650;    0.000;    0.000
430.746;  980.650;    0.000;    0.000
430.797;  925.650;    0.000;    0.000
430.848;  826.650;    0.000;    0.000
430.898;  703.650;    0.000;    0.000
430.949;  632.650;    0.000;    0.000
431.000;  666.650;    0.000;    0.000
431.051;  686.650;    0.000;    0.000
431.102;  601.650;    0.000;    0.000
431.153;  667.650;    0.000;    0.000
431.204;  678.650;    0.000;    0.000
431.255;  687.650;    0.000;    0.000
431.306;  757.650;    0.000;    0.000
431.357;  708.650;    0.000;    0.000
431.408;  761.650;    0.000;    0.000
431.458;  829.650;    0.000;    0.000
431.509;  721.650;    0.000;    0.000
431.560;  722.650;    0.000;    0.000
431.611;  676.650;    0.000;    0.000
431.662;  678.650;    0.000;    0.000
431.713;  686.650;    0.000;    0.000
431.763;  672.650;    0.000;    0.000
431.814;  705.650;    0.000;    0.000
431.865;  718.650;    0.000;    0.000
431.916;  613.650;    0.000;    0.000
431.966;  625.650;    0.000;    0.000
432.017;  684.650;    0.000;    0.000
432.068;  686.650;    0.000;    0.000
432.118;  663.650;    0.000;    0.000
432.169;  670.650;    0.000;    0.000
432.220;  682.650;    0.000;    0.000
432.271;  614.650;    0.000;    0.000
432.321;  635.650;    0.000;    0.000
432.372;  669.650;    0.000;    0.000
432.423;  625.650;    0.000;    0.000
432.473;  697.650;    0.000;    0.000
432.524;  773.650;    0.000;    0.000
432.574;  795.650;    0.000;    0.000
432.625;  726.650;    0.000;    0.000
432.676;  692.650;    0.000;    0.000
432.726;  666.650;    0.000;    0.000
432.777;  660.650;    0.000;    0.000
432.827;  607.650;    0.000;    0.000
432.878;  583.650;    0.000;    0.000
432.928;  600.650;    0.000;    0.000
432.979;  659.650;    0.000;    0.000
433.029;  614.650;    0.000;    0.000
433.080;  639.650;    0.000;    0.000
433.130;  637.650;    0.000;    0.000
433.181;  652.650;    0.000;    0.000
433.231;  653.650;    0.000;    0.000
433.282;  673.650;    0.000;    0.000
433.332;  659.650;    0.000;    0.000
433.383;  670.650;    0.000;    0.000
433.433;  694.650;    0.000;    0.000
433.484;  684.650;    0.000;    0.000
433.534;  652.650;    0.000;    0.000
433.585;  645.650;    0.000;    0.000
433.635;  655.650;    0.000;    0.000
433.685;  781.650;    0.000;    0.000
433.736;  748.650;    0.000;    0.000
433.786;  742.650;    0.000;    0.000
433.836;  730.650;    0.000;    0.000
433.887;  737.650;    0.000;    0.000
433.937;  712.650;    0.000;    0.000
433.987;  618.650;    0.000;    0.000
434.038;  643.650;    0.000;    0.000
434.088;  663.650;    0.000;    0.000
434.138;  654.650;    0.000;    0.000
434.189;  656.650;    0.000;    0.000
434.239;  713.650;    0.000;    0.000
434.289;  633.650;    0.000;    0.000
434.339;  653.650;    0.000;    0.000
434.389;  687.650;    0.000;    0.000
434.440;  656.650;    0.000;    0.000
434.490;  688.650;    0.000;    0.000
434.540;  684.650;    0.000;    0.000
434.590;  632.650;    0.000;    0.000
434.640;  625.650;    0.000;    0.000
434.691;  664.650;    0.000;    0.000
434.741;  672.650;    0.000;    0.000
434.791;  722.650;    0.000;    0.000
434.841;  674.650;    0.000;    0.000
434.891;  638.650;    0.000;    0.000
434.941;  664.650;    0.000;    0.000
434.991;  654.650;    0.000;    0.000
435.042;  677.650;    0.000;    0.000
435.092;  679.650;    0.000;    0.000
435.142;  637.650;    0.000;    0.000
435.192;  688.650;    0.000;    0.000
435.242;  687.650;    0.000;    0.000
435.292;  604.650;    0.000;    0.000
435.342;  653.650;    0.000;    0.000
435.392;  660.650;    0.000;    0.000
435.442;  650.650;    0.000;    0.000
435.492;  629.650;    0.000;    0.000
435.542;  618.650;    0.000;    0.000
435.592;  626.650;    0.000;    0.000
435.642;  676.650;    0.000;    0.000
435.692;  623.650;    0.000;    0.000
435.742;  642.650;    0.000;    0.000
435.792;  631.650;    0.000;    0.000
435.842;  635.650;    0.000;    0.000
435.891;  656.650;    0.000;    0.000
435.941;  573.650;    0.000;    0.000
435.991;  661.650;    0.000;    0.000
436.041;  641.650;    0.000;    0.000
436.091;  607.650;    0.000;    0.000
436.141;  600.650;    0.000;    0.000
436.191;  612.650;    0.000;    0.000
436.241;  648.650;    0.000;    0.000
436.290;  638.650;    0.000;    0.000
436.340;  639.650;    0.000;    0.000
436.390;  606.650;    0.000;    0.000
436.440;  614.650;    0.000;    0.000
436.490;  624.650;    0.000;    0.000
436.539;  661.650;    0.000;    0.000
436.589;  587.650;    0.000;    0.000
436.639;  597.650;    0.000;    0.000
436.689;  623.650;    0.000;    0.000
436.738;  646.650;    0.000;    0.000
436.788;  638.650;    0.000;    0.000
436.838;  695.650;    0.000;    0.000
436.887;  652.650;    0.000;    0.000
436.937;  631.650;    0.000;    0.000
436.987;  621.650;    0.000;    0.000
437.036;  641.650;    0.000;    0.000
437.086;  657.650;    0.000;    0.000
437.136;  666.650;    0.000;    0.000
437.185;  581.650;    0.000;    0.000
437.235;  614.650;    0.000;    0.000
437.285;  634.650;    0.000;    0.000
437.334;  580.650;    0.000;    0.000
437.384;  625.650;    0.000;    0.000
437.433;  620.650;    0.000;    0.000
437.483;  649.650;    0.000;    0.000
437.532;  647.650;    0.000;    0.000
437.582;  600.650;    0.000;    0.000
437.631;  596.650;    0.000;    0.000
437.681;  634.650;    0.000;    0.000
437.730;  634.650;    0.000;    0.000
437.780;  589.650;    0.000;    0.000
437.829;  654.650;    0.000;    0.000
437.879;  600.650;    0.000;    0.000
437.928;  615.650;    0.000;    0.000
437.978;  593.650;    0.000;    0.000
438.027;  626.650;    0.000;    0.000
438.077;  593.650;    0.000;    0.000
438.126;  590.650;    0.000;    0.000
438.176;  665.650;    0.000;    0.000
438.225;  688.650;    0.000;    0.000
438.274;  779.650;    0.000;    0.000
438.324;  900.650;    0.000;    0.000
438.373;  851.650;    0.000;    0.000
438.422;  750.650;    0.000;    0.000
438.472;  616.650;    0.000;    0.000
438.521;  601.650;    0.000;    0.000
438.570;  618.650;    0.000;    0.000
438.620;  665.650;    0.000;    0.000
438.669;  579.650;    0.000;    0.000
438.718;  642.650;    0.000;    0.000
438.768;  594.650;    0.000;    0.000
438.817;  601.650;    0.000;    0.000
438.866;  614.650;    0.000;    0.000
438.915;  651.650;    0.000;    0.000
438.965;  581.650;    0.000;    0.000
439.014;  637.650;    0.000;    0.000
439.063;  660.650;    0.000;    0.000
439.112;  625.650;    0.000;    0.000
439.162;  669.650;    0.000;    0.000
439.211;  692.650;    0.000;    0.000
439.260;  632.650;    0.000;    0.000
439.309;  706.650;    0.000;    0.000
439.358;  722.650;    0.000;    0.000
439.407;  798.650;    0.000;    0.000
439.456;  884.650;    0.000;    0.000
439.506;  882.650;    0.000;    0.000
439.555;  847.650;    0.000;    0.000
439.604;  693.650;    0.000;    0.000
439.653;  615.650;    0.000;    0.000
439.702;  570.650;    0.000;    0.000
439.751;  637.650;    0.000;    0.000
439.800;  671.650;    0.000;    0.000
439.849;  624.650;    0.000;    0.000
439.898;  645.650;    0.000;    0.000
439.947;  647.650;    0.000;    0.000
439.996;  698.650;    0.000;    0.000
440.045;  651.650;    0.000;    0.000
440.094;  660.650;    0.000;    0.000
440.143;  652.650;    0.000;    0.000
440.192;  663.650;    0.000;    0.000
440.241;  679.650;    0.000;    0.000
440.290;  695.650;    0.000;    0.000
440.339;  666.650;    0.000;    0.000
440.388;  724.650;    0.000;    0.000
440.437;  793.650;    0.000;    0.000
440.486;  757.650;    0.000;    0.000
440.535;  689.650;    0.000;    0.000
440.583;  659.650;    0.000;    0.000
440.632;  674.650;    0.000;    0.000
440.681;  702.650;    0.000;    0.000
440.730;  730.650;    0.000;    0.000
440.779;  654.650;    0.000;    0.000
440.828;  655.650;    0.000;    0.000
440.876;  591.650;    0.000;    0.000
440.925;  637.650;    0.000;    0.000
440.974;  659.650;    0.000;    0.000
441.023;  635.650;    0.000;    0.000
441.072;  673.650;    0.000;    0.000
441.120;  693.650;    0.000;    0.000
441.169;  672.650;    0.000;    0.000
441.218;  629.650;    0.000;    0.000
441.267;  687.650;    0.000;    0.000
441.315;  660.650;    0.000;    0.000
441.364;  680.650;    0.000;    0.000
441.413;  694.650;    0.000;    0.000
441.461;  652.650;    0.000;    0.000
441.510;  697.650;    0.000;    0.000
441.559;  736.650;    0.000;    0.000
441.607;  686.650;    0.000;    0.000
441.656;  693.650;    0.000;    0.000
441.705;  724.650;    0.000;    0.000
441.753;  752.650;    0.000;    0.000
441.802;  738.650;    0.000;    0.000
441.850;  691.650;    0.000;    0.000
441.899;  678.650;    0.000;    0.000
441.948;  650.650;    0.000;    0.000
441.996;  640.650;    0.000;    0.000
442.045;  691.650;    0.000;    0.000
442.093;  671.650;    0.000;    0.000
442.142;  671.650;    0.000;    0.000
442.190;  697.650;    0.000;    0.000
442.239;  704.650;    0.000;    0.000
442.287;  683.650;    0.000;    0.000
442.336;  661.650;    0.000;    0.000
442.384;  627.650;    0.000;    0.000
442.433;  690.650;    0.000;    0.000
442.481;  706.650;    0.000;    0.000
442.529;  683.650;    0.000;    0.000
442.578;  718.650;    0.000;    0.000
442.626;  725.650;    0.000;    0.000
442.675;  753.650;    0.000;    0.000
442.723;  723.650;    0.000;    0.000
442.771;  707.650;    0.000;    0.000
442.820;  729.650;    0.000;    0.000
442.868;  676.650;    0.000;    0.000
442.917;  668.650;    0.000;    0.000
442.965;  717.650;    0.000;    0.000
443.013;  691.650;    0.000;    0.000
443.062;  708.650;    0.000;    0.000
443.110;  670.650;    0.000;    0.000
443.158;  702.650;    0.000;    0.000
443.206;  696.650;    0.000;    0.000
443.255;  721.650;    0.000;    0.000
443.303;  672.650;    0.000;    0.000
443.351;  707.650;    0.000;    0.000
443.399;  735.650;    0.000;    0.000
443.448;  724.650;    0.000;    0.000
443.496;  774.650;    0.000;    0.000
443.544;  720.650;    0.000;    0.000
443.592;  719.650;    0.000;    0.000
443.640;  687.650;    0.000;    0.000
443.689;  668.650;    0.000;    0.000
443.737;  689.650;    0.000;    0.000
443.785;  666.650;    0.000;    0.000
443.833;  677.650;    0.000;    0.000
443.881;  679.650;    0.000;    0.000
443.929;  736.650;    0.000;    0.000
443.977;  700.650;    0.000;    0.000
444.025;  659.650;    0.000;    0.000
444.074;  684.650;    0.000;    0.000
444.122;  743.650;    0.000;    0.000
444.170;  768.650;    0.000;    0.000
444.218;  766.650;    0.000;    0.000
444.266;  855.650;    0.000;    0.000
444.314;  868.650;    0.000;    0.000
444.362;  921.650;    0.000;    0.000
444.410;  876.650;    0.000;    0.000
444.458;  833.650;    0.000;    0.000
444.506;  795.650;    0.000;    0.000
444.554;  718.650;    0.000;    0.000
444.602;  768.650;    0.000;    0.000
444.650;  696.650;    0.000;    0.000
444.698;  710.650;    0.000;    0.000
444.746;  735.650;    0.000;    0.000
444.793;  721.650;    0.000;    0.000
444.841;  842.650;    0.000;    0.000
444.889;  818.650;    0.000;    0.000
444.937;  801.650;    0.000;    0.000
444.985;  797.650;    0.000;    0.000
445.033;  770.650;    0.000;    0.000
445.081;  779.650;    0.000;    0.000
445.129;  739.650;    0.000;    0.000
445.176;  740.650;    0.000;    0.000
445.224;  708.650;    0.000;    0.000
445.272;  765.650;    0.000;    0.000
445.320;  839.650;    0.000;    0.000
445.368;  859.650;    0.000;    0.000
445.415;  888.650;    0.000;    0.000
445.463;  880.650;    0.000;    0.000
445.511;  882.650;    0.000;    0.000
445.559;  845.650;    0.000;    0.000
445.606;  809.650;    0.000;    0.000
445.654;  766.650;    0.000;    0.000
445.702;  768.650;    0.000;    0.000
445.749;  847.650;    0.000;    0.000
445.797;  824.650;    0.000;    0.000
445.845;  738.650;    0.000;    0.000
445.892;  795.650;    0.000;    0.000
445.940;  750.650;    0.000;    0.000
445.988;  763.650;    0.000;    0.000
446.035;  736.650;    0.000;    0.000
446.083;  731.650;    0.000;    0.000
446.130;  705.650;    0.000;    0.000
446.178;  789.650;    0.000;    0.000
446.226;  765.650;    0.000;    0.000
446.273;  760.650;    0.000;    0.000
446.321;  737.650;    0.000;    0.000
446.368;  784.650;    0.000;    0.000
446.416;  792.650;    0.000;    0.000
446.463;  786.650;    0.000;    0.000
446.511;  820.650;    0.000;    0.000
446.558;  766.650;    0.000;    0.000
446.606;  758.650;    0.000;    0.000
446.653;  766.650;    0.000;    0.000
446.701;  819.650;    0.000;    0.000
446.748;  830.650;    0.000;    0.000
446.796;  981.650;    0.000;    0.000
446.843; 1041.650;    0.000;    0.000
446.891;  929.650;    0.000;    0.000
446.938;  855.650;    0.000;    0.000
446.985;  897.650;    0.000;    0.000
447.033;  882.650;    0.000;    0.000
447.080;  860.650;    0.000;    0.000
447.128;  850.650;    0.000;    0.000
447.175;  865.650;    0.000;    0.000
447.222;  838.650;    0.000;    0.000
447.270;  865.650;    0.000;    0.000
447.317;  858.650;    0.000;    0.000
447.364;  843.650;    0.000;    0.000
447.411;  902.650;    0.000;    0.000
447.459;  903.650;    0.000;    0.000
447.506;  844.650;    0.000;    0.000
447.553;  867.650;    0.000;    0.000
447.601;  961.650;    0.000;    0.000
447.648;  899.650;    0.000;    0.000
447.695;  961.650;    0.000;    0.000
447.742;  938.650;    0.000;    0.000
447.789;  951.650;    0.000;    0.000
447.837; 1000.650;    0.000;    0.000
447.884;  969.650;    0.000;    0.000
447.931; 1048.650;    0.000;    0.000
447.978; 1009.650;    0.000;    0.000
448.025; 1039.650;    0.000;    0.000
448.072; 1116.650;    0.000;    0.000
448.120; 1096.650;    0.000;    0.000
448.167; 1052.650;    0.000;    0.000
448.214; 1036.650;    0.000;    0.000
448.261; 1049.650;    0.000;    0.000
448.308;  988.650;    0.000;    0.000
448.355;  952.650;    0.000;    0.000
448.402;  942.650;    0.000;    0.000
448.449;  948.650;    0.000;    0.000
448.496;  910.650;    0.000;    0.000
448.543;  892.650;    0.000;    0.000
448.590;  938.650;    0.000;    0.000
448.637;  941.650;    0.000;    0.000
448.684;  880.650;    0.000;    0.000
448.731;  873.650;    0.000;    0.000
448.778;  928.650;    0.000;    0.000
448.825;  871.650;    0.000;    0.000
448.872;  870.650;    0.000;    0.000
448.919;  844.650;    0.000;    0.000
448.966;  864.650;    0.000;    0.000
449.013;  838.650;    0.000;    0.000
449.060;  817.650;    0.000;    0.000
449.107;  763.650;    0.000;    0.000
449.154;  710.650;    0.000;    0.000
449.200;  764.650;    0.000;    0.000
449.247;  847.650;    0.000;    0.000
449.294;  782.650;    0.000;    0.000
449.341;  787.650;    0.000;    0.000
449.388;  783.650;    0.000;    0.000
449.435;  776.650;    0.000;    0.000
449.481;  827.650;    0.000;    0.000
449.528;  793.650;    0.000;    0.000
449.575;  793.650;    0.000;    0.000
449.622;  793.650;    0.000;    0.000
449.668;  756.650;    0.000;    0.000
449.715;  747.650;    0.000;    0.000
449.762;  772.650;    0.000;    0.000
449.809;  834.650;    0.000;    0.000
449.855;  768.650;    0.000;    0.000
449.902;  732.650;    0.000;    0.000
449.949;  795.650;    0.000;    0.000
449.995;  824.650;    0.000;    0.000
450.042;  775.650;    0.000;    0.000
450.089;  874.650;    0.000;    0.000
450.135;  900.650;    0.000;    0.000
450.182;  843.650;    0.000;    0.000
450.229;  782.650;    0.000;    0.000
450.275;  755.650;    0.000;    0.000
450.322;  727.650;    0.000;    0.000
450.368;  772.650;    0.000;    0.000
450.415;  743.650;    0.000;    0.000
450.462;  765.650;    0.000;    0.000
450.508;  759.650;    0.000;    0.000
450.555;  745.650;    0.000;    0.000
450.601;  702.650;    0.000;    0.000
450.648;  725.650;    0.000;    0.000
450.694;  734.650;    0.000;    0.000
450.741;  701.650;    0.000;    0.000
450.787;  718.650;    0.000;    0.000
450.834;  729.650;    0.000;    0.000
450.880;  688.650;    0.000;    0.000
450.927;  715.650;    0.000;    0.000
450.973;  726.650;    0.000;    0.000
451.019;  703.650;    0.000;    0.000
451.066;  676.650;    0.000;    0.000
451.112;  714.650;    0.000;    0.000
451.159;  743.650;    0.000;    0.000
451.205;  747.650;    0.000;    0.000
451.251;  767.650;    0.000;    0.000
451.298;  716.650;    0.000;    0.000
451.344;  727.650;    0.000;    0.000
451.390;  725.650;    0.000;    0.000
451.437;  699.650;    0.000;    0.000
451.483;  705.650;    0.000;    0.000
451.529;  652.650;    0.000;    0.000
451.576;  689.650;    0.000;    0.000
451.622;  696.650;    0.000;    0.000
451.668;  673.650;    0.000;    0.000
451.714;  732.650;    0.000;    0.000
451.761;  772.650;    0.000;    0.000
451.807;  800.650;    0.000;    0.000
451.853;  732.650;    0.000;    0.000
451.899;  714.650;    0.000;    0.000
451.945;  694.650;    0.000;    0.000
451.992;  716.650;    0.000;    0.000
452.038;  680.650;    0.000;    0.000
452.084;  660.650;    0.000;    0.000
452.130;  691.650;    0.000;    0.000
452.176;  731.650;    0.000;    0.000
452.222;  728.650;    0.000;    0.000
452.268;  730.650;    0.000;    0.000
452.315;  716.650;    0.000;    0.000
452.361;  675.650;    0.000;    0.000
452.407;  693.650;    0.000;    0.000
452.453;  644.650;    0.000;    0.000
452.499;  721.650;    0.000;    0.000
452.545;  674.650;    0.000;    0.000
452.591;  725.650;    0.000;    0.000
452.637;  738.650;    0.000;    0.000
452.683;  710.650;    0.000;    0.000
452.729;  746.650;    0.000;    0.000
452.775;  747.650;    0.000;    0.000
452.821;  682.650;    0.000;    0.000
452.867;  691.650;    0.000;    0.000
452.913;  689.650;    0.000;    0.000
452.959;  685.650;    0.000;    0.000
453.005;  711.650;    0.000;    0.000
453.051;  737.650;    0.000;    0.000
453.097;  729.650;    0.000;    0.000
453.142;  736.650;    0.000;    0.000
453.188;  792.650;    0.000;    0.000
453.234;  847.650;    0.000;    0.000
453.280; 1066.650;    0.000;    0.000
453.326; 1112.650;    0.000;    0.000
453.372; 1184.650;    0.000;    0.000
453.418; 1152.650;    0.000;    0.000
453.463; 1147.650;    0.000;    0.000
453.509; 1233.650;    0.000;    0.000
453.555; 1140.650;    0.000;    0.000
453.601; 1014.650;    0.000;    0.000
453.647;  956.650;    0.000;    0.000
453.692;  735.650;    0.000;    0.000
453.738;  732.650;    0.000;    0.000
453.784;  682.650;    0.000;    0.000
453.829;  699.650;    0.000;    0.000
453.875;  710.650;    0.000;    0.000
453.921;  629.650;    0.000;    0.000
453.967;  688.650;    0.000;    0.000
454.012;  643.650;    0.000;    0.000
454.058;  603.650;    0.000;    0.000
454.104;  703.650;    0.000;    0.000
454.149;  672.650;    0.000;    0.000
454.195;  654.650;    0.000;    0.000
454.240;  693.650;    0.000;    0.000
454.286;  653.650;    0.000;    0.000
454.332;  719.650;    0.000;    0.000
454.377;  696.650;    0.000;    0.000
454.423;  701.650;    0.000;    0.000
454.468;  704.650;    0.000;    0.000
454.514;  706.650;    0.000;    0.000
454.559;  711.650;    0.000;    0.000
454.605;  678.650;    0.000;    0.000
454.650;  714.650;    0.000;    0.000
454.696;  732.650;    0.000;    0.000
454.741;  745.650;    0.000;    0.000
454.787;  773.650;    0.000;    0.000
454.832;  859.650;    0.000;    0.000
454.878;  965.650;    0.000;    0.000
454.923; 1056.650;    0.000;    0.000
454.969; 1100.650;    0.000;    0.000
455.014; 1022.650;    0.000;    0.000
455.060;  873.650;    0.000;    0.000
455.105;  796.650;    0.000;    0.000
455.150;  772.650;    0.000;    0.000
455.196;  766.650;    0.000;    0.000
455.241;  797.650;    0.000;    0.000
455.286;  814.650;    0.000;    0.000
455.332;  782.650;    0.000;    0.000
455.377;  742.650;    0.000;    0.000
455.422;  783.650;    0.000;    0.000
455.468;  764.650;    0.000;    0.000
455.513;  733.650;    0.000;    0.000
455.558;  709.650;    0.000;    0.000
455.604;  741.650;    0.000;    0.000
455.649;  691.650;    0.000;    0.000
455.694;  668.650;    0.000;    0.000
455.739;  672.650;    0.000;    0.000
455.785;  676.650;    0.000;    0.000
455.830;  688.650;    0.000;    0.000
455.875;  635.650;    0.000;    0.000
455.920;  682.650;    0.000;    0.000
455.965;  700.650;    0.000;    0.000
456.010;  736.650;    0.000;    0.000
456.056;  690.650;    0.000;    0.000
456.101;  643.650;    0.000;    0.000
456.146;  677.650;    0.000;    0.000
456.191;  656.650;    0.000;    0.000
456.236;  726.650;    0.000;    0.000
456.281;  729.650;    0.000;    0.000
456.326;  783.650;    0.000;    0.000
456.371;  772.650;    0.000;    0.000
456.416;  806.650;    0.000;    0.000
456.461;  725.650;    0.000;    0.000
456.507;  700.650;    0.000;    0.000
456.552;  681.650;    0.000;    0.000
456.597;  670.650;    0.000;    0.000
456.642;  677.650;    0.000;    0.000
456.687;  678.650;    0.000;    0.000
456.732;  702.650;    0.000;    0.000
456.776;  684.650;    0.000;    0.000
456.821;  719.650;    0.000;    0.000
456.866;  664.650;    0.000;    0.000
456.911;  645.650;    0.000;    0.000
456.956;  655.650;    0.000;    0.000
457.001;  692.650;    0.000;    0.000
457.046;  751.650;    0.000;    0.000
457.091;  800.650;    0.000;    0.000
457.136;  878.650;    0.000;    0.000
457.181;  933.650;    0.000;    0.000
457.225;  954.650;    0.000;    0.000
457.270;  855.650;    0.000;    0.000
457.315;  744.650;    0.000;    0.000
457.360;  685.650;    0.000;    0.000
457.405;  688.650;    0.000;    0.000
457.450;  741.650;    0.000;    0.000
457.494;  671.650;    0.000;    0.000
457.539;  676.650;    0.000;    0.000
457.584;  728.650;    0.000;    0.000
457.629;  634.650;    0.000;    0.000
457.673;  664.650;    0.000;    0.000
457.718;  639.650;    0.000;    0.000
457.763;  642.650;    0.000;    0.000
457.807;  662.650;    0.000;    0.000
457.852;  669.650;    0.000;    0.000
457.897;  662.650;    0.000;    0.000
457.941;  679.650;    0.000;    0.000
457.986;  635.650;    0.000;    0.000
458.031;  661.650;    0.000;    0.000
458.075;  680.650;    0.000;    0.000
458.120;  673.650;    0.000;    0.000
458.165;  629.650;    0.000;    0.000
458.209;  685.650;    0.000;    0.000
458.254;  650.650;    0.000;    0.000
458.298;  654.650;    0.000;    0.000
458.343;  660.650;    0.000;    0.000
458.387;  756.650;    0.000;    0.000
458.432;  722.650;    0.000;    0.000
458.476;  721.650;    0.000;    0.000
458.521;  671.650;    0.000;    0.000
458.565;  682.650;    0.000;    0.000
458.610;  646.650;    0.000;    0.000
458.654;  635.650;    0.000;    0.000
458.699;  716.650;    0.000;    0.000
458.743;  691.650;    0.000;    0.000
458.788;  749.650;    0.000;    0.000
458.832;  693.650;    0.000;    0.000
458.877;  743.650;    0.000;    0.000
458.921;  630.650;    0.000;    0.000
458.965;  685.650;    0.000;    0.000
459.010;  668.650;    0.000;    0.000
459.054;  672.650;    0.000;    0.000
459.099;  625.650;    0.000;    0.000
459.143;  679.650;    0.000;    0.000
459.187;  686.650;    0.000;    0.000
459.231;  692.650;    0.000;    0.000
459.276;  692.650;    0.000;    0.000
459.320;  718.650;    0.000;    0.000
459.364;  701.650;    0.000;    0.000
459.409;  679.650;    0.000;    0.000
459.453;  678.650;    0.000;    0.000
459.497;  712.650;    0.000;    0.000
459.541;  683.650;    0.000;    0.000
459.586;  636.650;    0.000;    0.000
459.630;  683.650;    0.000;    0.000
459.674;  725.650;    0.000;    0.000
459.718;  626.650;    0.000;    0.000
459.762;  669.650;    0.000;    0.000
459.807;  730.650;    0.000;    0.000
459.851;  703.650;    0.000;    0.000
459.895;  668.650;    0.000;    0.000
459.939;  719.650;    0.000;    0.000
459.983;  668.650;    0.000;    0.000
460.027;  721.650;    0.000;    0.000
460.071;  731.650;    0.000;    0.000
460.115;  680.650;    0.000;    0.000
460.159;  721.650;    0.000;    0.000
460.204;  738.650;    0.000;    0.000
460.248;  728.650;    0.000;    0.000
460.292;  715.650;    0.000;    0.000
460.336;  694.650;    0.000;    0.000
460.380;  744.650;    0.000;    0.000
460.424;  675.650;    0.000;    0.000
460.468;  734.650;    0.000;    0.000
460.512;  719.650;    0.000;    0.000
460.556;  725.650;    0.000;    0.000
460.599;  704.650;    0.000;    0.000
460.643;  665.650;    0.000;    0.000
460.687;  749.650;    0.000;    0.000
460.731;  777.650;    0.000;    0.000
460.775;  728.650;    0.000;    0.000
460.819;  750.650;    0.000;    0.000
460.863;  750.650;    0.000;    0.000
460.907;  654.650;    0.000;    0.000
460.951;  660.650;    0.000;    0.000
460.995;  754.650;    0.000;    0.000
461.038;  683.650;    0.000;    0.000
461.082;  731.650;    0.000;    0.000
461.126;  727.650;    0.000;    0.000
461.170;  686.650;    0.000;    0.000
461.214;  703.650;    0.000;    0.000
461.257;  741.650;    0.000;    0.000
461.301;  703.650;    0.000;    0.000
461.345;  703.650;    0.000;    0.000
461.389;  703.650;    0.000;    0.000
461.432;  691.650;    0.000;    0.000
461.476;  664.650;    0.000;    0.000
461.520;  677.650;    0.000;    0.000
461.563;  765.650;    0.000;    0.000
461.607;  737.650;    0.000;    0.000
461.651;  771.650;    0.000;    0.000
461.694;  778.650;    0.000;    0.000
461.738;  786.650;    0.000;    0.000
461.782;  784.650;    0.000;    0.000
461.825;  752.650;    0.000;    0.000
461.869;  769.650;    0.000;    0.000
461.913;  725.650;    0.000;    0.000
461.956;  695.650;    0.000;    0.000
462.000;  750.650;    0.000;    0.000
462.043;  768.650;    0.000;    0.000
462.087;  738.650;    0.000;    0.000
462.130;  754.650;    0.000;    0.000
462.174;  759.650;    0.000;    0.000
462.217;  753.650;    0.000;    0.000
462.261;  742.650;    0.000;    0.000
462.304;  779.650;    0.000;    0.000
462.348;  761.650;    0.000;    0.000
462.391;  719.650;    0.000;    0.000
462.435;  760.650;    0.000;    0.000
462.478;  709.650;    0.000;    0.000
462.522;  757.650;    0.000;    0.000
462.565;  762.650;    0.000;    0.000
462.608;  733.650;    0.000;    0.000
462.652;  752.650;    0.000;    0.000
462.695;  776.650;    0.000;    0.000
462.739;  700.650;    0.000;    0.000
462.782;  801.650;    0.000;    0.000
462.825;  728.650;    0.000;    0.000
462.869;  810.650;    0.000;    0.000
462.912;  792.650;    0.000;    0.000
462.955;  804.650;    0.000;    0.000
462.998;  822.650;    0.000;    0.000
463.042;  798.650;    0.000;    0.000
463.085;  779.650;    0.000;    0.000
463.128;  772.650;    0.000;    0.000
463.172;  716.650;    0.000;    0.000
463.215;  351.650;    0.000;    0.000
463.258;  323.650;    0.000;    0.000
463.301;  315.650;    0.000;    0.000
463.344;  322.650;    0.000;    0.000
463.388;  380.650;    0.000;    0.000
463.431;  271.650;    0.000;    0.000
463.474;  345.650;    0.000;    0.000
463.517;  337.650;    0.000;    0.000
463.560;  323.650;    0.000;    0.000
463.603;  326.650;    0.000;    0.000
463.646;  333.650;    0.000;    0.000
463.690;  338.650;    0.000;    0.000
463.733;  330.650;    0.000;    0.000
463.776;  303.650;    0.000;    0.000
463.819;  361.650;    0.000;    0.000
463.862;  286.650;    0.000;    0.000

