
Integration time [ms]:   1.000
Averaging Nr. [scans]: 1
Smoothing Nr. [pixels]: 0
Data measured with spectrometer [name]: UV1
Wave   ;Sample   ;Dark     ;Reference
[nm]   ;[counts] ;[counts] ;[counts] 

236.381;  151.350;    0.000;    0.000
236.451;  202.350;    0.000;    0.000
236.520;  182.350;    0.000;    0.000
236.590;  225.350;    0.000;    0.000
236.660;  187.350;    0.000;    0.000
236.730;  215.350;    0.000;    0.000
236.799;  202.350;    0.000;    0.000
236.869;  204.350;    0.000;    0.000
236.939;  186.350;    0.000;    0.000
237.009;  185.350;    0.000;    0.000
237.078;  193.350;    0.000;    0.000
237.148;  186.350;    0.000;    0.000
237.218;  185.350;    0.000;    0.000
237.287;  202.350;    0.000;    0.000
237.357;  212.350;    0.000;    0.000
237.427;  182.350;    0.000;    0.000
237.496;  346.350;    0.000;    0.000
237.566;  310.350;    0.000;    0.000
237.636;  318.350;    0.000;    0.000
237.705;  327.350;    0.000;    0.000
237.775;  294.350;    0.000;    0.000
237.845;  324.350;    0.000;    0.000
237.914;  300.350;    0.000;    0.000
237.984;  312.350;    0.000;    0.000
238.054;  283.350;    0.000;    0.000
238.123;  312.350;    0.000;    0.000
238.193;  307.350;    0.000;    0.000
238.263;  347.350;    0.000;    0.000
238.332;  305.350;    0.000;    0.000
238.402;  281.350;    0.000;    0.000
238.471;  283.350;    0.000;    0.000
238.541;  285.350;    0.000;    0.000
238.611;  291.350;    0.000;    0.000
238.680;  302.350;    0.000;    0.000
238.750;  262.350;    0.000;    0.000
238.819;  297.350;    0.000;    0.000
238.889;  272.350;    0.000;    0.000
238.958;  281.350;    0.000;    0.000
239.028;  318.350;    0.000;    0.000
239.097;  276.350;    0.000;    0.000
239.167;  298.350;    0.000;    0.000
239.237;  307.350;    0.000;    0.000
239.306;  246.350;    0.000;    0.000
239.376;  312.350;    0.000;    0.000
239.445;  341.350;    0.000;    0.000
239.515;  340.350;    0.000;    0.000
239.584;  305.350;    0.000;    0.000
239.654;  290.350;    0.000;    0.000
239.723;  289.350;    0.000;    0.000
239.793;  286.350;    0.000;    0.000
239.862;  279.350;    0.000;    0.000
239.932;  256.350;    0.000;    0.000
240.001;  290.350;    0.000;    0.000
240.070;  258.350;    0.000;    0.000
240.140;  280.350;    0.000;    0.000
240.209;  275.350;    0.000;    0.000
240.279;  289.350;    0.000;    0.000
240.348;  316.350;    0.000;    0.000
240.418;  288.350;    0.000;    0.000
240.487;  277.350;    0.000;    0.000
240.556;  313.350;    0.000;    0.000
240.626;  302.350;    0.000;    0.000
240.695;  301.350;    0.000;    0.000
240.765;  315.350;    0.000;    0.000
240.834;  272.350;    0.000;    0.000
240.903;  280.350;    0.000;    0.000
240.973;  280.350;    0.000;    0.000
241.042;  248.350;    0.000;    0.000
241.112;  283.350;    0.000;    0.000
241.181;  309.350;    0.000;    0.000
241.250;  287.350;    0.000;    0.000
241.320;  337.350;    0.000;    0.000
241.389;  271.350;    0.000;    0.000
241.458;  351.350;    0.000;    0.000
241.528;  278.350;    0.000;    0.000
241.597;  311.350;    0.000;    0.000
241.666;  314.350;    0.000;    0.000
241.736;  291.350;    0.000;    0.000
241.805;  277.350;    0.000;    0.000
241.874;  298.350;    0.000;    0.000
241.943;  301.350;    0.000;    0.000
242.013;  342.350;    0.000;    0.000
242.082;  259.350;    0.000;    0.000
242.151;  288.350;    0.000;    0.000
242.221;  294.350;    0.000;    0.000
242.290;  284.350;    0.000;    0.000
242.359;  252.350;    0.000;    0.000
242.428;  339.350;    0.000;    0.000
242.498;  253.350;    0.000;    0.000
242.567;  306.350;    0.000;    0.000
242.636;  305.350;    0.000;    0.000
242.705;  291.350;    0.000;    0.000
242.774;  277.350;    0.000;    0.000
242.844;  276.350;    0.000;    0.000
242.913;  288.350;    0.000;    0.000
242.982;  302.350;    0.000;    0.000
243.051;  233.350;    0.000;    0.000
243.120;  294.350;    0.000;    0.000
243.190;  251.350;    0.000;    0.000
243.259;  287.350;    0.000;    0.000
243.328;  252.350;    0.000;    0.000
243.397;  274.350;    0.000;    0.000
243.466;  268.350;    0.000;    0.000
243.535;  281.350;    0.000;    0.000
243.605;  251.350;    0.000;    0.000
243.674;  307.350;    0.000;    0.000
243.743;  298.350;    0.000;    0.000
243.812;  245.350;    0.000;    0.000
243.881;  286.350;    0.000;    0.000
243.950;  243.350;    0.000;    0.000
244.019;  259.350;    0.000;    0.000
244.088;  300.350;    0.000;    0.000
244.158;  328.350;    0.000;    0.000
244.227;  248.350;    0.000;    0.000
244.296;  269.350;    0.000;    0.000
244.365;  319.350;    0.000;    0.000
244.434;  237.350;    0.000;    0.000
244.503;  305.350;    0.000;    0.000
244.572;  255.350;    0.000;    0.000
244.641;  236.350;    0.000;    0.000
244.710;  319.350;    0.000;    0.000
244.779;  272.350;    0.000;    0.000
244.848;  244.350;    0.000;    0.000
244.917;  307.350;    0.000;    0.000
244.986;  249.350;    0.000;    0.000
245.055;  255.350;    0.000;    0.000
245.124;  295.350;    0.000;    0.000
245.193;  269.350;    0.000;    0.000
245.262;  217.350;    0.000;    0.000
245.331;  272.350;    0.000;    0.000
245.400;  239.350;    0.000;    0.000
245.469;  327.350;    0.000;    0.000
245.538;  284.350;    0.000;    0.000
245.607;  288.350;    0.000;    0.000
245.676;  281.350;    0.000;    0.000
245.745;  257.350;    0.000;    0.000
245.814;  271.350;    0.000;    0.000
245.883;  285.350;    0.000;    0.000
245.952;  275.350;    0.000;    0.000
246.021;  306.350;    0.000;    0.000
246.090;  294.350;    0.000;    0.000
246.159;  283.350;    0.000;    0.000
246.227;  296.350;    0.000;    0.000
246.296;  297.350;    0.000;    0.000
246.365;  286.350;    0.000;    0.000
246.434;  266.350;    0.000;    0.000
246.503;  279.350;    0.000;    0.000
246.572;  309.350;    0.000;    0.000
246.641;  270.350;    0.000;    0.000
246.710;  310.350;    0.000;    0.000
246.779;  272.350;    0.000;    0.000
246.847;  261.350;    0.000;    0.000
246.916;  256.350;    0.000;    0.000
246.985;  272.350;    0.000;    0.000
247.054;  270.350;    0.000;    0.000
247.123;  233.350;    0.000;    0.000
247.192;  236.350;    0.000;    0.000
247.260;  275.350;    0.000;    0.000
247.329;  281.350;    0.000;    0.000
247.398;  294.350;    0.000;    0.000
247.467;  272.350;    0.000;    0.000
247.536;  319.350;    0.000;    0.000
247.604;  313.350;    0.000;    0.000
247.673;  258.350;    0.000;    0.000
247.742;  244.350;    0.000;    0.000
247.811;  329.350;    0.000;    0.000
247.879;  275.350;    0.000;    0.000
247.948;  272.350;    0.000;    0.000
248.017;  256.350;    0.000;    0.000
248.086;  241.350;    0.000;    0.000
248.154;  262.350;    0.000;    0.000
248.223;  275.350;    0.000;    0.000
248.292;  295.350;    0.000;    0.000
248.361;  309.350;    0.000;    0.000
248.429;  252.350;    0.000;    0.000
248.498;  258.350;    0.000;    0.000
248.567;  285.350;    0.000;    0.000
248.635;  259.350;    0.000;    0.000
248.704;  282.350;    0.000;    0.000
248.773;  259.350;    0.000;    0.000
248.841;  238.350;    0.000;    0.000
248.910;  296.350;    0.000;    0.000
248.979;  273.350;    0.000;    0.000
249.047;  240.350;    0.000;    0.000
249.116;  277.350;    0.000;    0.000
249.185;  280.350;    0.000;    0.000
249.253;  221.350;    0.000;    0.000
249.322;  258.350;    0.000;    0.000
249.390;  279.350;    0.000;    0.000
249.459;  290.350;    0.000;    0.000
249.528;  275.350;    0.000;    0.000
249.596;  268.350;    0.000;    0.000
249.665;  260.350;    0.000;    0.000
249.733;  257.350;    0.000;    0.000
249.802;  244.350;    0.000;    0.000
249.871;  273.350;    0.000;    0.000
249.939;  221.350;    0.000;    0.000
250.008;  263.350;    0.000;    0.000
250.076;  262.350;    0.000;    0.000
250.145;  241.350;    0.000;    0.000
250.213;  254.350;    0.000;    0.000
250.282;  240.350;    0.000;    0.000
250.350;  227.350;    0.000;    0.000
250.419;  228.350;    0.000;    0.000
250.487;  268.350;    0.000;    0.000
250.556;  268.350;    0.000;    0.000
250.624;  267.350;    0.000;    0.000
250.693;  211.350;    0.000;    0.000
250.761;  287.350;    0.000;    0.000
250.830;  309.350;    0.000;    0.000
250.898;  233.350;    0.000;    0.000
250.967;  225.350;    0.000;    0.000
251.035;  259.350;    0.000;    0.000
251.104;  249.350;    0.000;    0.000
251.172;  264.350;    0.000;    0.000
251.241;  208.350;    0.000;    0.000
251.309;  298.350;    0.000;    0.000
251.378;  247.350;    0.000;    0.000
251.446;  214.350;    0.000;    0.000
251.514;  237.350;    0.000;    0.000
251.583;  269.350;    0.000;    0.000
251.651;  250.350;    0.000;    0.000
251.720;  267.350;    0.000;    0.000
251.788;  264.350;    0.000;    0.000
251.856;  200.350;    0.000;    0.000
251.925;  236.350;    0.000;    0.000
251.993;  270.350;    0.000;    0.000
252.062;  281.350;    0.000;    0.000
252.130;  273.350;    0.000;    0.000
252.198;  241.350;    0.000;    0.000
252.267;  249.350;    0.000;    0.000
252.335;  224.350;    0.000;    0.000
252.403;  244.350;    0.000;    0.000
252.472;  200.350;    0.000;    0.000
252.540;  216.350;    0.000;    0.000
252.608;  254.350;    0.000;    0.000
252.677;  267.350;    0.000;    0.000
252.745;  237.350;    0.000;    0.000
252.813;  257.350;    0.000;    0.000
252.881;  177.350;    0.000;    0.000
252.950;  240.350;    0.000;    0.000
253.018;  249.350;    0.000;    0.000
253.086;  224.350;    0.000;    0.000
253.155;  206.350;    0.000;    0.000
253.223;  188.350;    0.000;    0.000
253.291;  231.350;    0.000;    0.000
253.359;  268.350;    0.000;    0.000
253.428;  241.350;    0.000;    0.000
253.496;  220.350;    0.000;    0.000
253.564;  183.350;    0.000;    0.000
253.632;  223.350;    0.000;    0.000
253.700;  225.350;    0.000;    0.000
253.769;  206.350;    0.000;    0.000
253.837;  243.350;    0.000;    0.000
253.905;  271.350;    0.000;    0.000
253.973;  231.350;    0.000;    0.000
254.041;  222.350;    0.000;    0.000
254.110;  216.350;    0.000;    0.000
254.178;  205.350;    0.000;    0.000
254.246;  199.350;    0.000;    0.000
254.314;  225.350;    0.000;    0.000
254.382;  228.350;    0.000;    0.000
254.450;  187.350;    0.000;    0.000
254.518;  238.350;    0.000;    0.000
254.587;  183.350;    0.000;    0.000
254.655;  272.350;    0.000;    0.000
254.723;  235.350;    0.000;    0.000
254.791;  277.350;    0.000;    0.000
254.859;  224.350;    0.000;    0.000
254.927;  223.350;    0.000;    0.000
254.995;  197.350;    0.000;    0.000
255.063;  241.350;    0.000;    0.000
255.131;  216.350;    0.000;    0.000
255.199;  207.350;    0.000;    0.000
255.267;  219.350;    0.000;    0.000
255.336;  222.350;    0.000;    0.000
255.404;  220.350;    0.000;    0.000
255.472;  247.350;    0.000;    0.000
255.540;  247.350;    0.000;    0.000
255.608;  205.350;    0.000;    0.000
255.676;  224.350;    0.000;    0.000
255.744;  235.350;    0.000;    0.000
255.812;  223.350;    0.000;    0.000
255.880;  259.350;    0.000;    0.000
255.948;  238.350;    0.000;    0.000
256.016;  225.350;    0.000;    0.000
256.084;  241.350;    0.000;    0.000
256.152;  221.350;    0.000;    0.000
256.220;  219.350;    0.000;    0.000
256.288;  228.350;    0.000;    0.000
256.356;  250.350;    0.000;    0.000
256.424;  238.350;    0.000;    0.000
256.491;  166.350;    0.000;    0.000
256.559;  247.350;    0.000;    0.000
256.627;  237.350;    0.000;    0.000
256.695;  188.350;    0.000;    0.000
256.763;  236.350;    0.000;    0.000
256.831;  196.350;    0.000;    0.000
256.899;  257.350;    0.000;    0.000
256.967;  198.350;    0.000;    0.000
257.035;  183.350;    0.000;    0.000
257.103;  231.350;    0.000;    0.000
257.171;  189.350;    0.000;    0.000
257.238;  198.350;    0.000;    0.000
257.306;  204.350;    0.000;    0.000
257.374;  225.350;    0.000;    0.000
257.442;  223.350;    0.000;    0.000
257.510;  204.350;    0.000;    0.000
257.578;  200.350;    0.000;    0.000
257.646;  205.350;    0.000;    0.000
257.713;  188.350;    0.000;    0.000
257.781;  219.350;    0.000;    0.000
257.849;  241.350;    0.000;    0.000
257.917;  179.350;    0.000;    0.000
257.985;  188.350;    0.000;    0.000
258.052;  223.350;    0.000;    0.000
258.120;  225.350;    0.000;    0.000
258.188;  248.350;    0.000;    0.000
258.256;  225.350;    0.000;    0.000
258.324;  247.350;    0.000;    0.000
258.391;  227.350;    0.000;    0.000
258.459;  244.350;    0.000;    0.000
258.527;  273.350;    0.000;    0.000
258.595;  252.350;    0.000;    0.000
258.662;  217.350;    0.000;    0.000
258.730;  247.350;    0.000;    0.000
258.798;  225.350;    0.000;    0.000
258.865;  242.350;    0.000;    0.000
258.933;  195.350;    0.000;    0.000
259.001;  226.350;    0.000;    0.000
259.069;  227.350;    0.000;    0.000
259.136;  252.350;    0.000;    0.000
259.204;  270.350;    0.000;    0.000
259.272;  217.350;    0.000;    0.000
259.339;  234.350;    0.000;    0.000
259.407;  297.350;    0.000;    0.000
259.475;  209.350;    0.000;    0.000
259.542;  228.350;    0.000;    0.000
259.610;  252.350;    0.000;    0.000
259.677;  258.350;    0.000;    0.000
259.745;  276.350;    0.000;    0.000
259.813;  456.350;    0.000;    0.000
259.880;  617.350;    0.000;    0.000
259.948;  583.350;    0.000;    0.000
260.016;  356.350;    0.000;    0.000
260.083;  297.350;    0.000;    0.000
260.151;  243.350;    0.000;    0.000
260.218;  260.350;    0.000;    0.000
260.286;  239.350;    0.000;    0.000
260.353;  249.350;    0.000;    0.000
260.421;  250.350;    0.000;    0.000
260.489;  293.350;    0.000;    0.000
260.556;  343.350;    0.000;    0.000
260.624;  329.350;    0.000;    0.000
260.691;  426.350;    0.000;    0.000
260.759;  396.350;    0.000;    0.000
260.826;  264.350;    0.000;    0.000
260.894;  245.350;    0.000;    0.000
260.961;  290.350;    0.000;    0.000
261.029;  300.350;    0.000;    0.000
261.096;  351.350;    0.000;    0.000
261.164;  525.350;    0.000;    0.000
261.231;  470.350;    0.000;    0.000
261.299;  378.350;    0.000;    0.000
261.366;  317.350;    0.000;    0.000
261.434;  333.350;    0.000;    0.000
261.501;  258.350;    0.000;    0.000
261.568;  270.350;    0.000;    0.000
261.636;  266.350;    0.000;    0.000
261.703;  414.350;    0.000;    0.000
261.771;  376.350;    0.000;    0.000
261.838;  348.350;    0.000;    0.000
261.906;  280.350;    0.000;    0.000
261.973;  300.350;    0.000;    0.000
262.040;  308.350;    0.000;    0.000
262.108;  301.350;    0.000;    0.000
262.175;  317.350;    0.000;    0.000
262.243;  305.350;    0.000;    0.000
262.310;  283.350;    0.000;    0.000
262.377;  281.350;    0.000;    0.000
262.445;  368.350;    0.000;    0.000
262.512;  442.350;    0.000;    0.000
262.579;  528.350;    0.000;    0.000
262.647;  401.350;    0.000;    0.000
262.714;  396.350;    0.000;    0.000
262.781;  435.350;    0.000;    0.000
262.849;  438.350;    0.000;    0.000
262.916;  433.350;    0.000;    0.000
262.983;  458.350;    0.000;    0.000
263.051;  733.350;    0.000;    0.000
263.118;  889.350;    0.000;    0.000
263.185;  598.350;    0.000;    0.000
263.252;  372.350;    0.000;    0.000
263.320;  308.350;    0.000;    0.000
263.387;  336.350;    0.000;    0.000
263.454;  362.350;    0.000;    0.000
263.522;  322.350;    0.000;    0.000
263.589;  327.350;    0.000;    0.000
263.656;  271.350;    0.000;    0.000
263.723;  303.350;    0.000;    0.000
263.790;  304.350;    0.000;    0.000
263.858;  322.350;    0.000;    0.000
263.925;  327.350;    0.000;    0.000
263.992;  315.350;    0.000;    0.000
264.059;  335.350;    0.000;    0.000
264.126;  327.350;    0.000;    0.000
264.194;  308.350;    0.000;    0.000
264.261;  317.350;    0.000;    0.000
264.328;  325.350;    0.000;    0.000
264.395;  355.350;    0.000;    0.000
264.462;  331.350;    0.000;    0.000
264.529;  321.350;    0.000;    0.000
264.597;  322.350;    0.000;    0.000
264.664;  338.350;    0.000;    0.000
264.731;  319.350;    0.000;    0.000
264.798;  319.350;    0.000;    0.000
264.865;  296.350;    0.000;    0.000
264.932;  300.350;    0.000;    0.000
264.999;  328.350;    0.000;    0.000
265.066;  317.350;    0.000;    0.000
265.133;  343.350;    0.000;    0.000
265.201;  279.350;    0.000;    0.000
265.268;  349.350;    0.000;    0.000
265.335;  327.350;    0.000;    0.000
265.402;  314.350;    0.000;    0.000
265.469;  337.350;    0.000;    0.000
265.536;  355.350;    0.000;    0.000
265.603;  350.350;    0.000;    0.000
265.670;  301.350;    0.000;    0.000
265.737;  340.350;    0.000;    0.000
265.804;  344.350;    0.000;    0.000
265.871;  349.350;    0.000;    0.000
265.938;  328.350;    0.000;    0.000
266.005;  334.350;    0.000;    0.000
266.072;  323.350;    0.000;    0.000
266.139;  355.350;    0.000;    0.000
266.206;  340.350;    0.000;    0.000
266.273;  335.350;    0.000;    0.000
266.340;  384.350;    0.000;    0.000
266.407;  409.350;    0.000;    0.000
266.474;  421.350;    0.000;    0.000
266.541;  415.350;    0.000;    0.000
266.608;  409.350;    0.000;    0.000
266.675;  465.350;    0.000;    0.000
266.742;  366.350;    0.000;    0.000
266.808;  354.350;    0.000;    0.000
266.875;  363.350;    0.000;    0.000
266.942;  370.350;    0.000;    0.000
267.009;  374.350;    0.000;    0.000
267.076;  370.350;    0.000;    0.000
267.143;  386.350;    0.000;    0.000
267.210;  389.350;    0.000;    0.000
267.277;  332.350;    0.000;    0.000
267.344;  374.350;    0.000;    0.000
267.410;  362.350;    0.000;    0.000
267.477;  360.350;    0.000;    0.000
267.544;  380.350;    0.000;    0.000
267.611;  393.350;    0.000;    0.000
267.678;  352.350;    0.000;    0.000
267.745;  366.350;    0.000;    0.000
267.811;  341.350;    0.000;    0.000
267.878;  379.350;    0.000;    0.000
267.945;  336.350;    0.000;    0.000
268.012;  345.350;    0.000;    0.000
268.079;  354.350;    0.000;    0.000
268.145;  350.350;    0.000;    0.000
268.212;  379.350;    0.000;    0.000
268.279;  361.350;    0.000;    0.000
268.346;  364.350;    0.000;    0.000
268.412;  386.350;    0.000;    0.000
268.479;  426.350;    0.000;    0.000
268.546;  379.350;    0.000;    0.000
268.613;  398.350;    0.000;    0.000
268.679;  365.350;    0.000;    0.000
268.746;  372.350;    0.000;    0.000
268.813;  374.350;    0.000;    0.000
268.879;  373.350;    0.000;    0.000
268.946;  374.350;    0.000;    0.000
269.013;  396.350;    0.000;    0.000
269.079;  385.350;    0.000;    0.000
269.146;  374.350;    0.000;    0.000
269.213;  464.350;    0.000;    0.000
269.280;  430.350;    0.000;    0.000
269.346;  397.350;    0.000;    0.000
269.413;  400.350;    0.000;    0.000
269.479;  366.350;    0.000;    0.000
269.546;  391.350;    0.000;    0.000
269.613;  380.350;    0.000;    0.000
269.679;  416.350;    0.000;    0.000
269.746;  393.350;    0.000;    0.000
269.813;  376.350;    0.000;    0.000
269.879;  387.350;    0.000;    0.000
269.946;  393.350;    0.000;    0.000
270.012;  397.350;    0.000;    0.000
270.079;  362.350;    0.000;    0.000
270.145;  401.350;    0.000;    0.000
270.212;  429.350;    0.000;    0.000
270.279;  426.350;    0.000;    0.000
270.345;  374.350;    0.000;    0.000
270.412;  420.350;    0.000;    0.000
270.478;  416.350;    0.000;    0.000
270.545;  438.350;    0.000;    0.000
270.611;  458.350;    0.000;    0.000
270.678;  402.350;    0.000;    0.000
270.744;  417.350;    0.000;    0.000
270.811;  361.350;    0.000;    0.000
270.877;  350.350;    0.000;    0.000
270.944;  378.350;    0.000;    0.000
271.010;  372.350;    0.000;    0.000
271.077;  406.350;    0.000;    0.000
271.143;  452.350;    0.000;    0.000
271.210;  420.350;    0.000;    0.000
271.276;  410.350;    0.000;    0.000
271.342;  445.350;    0.000;    0.000
271.409;  490.350;    0.000;    0.000
271.475;  483.350;    0.000;    0.000
271.542;  447.350;    0.000;    0.000
271.608;  402.350;    0.000;    0.000
271.675;  378.350;    0.000;    0.000
271.741;  390.350;    0.000;    0.000
271.807;  441.350;    0.000;    0.000
271.874;  559.350;    0.000;    0.000
271.940;  532.350;    0.000;    0.000
272.007;  430.350;    0.000;    0.000
272.073;  440.350;    0.000;    0.000
272.139;  420.350;    0.000;    0.000
272.206;  425.350;    0.000;    0.000
272.272;  409.350;    0.000;    0.000
272.338;  458.350;    0.000;    0.000
272.405;  461.350;    0.000;    0.000
272.471;  443.350;    0.000;    0.000
272.537;  398.350;    0.000;    0.000
272.604;  416.350;    0.000;    0.000
272.670;  478.350;    0.000;    0.000
272.736;  510.350;    0.000;    0.000
272.802;  539.350;    0.000;    0.000
272.869;  452.350;    0.000;    0.000
272.935;  379.350;    0.000;    0.000
273.001;  404.350;    0.000;    0.000
273.068;  498.350;    0.000;    0.000
273.134;  447.350;    0.000;    0.000
273.200;  467.350;    0.000;    0.000
273.266;  433.350;    0.000;    0.000
273.333;  519.350;    0.000;    0.000
273.399;  456.350;    0.000;    0.000
273.465;  513.350;    0.000;    0.000
273.531;  481.350;    0.000;    0.000
273.597;  486.350;    0.000;    0.000
273.664;  593.350;    0.000;    0.000
273.730;  547.350;    0.000;    0.000
273.796;  536.350;    0.000;    0.000
273.862;  666.350;    0.000;    0.000
273.928; 1024.350;    0.000;    0.000
273.995;  926.350;    0.000;    0.000
274.061;  611.350;    0.000;    0.000
274.127;  567.350;    0.000;    0.000
274.193;  530.350;    0.000;    0.000
274.259;  757.350;    0.000;    0.000
274.325;  800.350;    0.000;    0.000
274.391;  603.350;    0.000;    0.000
274.457;  557.350;    0.000;    0.000
274.524;  596.350;    0.000;    0.000
274.590;  922.350;    0.000;    0.000
274.656; 1193.350;    0.000;    0.000
274.722;  985.350;    0.000;    0.000
274.788;  742.350;    0.000;    0.000
274.854; 1001.350;    0.000;    0.000
274.920; 1174.350;    0.000;    0.000
274.986;  988.350;    0.000;    0.000
275.052;  664.350;    0.000;    0.000
275.118;  562.350;    0.000;    0.000
275.184;  564.350;    0.000;    0.000
275.250;  628.350;    0.000;    0.000
275.316;  733.350;    0.000;    0.000
275.382;  721.350;    0.000;    0.000
275.448;  692.350;    0.000;    0.000
275.514; 1063.350;    0.000;    0.000
275.580; 1225.350;    0.000;    0.000
275.646;  826.350;    0.000;    0.000
275.712;  600.350;    0.000;    0.000
275.778;  565.350;    0.000;    0.000
275.844;  535.350;    0.000;    0.000
275.910;  558.350;    0.000;    0.000
275.976;  538.350;    0.000;    0.000
276.042;  535.350;    0.000;    0.000
276.108;  622.350;    0.000;    0.000
276.174;  627.350;    0.000;    0.000
276.240;  602.350;    0.000;    0.000
276.306;  558.350;    0.000;    0.000
276.372;  597.350;    0.000;    0.000
276.437;  560.350;    0.000;    0.000
276.503;  631.350;    0.000;    0.000
276.569;  706.350;    0.000;    0.000
276.635;  666.350;    0.000;    0.000
276.701;  814.350;    0.000;    0.000
276.767;  829.350;    0.000;    0.000
276.833;  751.350;    0.000;    0.000
276.899;  738.350;    0.000;    0.000
276.964;  768.350;    0.000;    0.000
277.030;  754.350;    0.000;    0.000
277.096;  720.350;    0.000;    0.000
277.162;  757.350;    0.000;    0.000
277.228;  806.350;    0.000;    0.000
277.293;  811.350;    0.000;    0.000
277.359;  884.350;    0.000;    0.000
277.425;  957.350;    0.000;    0.000
277.491;  962.350;    0.000;    0.000
277.557; 1150.350;    0.000;    0.000
277.622; 1703.350;    0.000;    0.000
277.688; 1811.350;    0.000;    0.000
277.754; 1654.350;    0.000;    0.000
277.820; 1924.350;    0.000;    0.000
277.885; 2108.350;    0.000;    0.000
277.951; 2631.350;    0.000;    0.000
278.017; 2485.350;    0.000;    0.000
278.083; 2096.350;    0.000;    0.000
278.148; 2079.350;    0.000;    0.000
278.214; 1965.350;    0.000;    0.000
278.280; 2143.350;    0.000;    0.000
278.345; 2070.350;    0.000;    0.000
278.411; 1719.350;    0.000;    0.000
278.477; 1775.350;    0.000;    0.000
278.542; 1840.350;    0.000;    0.000
278.608; 1963.350;    0.000;    0.000
278.674; 2138.350;    0.000;    0.000
278.739; 2381.350;    0.000;    0.000
278.805; 2515.350;    0.000;    0.000
278.871; 2893.350;    0.000;    0.000
278.936; 3343.350;    0.000;    0.000
279.002; 4316.350;    0.000;    0.000
279.067; 5400.350;    0.000;    0.000
279.133; 5579.350;    0.000;    0.000
279.199; 5058.350;    0.000;    0.000
279.264; 5049.350;    0.000;    0.000
279.330; 5441.350;    0.000;    0.000
279.395; 6171.350;    0.000;    0.000
279.461; 6695.350;    0.000;    0.000
279.527; 6498.350;    0.000;    0.000
279.592; 6630.350;    0.000;    0.000
279.658; 6838.350;    0.000;    0.000
279.723; 6749.350;    0.000;    0.000
279.789; 7087.350;    0.000;    0.000
279.854; 6612.350;    0.000;    0.000
279.920; 5822.350;    0.000;    0.000
279.985; 5680.350;    0.000;    0.000
280.051; 5686.350;    0.000;    0.000
280.116; 6095.350;    0.000;    0.000
280.182; 6615.350;    0.000;    0.000
280.247; 6818.350;    0.000;    0.000
280.313; 6837.350;    0.000;    0.000
280.378; 6232.350;    0.000;    0.000
280.444; 5277.350;    0.000;    0.000
280.509; 4435.350;    0.000;    0.000
280.574; 4074.350;    0.000;    0.000
280.640; 3592.350;    0.000;    0.000
280.705; 3319.350;    0.000;    0.000
280.771; 2996.350;    0.000;    0.000
280.836; 2755.350;    0.000;    0.000
280.902; 2592.350;    0.000;    0.000
280.967; 2413.350;    0.000;    0.000
281.032; 2251.350;    0.000;    0.000
281.098; 2091.350;    0.000;    0.000
281.163; 2073.350;    0.000;    0.000
281.229; 1967.350;    0.000;    0.000
281.294; 1888.350;    0.000;    0.000
281.359; 1817.350;    0.000;    0.000
281.425; 1685.350;    0.000;    0.000
281.490; 1620.350;    0.000;    0.000
281.555; 1563.350;    0.000;    0.000
281.621; 1549.350;    0.000;    0.000
281.686; 1478.350;    0.000;    0.000
281.751; 1496.350;    0.000;    0.000
281.816; 1341.350;    0.000;    0.000
281.882; 1381.350;    0.000;    0.000
281.947; 1292.350;    0.000;    0.000
282.012; 1240.350;    0.000;    0.000
282.078; 1179.350;    0.000;    0.000
282.143; 1106.350;    0.000;    0.000
282.208; 1140.350;    0.000;    0.000
282.273; 1193.350;    0.000;    0.000
282.339; 1097.350;    0.000;    0.000
282.404; 1079.350;    0.000;    0.000
282.469; 1066.350;    0.000;    0.000
282.534; 1113.350;    0.000;    0.000
282.600; 1002.350;    0.000;    0.000
282.665;  990.350;    0.000;    0.000
282.730;  917.350;    0.000;    0.000
282.795;  962.350;    0.000;    0.000
282.860;  984.350;    0.000;    0.000
282.926;  934.350;    0.000;    0.000
282.991;  912.350;    0.000;    0.000
283.056;  898.350;    0.000;    0.000
283.121;  968.350;    0.000;    0.000
283.186;  949.350;    0.000;    0.000
283.251;  930.350;    0.000;    0.000
283.316;  985.350;    0.000;    0.000
283.382;  870.350;    0.000;    0.000
283.447;  895.350;    0.000;    0.000
283.512;  876.350;    0.000;    0.000
283.577;  924.350;    0.000;    0.000
283.642;  834.350;    0.000;    0.000
283.707;  812.350;    0.000;    0.000
283.772;  829.350;    0.000;    0.000
283.837;  769.350;    0.000;    0.000
283.902;  845.350;    0.000;    0.000
283.967;  902.350;    0.000;    0.000
284.032;  887.350;    0.000;    0.000
284.097;  890.350;    0.000;    0.000
284.163;  862.350;    0.000;    0.000
284.228;  886.350;    0.000;    0.000
284.293;  884.350;    0.000;    0.000
284.358;  945.350;    0.000;    0.000
284.423;  888.350;    0.000;    0.000
284.488;  884.350;    0.000;    0.000
284.553;  920.350;    0.000;    0.000
284.618;  963.350;    0.000;    0.000
284.683; 1062.350;    0.000;    0.000
284.748; 1131.350;    0.000;    0.000
284.812; 1149.350;    0.000;    0.000
284.877; 1463.350;    0.000;    0.000
284.942; 1663.350;    0.000;    0.000
285.007; 1936.350;    0.000;    0.000
285.072; 2631.350;    0.000;    0.000
285.137; 3350.350;    0.000;    0.000
285.202; 4083.350;    0.000;    0.000
285.267; 4433.350;    0.000;    0.000
285.332; 3595.350;    0.000;    0.000
285.397; 2741.350;    0.000;    0.000
285.462; 2144.350;    0.000;    0.000
285.527; 1845.350;    0.000;    0.000
285.591; 1518.350;    0.000;    0.000
285.656; 1435.350;    0.000;    0.000
285.721; 1288.350;    0.000;    0.000
285.786; 1177.350;    0.000;    0.000
285.851; 1116.350;    0.000;    0.000
285.916; 1038.350;    0.000;    0.000
285.981;  951.350;    0.000;    0.000
286.045;  921.350;    0.000;    0.000
286.110;  892.350;    0.000;    0.000
286.175;  937.350;    0.000;    0.000
286.240;  868.350;    0.000;    0.000
286.305;  851.350;    0.000;    0.000
286.369;  882.350;    0.000;    0.000
286.434;  887.350;    0.000;    0.000
286.499;  818.350;    0.000;    0.000
286.564;  807.350;    0.000;    0.000
286.628;  697.350;    0.000;    0.000
286.693;  736.350;    0.000;    0.000
286.758;  703.350;    0.000;    0.000
286.823;  768.350;    0.000;    0.000
286.887;  787.350;    0.000;    0.000
286.952;  776.350;    0.000;    0.000
287.017;  741.350;    0.000;    0.000
287.082;  729.350;    0.000;    0.000
287.146;  743.350;    0.000;    0.000
287.211;  717.350;    0.000;    0.000
287.276;  765.350;    0.000;    0.000
287.340;  748.350;    0.000;    0.000
287.405;  728.350;    0.000;    0.000
287.470;  667.350;    0.000;    0.000
287.534;  724.350;    0.000;    0.000
287.599;  720.350;    0.000;    0.000
287.663;  715.350;    0.000;    0.000
287.728;  701.350;    0.000;    0.000
287.793;  777.350;    0.000;    0.000
287.857;  761.350;    0.000;    0.000
287.922;  843.350;    0.000;    0.000
287.987;  883.350;    0.000;    0.000
288.051; 1180.350;    0.000;    0.000
288.116; 2144.350;    0.000;    0.000
288.180; 2658.350;    0.000;    0.000
288.245; 2055.350;    0.000;    0.000
288.309; 1389.350;    0.000;    0.000
288.374; 1173.350;    0.000;    0.000
288.439; 1011.350;    0.000;    0.000
288.503;  836.350;    0.000;    0.000
288.568;  829.350;    0.000;    0.000
288.632;  794.350;    0.000;    0.000
288.697;  818.350;    0.000;    0.000
288.761;  701.350;    0.000;    0.000
288.826;  731.350;    0.000;    0.000
288.890;  708.350;    0.000;    0.000
288.955;  674.350;    0.000;    0.000
289.019;  706.350;    0.000;    0.000
289.084;  670.350;    0.000;    0.000
289.148;  699.350;    0.000;    0.000
289.212;  671.350;    0.000;    0.000
289.277;  628.350;    0.000;    0.000
289.341;  616.350;    0.000;    0.000
289.406;  624.350;    0.000;    0.000
289.470;  659.350;    0.000;    0.000
289.535;  637.350;    0.000;    0.000
289.599;  667.350;    0.000;    0.000
289.663;  637.350;    0.000;    0.000
289.728;  635.350;    0.000;    0.000
289.792;  641.350;    0.000;    0.000
289.857;  642.350;    0.000;    0.000
289.921;  595.350;    0.000;    0.000
289.985;  626.350;    0.000;    0.000
290.050;  647.350;    0.000;    0.000
290.114;  508.350;    0.000;    0.000
290.178;  542.350;    0.000;    0.000
290.243;  543.350;    0.000;    0.000
290.307;  624.350;    0.000;    0.000
290.371;  585.350;    0.000;    0.000
290.436;  563.350;    0.000;    0.000
290.500;  576.350;    0.000;    0.000
290.564;  591.350;    0.000;    0.000
290.629;  623.350;    0.000;    0.000
290.693;  584.350;    0.000;    0.000
290.757;  629.350;    0.000;    0.000
290.821;  609.350;    0.000;    0.000
290.886;  601.350;    0.000;    0.000
290.950;  671.350;    0.000;    0.000
291.014;  637.350;    0.000;    0.000
291.078;  616.350;    0.000;    0.000
291.143;  664.350;    0.000;    0.000
291.207;  700.350;    0.000;    0.000
291.271;  681.350;    0.000;    0.000
291.335;  662.350;    0.000;    0.000
291.399;  709.350;    0.000;    0.000
291.464;  747.350;    0.000;    0.000
291.528;  877.350;    0.000;    0.000
291.592;  838.350;    0.000;    0.000
291.656;  778.350;    0.000;    0.000
291.720;  770.350;    0.000;    0.000
291.784;  741.350;    0.000;    0.000
291.849;  710.350;    0.000;    0.000
291.913;  694.350;    0.000;    0.000
291.977;  696.350;    0.000;    0.000
292.041;  730.350;    0.000;    0.000
292.105;  670.350;    0.000;    0.000
292.169;  716.350;    0.000;    0.000
292.233;  804.350;    0.000;    0.000
292.297;  747.350;    0.000;    0.000
292.361;  808.350;    0.000;    0.000
292.425;  842.350;    0.000;    0.000
292.490;  947.350;    0.000;    0.000
292.554;  909.350;    0.000;    0.000
292.618; 1027.350;    0.000;    0.000
292.682; 1179.350;    0.000;    0.000
292.746; 1252.350;    0.000;    0.000
292.810; 1799.350;    0.000;    0.000
292.874; 2436.350;    0.000;    0.000
292.938; 2693.350;    0.000;    0.000
293.002; 2405.350;    0.000;    0.000
293.066; 2075.350;    0.000;    0.000
293.130; 1905.350;    0.000;    0.000
293.194; 1781.350;    0.000;    0.000
293.258; 1790.350;    0.000;    0.000
293.322; 1714.350;    0.000;    0.000
293.386; 1723.350;    0.000;    0.000
293.450; 1766.350;    0.000;    0.000
293.514; 2074.350;    0.000;    0.000
293.577; 2574.350;    0.000;    0.000
293.641; 3652.350;    0.000;    0.000
293.705; 4175.350;    0.000;    0.000
293.769; 3718.350;    0.000;    0.000
293.833; 3268.350;    0.000;    0.000
293.897; 2902.350;    0.000;    0.000
293.961; 2495.350;    0.000;    0.000
294.025; 2295.350;    0.000;    0.000
294.089; 2090.350;    0.000;    0.000
294.152; 1955.350;    0.000;    0.000
294.216; 1794.350;    0.000;    0.000
294.280; 1653.350;    0.000;    0.000
294.344; 1539.350;    0.000;    0.000
294.408; 1444.350;    0.000;    0.000
294.472; 1409.350;    0.000;    0.000
294.536; 1314.350;    0.000;    0.000
294.599; 1202.350;    0.000;    0.000
294.663; 1155.350;    0.000;    0.000
294.727; 1253.350;    0.000;    0.000
294.791; 1176.350;    0.000;    0.000
294.855; 1206.350;    0.000;    0.000
294.918; 1030.350;    0.000;    0.000
294.982; 1015.350;    0.000;    0.000
295.046;  976.350;    0.000;    0.000
295.110;  879.350;    0.000;    0.000
295.173;  838.350;    0.000;    0.000
295.237;  866.350;    0.000;    0.000
295.301;  883.350;    0.000;    0.000
295.364;  979.350;    0.000;    0.000
295.428;  877.350;    0.000;    0.000
295.492;  802.350;    0.000;    0.000
295.556;  798.350;    0.000;    0.000
295.619;  823.350;    0.000;    0.000
295.683;  797.350;    0.000;    0.000
295.747;  830.350;    0.000;    0.000
295.810;  732.350;    0.000;    0.000
295.874;  734.350;    0.000;    0.000
295.938;  775.350;    0.000;    0.000
296.001;  772.350;    0.000;    0.000
296.065;  660.350;    0.000;    0.000
296.128;  705.350;    0.000;    0.000
296.192;  692.350;    0.000;    0.000
296.256;  643.350;    0.000;    0.000
296.319;  613.350;    0.000;    0.000
296.383;  693.350;    0.000;    0.000
296.447;  672.350;    0.000;    0.000
296.510;  679.350;    0.000;    0.000
296.574;  679.350;    0.000;    0.000
296.637;  804.350;    0.000;    0.000
296.701;  822.350;    0.000;    0.000
296.764;  683.350;    0.000;    0.000
296.828;  685.350;    0.000;    0.000
296.891;  683.350;    0.000;    0.000
296.955;  675.350;    0.000;    0.000
297.018;  772.350;    0.000;    0.000
297.082;  665.350;    0.000;    0.000
297.145;  598.350;    0.000;    0.000
297.209;  609.350;    0.000;    0.000
297.272;  741.350;    0.000;    0.000
297.336;  755.350;    0.000;    0.000
297.399;  678.350;    0.000;    0.000
297.463;  572.350;    0.000;    0.000
297.526;  612.350;    0.000;    0.000
297.590;  598.350;    0.000;    0.000
297.653;  577.350;    0.000;    0.000
297.717;  614.350;    0.000;    0.000
297.780;  555.350;    0.000;    0.000
297.843;  597.350;    0.000;    0.000
297.907;  576.350;    0.000;    0.000
297.970;  572.350;    0.000;    0.000
298.034;  634.350;    0.000;    0.000
298.097;  703.350;    0.000;    0.000
298.160;  630.350;    0.000;    0.000
298.224;  659.350;    0.000;    0.000
298.287;  595.350;    0.000;    0.000
298.350;  738.350;    0.000;    0.000
298.414;  735.350;    0.000;    0.000
298.477;  700.350;    0.000;    0.000
298.540;  727.350;    0.000;    0.000
298.604;  723.350;    0.000;    0.000
298.667;  650.350;    0.000;    0.000
298.730;  663.350;    0.000;    0.000
298.794;  673.350;    0.000;    0.000
298.857;  591.350;    0.000;    0.000
298.920;  581.350;    0.000;    0.000
298.984;  574.350;    0.000;    0.000
299.047;  599.350;    0.000;    0.000
299.110;  608.350;    0.000;    0.000
299.173;  515.350;    0.000;    0.000
299.237;  590.350;    0.000;    0.000
299.300;  568.350;    0.000;    0.000
299.363;  641.350;    0.000;    0.000
299.426;  697.350;    0.000;    0.000
299.489;  633.350;    0.000;    0.000
299.553;  600.350;    0.000;    0.000
299.616;  607.350;    0.000;    0.000
299.679;  586.350;    0.000;    0.000
299.742;  590.350;    0.000;    0.000
299.805;  502.350;    0.000;    0.000
299.868;  541.350;    0.000;    0.000
299.932;  651.350;    0.000;    0.000
299.995;  646.350;    0.000;    0.000
300.058;  668.350;    0.000;    0.000
300.121;  682.350;    0.000;    0.000
300.184;  632.350;    0.000;    0.000
300.247;  639.350;    0.000;    0.000
300.310;  652.350;    0.000;    0.000
300.374;  593.350;    0.000;    0.000
300.437;  582.350;    0.000;    0.000
300.500;  575.350;    0.000;    0.000
300.563;  571.350;    0.000;    0.000
300.626;  615.350;    0.000;    0.000
300.689;  590.350;    0.000;    0.000
300.752;  632.350;    0.000;    0.000
300.815;  649.350;    0.000;    0.000
300.878;  591.350;    0.000;    0.000
300.941;  551.350;    0.000;    0.000
301.004;  584.350;    0.000;    0.000
301.067;  553.350;    0.000;    0.000
301.130;  596.350;    0.000;    0.000
301.193;  559.350;    0.000;    0.000
301.256;  573.350;    0.000;    0.000
301.319;  543.350;    0.000;    0.000
301.382;  518.350;    0.000;    0.000
301.445;  575.350;    0.000;    0.000
301.508;  503.350;    0.000;    0.000
301.571;  528.350;    0.000;    0.000
301.634;  601.350;    0.000;    0.000
301.697;  584.350;    0.000;    0.000
301.760;  595.350;    0.000;    0.000
301.823;  543.350;    0.000;    0.000
301.885;  589.350;    0.000;    0.000
301.948;  576.350;    0.000;    0.000
302.011;  915.350;    0.000;    0.000
302.074; 1119.350;    0.000;    0.000
302.137;  813.350;    0.000;    0.000
302.200;  600.350;    0.000;    0.000
302.263;  583.350;    0.000;    0.000
302.326;  573.350;    0.000;    0.000
302.388;  579.350;    0.000;    0.000
302.451;  576.350;    0.000;    0.000
302.514;  621.350;    0.000;    0.000
302.577;  681.350;    0.000;    0.000
302.640;  634.350;    0.000;    0.000
302.703;  525.350;    0.000;    0.000
302.765;  587.350;    0.000;    0.000
302.828;  564.350;    0.000;    0.000
302.891;  550.350;    0.000;    0.000
302.954;  540.350;    0.000;    0.000
303.016;  580.350;    0.000;    0.000
303.079;  605.350;    0.000;    0.000
303.142;  577.350;    0.000;    0.000
303.205;  528.350;    0.000;    0.000
303.267;  559.350;    0.000;    0.000
303.330;  553.350;    0.000;    0.000
303.393;  558.350;    0.000;    0.000
303.456;  548.350;    0.000;    0.000
303.518;  571.350;    0.000;    0.000
303.581;  537.350;    0.000;    0.000
303.644;  562.350;    0.000;    0.000
303.706;  714.350;    0.000;    0.000
303.769;  697.350;    0.000;    0.000
303.832;  541.350;    0.000;    0.000
303.894;  606.350;    0.000;    0.000
303.957;  560.350;    0.000;    0.000
304.020;  528.350;    0.000;    0.000
304.082;  590.350;    0.000;    0.000
304.145;  596.350;    0.000;    0.000
304.207;  572.350;    0.000;    0.000
304.270;  573.350;    0.000;    0.000
304.333;  577.350;    0.000;    0.000
304.395;  606.350;    0.000;    0.000
304.458;  569.350;    0.000;    0.000
304.520;  607.350;    0.000;    0.000
304.583;  598.350;    0.000;    0.000
304.646;  596.350;    0.000;    0.000
304.708;  678.350;    0.000;    0.000
304.771;  696.350;    0.000;    0.000
304.833;  637.350;    0.000;    0.000
304.896;  576.350;    0.000;    0.000
304.958;  581.350;    0.000;    0.000
305.021;  700.350;    0.000;    0.000
305.083;  615.350;    0.000;    0.000
305.146;  562.350;    0.000;    0.000
305.208;  553.350;    0.000;    0.000
305.271;  498.350;    0.000;    0.000
305.333;  635.350;    0.000;    0.000
305.396;  599.350;    0.000;    0.000
305.458;  566.350;    0.000;    0.000
305.520;  574.350;    0.000;    0.000
305.583;  582.350;    0.000;    0.000
305.645;  577.350;    0.000;    0.000
305.708;  707.350;    0.000;    0.000
305.770;  792.350;    0.000;    0.000
305.833;  690.350;    0.000;    0.000
305.895;  720.350;    0.000;    0.000
305.957;  638.350;    0.000;    0.000
306.020;  551.350;    0.000;    0.000
306.082;  555.350;    0.000;    0.000
306.144;  604.350;    0.000;    0.000
306.207;  627.350;    0.000;    0.000
306.269;  584.350;    0.000;    0.000
306.331;  559.350;    0.000;    0.000
306.394;  567.350;    0.000;    0.000
306.456;  585.350;    0.000;    0.000
306.518;  617.350;    0.000;    0.000
306.581;  643.350;    0.000;    0.000
306.643;  663.350;    0.000;    0.000
306.705;  695.350;    0.000;    0.000
306.768;  668.350;    0.000;    0.000
306.830;  634.350;    0.000;    0.000
306.892;  655.350;    0.000;    0.000
306.954;  631.350;    0.000;    0.000
307.017;  641.350;    0.000;    0.000
307.079;  675.350;    0.000;    0.000
307.141;  692.350;    0.000;    0.000
307.203;  685.350;    0.000;    0.000
307.266;  681.350;    0.000;    0.000
307.328;  736.350;    0.000;    0.000
307.390;  663.350;    0.000;    0.000
307.452;  693.350;    0.000;    0.000
307.514;  812.350;    0.000;    0.000
307.577;  750.350;    0.000;    0.000
307.639;  749.350;    0.000;    0.000
307.701;  733.350;    0.000;    0.000
307.763;  746.350;    0.000;    0.000
307.825;  791.350;    0.000;    0.000
307.887;  848.350;    0.000;    0.000
307.949;  666.350;    0.000;    0.000
308.012;  752.350;    0.000;    0.000
308.074;  704.350;    0.000;    0.000
308.136;  889.350;    0.000;    0.000
308.198; 1071.350;    0.000;    0.000
308.260;  974.350;    0.000;    0.000
308.322;  921.350;    0.000;    0.000
308.384;  817.350;    0.000;    0.000
308.446;  762.350;    0.000;    0.000
308.508;  729.350;    0.000;    0.000
308.570;  806.350;    0.000;    0.000
308.632;  824.350;    0.000;    0.000
308.694;  838.350;    0.000;    0.000
308.756;  956.350;    0.000;    0.000
308.818; 1046.350;    0.000;    0.000
308.880;  874.350;    0.000;    0.000
308.942;  899.350;    0.000;    0.000
309.004;  894.350;    0.000;    0.000
309.066;  959.350;    0.000;    0.000
309.128; 1030.350;    0.000;    0.000
309.190; 1260.350;    0.000;    0.000
309.252; 1551.350;    0.000;    0.000
309.314; 1634.350;    0.000;    0.000
309.376; 1297.350;    0.000;    0.000
309.438; 1186.350;    0.000;    0.000
309.500; 1069.350;    0.000;    0.000
309.562; 1065.350;    0.000;    0.000
309.624; 1240.350;    0.000;    0.000
309.686; 1326.350;    0.000;    0.000
309.747; 1280.350;    0.000;    0.000
309.809; 1142.350;    0.000;    0.000
309.871; 1138.350;    0.000;    0.000
309.933; 1065.350;    0.000;    0.000
309.995; 1076.350;    0.000;    0.000
310.057; 1041.350;    0.000;    0.000
310.119; 1008.350;    0.000;    0.000
310.180;  988.350;    0.000;    0.000
310.242;  938.350;    0.000;    0.000
310.304;  937.350;    0.000;    0.000
310.366;  878.350;    0.000;    0.000
310.428;  867.350;    0.000;    0.000
310.489;  839.350;    0.000;    0.000
310.551;  872.350;    0.000;    0.000
310.613;  842.350;    0.000;    0.000
310.675;  842.350;    0.000;    0.000
310.737;  811.350;    0.000;    0.000
310.798;  839.350;    0.000;    0.000
310.860;  789.350;    0.000;    0.000
310.922;  750.350;    0.000;    0.000
310.983;  772.350;    0.000;    0.000
311.045;  789.350;    0.000;    0.000
311.107;  695.350;    0.000;    0.000
311.169;  740.350;    0.000;    0.000
311.230;  762.350;    0.000;    0.000
311.292;  727.350;    0.000;    0.000
311.354;  680.350;    0.000;    0.000
311.415;  797.350;    0.000;    0.000
311.477;  727.350;    0.000;    0.000
311.539;  658.350;    0.000;    0.000
311.600;  753.350;    0.000;    0.000
311.662;  739.350;    0.000;    0.000
311.724;  696.350;    0.000;    0.000
311.785;  675.350;    0.000;    0.000
311.847;  724.350;    0.000;    0.000
311.908;  712.350;    0.000;    0.000
311.970;  783.350;    0.000;    0.000
312.032;  691.350;    0.000;    0.000
312.093;  725.350;    0.000;    0.000
312.155;  671.350;    0.000;    0.000
312.216;  689.350;    0.000;    0.000
312.278;  687.350;    0.000;    0.000
312.339;  625.350;    0.000;    0.000
312.401;  690.350;    0.000;    0.000
312.462;  659.350;    0.000;    0.000
312.524;  702.350;    0.000;    0.000
312.585;  737.350;    0.000;    0.000
312.647;  662.350;    0.000;    0.000
312.708;  642.350;    0.000;    0.000
312.770;  665.350;    0.000;    0.000
312.831;  674.350;    0.000;    0.000
312.893;  624.350;    0.000;    0.000
312.954;  630.350;    0.000;    0.000
313.016;  670.350;    0.000;    0.000
313.077;  664.350;    0.000;    0.000
313.139;  632.350;    0.000;    0.000
313.200;  597.350;    0.000;    0.000
313.261;  682.350;    0.000;    0.000
313.323;  666.350;    0.000;    0.000
313.384;  677.350;    0.000;    0.000
313.446;  631.350;    0.000;    0.000
313.507;  618.350;    0.000;    0.000
313.568;  660.350;    0.000;    0.000
313.630;  636.350;    0.000;    0.000
313.691;  620.350;    0.000;    0.000
313.752;  633.350;    0.000;    0.000
313.814;  622.350;    0.000;    0.000
313.875;  637.350;    0.000;    0.000
313.936;  649.350;    0.000;    0.000
313.998;  595.350;    0.000;    0.000
314.059;  618.350;    0.000;    0.000
314.120;  606.350;    0.000;    0.000
314.182;  638.350;    0.000;    0.000
314.243;  596.350;    0.000;    0.000
314.304;  649.350;    0.000;    0.000
314.365;  682.350;    0.000;    0.000
314.427;  626.350;    0.000;    0.000
314.488;  596.350;    0.000;    0.000
314.549;  609.350;    0.000;    0.000
314.610;  644.350;    0.000;    0.000
314.672;  588.350;    0.000;    0.000
314.733;  602.350;    0.000;    0.000
314.794;  635.350;    0.000;    0.000
314.855;  574.350;    0.000;    0.000
314.917;  591.350;    0.000;    0.000
314.978;  621.350;    0.000;    0.000
315.039;  588.350;    0.000;    0.000
315.100;  611.350;    0.000;    0.000
315.161;  620.350;    0.000;    0.000
315.222;  667.350;    0.000;    0.000
315.283;  602.350;    0.000;    0.000
315.345;  655.350;    0.000;    0.000
315.406;  697.350;    0.000;    0.000
315.467;  621.350;    0.000;    0.000
315.528;  675.350;    0.000;    0.000
315.589;  660.350;    0.000;    0.000
315.650;  609.350;    0.000;    0.000
315.711;  642.350;    0.000;    0.000
315.772;  700.350;    0.000;    0.000
315.833;  695.350;    0.000;    0.000
315.894;  657.350;    0.000;    0.000
315.955;  752.350;    0.000;    0.000
316.016;  742.350;    0.000;    0.000
316.078;  685.350;    0.000;    0.000
316.139;  741.350;    0.000;    0.000
316.200;  708.350;    0.000;    0.000
316.261;  719.350;    0.000;    0.000
316.322;  704.350;    0.000;    0.000
316.383;  668.350;    0.000;    0.000
316.444;  662.350;    0.000;    0.000
316.504;  635.350;    0.000;    0.000
316.565;  641.350;    0.000;    0.000
316.626;  623.350;    0.000;    0.000
316.687;  657.350;    0.000;    0.000
316.748;  712.350;    0.000;    0.000
316.809;  709.350;    0.000;    0.000
316.870;  706.350;    0.000;    0.000
316.931;  687.350;    0.000;    0.000
316.992;  630.350;    0.000;    0.000
317.053;  611.350;    0.000;    0.000
317.114;  630.350;    0.000;    0.000
317.175;  680.350;    0.000;    0.000
317.235;  625.350;    0.000;    0.000
317.296;  610.350;    0.000;    0.000
317.357;  603.350;    0.000;    0.000
317.418;  662.350;    0.000;    0.000
317.479;  647.350;    0.000;    0.000
317.540;  644.350;    0.000;    0.000
317.601;  648.350;    0.000;    0.000
317.661;  639.350;    0.000;    0.000
317.722;  642.350;    0.000;    0.000
317.783;  603.350;    0.000;    0.000
317.844;  761.350;    0.000;    0.000
317.904;  739.350;    0.000;    0.000
317.965;  803.350;    0.000;    0.000
318.026;  784.350;    0.000;    0.000
318.087;  775.350;    0.000;    0.000
318.148;  724.350;    0.000;    0.000
318.208;  757.350;    0.000;    0.000
318.269;  661.350;    0.000;    0.000
318.330;  677.350;    0.000;    0.000
318.390;  627.350;    0.000;    0.000
318.451;  619.350;    0.000;    0.000
318.512;  692.350;    0.000;    0.000
318.572;  644.350;    0.000;    0.000
318.633;  730.350;    0.000;    0.000
318.694;  673.350;    0.000;    0.000
318.754;  649.350;    0.000;    0.000
318.815;  687.350;    0.000;    0.000
318.876;  717.350;    0.000;    0.000
318.936;  676.350;    0.000;    0.000
318.997;  658.350;    0.000;    0.000
319.058;  724.350;    0.000;    0.000
319.118;  785.350;    0.000;    0.000
319.179;  724.350;    0.000;    0.000
319.239;  707.350;    0.000;    0.000
319.300;  718.350;    0.000;    0.000
319.361;  715.350;    0.000;    0.000
319.421;  670.350;    0.000;    0.000
319.482;  613.350;    0.000;    0.000
319.542;  659.350;    0.000;    0.000
319.603;  636.350;    0.000;    0.000
319.663;  671.350;    0.000;    0.000
319.724;  624.350;    0.000;    0.000
319.784;  628.350;    0.000;    0.000
319.845;  631.350;    0.000;    0.000
319.905;  665.350;    0.000;    0.000
319.966;  671.350;    0.000;    0.000
320.026;  747.350;    0.000;    0.000
320.087;  643.350;    0.000;    0.000
320.147;  627.350;    0.000;    0.000
320.208;  686.350;    0.000;    0.000
320.268;  691.350;    0.000;    0.000
320.329;  651.350;    0.000;    0.000
320.389;  667.350;    0.000;    0.000
320.449;  655.350;    0.000;    0.000
320.510;  688.350;    0.000;    0.000
320.570;  641.350;    0.000;    0.000
320.631;  689.350;    0.000;    0.000
320.691;  653.350;    0.000;    0.000
320.751;  635.350;    0.000;    0.000
320.812;  617.350;    0.000;    0.000
320.872;  622.350;    0.000;    0.000
320.932;  640.350;    0.000;    0.000
320.993;  640.350;    0.000;    0.000
321.053;  701.350;    0.000;    0.000
321.113;  638.350;    0.000;    0.000
321.174;  650.350;    0.000;    0.000
321.234;  719.350;    0.000;    0.000
321.294;  701.350;    0.000;    0.000
321.355;  698.350;    0.000;    0.000
321.415;  668.350;    0.000;    0.000
321.475;  638.350;    0.000;    0.000
321.535;  679.350;    0.000;    0.000
321.596;  634.350;    0.000;    0.000
321.656;  698.350;    0.000;    0.000
321.716;  679.350;    0.000;    0.000
321.776;  694.350;    0.000;    0.000
321.837;  701.350;    0.000;    0.000
321.897;  672.350;    0.000;    0.000
321.957;  688.350;    0.000;    0.000
322.017;  659.350;    0.000;    0.000
322.077;  704.350;    0.000;    0.000
322.138;  714.350;    0.000;    0.000
322.198;  665.350;    0.000;    0.000
322.258;  757.350;    0.000;    0.000
322.318;  675.350;    0.000;    0.000
322.378;  713.350;    0.000;    0.000
322.438;  680.350;    0.000;    0.000
322.499;  716.350;    0.000;    0.000
322.559;  676.350;    0.000;    0.000
322.619;  713.350;    0.000;    0.000
322.679;  682.350;    0.000;    0.000
322.739;  701.350;    0.000;    0.000
322.799;  777.350;    0.000;    0.000
322.859;  743.350;    0.000;    0.000
322.919;  736.350;    0.000;    0.000
322.979;  746.350;    0.000;    0.000
323.039;  730.350;    0.000;    0.000
323.099;  626.350;    0.000;    0.000
323.159;  689.350;    0.000;    0.000
323.219;  729.350;    0.000;    0.000
323.279;  732.350;    0.000;    0.000
323.339;  816.350;    0.000;    0.000
323.399; 1026.350;    0.000;    0.000
323.459; 1052.350;    0.000;    0.000
323.519;  864.350;    0.000;    0.000
323.579;  803.350;    0.000;    0.000
323.639;  959.350;    0.000;    0.000
323.699;  866.350;    0.000;    0.000
323.759;  723.350;    0.000;    0.000
323.819;  805.350;    0.000;    0.000
323.879;  879.350;    0.000;    0.000
323.939;  819.350;    0.000;    0.000
323.999;  716.350;    0.000;    0.000
324.059;  695.350;    0.000;    0.000
324.119;  734.350;    0.000;    0.000
324.178;  739.350;    0.000;    0.000
324.238;  691.350;    0.000;    0.000
324.298;  633.350;    0.000;    0.000
324.358;  619.350;    0.000;    0.000
324.418;  624.350;    0.000;    0.000
324.478;  621.350;    0.000;    0.000
324.538;  589.350;    0.000;    0.000
324.597;  608.350;    0.000;    0.000
324.657;  623.350;    0.000;    0.000
324.717;  637.350;    0.000;    0.000
324.777;  678.350;    0.000;    0.000
324.837;  730.350;    0.000;    0.000
324.896;  703.350;    0.000;    0.000
324.956;  625.350;    0.000;    0.000
325.016;  608.350;    0.000;    0.000
325.076;  642.350;    0.000;    0.000
325.135;  672.350;    0.000;    0.000
325.195;  723.350;    0.000;    0.000
325.255;  722.350;    0.000;    0.000
325.315;  683.350;    0.000;    0.000
325.374;  678.350;    0.000;    0.000
325.434;  611.350;    0.000;    0.000
325.494;  593.350;    0.000;    0.000
325.553;  586.350;    0.000;    0.000
325.613;  633.350;    0.000;    0.000
325.673;  574.350;    0.000;    0.000
325.732;  565.350;    0.000;    0.000
325.792;  598.350;    0.000;    0.000
325.852;  596.350;    0.000;    0.000
325.911;  562.350;    0.000;    0.000
325.971;  640.350;    0.000;    0.000
326.031;  610.350;    0.000;    0.000
326.090;  664.350;    0.000;    0.000
326.150;  727.350;    0.000;    0.000
326.209;  688.350;    0.000;    0.000
326.269;  617.350;    0.000;    0.000
326.328;  608.350;    0.000;    0.000
326.388;  591.350;    0.000;    0.000
326.448;  631.350;    0.000;    0.000
326.507;  605.350;    0.000;    0.000
326.567;  594.350;    0.000;    0.000
326.626;  661.350;    0.000;    0.000
326.686;  531.350;    0.000;    0.000
326.745;  551.350;    0.000;    0.000
326.805;  552.350;    0.000;    0.000
326.864;  574.350;    0.000;    0.000
326.924;  624.350;    0.000;    0.000
326.983;  549.350;    0.000;    0.000
327.043;  577.350;    0.000;    0.000
327.102;  613.350;    0.000;    0.000
327.161;  640.350;    0.000;    0.000
327.221;  649.350;    0.000;    0.000
327.280;  632.350;    0.000;    0.000
327.340;  584.350;    0.000;    0.000
327.399;  564.350;    0.000;    0.000
327.459;  561.350;    0.000;    0.000
327.518;  576.350;    0.000;    0.000
327.577;  563.350;    0.000;    0.000
327.637;  553.350;    0.000;    0.000
327.696;  573.350;    0.000;    0.000
327.755;  624.350;    0.000;    0.000
327.815;  659.350;    0.000;    0.000
327.874;  659.350;    0.000;    0.000
327.933;  644.350;    0.000;    0.000
327.993;  580.350;    0.000;    0.000
328.052;  619.350;    0.000;    0.000
328.111;  579.350;    0.000;    0.000
328.171;  619.350;    0.000;    0.000
328.230;  585.350;    0.000;    0.000
328.289;  575.350;    0.000;    0.000
328.349;  593.350;    0.000;    0.000
328.408;  607.350;    0.000;    0.000
328.467;  563.350;    0.000;    0.000
328.526;  610.350;    0.000;    0.000
328.586;  579.350;    0.000;    0.000
328.645;  626.350;    0.000;    0.000
328.704;  667.350;    0.000;    0.000
328.763;  619.350;    0.000;    0.000
328.822;  622.350;    0.000;    0.000
328.882;  569.350;    0.000;    0.000
328.941;  598.350;    0.000;    0.000
329.000;  575.350;    0.000;    0.000
329.059;  573.350;    0.000;    0.000
329.118;  564.350;    0.000;    0.000
329.177;  588.350;    0.000;    0.000
329.237;  646.350;    0.000;    0.000
329.296;  605.350;    0.000;    0.000
329.355;  598.350;    0.000;    0.000
329.414;  573.350;    0.000;    0.000
329.473;  565.350;    0.000;    0.000
329.532;  572.350;    0.000;    0.000
329.591;  526.350;    0.000;    0.000
329.650;  600.350;    0.000;    0.000
329.709;  572.350;    0.000;    0.000
329.768;  574.350;    0.000;    0.000
329.827;  613.350;    0.000;    0.000
329.886;  606.350;    0.000;    0.000
329.945;  595.350;    0.000;    0.000
330.004;  595.350;    0.000;    0.000
330.063;  562.350;    0.000;    0.000
330.122;  586.350;    0.000;    0.000
330.181;  580.350;    0.000;    0.000
330.240;  523.350;    0.000;    0.000
330.299;  611.350;    0.000;    0.000
330.358;  546.350;    0.000;    0.000
330.417;  556.350;    0.000;    0.000
330.476;  569.350;    0.000;    0.000
330.535;  625.350;    0.000;    0.000
330.594;  623.350;    0.000;    0.000
330.653;  600.350;    0.000;    0.000
330.712;  605.350;    0.000;    0.000
330.771;  546.350;    0.000;    0.000
330.830;  572.350;    0.000;    0.000
330.889;  565.350;    0.000;    0.000
330.948;  555.350;    0.000;    0.000
331.006;  534.350;    0.000;    0.000
331.065;  538.350;    0.000;    0.000
331.124;  551.350;    0.000;    0.000
331.183;  524.350;    0.000;    0.000
331.242;  555.350;    0.000;    0.000
331.301;  556.350;    0.000;    0.000
331.359;  578.350;    0.000;    0.000
331.418;  583.350;    0.000;    0.000
331.477;  621.350;    0.000;    0.000
331.536;  555.350;    0.000;    0.000
331.595;  539.350;    0.000;    0.000
331.653;  540.350;    0.000;    0.000
331.712;  521.350;    0.000;    0.000
331.771;  552.350;    0.000;    0.000
331.830;  573.350;    0.000;    0.000
331.888;  569.350;    0.000;    0.000
331.947;  535.350;    0.000;    0.000
332.006;  570.350;    0.000;    0.000
332.065;  599.350;    0.000;    0.000
332.123;  578.350;    0.000;    0.000
332.182;  566.350;    0.000;    0.000
332.241;  679.350;    0.000;    0.000
332.299;  624.350;    0.000;    0.000
332.358;  641.350;    0.000;    0.000
332.417;  586.350;    0.000;    0.000
332.475;  584.350;    0.000;    0.000
332.534;  607.350;    0.000;    0.000
332.592;  577.350;    0.000;    0.000
332.651;  604.350;    0.000;    0.000
332.710;  586.350;    0.000;    0.000
332.768;  579.350;    0.000;    0.000
332.827;  571.350;    0.000;    0.000
332.885;  634.350;    0.000;    0.000
332.944;  671.350;    0.000;    0.000
333.003;  668.350;    0.000;    0.000
333.061;  661.350;    0.000;    0.000
333.120;  687.350;    0.000;    0.000
333.178;  766.350;    0.000;    0.000
333.237;  757.350;    0.000;    0.000
333.295;  729.350;    0.000;    0.000
333.354;  648.350;    0.000;    0.000
333.412;  663.350;    0.000;    0.000
333.471;  694.350;    0.000;    0.000
333.529;  738.350;    0.000;    0.000
333.588;  796.350;    0.000;    0.000
333.646;  833.350;    0.000;    0.000
333.705;  843.350;    0.000;    0.000
333.763;  806.350;    0.000;    0.000
333.822;  676.350;    0.000;    0.000
333.880;  689.350;    0.000;    0.000
333.938;  706.350;    0.000;    0.000
333.997;  723.350;    0.000;    0.000
334.055;  732.350;    0.000;    0.000
334.114;  797.350;    0.000;    0.000
334.172;  810.350;    0.000;    0.000
334.230;  742.350;    0.000;    0.000
334.289;  693.350;    0.000;    0.000
334.347;  645.350;    0.000;    0.000
334.405;  634.350;    0.000;    0.000
334.464;  616.350;    0.000;    0.000
334.522;  638.350;    0.000;    0.000
334.580;  576.350;    0.000;    0.000
334.639;  644.350;    0.000;    0.000
334.697;  648.350;    0.000;    0.000
334.755;  677.350;    0.000;    0.000
334.814;  900.350;    0.000;    0.000
334.872; 1161.350;    0.000;    0.000
334.930; 1177.350;    0.000;    0.000
334.988;  899.350;    0.000;    0.000
335.047;  724.350;    0.000;    0.000
335.105;  651.350;    0.000;    0.000
335.163;  636.350;    0.000;    0.000
335.221;  626.350;    0.000;    0.000
335.280;  613.350;    0.000;    0.000
335.338;  627.350;    0.000;    0.000
335.396;  593.350;    0.000;    0.000
335.454;  651.350;    0.000;    0.000
335.512;  624.350;    0.000;    0.000
335.570;  618.350;    0.000;    0.000
335.629;  645.350;    0.000;    0.000
335.687;  646.350;    0.000;    0.000
335.745;  627.350;    0.000;    0.000
335.803;  593.350;    0.000;    0.000
335.861;  668.350;    0.000;    0.000
335.919;  626.350;    0.000;    0.000
335.977;  712.350;    0.000;    0.000
336.035;  819.350;    0.000;    0.000
336.094; 1018.350;    0.000;    0.000
336.152;  859.350;    0.000;    0.000
336.210;  734.350;    0.000;    0.000
336.268;  657.350;    0.000;    0.000
336.326;  631.350;    0.000;    0.000
336.384;  636.350;    0.000;    0.000
336.442;  589.350;    0.000;    0.000
336.500;  592.350;    0.000;    0.000
336.558;  600.350;    0.000;    0.000
336.616;  613.350;    0.000;    0.000
336.674;  589.350;    0.000;    0.000
336.732;  604.350;    0.000;    0.000
336.790;  569.350;    0.000;    0.000
336.848;  605.350;    0.000;    0.000
336.906;  632.350;    0.000;    0.000
336.964;  624.350;    0.000;    0.000
337.022;  687.350;    0.000;    0.000
337.080;  710.350;    0.000;    0.000
337.138;  720.350;    0.000;    0.000
337.195;  783.350;    0.000;    0.000
337.253;  887.350;    0.000;    0.000
337.311;  805.350;    0.000;    0.000
337.369;  614.350;    0.000;    0.000
337.427;  585.350;    0.000;    0.000
337.485;  615.350;    0.000;    0.000
337.543;  609.350;    0.000;    0.000
337.601;  630.350;    0.000;    0.000
337.658;  584.350;    0.000;    0.000
337.716;  606.350;    0.000;    0.000
337.774;  617.350;    0.000;    0.000
337.832;  618.350;    0.000;    0.000
337.890;  562.350;    0.000;    0.000
337.947;  639.350;    0.000;    0.000
338.005;  678.350;    0.000;    0.000
338.063;  642.350;    0.000;    0.000
338.121;  642.350;    0.000;    0.000
338.178;  578.350;    0.000;    0.000
338.236;  683.350;    0.000;    0.000
338.294;  760.350;    0.000;    0.000
338.352;  840.350;    0.000;    0.000
338.409;  742.350;    0.000;    0.000
338.467;  574.350;    0.000;    0.000
338.525;  619.350;    0.000;    0.000
338.583;  607.350;    0.000;    0.000
338.640;  607.350;    0.000;    0.000
338.698;  556.350;    0.000;    0.000
338.756;  592.350;    0.000;    0.000
338.813;  669.350;    0.000;    0.000
338.871;  621.350;    0.000;    0.000
338.928;  557.350;    0.000;    0.000
338.986;  593.350;    0.000;    0.000
339.044;  613.350;    0.000;    0.000
339.101;  568.350;    0.000;    0.000
339.159;  614.350;    0.000;    0.000
339.216;  600.350;    0.000;    0.000
339.274;  698.350;    0.000;    0.000
339.332;  662.350;    0.000;    0.000
339.389;  635.350;    0.000;    0.000
339.447;  638.350;    0.000;    0.000
339.504;  635.350;    0.000;    0.000
339.562;  572.350;    0.000;    0.000
339.619;  576.350;    0.000;    0.000
339.677;  631.350;    0.000;    0.000
339.734;  580.350;    0.000;    0.000
339.792;  645.350;    0.000;    0.000
339.849;  591.350;    0.000;    0.000
339.907;  627.350;    0.000;    0.000
339.964;  585.350;    0.000;    0.000
340.022;  629.350;    0.000;    0.000
340.079;  612.350;    0.000;    0.000
340.137;  623.350;    0.000;    0.000
340.194;  647.350;    0.000;    0.000
340.252;  574.350;    0.000;    0.000
340.309;  542.350;    0.000;    0.000
340.366;  595.350;    0.000;    0.000
340.424;  597.350;    0.000;    0.000
340.481;  651.350;    0.000;    0.000
340.538;  608.350;    0.000;    0.000
340.596;  570.350;    0.000;    0.000
340.653;  649.350;    0.000;    0.000
340.711;  650.350;    0.000;    0.000
340.768;  687.350;    0.000;    0.000
340.825;  613.350;    0.000;    0.000
340.883;  640.350;    0.000;    0.000
340.940;  654.350;    0.000;    0.000
340.997;  594.350;    0.000;    0.000
341.054;  615.350;    0.000;    0.000
341.112;  614.350;    0.000;    0.000
341.169;  621.350;    0.000;    0.000
341.226;  610.350;    0.000;    0.000
341.284;  636.350;    0.000;    0.000
341.341;  621.350;    0.000;    0.000
341.398;  620.350;    0.000;    0.000
341.455;  720.350;    0.000;    0.000
341.512;  700.350;    0.000;    0.000
341.570;  651.350;    0.000;    0.000
341.627;  582.350;    0.000;    0.000
341.684;  549.350;    0.000;    0.000
341.741;  687.350;    0.000;    0.000
341.798;  613.350;    0.000;    0.000
341.856;  609.350;    0.000;    0.000
341.913;  624.350;    0.000;    0.000
341.970;  604.350;    0.000;    0.000
342.027;  583.350;    0.000;    0.000
342.084;  646.350;    0.000;    0.000
342.141;  596.350;    0.000;    0.000
342.198;  631.350;    0.000;    0.000
342.255;  561.350;    0.000;    0.000
342.313;  597.350;    0.000;    0.000
342.370;  622.350;    0.000;    0.000
342.427;  609.350;    0.000;    0.000
342.484;  607.350;    0.000;    0.000
342.541;  616.350;    0.000;    0.000
342.598;  650.350;    0.000;    0.000
342.655;  628.350;    0.000;    0.000
342.712;  654.350;    0.000;    0.000
342.769;  635.350;    0.000;    0.000
342.826;  657.350;    0.000;    0.000
342.883;  580.350;    0.000;    0.000
342.940;  567.350;    0.000;    0.000
342.997;  586.350;    0.000;    0.000
343.054;  597.350;    0.000;    0.000
343.111;  578.350;    0.000;    0.000
343.168;  593.350;    0.000;    0.000
343.225;  615.350;    0.000;    0.000
343.282;  656.350;    0.000;    0.000
343.339;  660.350;    0.000;    0.000
343.395;  650.350;    0.000;    0.000
343.452;  610.350;    0.000;    0.000
343.509;  617.350;    0.000;    0.000
343.566;  627.350;    0.000;    0.000
343.623;  603.350;    0.000;    0.000
343.680;  610.350;    0.000;    0.000
343.737;  652.350;    0.000;    0.000
343.794;  652.350;    0.000;    0.000
343.850;  605.350;    0.000;    0.000
343.907;  645.350;    0.000;    0.000
343.964;  736.350;    0.000;    0.000
344.021;  967.350;    0.000;    0.000
344.078; 1015.350;    0.000;    0.000
344.134;  832.350;    0.000;    0.000
344.191;  670.350;    0.000;    0.000
344.248;  685.350;    0.000;    0.000
344.305;  635.350;    0.000;    0.000
344.361;  739.350;    0.000;    0.000
344.418;  737.350;    0.000;    0.000
344.475;  700.350;    0.000;    0.000
344.532;  660.350;    0.000;    0.000
344.588;  691.350;    0.000;    0.000
344.645;  671.350;    0.000;    0.000
344.702;  640.350;    0.000;    0.000
344.758;  667.350;    0.000;    0.000
344.815;  663.350;    0.000;    0.000
344.872;  635.350;    0.000;    0.000
344.928;  609.350;    0.000;    0.000
344.985;  629.350;    0.000;    0.000
345.042;  613.350;    0.000;    0.000
345.098;  641.350;    0.000;    0.000
345.155;  647.350;    0.000;    0.000
345.212;  662.350;    0.000;    0.000
345.268;  656.350;    0.000;    0.000
345.325;  672.350;    0.000;    0.000
345.381;  646.350;    0.000;    0.000
345.438;  627.350;    0.000;    0.000
345.495;  664.350;    0.000;    0.000
345.551;  641.350;    0.000;    0.000
345.608;  635.350;    0.000;    0.000
345.664;  662.350;    0.000;    0.000
345.721;  673.350;    0.000;    0.000
345.777;  685.350;    0.000;    0.000
345.834;  644.350;    0.000;    0.000
345.890;  689.350;    0.000;    0.000
345.947;  622.350;    0.000;    0.000
346.003;  662.350;    0.000;    0.000
346.060;  618.350;    0.000;    0.000
346.116;  689.350;    0.000;    0.000
346.173;  736.350;    0.000;    0.000
346.229;  656.350;    0.000;    0.000
346.285;  680.350;    0.000;    0.000
346.342;  650.350;    0.000;    0.000
346.398;  584.350;    0.000;    0.000
346.455;  685.350;    0.000;    0.000
346.511;  703.350;    0.000;    0.000
346.567;  725.350;    0.000;    0.000
346.624;  694.350;    0.000;    0.000
346.680;  653.350;    0.000;    0.000
346.737;  658.350;    0.000;    0.000
346.793;  645.350;    0.000;    0.000
346.849;  662.350;    0.000;    0.000
346.906;  700.350;    0.000;    0.000
346.962;  694.350;    0.000;    0.000
347.018;  624.350;    0.000;    0.000
347.074;  672.350;    0.000;    0.000
347.131;  646.350;    0.000;    0.000
347.187;  657.350;    0.000;    0.000
347.243;  700.350;    0.000;    0.000
347.300;  665.350;    0.000;    0.000
347.356;  697.350;    0.000;    0.000
347.412;  680.350;    0.000;    0.000
347.468;  752.350;    0.000;    0.000
347.524;  775.350;    0.000;    0.000
347.581;  784.350;    0.000;    0.000
347.637;  774.350;    0.000;    0.000
347.693;  735.350;    0.000;    0.000
347.749;  675.350;    0.000;    0.000
347.805;  623.350;    0.000;    0.000
347.862;  641.350;    0.000;    0.000
347.918;  676.350;    0.000;    0.000
347.974;  681.350;    0.000;    0.000
348.030;  653.350;    0.000;    0.000
348.086;  633.350;    0.000;    0.000
348.142;  656.350;    0.000;    0.000
348.198;  645.350;    0.000;    0.000
348.254;  664.350;    0.000;    0.000
348.311;  654.350;    0.000;    0.000
348.367;  618.350;    0.000;    0.000
348.423;  655.350;    0.000;    0.000
348.479;  618.350;    0.000;    0.000
348.535;  689.350;    0.000;    0.000
348.591;  678.350;    0.000;    0.000
348.647;  706.350;    0.000;    0.000
348.703;  691.350;    0.000;    0.000
348.759;  620.350;    0.000;    0.000
348.815;  690.350;    0.000;    0.000
348.871;  696.350;    0.000;    0.000
348.927;  642.350;    0.000;    0.000
348.983;  761.350;    0.000;    0.000
349.039;  767.350;    0.000;    0.000
349.095;  784.350;    0.000;    0.000
349.151;  621.350;    0.000;    0.000
349.207;  668.350;    0.000;    0.000
349.263;  742.350;    0.000;    0.000
349.319;  707.350;    0.000;    0.000
349.374;  675.350;    0.000;    0.000
349.430;  682.350;    0.000;    0.000
349.486;  667.350;    0.000;    0.000
349.542;  728.350;    0.000;    0.000
349.598;  637.350;    0.000;    0.000
349.654;  709.350;    0.000;    0.000
349.710;  706.350;    0.000;    0.000
349.766;  709.350;    0.000;    0.000
349.821;  687.350;    0.000;    0.000
349.877;  662.350;    0.000;    0.000
349.933;  688.350;    0.000;    0.000
349.989;  696.350;    0.000;    0.000
350.045;  666.350;    0.000;    0.000
350.100;  697.350;    0.000;    0.000
350.156;  712.350;    0.000;    0.000
350.212;  649.350;    0.000;    0.000
350.268;  693.350;    0.000;    0.000
350.323;  668.350;    0.000;    0.000
350.379;  690.350;    0.000;    0.000
350.435;  749.350;    0.000;    0.000
350.491;  712.350;    0.000;    0.000
350.546;  700.350;    0.000;    0.000
350.602;  637.350;    0.000;    0.000
350.658;  686.350;    0.000;    0.000
350.713;  614.350;    0.000;    0.000
350.769;  653.350;    0.000;    0.000
350.825;  625.350;    0.000;    0.000
350.880;  676.350;    0.000;    0.000
350.936;  792.350;    0.000;    0.000
350.992;  666.350;    0.000;    0.000
351.047;  804.350;    0.000;    0.000
351.103;  722.350;    0.000;    0.000
351.158;  715.350;    0.000;    0.000
351.214;  633.350;    0.000;    0.000
351.270;  622.350;    0.000;    0.000
351.325;  703.350;    0.000;    0.000
351.381;  698.350;    0.000;    0.000
351.436;  765.350;    0.000;    0.000
351.492;  798.350;    0.000;    0.000
351.547;  758.350;    0.000;    0.000
351.603;  665.350;    0.000;    0.000
351.658;  690.350;    0.000;    0.000
351.714;  678.350;    0.000;    0.000
351.769;  668.350;    0.000;    0.000
351.825;  670.350;    0.000;    0.000
351.880;  664.350;    0.000;    0.000
351.936;  692.350;    0.000;    0.000
351.991;  718.350;    0.000;    0.000
352.047;  745.350;    0.000;    0.000
352.102;  704.350;    0.000;    0.000
352.158;  735.350;    0.000;    0.000
352.213;  629.350;    0.000;    0.000
352.268;  674.350;    0.000;    0.000
352.324;  660.350;    0.000;    0.000
352.379;  879.350;    0.000;    0.000
352.434;  835.350;    0.000;    0.000
352.490;  786.350;    0.000;    0.000
352.545;  778.350;    0.000;    0.000
352.601;  829.350;    0.000;    0.000
352.656;  753.350;    0.000;    0.000
352.711;  683.350;    0.000;    0.000
352.767;  654.350;    0.000;    0.000
352.822;  670.350;    0.000;    0.000
352.877;  670.350;    0.000;    0.000
352.932;  714.350;    0.000;    0.000
352.988;  655.350;    0.000;    0.000
353.043;  726.350;    0.000;    0.000
353.098;  648.350;    0.000;    0.000
353.153;  714.350;    0.000;    0.000
353.209;  666.350;    0.000;    0.000
353.264;  643.350;    0.000;    0.000
353.319;  714.350;    0.000;    0.000
353.374;  683.350;    0.000;    0.000
353.430;  718.350;    0.000;    0.000
353.485;  708.350;    0.000;    0.000
353.540;  741.350;    0.000;    0.000
353.595;  704.350;    0.000;    0.000
353.650;  695.350;    0.000;    0.000
353.705;  740.350;    0.000;    0.000
353.761;  711.350;    0.000;    0.000
353.816;  676.350;    0.000;    0.000
353.871;  753.350;    0.000;    0.000
353.926;  659.350;    0.000;    0.000
353.981;  737.350;    0.000;    0.000
354.036;  769.350;    0.000;    0.000
354.091;  759.350;    0.000;    0.000
354.146;  742.350;    0.000;    0.000
354.201;  707.350;    0.000;    0.000
354.256;  722.350;    0.000;    0.000
354.311;  720.350;    0.000;    0.000
354.367;  711.350;    0.000;    0.000
354.422;  746.350;    0.000;    0.000
354.477;  677.350;    0.000;    0.000
354.532;  678.350;    0.000;    0.000
354.587;  699.350;    0.000;    0.000
354.642;  731.350;    0.000;    0.000
354.697;  724.350;    0.000;    0.000
354.751;  732.350;    0.000;    0.000
354.806;  700.350;    0.000;    0.000
354.861;  737.350;    0.000;    0.000
354.916;  695.350;    0.000;    0.000
354.971;  717.350;    0.000;    0.000
355.026;  701.350;    0.000;    0.000
355.081;  691.350;    0.000;    0.000
355.136;  690.350;    0.000;    0.000
355.191;  679.350;    0.000;    0.000
355.246;  758.350;    0.000;    0.000
355.301;  750.350;    0.000;    0.000
355.355;  789.350;    0.000;    0.000
355.410;  780.350;    0.000;    0.000
355.465;  823.350;    0.000;    0.000
355.520;  804.350;    0.000;    0.000
355.575;  758.350;    0.000;    0.000
355.630;  790.350;    0.000;    0.000
355.684;  691.350;    0.000;    0.000
355.739;  739.350;    0.000;    0.000
355.794;  835.350;    0.000;    0.000
355.849;  840.350;    0.000;    0.000
355.904;  792.350;    0.000;    0.000
355.958;  713.350;    0.000;    0.000
356.013;  717.350;    0.000;    0.000
356.068;  699.350;    0.000;    0.000
356.123;  705.350;    0.000;    0.000
356.177;  659.350;    0.000;    0.000
356.232;  718.350;    0.000;    0.000
356.287;  726.350;    0.000;    0.000
356.341;  693.350;    0.000;    0.000
356.396;  692.350;    0.000;    0.000
356.451;  891.350;    0.000;    0.000
356.505; 1158.350;    0.000;    0.000
356.560; 1156.350;    0.000;    0.000
356.615;  876.350;    0.000;    0.000
356.669;  819.350;    0.000;    0.000
356.724;  819.350;    0.000;    0.000
356.778;  784.350;    0.000;    0.000
356.833;  827.350;    0.000;    0.000
356.888;  905.350;    0.000;    0.000
356.942; 1427.350;    0.000;    0.000
356.997; 1687.350;    0.000;    0.000
357.051; 1313.350;    0.000;    0.000
357.106;  917.350;    0.000;    0.000
357.160;  772.350;    0.000;    0.000
357.215;  723.350;    0.000;    0.000
357.269;  753.350;    0.000;    0.000
357.324;  766.350;    0.000;    0.000
357.378;  736.350;    0.000;    0.000
357.433;  783.350;    0.000;    0.000
357.487;  777.350;    0.000;    0.000
357.542;  788.350;    0.000;    0.000
357.596;  720.350;    0.000;    0.000
357.651;  747.350;    0.000;    0.000
357.705;  721.350;    0.000;    0.000
357.760;  738.350;    0.000;    0.000
357.814;  773.350;    0.000;    0.000
357.868;  783.350;    0.000;    0.000
357.923;  841.350;    0.000;    0.000
357.977;  834.350;    0.000;    0.000
358.032; 1214.350;    0.000;    0.000
358.086; 1980.350;    0.000;    0.000
358.140; 1849.350;    0.000;    0.000
358.195; 1170.350;    0.000;    0.000
358.249;  938.350;    0.000;    0.000
358.303;  872.350;    0.000;    0.000
358.358;  781.350;    0.000;    0.000
358.412;  848.350;    0.000;    0.000
358.466;  990.350;    0.000;    0.000
358.521;  980.350;    0.000;    0.000
358.575;  997.350;    0.000;    0.000
358.629;  912.350;    0.000;    0.000
358.683;  921.350;    0.000;    0.000
358.738;  878.350;    0.000;    0.000
358.792;  773.350;    0.000;    0.000
358.846;  744.350;    0.000;    0.000
358.900;  807.350;    0.000;    0.000
358.954;  752.350;    0.000;    0.000
359.009;  744.350;    0.000;    0.000
359.063;  704.350;    0.000;    0.000
359.117;  725.350;    0.000;    0.000
359.171;  701.350;    0.000;    0.000
359.225;  759.350;    0.000;    0.000
359.280;  759.350;    0.000;    0.000
359.334;  765.350;    0.000;    0.000
359.388;  774.350;    0.000;    0.000
359.442;  712.350;    0.000;    0.000
359.496;  699.350;    0.000;    0.000
359.550;  765.350;    0.000;    0.000
359.604;  772.350;    0.000;    0.000
359.658;  728.350;    0.000;    0.000
359.712;  727.350;    0.000;    0.000
359.766;  723.350;    0.000;    0.000
359.820;  688.350;    0.000;    0.000
359.875;  743.350;    0.000;    0.000
359.929;  729.350;    0.000;    0.000
359.983;  703.350;    0.000;    0.000
360.037;  683.350;    0.000;    0.000
360.091;  723.350;    0.000;    0.000
360.145;  703.350;    0.000;    0.000
360.199;  774.350;    0.000;    0.000
360.253;  733.350;    0.000;    0.000
360.306;  747.350;    0.000;    0.000
360.360;  803.350;    0.000;    0.000
360.414;  777.350;    0.000;    0.000
360.468;  808.350;    0.000;    0.000
360.522;  790.350;    0.000;    0.000
360.576;  855.350;    0.000;    0.000
360.630;  965.350;    0.000;    0.000
360.684;  904.350;    0.000;    0.000
360.738;  885.350;    0.000;    0.000
360.792;  950.350;    0.000;    0.000
360.846; 1229.350;    0.000;    0.000
360.899; 1196.350;    0.000;    0.000
360.953;  973.350;    0.000;    0.000
361.007;  850.350;    0.000;    0.000
361.061;  790.350;    0.000;    0.000
361.115;  720.350;    0.000;    0.000
361.168;  773.350;    0.000;    0.000
361.222;  766.350;    0.000;    0.000
361.276;  760.350;    0.000;    0.000
361.330;  782.350;    0.000;    0.000
361.384;  703.350;    0.000;    0.000
361.437;  752.350;    0.000;    0.000
361.491;  686.350;    0.000;    0.000
361.545;  759.350;    0.000;    0.000
361.599;  730.350;    0.000;    0.000
361.652;  729.350;    0.000;    0.000
361.706;  803.350;    0.000;    0.000
361.760;  864.350;    0.000;    0.000
361.813; 1211.350;    0.000;    0.000
361.867; 1408.350;    0.000;    0.000
361.921; 1176.350;    0.000;    0.000
361.974;  921.350;    0.000;    0.000
362.028;  783.350;    0.000;    0.000
362.082;  811.350;    0.000;    0.000
362.135;  809.350;    0.000;    0.000
362.189;  865.350;    0.000;    0.000
362.242;  792.350;    0.000;    0.000
362.296;  759.350;    0.000;    0.000
362.350;  721.350;    0.000;    0.000
362.403;  742.350;    0.000;    0.000
362.457;  670.350;    0.000;    0.000
362.510;  757.350;    0.000;    0.000
362.564;  735.350;    0.000;    0.000
362.617;  770.350;    0.000;    0.000
362.671;  766.350;    0.000;    0.000
362.724;  738.350;    0.000;    0.000
362.778;  720.350;    0.000;    0.000
362.831;  761.350;    0.000;    0.000
362.885;  770.350;    0.000;    0.000
362.938;  704.350;    0.000;    0.000
362.992;  284.350;    0.000;    0.000
363.045;  265.350;    0.000;    0.000
363.099;  270.350;    0.000;    0.000
363.152;  296.350;    0.000;    0.000
363.205;  269.350;    0.000;    0.000
363.259;  301.350;    0.000;    0.000
363.312;  314.350;    0.000;    0.000
363.366;  288.350;    0.000;    0.000
363.419;  297.350;    0.000;    0.000
363.472;  304.350;    0.000;    0.000
363.526;  278.350;    0.000;    0.000
363.579;  300.350;    0.000;    0.000
363.632;  295.350;    0.000;    0.000
363.686;  286.350;    0.000;    0.000
363.739;  283.350;    0.000;    0.000
363.792;  302.350;    0.000;    0.000

