Olivino_Burst5-n5
Integration time [ms]:   1.000
Averaging Nr. [scans]: 1
Smoothing Nr. [pixels]: 0
Data measured with spectrometer [name]: UV2
Wave   ;Sample   ;Dark     ;Reference
[nm]   ;[counts] ;[counts] ;[counts] 

353.533;  201.925;    0.000;    0.000
353.597;  260.925;    0.000;    0.000
353.660;  204.925;    0.000;    0.000
353.723;  227.925;    0.000;    0.000
353.786;  194.925;    0.000;    0.000
353.850;  235.925;    0.000;    0.000
353.913;  211.925;    0.000;    0.000
353.976;  199.925;    0.000;    0.000
354.039;  190.925;    0.000;    0.000
354.102;  246.925;    0.000;    0.000
354.166;  238.925;    0.000;    0.000
354.229;  210.925;    0.000;    0.000
354.292;  194.925;    0.000;    0.000
354.355;  206.925;    0.000;    0.000
354.418;  188.925;    0.000;    0.000
354.481;  220.925;    0.000;    0.000
354.545;  286.925;    0.000;    0.000
354.608;  268.925;    0.000;    0.000
354.671;  254.925;    0.000;    0.000
354.734;  275.925;    0.000;    0.000
354.797;  241.925;    0.000;    0.000
354.860;  256.925;    0.000;    0.000
354.923;  247.925;    0.000;    0.000
354.986;  244.925;    0.000;    0.000
355.050;  266.925;    0.000;    0.000
355.113;  275.925;    0.000;    0.000
355.176;  299.925;    0.000;    0.000
355.239;  294.925;    0.000;    0.000
355.302;  293.925;    0.000;    0.000
355.365;  284.925;    0.000;    0.000
355.428;  276.925;    0.000;    0.000
355.491;  308.925;    0.000;    0.000
355.554;  240.925;    0.000;    0.000
355.617;  313.925;    0.000;    0.000
355.680;  245.925;    0.000;    0.000
355.743;  257.925;    0.000;    0.000
355.806;  271.925;    0.000;    0.000
355.869;  299.925;    0.000;    0.000
355.932;  273.925;    0.000;    0.000
355.995;  325.925;    0.000;    0.000
356.058;  247.925;    0.000;    0.000
356.121;  276.925;    0.000;    0.000
356.184;  272.925;    0.000;    0.000
356.247;  275.925;    0.000;    0.000
356.310;  245.925;    0.000;    0.000
356.373;  296.925;    0.000;    0.000
356.436;  279.925;    0.000;    0.000
356.498;  285.925;    0.000;    0.000
356.561;  322.925;    0.000;    0.000
356.624;  273.925;    0.000;    0.000
356.687;  275.925;    0.000;    0.000
356.750;  294.925;    0.000;    0.000
356.813;  279.925;    0.000;    0.000
356.876;  280.925;    0.000;    0.000
356.939;  321.925;    0.000;    0.000
357.001;  368.925;    0.000;    0.000
357.064;  332.925;    0.000;    0.000
357.127;  336.925;    0.000;    0.000
357.190;  319.925;    0.000;    0.000
357.253;  315.925;    0.000;    0.000
357.316;  273.925;    0.000;    0.000
357.378;  291.925;    0.000;    0.000
357.441;  257.925;    0.000;    0.000
357.504;  264.925;    0.000;    0.000
357.567;  220.925;    0.000;    0.000
357.629;  257.925;    0.000;    0.000
357.692;  248.925;    0.000;    0.000
357.755;  277.925;    0.000;    0.000
357.818;  257.925;    0.000;    0.000
357.880;  297.925;    0.000;    0.000
357.943;  279.925;    0.000;    0.000
358.006;  295.925;    0.000;    0.000
358.069;  355.925;    0.000;    0.000
358.131;  385.925;    0.000;    0.000
358.194;  283.925;    0.000;    0.000
358.257;  278.925;    0.000;    0.000
358.319;  246.925;    0.000;    0.000
358.382;  338.925;    0.000;    0.000
358.445;  285.925;    0.000;    0.000
358.507;  308.925;    0.000;    0.000
358.570;  282.925;    0.000;    0.000
358.633;  274.925;    0.000;    0.000
358.695;  280.925;    0.000;    0.000
358.758;  269.925;    0.000;    0.000
358.821;  283.925;    0.000;    0.000
358.883;  248.925;    0.000;    0.000
358.946;  246.925;    0.000;    0.000
359.008;  281.925;    0.000;    0.000
359.071;  257.925;    0.000;    0.000
359.134;  240.925;    0.000;    0.000
359.196;  265.925;    0.000;    0.000
359.259;  232.925;    0.000;    0.000
359.321;  267.925;    0.000;    0.000
359.384;  315.925;    0.000;    0.000
359.446;  279.925;    0.000;    0.000
359.509;  259.925;    0.000;    0.000
359.571;  265.925;    0.000;    0.000
359.634;  220.925;    0.000;    0.000
359.696;  250.925;    0.000;    0.000
359.759;  284.925;    0.000;    0.000
359.821;  298.925;    0.000;    0.000
359.884;  311.925;    0.000;    0.000
359.946;  293.925;    0.000;    0.000
360.009;  310.925;    0.000;    0.000
360.071;  293.925;    0.000;    0.000
360.134;  302.925;    0.000;    0.000
360.196;  284.925;    0.000;    0.000
360.259;  293.925;    0.000;    0.000
360.321;  262.925;    0.000;    0.000
360.384;  299.925;    0.000;    0.000
360.446;  260.925;    0.000;    0.000
360.508;  295.925;    0.000;    0.000
360.571;  285.925;    0.000;    0.000
360.633;  304.925;    0.000;    0.000
360.696;  262.925;    0.000;    0.000
360.758;  291.925;    0.000;    0.000
360.820;  310.925;    0.000;    0.000
360.883;  321.925;    0.000;    0.000
360.945;  355.925;    0.000;    0.000
361.007;  258.925;    0.000;    0.000
361.070;  284.925;    0.000;    0.000
361.132;  328.925;    0.000;    0.000
361.194;  319.925;    0.000;    0.000
361.257;  272.925;    0.000;    0.000
361.319;  300.925;    0.000;    0.000
361.381;  305.925;    0.000;    0.000
361.443;  307.925;    0.000;    0.000
361.506;  282.925;    0.000;    0.000
361.568;  227.925;    0.000;    0.000
361.630;  305.925;    0.000;    0.000
361.693;  341.925;    0.000;    0.000
361.755;  330.925;    0.000;    0.000
361.817;  372.925;    0.000;    0.000
361.879;  384.925;    0.000;    0.000
361.941;  343.925;    0.000;    0.000
362.004;  293.925;    0.000;    0.000
362.066;  316.925;    0.000;    0.000
362.128;  311.925;    0.000;    0.000
362.190;  339.925;    0.000;    0.000
362.252;  290.925;    0.000;    0.000
362.315;  281.925;    0.000;    0.000
362.377;  329.925;    0.000;    0.000
362.439;  292.925;    0.000;    0.000
362.501;  286.925;    0.000;    0.000
362.563;  284.925;    0.000;    0.000
362.625;  313.925;    0.000;    0.000
362.688;  289.925;    0.000;    0.000
362.750;  331.925;    0.000;    0.000
362.812;  270.925;    0.000;    0.000
362.874;  303.925;    0.000;    0.000
362.936;  311.925;    0.000;    0.000
362.998;  299.925;    0.000;    0.000
363.060;  334.925;    0.000;    0.000
363.122;  372.925;    0.000;    0.000
363.184;  352.925;    0.000;    0.000
363.246;  324.925;    0.000;    0.000
363.308;  296.925;    0.000;    0.000
363.370;  308.925;    0.000;    0.000
363.432;  289.925;    0.000;    0.000
363.494;  309.925;    0.000;    0.000
363.556;  335.925;    0.000;    0.000
363.618;  291.925;    0.000;    0.000
363.680;  315.925;    0.000;    0.000
363.742;  303.925;    0.000;    0.000
363.804;  331.925;    0.000;    0.000
363.866;  342.925;    0.000;    0.000
363.928;  268.925;    0.000;    0.000
363.990;  296.925;    0.000;    0.000
364.052;  282.925;    0.000;    0.000
364.114;  306.925;    0.000;    0.000
364.176;  366.925;    0.000;    0.000
364.238;  351.925;    0.000;    0.000
364.300;  373.925;    0.000;    0.000
364.362;  276.925;    0.000;    0.000
364.424;  284.925;    0.000;    0.000
364.486;  322.925;    0.000;    0.000
364.548;  270.925;    0.000;    0.000
364.609;  351.925;    0.000;    0.000
364.671;  325.925;    0.000;    0.000
364.733;  401.925;    0.000;    0.000
364.795;  372.925;    0.000;    0.000
364.857;  328.925;    0.000;    0.000
364.919;  310.925;    0.000;    0.000
364.981;  303.925;    0.000;    0.000
365.042;  331.925;    0.000;    0.000
365.104;  309.925;    0.000;    0.000
365.166;  313.925;    0.000;    0.000
365.228;  316.925;    0.000;    0.000
365.290;  286.925;    0.000;    0.000
365.351;  318.925;    0.000;    0.000
365.413;  317.925;    0.000;    0.000
365.475;  319.925;    0.000;    0.000
365.537;  271.925;    0.000;    0.000
365.598;  300.925;    0.000;    0.000
365.660;  270.925;    0.000;    0.000
365.722;  311.925;    0.000;    0.000
365.784;  246.925;    0.000;    0.000
365.845;  330.925;    0.000;    0.000
365.907;  287.925;    0.000;    0.000
365.969;  290.925;    0.000;    0.000
366.030;  302.925;    0.000;    0.000
366.092;  302.925;    0.000;    0.000
366.154;  326.925;    0.000;    0.000
366.215;  332.925;    0.000;    0.000
366.277;  282.925;    0.000;    0.000
366.339;  278.925;    0.000;    0.000
366.400;  294.925;    0.000;    0.000
366.462;  286.925;    0.000;    0.000
366.524;  291.925;    0.000;    0.000
366.585;  282.925;    0.000;    0.000
366.647;  326.925;    0.000;    0.000
366.708;  334.925;    0.000;    0.000
366.770;  340.925;    0.000;    0.000
366.832;  324.925;    0.000;    0.000
366.893;  320.925;    0.000;    0.000
366.955;  292.925;    0.000;    0.000
367.016;  336.925;    0.000;    0.000
367.078;  265.925;    0.000;    0.000
367.139;  299.925;    0.000;    0.000
367.201;  309.925;    0.000;    0.000
367.262;  281.925;    0.000;    0.000
367.324;  345.925;    0.000;    0.000
367.385;  309.925;    0.000;    0.000
367.447;  324.925;    0.000;    0.000
367.508;  301.925;    0.000;    0.000
367.570;  287.925;    0.000;    0.000
367.631;  297.925;    0.000;    0.000
367.693;  361.925;    0.000;    0.000
367.754;  311.925;    0.000;    0.000
367.816;  325.925;    0.000;    0.000
367.877;  348.925;    0.000;    0.000
367.939;  381.925;    0.000;    0.000
368.000;  313.925;    0.000;    0.000
368.062;  308.925;    0.000;    0.000
368.123;  315.925;    0.000;    0.000
368.184;  327.925;    0.000;    0.000
368.246;  331.925;    0.000;    0.000
368.307;  361.925;    0.000;    0.000
368.369;  337.925;    0.000;    0.000
368.430;  372.925;    0.000;    0.000
368.491;  346.925;    0.000;    0.000
368.553;  424.925;    0.000;    0.000
368.614;  313.925;    0.000;    0.000
368.675;  355.925;    0.000;    0.000
368.737;  365.925;    0.000;    0.000
368.798;  296.925;    0.000;    0.000
368.859;  325.925;    0.000;    0.000
368.921;  311.925;    0.000;    0.000
368.982;  344.925;    0.000;    0.000
369.043;  309.925;    0.000;    0.000
369.104;  305.925;    0.000;    0.000
369.166;  377.925;    0.000;    0.000
369.227;  348.925;    0.000;    0.000
369.288;  327.925;    0.000;    0.000
369.349;  357.925;    0.000;    0.000
369.411;  361.925;    0.000;    0.000
369.472;  359.925;    0.000;    0.000
369.533;  299.925;    0.000;    0.000
369.594;  374.925;    0.000;    0.000
369.656;  303.925;    0.000;    0.000
369.717;  275.925;    0.000;    0.000
369.778;  306.925;    0.000;    0.000
369.839;  398.925;    0.000;    0.000
369.900;  392.925;    0.000;    0.000
369.961;  320.925;    0.000;    0.000
370.023;  364.925;    0.000;    0.000
370.084;  352.925;    0.000;    0.000
370.145;  352.925;    0.000;    0.000
370.206;  367.925;    0.000;    0.000
370.267;  363.925;    0.000;    0.000
370.328;  345.925;    0.000;    0.000
370.389;  377.925;    0.000;    0.000
370.451;  379.925;    0.000;    0.000
370.512;  412.925;    0.000;    0.000
370.573;  416.925;    0.000;    0.000
370.634;  383.925;    0.000;    0.000
370.695;  353.925;    0.000;    0.000
370.756;  356.925;    0.000;    0.000
370.817;  413.925;    0.000;    0.000
370.878;  391.925;    0.000;    0.000
370.939;  382.925;    0.000;    0.000
371.000;  401.925;    0.000;    0.000
371.061;  373.925;    0.000;    0.000
371.122;  361.925;    0.000;    0.000
371.183;  300.925;    0.000;    0.000
371.244;  366.925;    0.000;    0.000
371.305;  335.925;    0.000;    0.000
371.366;  347.925;    0.000;    0.000
371.427;  373.925;    0.000;    0.000
371.488;  361.925;    0.000;    0.000
371.549;  330.925;    0.000;    0.000
371.610;  386.925;    0.000;    0.000
371.671;  332.925;    0.000;    0.000
371.732;  351.925;    0.000;    0.000
371.793;  377.925;    0.000;    0.000
371.853;  396.925;    0.000;    0.000
371.914;  452.925;    0.000;    0.000
371.975;  441.925;    0.000;    0.000
372.036;  460.925;    0.000;    0.000
372.097;  397.925;    0.000;    0.000
372.158;  359.925;    0.000;    0.000
372.219;  419.925;    0.000;    0.000
372.280;  379.925;    0.000;    0.000
372.340;  385.925;    0.000;    0.000
372.401;  379.925;    0.000;    0.000
372.462;  378.925;    0.000;    0.000
372.523;  324.925;    0.000;    0.000
372.584;  382.925;    0.000;    0.000
372.645;  367.925;    0.000;    0.000
372.705;  426.925;    0.000;    0.000
372.766;  418.925;    0.000;    0.000
372.827;  415.925;    0.000;    0.000
372.888;  380.925;    0.000;    0.000
372.948;  390.925;    0.000;    0.000
373.009;  460.925;    0.000;    0.000
373.070;  368.925;    0.000;    0.000
373.131;  386.925;    0.000;    0.000
373.191;  473.925;    0.000;    0.000
373.252;  434.925;    0.000;    0.000
373.313;  441.925;    0.000;    0.000
373.373;  449.925;    0.000;    0.000
373.434;  604.925;    0.000;    0.000
373.495;  611.925;    0.000;    0.000
373.555;  522.925;    0.000;    0.000
373.616;  463.925;    0.000;    0.000
373.677;  511.925;    0.000;    0.000
373.737;  497.925;    0.000;    0.000
373.798;  460.925;    0.000;    0.000
373.859;  448.925;    0.000;    0.000
373.919;  416.925;    0.000;    0.000
373.980;  392.925;    0.000;    0.000
374.041;  399.925;    0.000;    0.000
374.101;  477.925;    0.000;    0.000
374.162;  461.925;    0.000;    0.000
374.222;  423.925;    0.000;    0.000
374.283;  469.925;    0.000;    0.000
374.343;  530.925;    0.000;    0.000
374.404;  425.925;    0.000;    0.000
374.465;  505.925;    0.000;    0.000
374.525;  544.925;    0.000;    0.000
374.586;  535.925;    0.000;    0.000
374.646;  486.925;    0.000;    0.000
374.707;  477.925;    0.000;    0.000
374.767;  507.925;    0.000;    0.000
374.828;  495.925;    0.000;    0.000
374.888;  610.925;    0.000;    0.000
374.949;  582.925;    0.000;    0.000
375.009;  537.925;    0.000;    0.000
375.070;  430.925;    0.000;    0.000
375.130;  454.925;    0.000;    0.000
375.190;  450.925;    0.000;    0.000
375.251;  468.925;    0.000;    0.000
375.311;  449.925;    0.000;    0.000
375.372;  454.925;    0.000;    0.000
375.432;  464.925;    0.000;    0.000
375.493;  484.925;    0.000;    0.000
375.553;  469.925;    0.000;    0.000
375.613;  469.925;    0.000;    0.000
375.674;  490.925;    0.000;    0.000
375.734;  543.925;    0.000;    0.000
375.794;  613.925;    0.000;    0.000
375.855;  607.925;    0.000;    0.000
375.915;  575.925;    0.000;    0.000
375.975;  506.925;    0.000;    0.000
376.036;  560.925;    0.000;    0.000
376.096;  517.925;    0.000;    0.000
376.156;  532.925;    0.000;    0.000
376.217;  490.925;    0.000;    0.000
376.277;  528.925;    0.000;    0.000
376.337;  507.925;    0.000;    0.000
376.398;  569.925;    0.000;    0.000
376.458;  489.925;    0.000;    0.000
376.518;  506.925;    0.000;    0.000
376.578;  519.925;    0.000;    0.000
376.639;  498.925;    0.000;    0.000
376.699;  521.925;    0.000;    0.000
376.759;  545.925;    0.000;    0.000
376.819;  456.925;    0.000;    0.000
376.880;  486.925;    0.000;    0.000
376.940;  524.925;    0.000;    0.000
377.000;  495.925;    0.000;    0.000
377.060;  479.925;    0.000;    0.000
377.120;  485.925;    0.000;    0.000
377.180;  500.925;    0.000;    0.000
377.241;  465.925;    0.000;    0.000
377.301;  522.925;    0.000;    0.000
377.361;  482.925;    0.000;    0.000
377.421;  495.925;    0.000;    0.000
377.481;  487.925;    0.000;    0.000
377.541;  499.925;    0.000;    0.000
377.601;  512.925;    0.000;    0.000
377.661;  506.925;    0.000;    0.000
377.722;  530.925;    0.000;    0.000
377.782;  488.925;    0.000;    0.000
377.842;  596.925;    0.000;    0.000
377.902;  515.925;    0.000;    0.000
377.962;  534.925;    0.000;    0.000
378.022;  526.925;    0.000;    0.000
378.082;  519.925;    0.000;    0.000
378.142;  563.925;    0.000;    0.000
378.202;  550.925;    0.000;    0.000
378.262;  568.925;    0.000;    0.000
378.322;  570.925;    0.000;    0.000
378.382;  552.925;    0.000;    0.000
378.442;  548.925;    0.000;    0.000
378.502;  546.925;    0.000;    0.000
378.562;  563.925;    0.000;    0.000
378.622;  598.925;    0.000;    0.000
378.682;  591.925;    0.000;    0.000
378.742;  627.925;    0.000;    0.000
378.802;  640.925;    0.000;    0.000
378.862;  628.925;    0.000;    0.000
378.921;  690.925;    0.000;    0.000
378.981;  632.925;    0.000;    0.000
379.041;  608.925;    0.000;    0.000
379.101;  621.925;    0.000;    0.000
379.161;  643.925;    0.000;    0.000
379.221;  600.925;    0.000;    0.000
379.281;  615.925;    0.000;    0.000
379.341;  671.925;    0.000;    0.000
379.401;  661.925;    0.000;    0.000
379.460;  688.925;    0.000;    0.000
379.520;  661.925;    0.000;    0.000
379.580;  710.925;    0.000;    0.000
379.640;  692.925;    0.000;    0.000
379.700;  683.925;    0.000;    0.000
379.759;  705.925;    0.000;    0.000
379.819;  689.925;    0.000;    0.000
379.879;  698.925;    0.000;    0.000
379.939;  795.925;    0.000;    0.000
379.999;  688.925;    0.000;    0.000
380.058;  709.925;    0.000;    0.000
380.118;  711.925;    0.000;    0.000
380.178;  722.925;    0.000;    0.000
380.237;  748.925;    0.000;    0.000
380.297;  757.925;    0.000;    0.000
380.357;  725.925;    0.000;    0.000
380.417;  742.925;    0.000;    0.000
380.476;  762.925;    0.000;    0.000
380.536;  745.925;    0.000;    0.000
380.596;  735.925;    0.000;    0.000
380.655;  761.925;    0.000;    0.000
380.715;  748.925;    0.000;    0.000
380.775;  754.925;    0.000;    0.000
380.834;  807.925;    0.000;    0.000
380.894;  738.925;    0.000;    0.000
380.954;  721.925;    0.000;    0.000
381.013;  819.925;    0.000;    0.000
381.073;  734.925;    0.000;    0.000
381.132;  840.925;    0.000;    0.000
381.192;  808.925;    0.000;    0.000
381.252;  847.925;    0.000;    0.000
381.311;  900.925;    0.000;    0.000
381.371;  846.925;    0.000;    0.000
381.430;  853.925;    0.000;    0.000
381.490;  903.925;    0.000;    0.000
381.549;  956.925;    0.000;    0.000
381.609;  955.925;    0.000;    0.000
381.668;  914.925;    0.000;    0.000
381.728;  923.925;    0.000;    0.000
381.787;  874.925;    0.000;    0.000
381.847;  973.925;    0.000;    0.000
381.906;  960.925;    0.000;    0.000
381.966; 1090.925;    0.000;    0.000
382.025; 1204.925;    0.000;    0.000
382.085; 1152.925;    0.000;    0.000
382.144; 1111.925;    0.000;    0.000
382.204; 1095.925;    0.000;    0.000
382.263; 1046.925;    0.000;    0.000
382.322; 1077.925;    0.000;    0.000
382.382; 1157.925;    0.000;    0.000
382.441; 1216.925;    0.000;    0.000
382.501; 1282.925;    0.000;    0.000
382.560; 1416.925;    0.000;    0.000
382.619; 1461.925;    0.000;    0.000
382.679; 1499.925;    0.000;    0.000
382.738; 1591.925;    0.000;    0.000
382.798; 1854.925;    0.000;    0.000
382.857; 2007.925;    0.000;    0.000
382.916; 2239.925;    0.000;    0.000
382.976; 2124.925;    0.000;    0.000
383.035; 2102.925;    0.000;    0.000
383.094; 2312.925;    0.000;    0.000
383.154; 2750.925;    0.000;    0.000
383.213; 2758.925;    0.000;    0.000
383.272; 2477.925;    0.000;    0.000
383.331; 2052.925;    0.000;    0.000
383.391; 1985.925;    0.000;    0.000
383.450; 1976.925;    0.000;    0.000
383.509; 1866.925;    0.000;    0.000
383.568; 2019.925;    0.000;    0.000
383.628; 2163.925;    0.000;    0.000
383.687; 2551.925;    0.000;    0.000
383.746; 2959.925;    0.000;    0.000
383.805; 3226.925;    0.000;    0.000
383.864; 2764.925;    0.000;    0.000
383.924; 2168.925;    0.000;    0.000
383.983; 1816.925;    0.000;    0.000
384.042; 1642.925;    0.000;    0.000
384.101; 1522.925;    0.000;    0.000
384.160; 1309.925;    0.000;    0.000
384.219; 1241.925;    0.000;    0.000
384.279; 1187.925;    0.000;    0.000
384.338; 1192.925;    0.000;    0.000
384.397; 1106.925;    0.000;    0.000
384.456; 1051.925;    0.000;    0.000
384.515; 1049.925;    0.000;    0.000
384.574; 1000.925;    0.000;    0.000
384.633; 1027.925;    0.000;    0.000
384.692; 1046.925;    0.000;    0.000
384.751; 1044.925;    0.000;    0.000
384.810;  951.925;    0.000;    0.000
384.869;  927.925;    0.000;    0.000
384.929; 1010.925;    0.000;    0.000
384.988;  944.925;    0.000;    0.000
385.047;  937.925;    0.000;    0.000
385.106;  928.925;    0.000;    0.000
385.165;  930.925;    0.000;    0.000
385.224;  982.925;    0.000;    0.000
385.283;  947.925;    0.000;    0.000
385.342;  951.925;    0.000;    0.000
385.401;  955.925;    0.000;    0.000
385.459; 1020.925;    0.000;    0.000
385.518;  982.925;    0.000;    0.000
385.577; 1004.925;    0.000;    0.000
385.636; 1032.925;    0.000;    0.000
385.695; 1010.925;    0.000;    0.000
385.754;  889.925;    0.000;    0.000
385.813;  956.925;    0.000;    0.000
385.872;  959.925;    0.000;    0.000
385.931; 1101.925;    0.000;    0.000
385.990; 1030.925;    0.000;    0.000
386.049; 1017.925;    0.000;    0.000
386.107;  877.925;    0.000;    0.000
386.166;  880.925;    0.000;    0.000
386.225;  935.925;    0.000;    0.000
386.284;  866.925;    0.000;    0.000
386.343;  971.925;    0.000;    0.000
386.402;  863.925;    0.000;    0.000
386.460;  887.925;    0.000;    0.000
386.519;  858.925;    0.000;    0.000
386.578;  858.925;    0.000;    0.000
386.637;  852.925;    0.000;    0.000
386.696;  852.925;    0.000;    0.000
386.754;  810.925;    0.000;    0.000
386.813;  836.925;    0.000;    0.000
386.872;  790.925;    0.000;    0.000
386.931;  873.925;    0.000;    0.000
386.989;  829.925;    0.000;    0.000
387.048;  816.925;    0.000;    0.000
387.107;  857.925;    0.000;    0.000
387.165;  800.925;    0.000;    0.000
387.224;  813.925;    0.000;    0.000
387.283;  783.925;    0.000;    0.000
387.342;  783.925;    0.000;    0.000
387.400;  789.925;    0.000;    0.000
387.459;  755.925;    0.000;    0.000
387.517;  807.925;    0.000;    0.000
387.576;  750.925;    0.000;    0.000
387.635;  722.925;    0.000;    0.000
387.693;  741.925;    0.000;    0.000
387.752;  812.925;    0.000;    0.000
387.811;  804.925;    0.000;    0.000
387.869;  812.925;    0.000;    0.000
387.928;  730.925;    0.000;    0.000
387.986;  779.925;    0.000;    0.000
388.045;  701.925;    0.000;    0.000
388.103;  725.925;    0.000;    0.000
388.162;  711.925;    0.000;    0.000
388.221;  730.925;    0.000;    0.000
388.279;  740.925;    0.000;    0.000
388.338;  767.925;    0.000;    0.000
388.396;  725.925;    0.000;    0.000
388.455;  728.925;    0.000;    0.000
388.513;  716.925;    0.000;    0.000
388.572;  791.925;    0.000;    0.000
388.630;  838.925;    0.000;    0.000
388.689;  733.925;    0.000;    0.000
388.747;  685.925;    0.000;    0.000
388.806;  681.925;    0.000;    0.000
388.864;  690.925;    0.000;    0.000
388.922;  704.925;    0.000;    0.000
388.981;  703.925;    0.000;    0.000
389.039;  679.925;    0.000;    0.000
389.098;  699.925;    0.000;    0.000
389.156;  712.925;    0.000;    0.000
389.214;  727.925;    0.000;    0.000
389.273;  698.925;    0.000;    0.000
389.331;  720.925;    0.000;    0.000
389.390;  722.925;    0.000;    0.000
389.448;  681.925;    0.000;    0.000
389.506;  742.925;    0.000;    0.000
389.565;  716.925;    0.000;    0.000
389.623;  721.925;    0.000;    0.000
389.681;  710.925;    0.000;    0.000
389.740;  725.925;    0.000;    0.000
389.798;  682.925;    0.000;    0.000
389.856;  719.925;    0.000;    0.000
389.914;  691.925;    0.000;    0.000
389.973;  732.925;    0.000;    0.000
390.031;  659.925;    0.000;    0.000
390.089;  674.925;    0.000;    0.000
390.147;  678.925;    0.000;    0.000
390.206;  656.925;    0.000;    0.000
390.264;  711.925;    0.000;    0.000
390.322;  700.925;    0.000;    0.000
390.380;  674.925;    0.000;    0.000
390.439;  718.925;    0.000;    0.000
390.497;  853.925;    0.000;    0.000
390.555;  852.925;    0.000;    0.000
390.613;  785.925;    0.000;    0.000
390.671;  752.925;    0.000;    0.000
390.729;  686.925;    0.000;    0.000
390.788;  635.925;    0.000;    0.000
390.846;  683.925;    0.000;    0.000
390.904;  665.925;    0.000;    0.000
390.962;  641.925;    0.000;    0.000
391.020;  692.925;    0.000;    0.000
391.078;  634.925;    0.000;    0.000
391.136;  644.925;    0.000;    0.000
391.194;  615.925;    0.000;    0.000
391.252;  647.925;    0.000;    0.000
391.311;  625.925;    0.000;    0.000
391.369;  668.925;    0.000;    0.000
391.427;  679.925;    0.000;    0.000
391.485;  622.925;    0.000;    0.000
391.543;  636.925;    0.000;    0.000
391.601;  603.925;    0.000;    0.000
391.659;  651.925;    0.000;    0.000
391.717;  628.925;    0.000;    0.000
391.775;  628.925;    0.000;    0.000
391.833;  639.925;    0.000;    0.000
391.891;  646.925;    0.000;    0.000
391.949;  596.925;    0.000;    0.000
392.007;  599.925;    0.000;    0.000
392.065;  643.925;    0.000;    0.000
392.123;  594.925;    0.000;    0.000
392.180;  638.925;    0.000;    0.000
392.238;  655.925;    0.000;    0.000
392.296;  622.925;    0.000;    0.000
392.354;  626.925;    0.000;    0.000
392.412;  660.925;    0.000;    0.000
392.470;  630.925;    0.000;    0.000
392.528;  632.925;    0.000;    0.000
392.586;  604.925;    0.000;    0.000
392.644;  650.925;    0.000;    0.000
392.701;  641.925;    0.000;    0.000
392.759;  634.925;    0.000;    0.000
392.817;  669.925;    0.000;    0.000
392.875;  677.925;    0.000;    0.000
392.933;  708.925;    0.000;    0.000
392.991;  753.925;    0.000;    0.000
393.048;  862.925;    0.000;    0.000
393.106;  849.925;    0.000;    0.000
393.164;  987.925;    0.000;    0.000
393.222; 1277.925;    0.000;    0.000
393.279; 1945.925;    0.000;    0.000
393.337; 2176.925;    0.000;    0.000
393.395; 1879.925;    0.000;    0.000
393.453; 1176.925;    0.000;    0.000
393.510;  853.925;    0.000;    0.000
393.568;  785.925;    0.000;    0.000
393.626;  733.925;    0.000;    0.000
393.684;  750.925;    0.000;    0.000
393.741;  649.925;    0.000;    0.000
393.799;  655.925;    0.000;    0.000
393.857;  637.925;    0.000;    0.000
393.914;  605.925;    0.000;    0.000
393.972;  564.925;    0.000;    0.000
394.030;  615.925;    0.000;    0.000
394.087;  634.925;    0.000;    0.000
394.145;  621.925;    0.000;    0.000
394.202;  651.925;    0.000;    0.000
394.260;  653.925;    0.000;    0.000
394.318;  774.925;    0.000;    0.000
394.375;  996.925;    0.000;    0.000
394.433;  879.925;    0.000;    0.000
394.490;  750.925;    0.000;    0.000
394.548;  709.925;    0.000;    0.000
394.605;  690.925;    0.000;    0.000
394.663;  611.925;    0.000;    0.000
394.720;  620.925;    0.000;    0.000
394.778;  588.925;    0.000;    0.000
394.836;  619.925;    0.000;    0.000
394.893;  604.925;    0.000;    0.000
394.951;  602.925;    0.000;    0.000
395.008;  593.925;    0.000;    0.000
395.065;  623.925;    0.000;    0.000
395.123;  538.925;    0.000;    0.000
395.180;  585.925;    0.000;    0.000
395.238;  550.925;    0.000;    0.000
395.295;  575.925;    0.000;    0.000
395.353;  590.925;    0.000;    0.000
395.410;  608.925;    0.000;    0.000
395.468;  597.925;    0.000;    0.000
395.525;  594.925;    0.000;    0.000
395.582;  602.925;    0.000;    0.000
395.640;  590.925;    0.000;    0.000
395.697;  663.925;    0.000;    0.000
395.754;  585.925;    0.000;    0.000
395.812;  608.925;    0.000;    0.000
395.869;  640.925;    0.000;    0.000
395.927;  668.925;    0.000;    0.000
395.984;  684.925;    0.000;    0.000
396.041;  763.925;    0.000;    0.000
396.098; 1109.925;    0.000;    0.000
396.156; 1217.925;    0.000;    0.000
396.213; 1063.925;    0.000;    0.000
396.270;  847.925;    0.000;    0.000
396.328;  758.925;    0.000;    0.000
396.385;  713.925;    0.000;    0.000
396.442;  709.925;    0.000;    0.000
396.499;  708.925;    0.000;    0.000
396.557;  740.925;    0.000;    0.000
396.614;  798.925;    0.000;    0.000
396.671;  923.925;    0.000;    0.000
396.728; 1195.925;    0.000;    0.000
396.785; 1721.925;    0.000;    0.000
396.843; 1659.925;    0.000;    0.000
396.900; 1298.925;    0.000;    0.000
396.957;  820.925;    0.000;    0.000
397.014;  738.925;    0.000;    0.000
397.071;  647.925;    0.000;    0.000
397.128;  622.925;    0.000;    0.000
397.186;  668.925;    0.000;    0.000
397.243;  605.925;    0.000;    0.000
397.300;  622.925;    0.000;    0.000
397.357;  612.925;    0.000;    0.000
397.414;  612.925;    0.000;    0.000
397.471;  521.925;    0.000;    0.000
397.528;  559.925;    0.000;    0.000
397.585;  606.925;    0.000;    0.000
397.642;  647.925;    0.000;    0.000
397.699;  623.925;    0.000;    0.000
397.756;  535.925;    0.000;    0.000
397.813;  580.925;    0.000;    0.000
397.871;  574.925;    0.000;    0.000
397.928;  594.925;    0.000;    0.000
397.985;  530.925;    0.000;    0.000
398.042;  610.925;    0.000;    0.000
398.099;  581.925;    0.000;    0.000
398.156;  656.925;    0.000;    0.000
398.212;  620.925;    0.000;    0.000
398.269;  640.925;    0.000;    0.000
398.326;  536.925;    0.000;    0.000
398.383;  563.925;    0.000;    0.000
398.440;  603.925;    0.000;    0.000
398.497;  595.925;    0.000;    0.000
398.554;  601.925;    0.000;    0.000
398.611;  569.925;    0.000;    0.000
398.668;  548.925;    0.000;    0.000
398.725;  586.925;    0.000;    0.000
398.782;  598.925;    0.000;    0.000
398.839;  627.925;    0.000;    0.000
398.895;  619.925;    0.000;    0.000
398.952;  645.925;    0.000;    0.000
399.009;  636.925;    0.000;    0.000
399.066;  594.925;    0.000;    0.000
399.123;  560.925;    0.000;    0.000
399.180;  560.925;    0.000;    0.000
399.236;  555.925;    0.000;    0.000
399.293;  597.925;    0.000;    0.000
399.350;  586.925;    0.000;    0.000
399.407;  623.925;    0.000;    0.000
399.463;  583.925;    0.000;    0.000
399.520;  600.925;    0.000;    0.000
399.577;  541.925;    0.000;    0.000
399.634;  638.925;    0.000;    0.000
399.690;  594.925;    0.000;    0.000
399.747;  662.925;    0.000;    0.000
399.804;  675.925;    0.000;    0.000
399.861;  631.925;    0.000;    0.000
399.917;  662.925;    0.000;    0.000
399.974;  618.925;    0.000;    0.000
400.031;  622.925;    0.000;    0.000
400.087;  554.925;    0.000;    0.000
400.144;  608.925;    0.000;    0.000
400.201;  586.925;    0.000;    0.000
400.257;  566.925;    0.000;    0.000
400.314;  572.925;    0.000;    0.000
400.370;  612.925;    0.000;    0.000
400.427;  601.925;    0.000;    0.000
400.484;  628.925;    0.000;    0.000
400.540;  612.925;    0.000;    0.000
400.597;  595.925;    0.000;    0.000
400.653;  605.925;    0.000;    0.000
400.710;  599.925;    0.000;    0.000
400.766;  631.925;    0.000;    0.000
400.823;  595.925;    0.000;    0.000
400.879;  596.925;    0.000;    0.000
400.936;  603.925;    0.000;    0.000
400.993;  570.925;    0.000;    0.000
401.049;  596.925;    0.000;    0.000
401.106;  604.925;    0.000;    0.000
401.162;  613.925;    0.000;    0.000
401.218;  564.925;    0.000;    0.000
401.275;  540.925;    0.000;    0.000
401.331;  597.925;    0.000;    0.000
401.388;  587.925;    0.000;    0.000
401.444;  549.925;    0.000;    0.000
401.501;  537.925;    0.000;    0.000
401.557;  529.925;    0.000;    0.000
401.614;  527.925;    0.000;    0.000
401.670;  586.925;    0.000;    0.000
401.726;  577.925;    0.000;    0.000
401.783;  553.925;    0.000;    0.000
401.839;  587.925;    0.000;    0.000
401.895;  536.925;    0.000;    0.000
401.952;  538.925;    0.000;    0.000
402.008;  529.925;    0.000;    0.000
402.064;  531.925;    0.000;    0.000
402.121;  574.925;    0.000;    0.000
402.177;  573.925;    0.000;    0.000
402.233;  556.925;    0.000;    0.000
402.290;  573.925;    0.000;    0.000
402.346;  538.925;    0.000;    0.000
402.402;  578.925;    0.000;    0.000
402.459;  569.925;    0.000;    0.000
402.515;  573.925;    0.000;    0.000
402.571;  577.925;    0.000;    0.000
402.627;  562.925;    0.000;    0.000
402.683;  560.925;    0.000;    0.000
402.740;  513.925;    0.000;    0.000
402.796;  639.925;    0.000;    0.000
402.852;  583.925;    0.000;    0.000
402.908;  590.925;    0.000;    0.000
402.964;  601.925;    0.000;    0.000
403.021;  583.925;    0.000;    0.000
403.077;  616.925;    0.000;    0.000
403.133;  532.925;    0.000;    0.000
403.189;  578.925;    0.000;    0.000
403.245;  579.925;    0.000;    0.000
403.301;  578.925;    0.000;    0.000
403.357;  645.925;    0.000;    0.000
403.414;  589.925;    0.000;    0.000
403.470;  626.925;    0.000;    0.000
403.526;  538.925;    0.000;    0.000
403.582;  594.925;    0.000;    0.000
403.638;  607.925;    0.000;    0.000
403.694;  601.925;    0.000;    0.000
403.750;  566.925;    0.000;    0.000
403.806;  598.925;    0.000;    0.000
403.862;  550.925;    0.000;    0.000
403.918;  592.925;    0.000;    0.000
403.974;  605.925;    0.000;    0.000
404.030;  556.925;    0.000;    0.000
404.086;  578.925;    0.000;    0.000
404.142;  586.925;    0.000;    0.000
404.198;  583.925;    0.000;    0.000
404.254;  569.925;    0.000;    0.000
404.310;  559.925;    0.000;    0.000
404.366;  588.925;    0.000;    0.000
404.422;  600.925;    0.000;    0.000
404.478;  682.925;    0.000;    0.000
404.534;  923.925;    0.000;    0.000
404.590;  886.925;    0.000;    0.000
404.646;  711.925;    0.000;    0.000
404.701;  621.925;    0.000;    0.000
404.757;  606.925;    0.000;    0.000
404.813;  534.925;    0.000;    0.000
404.869;  596.925;    0.000;    0.000
404.925;  598.925;    0.000;    0.000
404.981;  593.925;    0.000;    0.000
405.037;  592.925;    0.000;    0.000
405.092;  546.925;    0.000;    0.000
405.148;  591.925;    0.000;    0.000
405.204;  562.925;    0.000;    0.000
405.260;  579.925;    0.000;    0.000
405.316;  563.925;    0.000;    0.000
405.371;  538.925;    0.000;    0.000
405.427;  594.925;    0.000;    0.000
405.483;  590.925;    0.000;    0.000
405.539;  596.925;    0.000;    0.000
405.594;  602.925;    0.000;    0.000
405.650;  604.925;    0.000;    0.000
405.706;  592.925;    0.000;    0.000
405.761;  606.925;    0.000;    0.000
405.817;  555.925;    0.000;    0.000
405.873;  564.925;    0.000;    0.000
405.928;  567.925;    0.000;    0.000
405.984;  665.925;    0.000;    0.000
406.040;  596.925;    0.000;    0.000
406.095;  612.925;    0.000;    0.000
406.151;  633.925;    0.000;    0.000
406.207;  650.925;    0.000;    0.000
406.262;  697.925;    0.000;    0.000
406.318;  805.925;    0.000;    0.000
406.374;  755.925;    0.000;    0.000
406.429;  695.925;    0.000;    0.000
406.485;  656.925;    0.000;    0.000
406.540;  617.925;    0.000;    0.000
406.596;  549.925;    0.000;    0.000
406.651;  616.925;    0.000;    0.000
406.707;  612.925;    0.000;    0.000
406.763;  611.925;    0.000;    0.000
406.818;  609.925;    0.000;    0.000
406.874;  551.925;    0.000;    0.000
406.929;  673.925;    0.000;    0.000
406.985;  609.925;    0.000;    0.000
407.040;  646.925;    0.000;    0.000
407.095;  757.925;    0.000;    0.000
407.151;  868.925;    0.000;    0.000
407.206;  767.925;    0.000;    0.000
407.262;  669.925;    0.000;    0.000
407.317;  682.925;    0.000;    0.000
407.373;  609.925;    0.000;    0.000
407.428;  619.925;    0.000;    0.000
407.484;  628.925;    0.000;    0.000
407.539;  549.925;    0.000;    0.000
407.594;  636.925;    0.000;    0.000
407.650;  647.925;    0.000;    0.000
407.705;  620.925;    0.000;    0.000
407.760;  727.925;    0.000;    0.000
407.816;  647.925;    0.000;    0.000
407.871;  661.925;    0.000;    0.000
407.926;  664.925;    0.000;    0.000
407.982;  647.925;    0.000;    0.000
408.037;  584.925;    0.000;    0.000
408.092;  646.925;    0.000;    0.000
408.148;  651.925;    0.000;    0.000
408.203;  645.925;    0.000;    0.000
408.258;  612.925;    0.000;    0.000
408.314;  633.925;    0.000;    0.000
408.369;  620.925;    0.000;    0.000
408.424;  660.925;    0.000;    0.000
408.479;  641.925;    0.000;    0.000
408.534;  635.925;    0.000;    0.000
408.590;  623.925;    0.000;    0.000
408.645;  599.925;    0.000;    0.000
408.700;  647.925;    0.000;    0.000
408.755;  593.925;    0.000;    0.000
408.810;  598.925;    0.000;    0.000
408.866;  666.925;    0.000;    0.000
408.921;  696.925;    0.000;    0.000
408.976;  642.925;    0.000;    0.000
409.031;  661.925;    0.000;    0.000
409.086;  664.925;    0.000;    0.000
409.141;  642.925;    0.000;    0.000
409.196;  677.925;    0.000;    0.000
409.252;  608.925;    0.000;    0.000
409.307;  623.925;    0.000;    0.000
409.362;  589.925;    0.000;    0.000
409.417;  608.925;    0.000;    0.000
409.472;  639.925;    0.000;    0.000
409.527;  663.925;    0.000;    0.000
409.582;  668.925;    0.000;    0.000
409.637;  613.925;    0.000;    0.000
409.692;  613.925;    0.000;    0.000
409.747;  666.925;    0.000;    0.000
409.802;  614.925;    0.000;    0.000
409.857;  607.925;    0.000;    0.000
409.912;  649.925;    0.000;    0.000
409.967;  623.925;    0.000;    0.000
410.022;  660.925;    0.000;    0.000
410.077;  652.925;    0.000;    0.000
410.132;  620.925;    0.000;    0.000
410.187;  641.925;    0.000;    0.000
410.242;  666.925;    0.000;    0.000
410.297;  665.925;    0.000;    0.000
410.351;  709.925;    0.000;    0.000
410.406;  681.925;    0.000;    0.000
410.461;  653.925;    0.000;    0.000
410.516;  696.925;    0.000;    0.000
410.571;  661.925;    0.000;    0.000
410.626;  649.925;    0.000;    0.000
410.681;  665.925;    0.000;    0.000
410.736;  639.925;    0.000;    0.000
410.790;  693.925;    0.000;    0.000
410.845;  671.925;    0.000;    0.000
410.900;  659.925;    0.000;    0.000
410.955;  687.925;    0.000;    0.000
411.010;  622.925;    0.000;    0.000
411.064;  635.925;    0.000;    0.000
411.119;  618.925;    0.000;    0.000
411.174;  708.925;    0.000;    0.000
411.229;  654.925;    0.000;    0.000
411.283;  676.925;    0.000;    0.000
411.338;  646.925;    0.000;    0.000
411.393;  644.925;    0.000;    0.000
411.447;  687.925;    0.000;    0.000
411.502;  716.925;    0.000;    0.000
411.557;  673.925;    0.000;    0.000
411.612;  674.925;    0.000;    0.000
411.666;  697.925;    0.000;    0.000
411.721;  648.925;    0.000;    0.000
411.776;  689.925;    0.000;    0.000
411.830;  761.925;    0.000;    0.000
411.885;  724.925;    0.000;    0.000
411.939;  715.925;    0.000;    0.000
411.994;  697.925;    0.000;    0.000
412.049;  675.925;    0.000;    0.000
412.103;  729.925;    0.000;    0.000
412.158;  743.925;    0.000;    0.000
412.212;  676.925;    0.000;    0.000
412.267;  745.925;    0.000;    0.000
412.322;  712.925;    0.000;    0.000
412.376;  703.925;    0.000;    0.000
412.431;  732.925;    0.000;    0.000
412.485;  731.925;    0.000;    0.000
412.540;  763.925;    0.000;    0.000
412.594;  771.925;    0.000;    0.000
412.649;  718.925;    0.000;    0.000
412.703;  803.925;    0.000;    0.000
412.758;  788.925;    0.000;    0.000
412.812;  716.925;    0.000;    0.000
412.866;  756.925;    0.000;    0.000
412.921;  704.925;    0.000;    0.000
412.975;  722.925;    0.000;    0.000
413.030;  809.925;    0.000;    0.000
413.084;  757.925;    0.000;    0.000
413.139;  779.925;    0.000;    0.000
413.193;  765.925;    0.000;    0.000
413.247;  782.925;    0.000;    0.000
413.302;  699.925;    0.000;    0.000
413.356;  779.925;    0.000;    0.000
413.410;  706.925;    0.000;    0.000
413.465;  717.925;    0.000;    0.000
413.519;  718.925;    0.000;    0.000
413.573;  670.925;    0.000;    0.000
413.628;  688.925;    0.000;    0.000
413.682;  714.925;    0.000;    0.000
413.736;  665.925;    0.000;    0.000
413.791;  674.925;    0.000;    0.000
413.845;  696.925;    0.000;    0.000
413.899;  693.925;    0.000;    0.000
413.953;  674.925;    0.000;    0.000
414.008;  671.925;    0.000;    0.000
414.062;  690.925;    0.000;    0.000
414.116;  641.925;    0.000;    0.000
414.170;  707.925;    0.000;    0.000
414.225;  648.925;    0.000;    0.000
414.279;  692.925;    0.000;    0.000
414.333;  780.925;    0.000;    0.000
414.387;  809.925;    0.000;    0.000
414.441;  726.925;    0.000;    0.000
414.496;  697.925;    0.000;    0.000
414.550;  675.925;    0.000;    0.000
414.604;  677.925;    0.000;    0.000
414.658;  655.925;    0.000;    0.000
414.712;  668.925;    0.000;    0.000
414.766;  685.925;    0.000;    0.000
414.820;  632.925;    0.000;    0.000
414.874;  713.925;    0.000;    0.000
414.928;  638.925;    0.000;    0.000
414.982;  671.925;    0.000;    0.000
415.037;  647.925;    0.000;    0.000
415.091;  665.925;    0.000;    0.000
415.145;  669.925;    0.000;    0.000
415.199;  698.925;    0.000;    0.000
415.253;  698.925;    0.000;    0.000
415.307;  666.925;    0.000;    0.000
415.361;  669.925;    0.000;    0.000
415.415;  651.925;    0.000;    0.000
415.469;  692.925;    0.000;    0.000
415.523;  678.925;    0.000;    0.000
415.577;  660.925;    0.000;    0.000
415.631;  691.925;    0.000;    0.000
415.684;  732.925;    0.000;    0.000
415.738;  691.925;    0.000;    0.000
415.792;  658.925;    0.000;    0.000
415.846;  635.925;    0.000;    0.000
415.900;  642.925;    0.000;    0.000
415.954;  649.925;    0.000;    0.000
416.008;  654.925;    0.000;    0.000
416.062;  608.925;    0.000;    0.000
416.116;  650.925;    0.000;    0.000
416.169;  634.925;    0.000;    0.000
416.223;  695.925;    0.000;    0.000
416.277;  670.925;    0.000;    0.000
416.331;  663.925;    0.000;    0.000
416.385;  656.925;    0.000;    0.000
416.439;  670.925;    0.000;    0.000
416.492;  682.925;    0.000;    0.000
416.546;  686.925;    0.000;    0.000
416.600;  624.925;    0.000;    0.000
416.654;  691.925;    0.000;    0.000
416.707;  638.925;    0.000;    0.000
416.761;  598.925;    0.000;    0.000
416.815;  634.925;    0.000;    0.000
416.869;  635.925;    0.000;    0.000
416.922;  626.925;    0.000;    0.000
416.976;  628.925;    0.000;    0.000
417.030;  610.925;    0.000;    0.000
417.083;  700.925;    0.000;    0.000
417.137;  622.925;    0.000;    0.000
417.191;  668.925;    0.000;    0.000
417.244;  663.925;    0.000;    0.000
417.298;  630.925;    0.000;    0.000
417.352;  605.925;    0.000;    0.000
417.405;  702.925;    0.000;    0.000
417.459;  657.925;    0.000;    0.000
417.512;  700.925;    0.000;    0.000
417.566;  682.925;    0.000;    0.000
417.620;  665.925;    0.000;    0.000
417.673;  620.925;    0.000;    0.000
417.727;  643.925;    0.000;    0.000
417.780;  663.925;    0.000;    0.000
417.834;  624.925;    0.000;    0.000
417.887;  665.925;    0.000;    0.000
417.941;  635.925;    0.000;    0.000
417.994;  684.925;    0.000;    0.000
418.048;  656.925;    0.000;    0.000
418.101;  661.925;    0.000;    0.000
418.155;  675.925;    0.000;    0.000
418.208;  740.925;    0.000;    0.000
418.262;  687.925;    0.000;    0.000
418.315;  695.925;    0.000;    0.000
418.369;  663.925;    0.000;    0.000
418.422;  626.925;    0.000;    0.000
418.476;  689.925;    0.000;    0.000
418.529;  656.925;    0.000;    0.000
418.582;  644.925;    0.000;    0.000
418.636;  666.925;    0.000;    0.000
418.689;  660.925;    0.000;    0.000
418.743;  721.925;    0.000;    0.000
418.796;  669.925;    0.000;    0.000
418.849;  665.925;    0.000;    0.000
418.903;  680.925;    0.000;    0.000
418.956;  663.925;    0.000;    0.000
419.009;  677.925;    0.000;    0.000
419.063;  659.925;    0.000;    0.000
419.116;  665.925;    0.000;    0.000
419.169;  669.925;    0.000;    0.000
419.222;  680.925;    0.000;    0.000
419.276;  651.925;    0.000;    0.000
419.329;  666.925;    0.000;    0.000
419.382;  625.925;    0.000;    0.000
419.435;  631.925;    0.000;    0.000
419.489;  701.925;    0.000;    0.000
419.542;  626.925;    0.000;    0.000
419.595;  708.925;    0.000;    0.000
419.648;  647.925;    0.000;    0.000
419.701;  658.925;    0.000;    0.000
419.755;  651.925;    0.000;    0.000
419.808;  678.925;    0.000;    0.000
419.861;  717.925;    0.000;    0.000
419.914;  772.925;    0.000;    0.000
419.967;  678.925;    0.000;    0.000
420.020;  680.925;    0.000;    0.000
420.073;  656.925;    0.000;    0.000
420.127;  711.925;    0.000;    0.000
420.180;  689.925;    0.000;    0.000
420.233;  646.925;    0.000;    0.000
420.286;  599.925;    0.000;    0.000
420.339;  685.925;    0.000;    0.000
420.392;  598.925;    0.000;    0.000
420.445;  615.925;    0.000;    0.000
420.498;  642.925;    0.000;    0.000
420.551;  608.925;    0.000;    0.000
420.604;  621.925;    0.000;    0.000
420.657;  586.925;    0.000;    0.000
420.710;  654.925;    0.000;    0.000
420.763;  654.925;    0.000;    0.000
420.816;  591.925;    0.000;    0.000
420.869;  565.925;    0.000;    0.000
420.922;  646.925;    0.000;    0.000
420.975;  620.925;    0.000;    0.000
421.028;  618.925;    0.000;    0.000
421.081;  622.925;    0.000;    0.000
421.134;  589.925;    0.000;    0.000
421.187;  612.925;    0.000;    0.000
421.239;  629.925;    0.000;    0.000
421.292;  580.925;    0.000;    0.000
421.345;  604.925;    0.000;    0.000
421.398;  651.925;    0.000;    0.000
421.451;  673.925;    0.000;    0.000
421.504;  617.925;    0.000;    0.000
421.557;  605.925;    0.000;    0.000
421.609;  601.925;    0.000;    0.000
421.662;  590.925;    0.000;    0.000
421.715;  635.925;    0.000;    0.000
421.768;  599.925;    0.000;    0.000
421.821;  597.925;    0.000;    0.000
421.873;  611.925;    0.000;    0.000
421.926;  634.925;    0.000;    0.000
421.979;  660.925;    0.000;    0.000
422.032;  614.925;    0.000;    0.000
422.084;  625.925;    0.000;    0.000
422.137;  622.925;    0.000;    0.000
422.190;  658.925;    0.000;    0.000
422.243;  641.925;    0.000;    0.000
422.295;  644.925;    0.000;    0.000
422.348;  683.925;    0.000;    0.000
422.401;  630.925;    0.000;    0.000
422.453;  660.925;    0.000;    0.000
422.506;  657.925;    0.000;    0.000
422.558;  771.925;    0.000;    0.000
422.611; 1100.925;    0.000;    0.000
422.664; 1200.925;    0.000;    0.000
422.716; 1027.925;    0.000;    0.000
422.769;  733.925;    0.000;    0.000
422.822;  670.925;    0.000;    0.000
422.874;  639.925;    0.000;    0.000
422.927;  699.925;    0.000;    0.000
422.979;  642.925;    0.000;    0.000
423.032;  677.925;    0.000;    0.000
423.084;  656.925;    0.000;    0.000
423.137;  632.925;    0.000;    0.000
423.189;  648.925;    0.000;    0.000
423.242;  586.925;    0.000;    0.000
423.294;  643.925;    0.000;    0.000
423.347;  641.925;    0.000;    0.000
423.399;  649.925;    0.000;    0.000
423.452;  643.925;    0.000;    0.000
423.504;  656.925;    0.000;    0.000
423.557;  618.925;    0.000;    0.000
423.609;  649.925;    0.000;    0.000
423.662;  643.925;    0.000;    0.000
423.714;  628.925;    0.000;    0.000
423.766;  677.925;    0.000;    0.000
423.819;  604.925;    0.000;    0.000
423.871;  625.925;    0.000;    0.000
423.923;  620.925;    0.000;    0.000
423.976;  623.925;    0.000;    0.000
424.028;  593.925;    0.000;    0.000
424.081;  603.925;    0.000;    0.000
424.133;  601.925;    0.000;    0.000
424.185;  615.925;    0.000;    0.000
424.238;  590.925;    0.000;    0.000
424.290;  635.925;    0.000;    0.000
424.342;  632.925;    0.000;    0.000
424.394;  615.925;    0.000;    0.000
424.447;  598.925;    0.000;    0.000
424.499;  648.925;    0.000;    0.000
424.551;  622.925;    0.000;    0.000
424.603;  609.925;    0.000;    0.000
424.656;  616.925;    0.000;    0.000
424.708;  586.925;    0.000;    0.000
424.760;  631.925;    0.000;    0.000
424.812;  674.925;    0.000;    0.000
424.864;  587.925;    0.000;    0.000
424.917;  597.925;    0.000;    0.000
424.969;  666.925;    0.000;    0.000
425.021;  656.925;    0.000;    0.000
425.073;  692.925;    0.000;    0.000
425.125;  670.925;    0.000;    0.000
425.177;  649.925;    0.000;    0.000
425.229;  614.925;    0.000;    0.000
425.282;  635.925;    0.000;    0.000
425.334;  643.925;    0.000;    0.000
425.386;  632.925;    0.000;    0.000
425.438;  623.925;    0.000;    0.000
425.490;  606.925;    0.000;    0.000
425.542;  612.925;    0.000;    0.000
425.594;  592.925;    0.000;    0.000
425.646;  569.925;    0.000;    0.000
425.698;  592.925;    0.000;    0.000
425.750;  574.925;    0.000;    0.000
425.802;  629.925;    0.000;    0.000
425.854;  625.925;    0.000;    0.000
425.906;  619.925;    0.000;    0.000
425.958;  643.925;    0.000;    0.000
426.010;  676.925;    0.000;    0.000
426.062;  675.925;    0.000;    0.000
426.114;  653.925;    0.000;    0.000
426.166;  622.925;    0.000;    0.000
426.218;  636.925;    0.000;    0.000
426.270;  641.925;    0.000;    0.000
426.321;  572.925;    0.000;    0.000
426.373;  595.925;    0.000;    0.000
426.425;  608.925;    0.000;    0.000
426.477;  591.925;    0.000;    0.000
426.529;  639.925;    0.000;    0.000
426.581;  617.925;    0.000;    0.000
426.633;  568.925;    0.000;    0.000
426.684;  625.925;    0.000;    0.000
426.736;  566.925;    0.000;    0.000
426.788;  650.925;    0.000;    0.000
426.840;  557.925;    0.000;    0.000
426.892;  575.925;    0.000;    0.000
426.943;  633.925;    0.000;    0.000
426.995;  612.925;    0.000;    0.000
427.047;  648.925;    0.000;    0.000
427.099;  723.925;    0.000;    0.000
427.150;  796.925;    0.000;    0.000
427.202;  809.925;    0.000;    0.000
427.254;  627.925;    0.000;    0.000
427.306;  627.925;    0.000;    0.000
427.357;  606.925;    0.000;    0.000
427.409;  645.925;    0.000;    0.000
427.461;  599.925;    0.000;    0.000
427.512;  570.925;    0.000;    0.000
427.564;  632.925;    0.000;    0.000
427.616;  598.925;    0.000;    0.000
427.667;  529.925;    0.000;    0.000
427.719;  596.925;    0.000;    0.000
427.770;  582.925;    0.000;    0.000
427.822;  651.925;    0.000;    0.000
427.874;  606.925;    0.000;    0.000
427.925;  591.925;    0.000;    0.000
427.977;  577.925;    0.000;    0.000
428.028;  580.925;    0.000;    0.000
428.080;  602.925;    0.000;    0.000
428.131;  620.925;    0.000;    0.000
428.183;  578.925;    0.000;    0.000
428.234;  639.925;    0.000;    0.000
428.286;  637.925;    0.000;    0.000
428.337;  580.925;    0.000;    0.000
428.389;  597.925;    0.000;    0.000
428.440;  622.925;    0.000;    0.000
428.492;  650.925;    0.000;    0.000
428.543;  603.925;    0.000;    0.000
428.595;  581.925;    0.000;    0.000
428.646;  609.925;    0.000;    0.000
428.697;  580.925;    0.000;    0.000
428.749;  584.925;    0.000;    0.000
428.800;  602.925;    0.000;    0.000
428.852;  613.925;    0.000;    0.000
428.903;  665.925;    0.000;    0.000
428.954;  631.925;    0.000;    0.000
429.006;  599.925;    0.000;    0.000
429.057;  636.925;    0.000;    0.000
429.108;  595.925;    0.000;    0.000
429.160;  599.925;    0.000;    0.000
429.211;  608.925;    0.000;    0.000
429.262;  596.925;    0.000;    0.000
429.314;  599.925;    0.000;    0.000
429.365;  632.925;    0.000;    0.000
429.416;  668.925;    0.000;    0.000
429.467;  615.925;    0.000;    0.000
429.519;  611.925;    0.000;    0.000
429.570;  598.925;    0.000;    0.000
429.621;  611.925;    0.000;    0.000
429.672;  619.925;    0.000;    0.000
429.724;  574.925;    0.000;    0.000
429.775;  586.925;    0.000;    0.000
429.826;  622.925;    0.000;    0.000
429.877;  640.925;    0.000;    0.000
429.928;  658.925;    0.000;    0.000
429.980;  644.925;    0.000;    0.000
430.031;  708.925;    0.000;    0.000
430.082;  672.925;    0.000;    0.000
430.133;  671.925;    0.000;    0.000
430.184;  644.925;    0.000;    0.000
430.235;  649.925;    0.000;    0.000
430.286;  645.925;    0.000;    0.000
430.337;  581.925;    0.000;    0.000
430.388;  586.925;    0.000;    0.000
430.439;  549.925;    0.000;    0.000
430.490;  589.925;    0.000;    0.000
430.542;  641.925;    0.000;    0.000
430.593;  645.925;    0.000;    0.000
430.644;  658.925;    0.000;    0.000
430.695;  663.925;    0.000;    0.000
430.746;  837.925;    0.000;    0.000
430.797;  845.925;    0.000;    0.000
430.848;  717.925;    0.000;    0.000
430.899;  600.925;    0.000;    0.000
430.949;  592.925;    0.000;    0.000
431.000;  627.925;    0.000;    0.000
431.051;  609.925;    0.000;    0.000
431.102;  543.925;    0.000;    0.000
431.153;  581.925;    0.000;    0.000
431.204;  571.925;    0.000;    0.000
431.255;  590.925;    0.000;    0.000
431.306;  585.925;    0.000;    0.000
431.357;  608.925;    0.000;    0.000
431.408;  595.925;    0.000;    0.000
431.458;  624.925;    0.000;    0.000
431.509;  574.925;    0.000;    0.000
431.560;  601.925;    0.000;    0.000
431.611;  545.925;    0.000;    0.000
431.662;  598.925;    0.000;    0.000
431.713;  585.925;    0.000;    0.000
431.763;  590.925;    0.000;    0.000
431.814;  579.925;    0.000;    0.000
431.865;  609.925;    0.000;    0.000
431.916;  562.925;    0.000;    0.000
431.966;  587.925;    0.000;    0.000
432.017;  616.925;    0.000;    0.000
432.068;  616.925;    0.000;    0.000
432.118;  583.925;    0.000;    0.000
432.169;  580.925;    0.000;    0.000
432.220;  574.925;    0.000;    0.000
432.271;  579.925;    0.000;    0.000
432.321;  607.925;    0.000;    0.000
432.372;  624.925;    0.000;    0.000
432.423;  561.925;    0.000;    0.000
432.473;  650.925;    0.000;    0.000
432.524;  820.925;    0.000;    0.000
432.574;  832.925;    0.000;    0.000
432.625;  743.925;    0.000;    0.000
432.676;  631.925;    0.000;    0.000
432.726;  608.925;    0.000;    0.000
432.777;  629.925;    0.000;    0.000
432.827;  581.925;    0.000;    0.000
432.878;  570.925;    0.000;    0.000
432.928;  572.925;    0.000;    0.000
432.979;  613.925;    0.000;    0.000
433.029;  569.925;    0.000;    0.000
433.080;  589.925;    0.000;    0.000
433.130;  568.925;    0.000;    0.000
433.181;  623.925;    0.000;    0.000
433.231;  569.925;    0.000;    0.000
433.282;  645.925;    0.000;    0.000
433.332;  627.925;    0.000;    0.000
433.383;  641.925;    0.000;    0.000
433.433;  650.925;    0.000;    0.000
433.484;  619.925;    0.000;    0.000
433.534;  615.925;    0.000;    0.000
433.585;  616.925;    0.000;    0.000
433.635;  601.925;    0.000;    0.000
433.685;  576.925;    0.000;    0.000
433.736;  616.925;    0.000;    0.000
433.786;  626.925;    0.000;    0.000
433.836;  701.925;    0.000;    0.000
433.887;  615.925;    0.000;    0.000
433.937;  635.925;    0.000;    0.000
433.987;  623.925;    0.000;    0.000
434.038;  624.925;    0.000;    0.000
434.088;  629.925;    0.000;    0.000
434.138;  586.925;    0.000;    0.000
434.188;  596.925;    0.000;    0.000
434.239;  592.925;    0.000;    0.000
434.289;  599.925;    0.000;    0.000
434.339;  605.925;    0.000;    0.000
434.389;  600.925;    0.000;    0.000
434.440;  665.925;    0.000;    0.000
434.490;  633.925;    0.000;    0.000
434.540;  646.925;    0.000;    0.000
434.590;  637.925;    0.000;    0.000
434.640;  595.925;    0.000;    0.000
434.691;  651.925;    0.000;    0.000
434.741;  659.925;    0.000;    0.000
434.791;  622.925;    0.000;    0.000
434.841;  589.925;    0.000;    0.000
434.891;  686.925;    0.000;    0.000
434.941;  656.925;    0.000;    0.000
434.991;  630.925;    0.000;    0.000
435.042;  668.925;    0.000;    0.000
435.092;  655.925;    0.000;    0.000
435.142;  666.925;    0.000;    0.000
435.192;  623.925;    0.000;    0.000
435.242;  640.925;    0.000;    0.000
435.292;  633.925;    0.000;    0.000
435.342;  616.925;    0.000;    0.000
435.392;  608.925;    0.000;    0.000
435.442;  648.925;    0.000;    0.000
435.492;  645.925;    0.000;    0.000
435.542;  623.925;    0.000;    0.000
435.592;  609.925;    0.000;    0.000
435.642;  599.925;    0.000;    0.000
435.692;  601.925;    0.000;    0.000
435.742;  651.925;    0.000;    0.000
435.792;  628.925;    0.000;    0.000
435.842;  631.925;    0.000;    0.000
435.891;  572.925;    0.000;    0.000
435.941;  579.925;    0.000;    0.000
435.991;  616.925;    0.000;    0.000
436.041;  575.925;    0.000;    0.000
436.091;  590.925;    0.000;    0.000
436.141;  583.925;    0.000;    0.000
436.191;  606.925;    0.000;    0.000
436.241;  589.925;    0.000;    0.000
436.290;  610.925;    0.000;    0.000
436.340;  602.925;    0.000;    0.000
436.390;  646.925;    0.000;    0.000
436.440;  594.925;    0.000;    0.000
436.490;  577.925;    0.000;    0.000
436.539;  596.925;    0.000;    0.000
436.589;  612.925;    0.000;    0.000
436.639;  610.925;    0.000;    0.000
436.689;  608.925;    0.000;    0.000
436.738;  639.925;    0.000;    0.000
436.788;  587.925;    0.000;    0.000
436.838;  599.925;    0.000;    0.000
436.887;  642.925;    0.000;    0.000
436.937;  595.925;    0.000;    0.000
436.987;  622.925;    0.000;    0.000
437.036;  594.925;    0.000;    0.000
437.086;  618.925;    0.000;    0.000
437.136;  598.925;    0.000;    0.000
437.185;  600.925;    0.000;    0.000
437.235;  654.925;    0.000;    0.000
437.285;  568.925;    0.000;    0.000
437.334;  578.925;    0.000;    0.000
437.384;  600.925;    0.000;    0.000
437.433;  577.925;    0.000;    0.000
437.483;  650.925;    0.000;    0.000
437.532;  577.925;    0.000;    0.000
437.582;  634.925;    0.000;    0.000
437.631;  591.925;    0.000;    0.000
437.681;  611.925;    0.000;    0.000
437.731;  574.925;    0.000;    0.000
437.780;  549.925;    0.000;    0.000
437.829;  630.925;    0.000;    0.000
437.879;  596.925;    0.000;    0.000
437.928;  586.925;    0.000;    0.000
437.978;  596.925;    0.000;    0.000
438.027;  589.925;    0.000;    0.000
438.077;  616.925;    0.000;    0.000
438.126;  625.925;    0.000;    0.000
438.176;  624.925;    0.000;    0.000
438.225;  661.925;    0.000;    0.000
438.274;  811.925;    0.000;    0.000
438.324;  973.925;    0.000;    0.000
438.373;  943.925;    0.000;    0.000
438.422;  783.925;    0.000;    0.000
438.472;  647.925;    0.000;    0.000
438.521;  604.925;    0.000;    0.000
438.571;  617.925;    0.000;    0.000
438.620;  632.925;    0.000;    0.000
438.669;  598.925;    0.000;    0.000
438.718;  588.925;    0.000;    0.000
438.768;  575.925;    0.000;    0.000
438.817;  589.925;    0.000;    0.000
438.866;  607.925;    0.000;    0.000
438.915;  608.925;    0.000;    0.000
438.965;  595.925;    0.000;    0.000
439.014;  618.925;    0.000;    0.000
439.063;  615.925;    0.000;    0.000
439.112;  608.925;    0.000;    0.000
439.162;  655.925;    0.000;    0.000
439.211;  660.925;    0.000;    0.000
439.260;  624.925;    0.000;    0.000
439.309;  656.925;    0.000;    0.000
439.358;  607.925;    0.000;    0.000
439.407;  628.925;    0.000;    0.000
439.456;  643.925;    0.000;    0.000
439.506;  673.925;    0.000;    0.000
439.555;  671.925;    0.000;    0.000
439.604;  658.925;    0.000;    0.000
439.653;  659.925;    0.000;    0.000
439.702;  630.925;    0.000;    0.000
439.751;  591.925;    0.000;    0.000
439.800;  588.925;    0.000;    0.000
439.849;  590.925;    0.000;    0.000
439.898;  622.925;    0.000;    0.000
439.947;  666.925;    0.000;    0.000
439.996;  658.925;    0.000;    0.000
440.045;  643.925;    0.000;    0.000
440.094;  632.925;    0.000;    0.000
440.143;  622.925;    0.000;    0.000
440.192;  614.925;    0.000;    0.000
440.241;  656.925;    0.000;    0.000
440.290;  654.925;    0.000;    0.000
440.339;  629.925;    0.000;    0.000
440.388;  702.925;    0.000;    0.000
440.437;  814.925;    0.000;    0.000
440.486;  805.925;    0.000;    0.000
440.535;  794.925;    0.000;    0.000
440.583;  639.925;    0.000;    0.000
440.632;  626.925;    0.000;    0.000
440.681;  640.925;    0.000;    0.000
440.730;  687.925;    0.000;    0.000
440.779;  676.925;    0.000;    0.000
440.828;  596.925;    0.000;    0.000
440.876;  614.925;    0.000;    0.000
440.925;  593.925;    0.000;    0.000
440.974;  612.925;    0.000;    0.000
441.023;  639.925;    0.000;    0.000
441.072;  665.925;    0.000;    0.000
441.120;  664.925;    0.000;    0.000
441.169;  679.925;    0.000;    0.000
441.218;  645.925;    0.000;    0.000
441.267;  668.925;    0.000;    0.000
441.315;  677.925;    0.000;    0.000
441.364;  681.925;    0.000;    0.000
441.413;  690.925;    0.000;    0.000
441.461;  679.925;    0.000;    0.000
441.510;  737.925;    0.000;    0.000
441.559;  733.925;    0.000;    0.000
441.607;  673.925;    0.000;    0.000
441.656;  680.925;    0.000;    0.000
441.705;  682.925;    0.000;    0.000
441.753;  719.925;    0.000;    0.000
441.802;  713.925;    0.000;    0.000
441.850;  683.925;    0.000;    0.000
441.899;  669.925;    0.000;    0.000
441.948;  684.925;    0.000;    0.000
441.996;  660.925;    0.000;    0.000
442.045;  721.925;    0.000;    0.000
442.093;  664.925;    0.000;    0.000
442.142;  689.925;    0.000;    0.000
442.190;  729.925;    0.000;    0.000
442.239;  721.925;    0.000;    0.000
442.287;  665.925;    0.000;    0.000
442.336;  681.925;    0.000;    0.000
442.384;  671.925;    0.000;    0.000
442.433;  705.925;    0.000;    0.000
442.481;  759.925;    0.000;    0.000
442.529;  703.925;    0.000;    0.000
442.578;  725.925;    0.000;    0.000
442.626;  722.925;    0.000;    0.000
442.675;  767.925;    0.000;    0.000
442.723;  712.925;    0.000;    0.000
442.771;  706.925;    0.000;    0.000
442.820;  679.925;    0.000;    0.000
442.868;  676.925;    0.000;    0.000
442.917;  672.925;    0.000;    0.000
442.965;  707.925;    0.000;    0.000
443.013;  752.925;    0.000;    0.000
443.062;  682.925;    0.000;    0.000
443.110;  681.925;    0.000;    0.000
443.158;  685.925;    0.000;    0.000
443.206;  740.925;    0.000;    0.000
443.255;  681.925;    0.000;    0.000
443.303;  720.925;    0.000;    0.000
443.351;  733.925;    0.000;    0.000
443.399;  725.925;    0.000;    0.000
443.448;  711.925;    0.000;    0.000
443.496;  745.925;    0.000;    0.000
443.544;  707.925;    0.000;    0.000
443.592;  797.925;    0.000;    0.000
443.640;  789.925;    0.000;    0.000
443.689;  736.925;    0.000;    0.000
443.737;  685.925;    0.000;    0.000
443.785;  716.925;    0.000;    0.000
443.833;  757.925;    0.000;    0.000
443.881;  717.925;    0.000;    0.000
443.929;  733.925;    0.000;    0.000
443.977;  739.925;    0.000;    0.000
444.025;  677.925;    0.000;    0.000
444.074;  693.925;    0.000;    0.000
444.122;  775.925;    0.000;    0.000
444.170;  803.925;    0.000;    0.000
444.218;  748.925;    0.000;    0.000
444.266;  783.925;    0.000;    0.000
444.314;  737.925;    0.000;    0.000
444.362;  792.925;    0.000;    0.000
444.410;  764.925;    0.000;    0.000
444.458;  769.925;    0.000;    0.000
444.506;  742.925;    0.000;    0.000
444.554;  721.925;    0.000;    0.000
444.602;  763.925;    0.000;    0.000
444.650;  727.925;    0.000;    0.000
444.698;  709.925;    0.000;    0.000
444.746;  790.925;    0.000;    0.000
444.793;  801.925;    0.000;    0.000
444.841;  860.925;    0.000;    0.000
444.889;  776.925;    0.000;    0.000
444.937;  781.925;    0.000;    0.000
444.985;  796.925;    0.000;    0.000
445.033;  807.925;    0.000;    0.000
445.081;  769.925;    0.000;    0.000
445.129;  793.925;    0.000;    0.000
445.176;  761.925;    0.000;    0.000
445.224;  835.925;    0.000;    0.000
445.272;  784.925;    0.000;    0.000
445.320;  801.925;    0.000;    0.000
445.368;  787.925;    0.000;    0.000
445.415;  845.925;    0.000;    0.000
445.463;  862.925;    0.000;    0.000
445.511;  857.925;    0.000;    0.000
445.559;  811.925;    0.000;    0.000
445.606;  820.925;    0.000;    0.000
445.654;  795.925;    0.000;    0.000
445.702;  788.925;    0.000;    0.000
445.749;  857.925;    0.000;    0.000
445.797;  840.925;    0.000;    0.000
445.845;  787.925;    0.000;    0.000
445.892;  812.925;    0.000;    0.000
445.940;  811.925;    0.000;    0.000
445.988;  861.925;    0.000;    0.000
446.035;  817.925;    0.000;    0.000
446.083;  850.925;    0.000;    0.000
446.131;  817.925;    0.000;    0.000
446.178;  840.925;    0.000;    0.000
446.226;  831.925;    0.000;    0.000
446.273;  867.925;    0.000;    0.000
446.321;  848.925;    0.000;    0.000
446.368;  909.925;    0.000;    0.000
446.416;  845.925;    0.000;    0.000
446.463;  908.925;    0.000;    0.000
446.511;  910.925;    0.000;    0.000
446.558;  915.925;    0.000;    0.000
446.606;  919.925;    0.000;    0.000
446.653;  891.925;    0.000;    0.000
446.701;  967.925;    0.000;    0.000
446.748;  910.925;    0.000;    0.000
446.796;  912.925;    0.000;    0.000
446.843; 1034.925;    0.000;    0.000
446.891;  950.925;    0.000;    0.000
446.938;  980.925;    0.000;    0.000
446.985; 1006.925;    0.000;    0.000
447.033; 1051.925;    0.000;    0.000
447.080;  992.925;    0.000;    0.000
447.128; 1044.925;    0.000;    0.000
447.175; 1085.925;    0.000;    0.000
447.222; 1024.925;    0.000;    0.000
447.270; 1124.925;    0.000;    0.000
447.317;  987.925;    0.000;    0.000
447.364; 1101.925;    0.000;    0.000
447.411; 1111.925;    0.000;    0.000
447.459; 1135.925;    0.000;    0.000
447.506; 1117.925;    0.000;    0.000
447.553; 1218.925;    0.000;    0.000
447.601; 1199.925;    0.000;    0.000
447.648; 1202.925;    0.000;    0.000
447.695; 1268.925;    0.000;    0.000
447.742; 1269.925;    0.000;    0.000
447.789; 1216.925;    0.000;    0.000
447.837; 1306.925;    0.000;    0.000
447.884; 1352.925;    0.000;    0.000
447.931; 1345.925;    0.000;    0.000
447.978; 1385.925;    0.000;    0.000
448.025; 1417.925;    0.000;    0.000
448.072; 1468.925;    0.000;    0.000
448.120; 1389.925;    0.000;    0.000
448.167; 1411.925;    0.000;    0.000
448.214; 1335.925;    0.000;    0.000
448.261; 1341.925;    0.000;    0.000
448.308; 1257.925;    0.000;    0.000
448.355; 1291.925;    0.000;    0.000
448.402; 1304.925;    0.000;    0.000
448.449; 1246.925;    0.000;    0.000
448.496; 1265.925;    0.000;    0.000
448.543; 1213.925;    0.000;    0.000
448.590; 1216.925;    0.000;    0.000
448.637; 1213.925;    0.000;    0.000
448.684; 1154.925;    0.000;    0.000
448.731; 1127.925;    0.000;    0.000
448.778; 1111.925;    0.000;    0.000
448.825; 1079.925;    0.000;    0.000
448.872; 1047.925;    0.000;    0.000
448.919; 1044.925;    0.000;    0.000
448.966; 1068.925;    0.000;    0.000
449.013; 1034.925;    0.000;    0.000
449.060; 1032.925;    0.000;    0.000
449.107;  960.925;    0.000;    0.000
449.154;  945.925;    0.000;    0.000
449.200;  987.925;    0.000;    0.000
449.247;  930.925;    0.000;    0.000
449.294; 1025.925;    0.000;    0.000
449.341;  911.925;    0.000;    0.000
449.388;  953.925;    0.000;    0.000
449.435;  940.925;    0.000;    0.000
449.481;  926.925;    0.000;    0.000
449.528;  967.925;    0.000;    0.000
449.575;  956.925;    0.000;    0.000
449.622;  935.925;    0.000;    0.000
449.668;  869.925;    0.000;    0.000
449.715;  918.925;    0.000;    0.000
449.762;  890.925;    0.000;    0.000
449.809;  867.925;    0.000;    0.000
449.855;  908.925;    0.000;    0.000
449.902;  889.925;    0.000;    0.000
449.949;  882.925;    0.000;    0.000
449.995;  858.925;    0.000;    0.000
450.042;  800.925;    0.000;    0.000
450.089;  897.925;    0.000;    0.000
450.135;  917.925;    0.000;    0.000
450.182;  842.925;    0.000;    0.000
450.229;  790.925;    0.000;    0.000
450.275;  831.925;    0.000;    0.000
450.322;  849.925;    0.000;    0.000
450.368;  833.925;    0.000;    0.000
450.415;  846.925;    0.000;    0.000
450.462;  836.925;    0.000;    0.000
450.508;  844.925;    0.000;    0.000
450.555;  799.925;    0.000;    0.000
450.601;  813.925;    0.000;    0.000
450.648;  816.925;    0.000;    0.000
450.694;  851.925;    0.000;    0.000
450.741;  823.925;    0.000;    0.000
450.787;  832.925;    0.000;    0.000
450.834;  767.925;    0.000;    0.000
450.880;  803.925;    0.000;    0.000
450.927;  762.925;    0.000;    0.000
450.973;  740.925;    0.000;    0.000
451.019;  779.925;    0.000;    0.000
451.066;  780.925;    0.000;    0.000
451.112;  798.925;    0.000;    0.000
451.159;  806.925;    0.000;    0.000
451.205;  787.925;    0.000;    0.000
451.251;  826.925;    0.000;    0.000
451.298;  791.925;    0.000;    0.000
451.344;  778.925;    0.000;    0.000
451.390;  830.925;    0.000;    0.000
451.437;  756.925;    0.000;    0.000
451.483;  756.925;    0.000;    0.000
451.529;  772.925;    0.000;    0.000
451.576;  736.925;    0.000;    0.000
451.622;  704.925;    0.000;    0.000
451.668;  741.925;    0.000;    0.000
451.714;  785.925;    0.000;    0.000
451.761;  767.925;    0.000;    0.000
451.807;  797.925;    0.000;    0.000
451.853;  769.925;    0.000;    0.000
451.899;  725.925;    0.000;    0.000
451.945;  711.925;    0.000;    0.000
451.992;  726.925;    0.000;    0.000
452.038;  713.925;    0.000;    0.000
452.084;  715.925;    0.000;    0.000
452.130;  727.925;    0.000;    0.000
452.176;  700.925;    0.000;    0.000
452.222;  730.925;    0.000;    0.000
452.268;  717.925;    0.000;    0.000
452.315;  700.925;    0.000;    0.000
452.361;  708.925;    0.000;    0.000
452.407;  709.925;    0.000;    0.000
452.453;  726.925;    0.000;    0.000
452.499;  691.925;    0.000;    0.000
452.545;  671.925;    0.000;    0.000
452.591;  733.925;    0.000;    0.000
452.637;  717.925;    0.000;    0.000
452.683;  720.925;    0.000;    0.000
452.729;  716.925;    0.000;    0.000
452.775;  706.925;    0.000;    0.000
452.821;  745.925;    0.000;    0.000
452.867;  713.925;    0.000;    0.000
452.913;  723.925;    0.000;    0.000
452.959;  715.925;    0.000;    0.000
453.005;  738.925;    0.000;    0.000
453.051;  705.925;    0.000;    0.000
453.097;  737.925;    0.000;    0.000
453.142;  668.925;    0.000;    0.000
453.188;  696.925;    0.000;    0.000
453.234;  724.925;    0.000;    0.000
453.280;  767.925;    0.000;    0.000
453.326;  741.925;    0.000;    0.000
453.372;  763.925;    0.000;    0.000
453.418;  757.925;    0.000;    0.000
453.463;  831.925;    0.000;    0.000
453.509;  802.925;    0.000;    0.000
453.555;  855.925;    0.000;    0.000
453.601;  758.925;    0.000;    0.000
453.647;  743.925;    0.000;    0.000
453.692;  678.925;    0.000;    0.000
453.738;  716.925;    0.000;    0.000
453.784;  646.925;    0.000;    0.000
453.829;  696.925;    0.000;    0.000
453.875;  652.925;    0.000;    0.000
453.921;  672.925;    0.000;    0.000
453.967;  687.925;    0.000;    0.000
454.012;  702.925;    0.000;    0.000
454.058;  691.925;    0.000;    0.000
454.104;  683.925;    0.000;    0.000
454.149;  715.925;    0.000;    0.000
454.195;  644.925;    0.000;    0.000
454.240;  752.925;    0.000;    0.000
454.286;  690.925;    0.000;    0.000
454.332;  708.925;    0.000;    0.000
454.377;  682.925;    0.000;    0.000
454.423;  683.925;    0.000;    0.000
454.468;  663.925;    0.000;    0.000
454.514;  672.925;    0.000;    0.000
454.559;  651.925;    0.000;    0.000
454.605;  628.925;    0.000;    0.000
454.650;  632.925;    0.000;    0.000
454.696;  676.925;    0.000;    0.000
454.741;  719.925;    0.000;    0.000
454.787;  664.925;    0.000;    0.000
454.832;  691.925;    0.000;    0.000
454.878;  701.925;    0.000;    0.000
454.923;  695.925;    0.000;    0.000
454.969;  718.925;    0.000;    0.000
455.014;  647.925;    0.000;    0.000
455.060;  706.925;    0.000;    0.000
455.105;  713.925;    0.000;    0.000
455.150;  732.925;    0.000;    0.000
455.196;  730.925;    0.000;    0.000
455.241;  706.925;    0.000;    0.000
455.286;  732.925;    0.000;    0.000
455.332;  669.925;    0.000;    0.000
455.377;  627.925;    0.000;    0.000
455.422;  660.925;    0.000;    0.000
455.468;  666.925;    0.000;    0.000
455.513;  663.925;    0.000;    0.000
455.558;  601.925;    0.000;    0.000
455.604;  654.925;    0.000;    0.000
455.649;  673.925;    0.000;    0.000
455.694;  670.925;    0.000;    0.000
455.739;  658.925;    0.000;    0.000
455.785;  713.925;    0.000;    0.000
455.830;  682.925;    0.000;    0.000
455.875;  663.925;    0.000;    0.000
455.920;  618.925;    0.000;    0.000
455.965;  656.925;    0.000;    0.000
456.010;  711.925;    0.000;    0.000
456.056;  676.925;    0.000;    0.000
456.101;  650.925;    0.000;    0.000
456.146;  638.925;    0.000;    0.000
456.191;  669.925;    0.000;    0.000
456.236;  650.925;    0.000;    0.000
456.281;  665.925;    0.000;    0.000
456.326;  690.925;    0.000;    0.000
456.371;  636.925;    0.000;    0.000
456.416;  645.925;    0.000;    0.000
456.461;  638.925;    0.000;    0.000
456.506;  653.925;    0.000;    0.000
456.552;  636.925;    0.000;    0.000
456.597;  665.925;    0.000;    0.000
456.642;  675.925;    0.000;    0.000
456.687;  698.925;    0.000;    0.000
456.732;  673.925;    0.000;    0.000
456.776;  669.925;    0.000;    0.000
456.821;  593.925;    0.000;    0.000
456.866;  628.925;    0.000;    0.000
456.911;  634.925;    0.000;    0.000
456.956;  611.925;    0.000;    0.000
457.001;  665.925;    0.000;    0.000
457.046;  667.925;    0.000;    0.000
457.091;  631.925;    0.000;    0.000
457.136;  624.925;    0.000;    0.000
457.181;  656.925;    0.000;    0.000
457.225;  697.925;    0.000;    0.000
457.270;  658.925;    0.000;    0.000
457.315;  642.925;    0.000;    0.000
457.360;  667.925;    0.000;    0.000
457.405;  677.925;    0.000;    0.000
457.450;  701.925;    0.000;    0.000
457.494;  672.925;    0.000;    0.000
457.539;  632.925;    0.000;    0.000
457.584;  638.925;    0.000;    0.000
457.629;  595.925;    0.000;    0.000
457.673;  615.925;    0.000;    0.000
457.718;  625.925;    0.000;    0.000
457.763;  695.925;    0.000;    0.000
457.807;  658.925;    0.000;    0.000
457.852;  688.925;    0.000;    0.000
457.897;  638.925;    0.000;    0.000
457.941;  663.925;    0.000;    0.000
457.986;  688.925;    0.000;    0.000
458.031;  636.925;    0.000;    0.000
458.075;  665.925;    0.000;    0.000
458.120;  648.925;    0.000;    0.000
458.165;  646.925;    0.000;    0.000
458.209;  659.925;    0.000;    0.000
458.254;  607.925;    0.000;    0.000
458.298;  675.925;    0.000;    0.000
458.343;  659.925;    0.000;    0.000
458.387;  618.925;    0.000;    0.000
458.432;  654.925;    0.000;    0.000
458.476;  694.925;    0.000;    0.000
458.521;  652.925;    0.000;    0.000
458.565;  698.925;    0.000;    0.000
458.610;  686.925;    0.000;    0.000
458.654;  638.925;    0.000;    0.000
458.699;  666.925;    0.000;    0.000
458.743;  633.925;    0.000;    0.000
458.788;  704.925;    0.000;    0.000
458.832;  672.925;    0.000;    0.000
458.877;  648.925;    0.000;    0.000
458.921;  664.925;    0.000;    0.000
458.965;  677.925;    0.000;    0.000
459.010;  679.925;    0.000;    0.000
459.054;  683.925;    0.000;    0.000
459.098;  633.925;    0.000;    0.000
459.143;  655.925;    0.000;    0.000
459.187;  639.925;    0.000;    0.000
459.231;  646.925;    0.000;    0.000
459.276;  656.925;    0.000;    0.000
459.320;  685.925;    0.000;    0.000
459.364;  724.925;    0.000;    0.000
459.409;  656.925;    0.000;    0.000
459.453;  668.925;    0.000;    0.000
459.497;  691.925;    0.000;    0.000
459.541;  653.925;    0.000;    0.000
459.586;  645.925;    0.000;    0.000
459.630;  667.925;    0.000;    0.000
459.674;  637.925;    0.000;    0.000
459.718;  666.925;    0.000;    0.000
459.762;  643.925;    0.000;    0.000
459.807;  679.925;    0.000;    0.000
459.851;  704.925;    0.000;    0.000
459.895;  597.925;    0.000;    0.000
459.939;  664.925;    0.000;    0.000
459.983;  654.925;    0.000;    0.000
460.027;  650.925;    0.000;    0.000
460.071;  725.925;    0.000;    0.000
460.115;  673.925;    0.000;    0.000
460.159;  693.925;    0.000;    0.000
460.204;  694.925;    0.000;    0.000
460.248;  694.925;    0.000;    0.000
460.292;  683.925;    0.000;    0.000
460.336;  651.925;    0.000;    0.000
460.380;  641.925;    0.000;    0.000
460.424;  728.925;    0.000;    0.000
460.468;  698.925;    0.000;    0.000
460.512;  712.925;    0.000;    0.000
460.556;  712.925;    0.000;    0.000
460.600;  637.925;    0.000;    0.000
460.643;  697.925;    0.000;    0.000
460.687;  710.925;    0.000;    0.000
460.731;  645.925;    0.000;    0.000
460.775;  703.925;    0.000;    0.000
460.819;  699.925;    0.000;    0.000
460.863;  695.925;    0.000;    0.000
460.907;  614.925;    0.000;    0.000
460.951;  667.925;    0.000;    0.000
460.995;  690.925;    0.000;    0.000
461.038;  616.925;    0.000;    0.000
461.082;  674.925;    0.000;    0.000
461.126;  698.925;    0.000;    0.000
461.170;  662.925;    0.000;    0.000
461.214;  674.925;    0.000;    0.000
461.257;  691.925;    0.000;    0.000
461.301;  684.925;    0.000;    0.000
461.345;  686.925;    0.000;    0.000
461.389;  662.925;    0.000;    0.000
461.432;  680.925;    0.000;    0.000
461.476;  684.925;    0.000;    0.000
461.520;  709.925;    0.000;    0.000
461.563;  662.925;    0.000;    0.000
461.607;  664.925;    0.000;    0.000
461.651;  635.925;    0.000;    0.000
461.694;  677.925;    0.000;    0.000
461.738;  711.925;    0.000;    0.000
461.782;  704.925;    0.000;    0.000
461.825;  711.925;    0.000;    0.000
461.869;  688.925;    0.000;    0.000
461.913;  645.925;    0.000;    0.000
461.956;  692.925;    0.000;    0.000
462.000;  667.925;    0.000;    0.000
462.043;  736.925;    0.000;    0.000
462.087;  689.925;    0.000;    0.000
462.130;  719.925;    0.000;    0.000
462.174;  737.925;    0.000;    0.000
462.217;  724.925;    0.000;    0.000
462.261;  727.925;    0.000;    0.000
462.304;  701.925;    0.000;    0.000
462.348;  692.925;    0.000;    0.000
462.391;  753.925;    0.000;    0.000
462.435;  743.925;    0.000;    0.000
462.478;  702.925;    0.000;    0.000
462.522;  687.925;    0.000;    0.000
462.565;  721.925;    0.000;    0.000
462.608;  747.925;    0.000;    0.000
462.652;  702.925;    0.000;    0.000
462.695;  746.925;    0.000;    0.000
462.739;  710.925;    0.000;    0.000
462.782;  751.925;    0.000;    0.000
462.825;  750.925;    0.000;    0.000
462.869;  740.925;    0.000;    0.000
462.912;  774.925;    0.000;    0.000
462.955;  714.925;    0.000;    0.000
462.998;  740.925;    0.000;    0.000
463.042;  744.925;    0.000;    0.000
463.085;  813.925;    0.000;    0.000
463.128;  772.925;    0.000;    0.000
463.172;  724.925;    0.000;    0.000
463.215;  329.925;    0.000;    0.000
463.258;  313.925;    0.000;    0.000
463.301;  305.925;    0.000;    0.000
463.344;  327.925;    0.000;    0.000
463.388;  339.925;    0.000;    0.000
463.431;  299.925;    0.000;    0.000
463.474;  355.925;    0.000;    0.000
463.517;  315.925;    0.000;    0.000
463.560;  344.925;    0.000;    0.000
463.603;  324.925;    0.000;    0.000
463.646;  366.925;    0.000;    0.000
463.690;  340.925;    0.000;    0.000
463.733;  332.925;    0.000;    0.000
463.776;  321.925;    0.000;    0.000
463.819;  331.925;    0.000;    0.000
463.862;  328.925;    0.000;    0.000

