
Integration time [ms]:   1.000
Averaging Nr. [scans]: 1
Smoothing Nr. [pixels]: 0
Data measured with spectrometer [name]: UV1
Wave   ;Sample   ;Dark     ;Reference
[nm]   ;[counts] ;[counts] ;[counts] 

236.381;  143.725;    0.000;    0.000
236.451;  195.725;    0.000;    0.000
236.520;  187.725;    0.000;    0.000
236.590;  213.725;    0.000;    0.000
236.660;  161.725;    0.000;    0.000
236.730;  183.725;    0.000;    0.000
236.799;  179.725;    0.000;    0.000
236.869;  165.725;    0.000;    0.000
236.939;  188.725;    0.000;    0.000
237.009;  196.725;    0.000;    0.000
237.078;  187.725;    0.000;    0.000
237.148;  161.725;    0.000;    0.000
237.218;  206.725;    0.000;    0.000
237.287;  197.725;    0.000;    0.000
237.357;  185.725;    0.000;    0.000
237.427;  173.725;    0.000;    0.000
237.496;  412.725;    0.000;    0.000
237.566;  296.725;    0.000;    0.000
237.636;  322.725;    0.000;    0.000
237.705;  328.725;    0.000;    0.000
237.775;  326.725;    0.000;    0.000
237.845;  341.725;    0.000;    0.000
237.914;  325.725;    0.000;    0.000
237.984;  342.725;    0.000;    0.000
238.054;  293.725;    0.000;    0.000
238.123;  336.725;    0.000;    0.000
238.193;  332.725;    0.000;    0.000
238.263;  322.725;    0.000;    0.000
238.332;  324.725;    0.000;    0.000
238.402;  362.725;    0.000;    0.000
238.471;  337.725;    0.000;    0.000
238.541;  329.725;    0.000;    0.000
238.611;  312.725;    0.000;    0.000
238.680;  327.725;    0.000;    0.000
238.750;  308.725;    0.000;    0.000
238.819;  380.725;    0.000;    0.000
238.889;  354.725;    0.000;    0.000
238.958;  321.725;    0.000;    0.000
239.028;  331.725;    0.000;    0.000
239.097;  343.725;    0.000;    0.000
239.167;  349.725;    0.000;    0.000
239.237;  358.725;    0.000;    0.000
239.306;  316.725;    0.000;    0.000
239.376;  357.725;    0.000;    0.000
239.445;  379.725;    0.000;    0.000
239.515;  398.725;    0.000;    0.000
239.584;  346.725;    0.000;    0.000
239.654;  303.725;    0.000;    0.000
239.723;  360.725;    0.000;    0.000
239.793;  321.725;    0.000;    0.000
239.862;  326.725;    0.000;    0.000
239.932;  344.725;    0.000;    0.000
240.001;  297.725;    0.000;    0.000
240.070;  339.725;    0.000;    0.000
240.140;  340.725;    0.000;    0.000
240.209;  308.725;    0.000;    0.000
240.279;  303.725;    0.000;    0.000
240.348;  354.725;    0.000;    0.000
240.418;  299.725;    0.000;    0.000
240.487;  351.725;    0.000;    0.000
240.556;  305.725;    0.000;    0.000
240.626;  315.725;    0.000;    0.000
240.695;  318.725;    0.000;    0.000
240.765;  319.725;    0.000;    0.000
240.834;  337.725;    0.000;    0.000
240.903;  326.725;    0.000;    0.000
240.973;  351.725;    0.000;    0.000
241.042;  320.725;    0.000;    0.000
241.112;  333.725;    0.000;    0.000
241.181;  342.725;    0.000;    0.000
241.250;  284.725;    0.000;    0.000
241.320;  349.725;    0.000;    0.000
241.389;  319.725;    0.000;    0.000
241.458;  362.725;    0.000;    0.000
241.528;  326.725;    0.000;    0.000
241.597;  371.725;    0.000;    0.000
241.666;  306.725;    0.000;    0.000
241.736;  355.725;    0.000;    0.000
241.805;  310.725;    0.000;    0.000
241.874;  348.725;    0.000;    0.000
241.943;  345.725;    0.000;    0.000
242.013;  362.725;    0.000;    0.000
242.082;  309.725;    0.000;    0.000
242.151;  314.725;    0.000;    0.000
242.221;  287.725;    0.000;    0.000
242.290;  360.725;    0.000;    0.000
242.359;  272.725;    0.000;    0.000
242.428;  350.725;    0.000;    0.000
242.498;  294.725;    0.000;    0.000
242.567;  339.725;    0.000;    0.000
242.636;  293.725;    0.000;    0.000
242.705;  327.725;    0.000;    0.000
242.774;  334.725;    0.000;    0.000
242.844;  314.725;    0.000;    0.000
242.913;  335.725;    0.000;    0.000
242.982;  308.725;    0.000;    0.000
243.051;  329.725;    0.000;    0.000
243.120;  346.725;    0.000;    0.000
243.190;  294.725;    0.000;    0.000
243.259;  367.725;    0.000;    0.000
243.328;  275.725;    0.000;    0.000
243.397;  336.725;    0.000;    0.000
243.466;  308.725;    0.000;    0.000
243.535;  294.725;    0.000;    0.000
243.605;  303.725;    0.000;    0.000
243.674;  333.725;    0.000;    0.000
243.743;  395.725;    0.000;    0.000
243.812;  323.725;    0.000;    0.000
243.881;  332.725;    0.000;    0.000
243.950;  323.725;    0.000;    0.000
244.019;  324.725;    0.000;    0.000
244.088;  313.725;    0.000;    0.000
244.158;  341.725;    0.000;    0.000
244.227;  307.725;    0.000;    0.000
244.296;  327.725;    0.000;    0.000
244.365;  325.725;    0.000;    0.000
244.434;  282.725;    0.000;    0.000
244.503;  292.725;    0.000;    0.000
244.572;  313.725;    0.000;    0.000
244.641;  303.725;    0.000;    0.000
244.710;  336.725;    0.000;    0.000
244.779;  288.725;    0.000;    0.000
244.848;  279.725;    0.000;    0.000
244.917;  328.725;    0.000;    0.000
244.986;  261.725;    0.000;    0.000
245.055;  287.725;    0.000;    0.000
245.124;  301.725;    0.000;    0.000
245.193;  291.725;    0.000;    0.000
245.262;  331.725;    0.000;    0.000
245.331;  306.725;    0.000;    0.000
245.400;  303.725;    0.000;    0.000
245.469;  318.725;    0.000;    0.000
245.538;  313.725;    0.000;    0.000
245.607;  311.725;    0.000;    0.000
245.676;  300.725;    0.000;    0.000
245.745;  321.725;    0.000;    0.000
245.814;  292.725;    0.000;    0.000
245.883;  334.725;    0.000;    0.000
245.952;  319.725;    0.000;    0.000
246.021;  317.725;    0.000;    0.000
246.090;  330.725;    0.000;    0.000
246.159;  303.725;    0.000;    0.000
246.227;  310.725;    0.000;    0.000
246.296;  351.725;    0.000;    0.000
246.365;  302.725;    0.000;    0.000
246.434;  350.725;    0.000;    0.000
246.503;  335.725;    0.000;    0.000
246.572;  330.725;    0.000;    0.000
246.641;  307.725;    0.000;    0.000
246.710;  328.725;    0.000;    0.000
246.779;  306.725;    0.000;    0.000
246.847;  333.725;    0.000;    0.000
246.916;  306.725;    0.000;    0.000
246.985;  299.725;    0.000;    0.000
247.054;  269.725;    0.000;    0.000
247.123;  266.725;    0.000;    0.000
247.192;  288.725;    0.000;    0.000
247.260;  298.725;    0.000;    0.000
247.329;  337.725;    0.000;    0.000
247.398;  316.725;    0.000;    0.000
247.467;  280.725;    0.000;    0.000
247.536;  371.725;    0.000;    0.000
247.604;  330.725;    0.000;    0.000
247.673;  286.725;    0.000;    0.000
247.742;  293.725;    0.000;    0.000
247.811;  295.725;    0.000;    0.000
247.879;  275.725;    0.000;    0.000
247.948;  274.725;    0.000;    0.000
248.017;  302.725;    0.000;    0.000
248.086;  342.725;    0.000;    0.000
248.154;  307.725;    0.000;    0.000
248.223;  325.725;    0.000;    0.000
248.292;  310.725;    0.000;    0.000
248.361;  356.725;    0.000;    0.000
248.429;  268.725;    0.000;    0.000
248.498;  267.725;    0.000;    0.000
248.567;  322.725;    0.000;    0.000
248.635;  378.725;    0.000;    0.000
248.704;  281.725;    0.000;    0.000
248.773;  281.725;    0.000;    0.000
248.841;  297.725;    0.000;    0.000
248.910;  346.725;    0.000;    0.000
248.979;  304.725;    0.000;    0.000
249.047;  312.725;    0.000;    0.000
249.116;  312.725;    0.000;    0.000
249.185;  336.725;    0.000;    0.000
249.253;  308.725;    0.000;    0.000
249.322;  279.725;    0.000;    0.000
249.390;  279.725;    0.000;    0.000
249.459;  301.725;    0.000;    0.000
249.528;  315.725;    0.000;    0.000
249.596;  259.725;    0.000;    0.000
249.665;  283.725;    0.000;    0.000
249.733;  321.725;    0.000;    0.000
249.802;  266.725;    0.000;    0.000
249.871;  305.725;    0.000;    0.000
249.939;  271.725;    0.000;    0.000
250.008;  323.725;    0.000;    0.000
250.076;  264.725;    0.000;    0.000
250.145;  268.725;    0.000;    0.000
250.213;  252.725;    0.000;    0.000
250.282;  281.725;    0.000;    0.000
250.350;  253.725;    0.000;    0.000
250.419;  257.725;    0.000;    0.000
250.487;  307.725;    0.000;    0.000
250.556;  303.725;    0.000;    0.000
250.624;  288.725;    0.000;    0.000
250.693;  230.725;    0.000;    0.000
250.761;  270.725;    0.000;    0.000
250.830;  309.725;    0.000;    0.000
250.898;  261.725;    0.000;    0.000
250.967;  263.725;    0.000;    0.000
251.035;  238.725;    0.000;    0.000
251.104;  250.725;    0.000;    0.000
251.172;  284.725;    0.000;    0.000
251.241;  280.725;    0.000;    0.000
251.309;  291.725;    0.000;    0.000
251.378;  268.725;    0.000;    0.000
251.446;  236.725;    0.000;    0.000
251.514;  295.725;    0.000;    0.000
251.583;  259.725;    0.000;    0.000
251.651;  261.725;    0.000;    0.000
251.720;  253.725;    0.000;    0.000
251.788;  307.725;    0.000;    0.000
251.856;  239.725;    0.000;    0.000
251.925;  255.725;    0.000;    0.000
251.993;  268.725;    0.000;    0.000
252.062;  292.725;    0.000;    0.000
252.130;  283.725;    0.000;    0.000
252.198;  279.725;    0.000;    0.000
252.267;  263.725;    0.000;    0.000
252.335;  287.725;    0.000;    0.000
252.403;  261.725;    0.000;    0.000
252.472;  251.725;    0.000;    0.000
252.540;  277.725;    0.000;    0.000
252.608;  265.725;    0.000;    0.000
252.677;  229.725;    0.000;    0.000
252.745;  264.725;    0.000;    0.000
252.813;  251.725;    0.000;    0.000
252.881;  214.725;    0.000;    0.000
252.950;  290.725;    0.000;    0.000
253.018;  274.725;    0.000;    0.000
253.086;  249.725;    0.000;    0.000
253.155;  247.725;    0.000;    0.000
253.223;  216.725;    0.000;    0.000
253.291;  238.725;    0.000;    0.000
253.359;  244.725;    0.000;    0.000
253.428;  272.725;    0.000;    0.000
253.496;  233.725;    0.000;    0.000
253.564;  233.725;    0.000;    0.000
253.632;  250.725;    0.000;    0.000
253.700;  253.725;    0.000;    0.000
253.769;  229.725;    0.000;    0.000
253.837;  246.725;    0.000;    0.000
253.905;  240.725;    0.000;    0.000
253.973;  222.725;    0.000;    0.000
254.041;  248.725;    0.000;    0.000
254.110;  258.725;    0.000;    0.000
254.178;  240.725;    0.000;    0.000
254.246;  251.725;    0.000;    0.000
254.314;  244.725;    0.000;    0.000
254.382;  257.725;    0.000;    0.000
254.450;  236.725;    0.000;    0.000
254.518;  243.725;    0.000;    0.000
254.587;  241.725;    0.000;    0.000
254.655;  251.725;    0.000;    0.000
254.723;  236.725;    0.000;    0.000
254.791;  269.725;    0.000;    0.000
254.859;  233.725;    0.000;    0.000
254.927;  282.725;    0.000;    0.000
254.995;  241.725;    0.000;    0.000
255.063;  271.725;    0.000;    0.000
255.131;  224.725;    0.000;    0.000
255.199;  234.725;    0.000;    0.000
255.267;  194.725;    0.000;    0.000
255.336;  266.725;    0.000;    0.000
255.404;  211.725;    0.000;    0.000
255.472;  237.725;    0.000;    0.000
255.540;  220.725;    0.000;    0.000
255.608;  212.725;    0.000;    0.000
255.676;  244.725;    0.000;    0.000
255.744;  237.725;    0.000;    0.000
255.812;  216.725;    0.000;    0.000
255.880;  255.725;    0.000;    0.000
255.948;  261.725;    0.000;    0.000
256.016;  233.725;    0.000;    0.000
256.084;  238.725;    0.000;    0.000
256.152;  233.725;    0.000;    0.000
256.220;  241.725;    0.000;    0.000
256.288;  278.725;    0.000;    0.000
256.356;  256.725;    0.000;    0.000
256.424;  192.725;    0.000;    0.000
256.491;  234.725;    0.000;    0.000
256.559;  240.725;    0.000;    0.000
256.627;  264.725;    0.000;    0.000
256.695;  197.725;    0.000;    0.000
256.763;  251.725;    0.000;    0.000
256.831;  232.725;    0.000;    0.000
256.899;  239.725;    0.000;    0.000
256.967;  225.725;    0.000;    0.000
257.035;  216.725;    0.000;    0.000
257.103;  265.725;    0.000;    0.000
257.171;  187.725;    0.000;    0.000
257.238;  207.725;    0.000;    0.000
257.306;  218.725;    0.000;    0.000
257.374;  205.725;    0.000;    0.000
257.442;  190.725;    0.000;    0.000
257.510;  251.725;    0.000;    0.000
257.578;  199.725;    0.000;    0.000
257.646;  258.725;    0.000;    0.000
257.713;  218.725;    0.000;    0.000
257.781;  214.725;    0.000;    0.000
257.849;  235.725;    0.000;    0.000
257.917;  211.725;    0.000;    0.000
257.985;  238.725;    0.000;    0.000
258.052;  230.725;    0.000;    0.000
258.120;  222.725;    0.000;    0.000
258.188;  249.725;    0.000;    0.000
258.256;  229.725;    0.000;    0.000
258.324;  262.725;    0.000;    0.000
258.391;  252.725;    0.000;    0.000
258.459;  248.725;    0.000;    0.000
258.527;  322.725;    0.000;    0.000
258.595;  328.725;    0.000;    0.000
258.662;  204.725;    0.000;    0.000
258.730;  265.725;    0.000;    0.000
258.798;  241.725;    0.000;    0.000
258.865;  216.725;    0.000;    0.000
258.933;  247.725;    0.000;    0.000
259.001;  243.725;    0.000;    0.000
259.069;  220.725;    0.000;    0.000
259.136;  298.725;    0.000;    0.000
259.204;  295.725;    0.000;    0.000
259.272;  303.725;    0.000;    0.000
259.339;  283.725;    0.000;    0.000
259.407;  295.725;    0.000;    0.000
259.475;  250.725;    0.000;    0.000
259.542;  251.725;    0.000;    0.000
259.610;  279.725;    0.000;    0.000
259.677;  281.725;    0.000;    0.000
259.745;  325.725;    0.000;    0.000
259.813;  522.725;    0.000;    0.000
259.880;  711.725;    0.000;    0.000
259.948;  703.725;    0.000;    0.000
260.016;  426.725;    0.000;    0.000
260.083;  326.725;    0.000;    0.000
260.151;  294.725;    0.000;    0.000
260.218;  313.725;    0.000;    0.000
260.286;  283.725;    0.000;    0.000
260.353;  298.725;    0.000;    0.000
260.421;  268.725;    0.000;    0.000
260.489;  340.725;    0.000;    0.000
260.556;  386.725;    0.000;    0.000
260.624;  407.725;    0.000;    0.000
260.691;  558.725;    0.000;    0.000
260.759;  457.725;    0.000;    0.000
260.826;  283.725;    0.000;    0.000
260.894;  294.725;    0.000;    0.000
260.961;  319.725;    0.000;    0.000
261.029;  302.725;    0.000;    0.000
261.096;  450.725;    0.000;    0.000
261.164;  641.725;    0.000;    0.000
261.231;  532.725;    0.000;    0.000
261.299;  447.725;    0.000;    0.000
261.366;  460.725;    0.000;    0.000
261.434;  404.725;    0.000;    0.000
261.501;  310.725;    0.000;    0.000
261.568;  315.725;    0.000;    0.000
261.636;  311.725;    0.000;    0.000
261.703;  433.725;    0.000;    0.000
261.771;  411.725;    0.000;    0.000
261.838;  406.725;    0.000;    0.000
261.906;  299.725;    0.000;    0.000
261.973;  301.725;    0.000;    0.000
262.040;  342.725;    0.000;    0.000
262.108;  373.725;    0.000;    0.000
262.175;  336.725;    0.000;    0.000
262.243;  317.725;    0.000;    0.000
262.310;  302.725;    0.000;    0.000
262.377;  362.725;    0.000;    0.000
262.445;  404.725;    0.000;    0.000
262.512;  519.725;    0.000;    0.000
262.579;  602.725;    0.000;    0.000
262.647;  440.725;    0.000;    0.000
262.714;  392.725;    0.000;    0.000
262.781;  535.725;    0.000;    0.000
262.849;  555.725;    0.000;    0.000
262.916;  462.725;    0.000;    0.000
262.983;  599.725;    0.000;    0.000
263.051;  817.725;    0.000;    0.000
263.118; 1117.725;    0.000;    0.000
263.185;  733.725;    0.000;    0.000
263.252;  458.725;    0.000;    0.000
263.320;  367.725;    0.000;    0.000
263.387;  352.725;    0.000;    0.000
263.454;  332.725;    0.000;    0.000
263.522;  306.725;    0.000;    0.000
263.589;  380.725;    0.000;    0.000
263.656;  343.725;    0.000;    0.000
263.723;  325.725;    0.000;    0.000
263.790;  361.725;    0.000;    0.000
263.858;  340.725;    0.000;    0.000
263.925;  355.725;    0.000;    0.000
263.992;  339.725;    0.000;    0.000
264.059;  350.725;    0.000;    0.000
264.126;  390.725;    0.000;    0.000
264.194;  337.725;    0.000;    0.000
264.261;  359.725;    0.000;    0.000
264.328;  333.725;    0.000;    0.000
264.395;  408.725;    0.000;    0.000
264.462;  378.725;    0.000;    0.000
264.529;  304.725;    0.000;    0.000
264.597;  381.725;    0.000;    0.000
264.664;  400.725;    0.000;    0.000
264.731;  373.725;    0.000;    0.000
264.798;  348.725;    0.000;    0.000
264.865;  383.725;    0.000;    0.000
264.932;  376.725;    0.000;    0.000
264.999;  411.725;    0.000;    0.000
265.066;  378.725;    0.000;    0.000
265.133;  357.725;    0.000;    0.000
265.201;  409.725;    0.000;    0.000
265.268;  351.725;    0.000;    0.000
265.335;  397.725;    0.000;    0.000
265.402;  364.725;    0.000;    0.000
265.469;  360.725;    0.000;    0.000
265.536;  392.725;    0.000;    0.000
265.603;  399.725;    0.000;    0.000
265.670;  388.725;    0.000;    0.000
265.737;  387.725;    0.000;    0.000
265.804;  405.725;    0.000;    0.000
265.871;  423.725;    0.000;    0.000
265.938;  367.725;    0.000;    0.000
266.005;  455.725;    0.000;    0.000
266.072;  391.725;    0.000;    0.000
266.139;  424.725;    0.000;    0.000
266.206;  375.725;    0.000;    0.000
266.273;  415.725;    0.000;    0.000
266.340;  429.725;    0.000;    0.000
266.407;  483.725;    0.000;    0.000
266.474;  533.725;    0.000;    0.000
266.541;  483.725;    0.000;    0.000
266.608;  463.725;    0.000;    0.000
266.675;  552.725;    0.000;    0.000
266.742;  475.725;    0.000;    0.000
266.808;  414.725;    0.000;    0.000
266.875;  427.725;    0.000;    0.000
266.942;  425.725;    0.000;    0.000
267.009;  415.725;    0.000;    0.000
267.076;  413.725;    0.000;    0.000
267.143;  434.725;    0.000;    0.000
267.210;  405.725;    0.000;    0.000
267.277;  404.725;    0.000;    0.000
267.344;  345.725;    0.000;    0.000
267.410;  442.725;    0.000;    0.000
267.477;  428.725;    0.000;    0.000
267.544;  438.725;    0.000;    0.000
267.611;  389.725;    0.000;    0.000
267.678;  438.725;    0.000;    0.000
267.745;  430.725;    0.000;    0.000
267.811;  419.725;    0.000;    0.000
267.878;  426.725;    0.000;    0.000
267.945;  456.725;    0.000;    0.000
268.012;  400.725;    0.000;    0.000
268.079;  474.725;    0.000;    0.000
268.145;  435.725;    0.000;    0.000
268.212;  402.725;    0.000;    0.000
268.279;  415.725;    0.000;    0.000
268.346;  473.725;    0.000;    0.000
268.412;  484.725;    0.000;    0.000
268.479;  563.725;    0.000;    0.000
268.546;  492.725;    0.000;    0.000
268.613;  469.725;    0.000;    0.000
268.679;  444.725;    0.000;    0.000
268.746;  443.725;    0.000;    0.000
268.813;  453.725;    0.000;    0.000
268.879;  453.725;    0.000;    0.000
268.946;  458.725;    0.000;    0.000
269.013;  413.725;    0.000;    0.000
269.079;  449.725;    0.000;    0.000
269.146;  388.725;    0.000;    0.000
269.213;  554.725;    0.000;    0.000
269.280;  504.725;    0.000;    0.000
269.346;  498.725;    0.000;    0.000
269.413;  408.725;    0.000;    0.000
269.479;  461.725;    0.000;    0.000
269.546;  414.725;    0.000;    0.000
269.613;  413.725;    0.000;    0.000
269.679;  456.725;    0.000;    0.000
269.746;  443.725;    0.000;    0.000
269.813;  412.725;    0.000;    0.000
269.879;  436.725;    0.000;    0.000
269.946;  466.725;    0.000;    0.000
270.012;  439.725;    0.000;    0.000
270.079;  423.725;    0.000;    0.000
270.145;  461.725;    0.000;    0.000
270.212;  425.725;    0.000;    0.000
270.279;  454.725;    0.000;    0.000
270.345;  467.725;    0.000;    0.000
270.412;  499.725;    0.000;    0.000
270.478;  466.725;    0.000;    0.000
270.545;  470.725;    0.000;    0.000
270.611;  464.725;    0.000;    0.000
270.678;  497.725;    0.000;    0.000
270.744;  439.725;    0.000;    0.000
270.811;  464.725;    0.000;    0.000
270.877;  424.725;    0.000;    0.000
270.944;  451.725;    0.000;    0.000
271.010;  438.725;    0.000;    0.000
271.077;  427.725;    0.000;    0.000
271.143;  527.725;    0.000;    0.000
271.210;  507.725;    0.000;    0.000
271.276;  495.725;    0.000;    0.000
271.342;  550.725;    0.000;    0.000
271.409;  623.725;    0.000;    0.000
271.475;  597.725;    0.000;    0.000
271.542;  509.725;    0.000;    0.000
271.608;  493.725;    0.000;    0.000
271.675;  488.725;    0.000;    0.000
271.741;  487.725;    0.000;    0.000
271.807;  512.725;    0.000;    0.000
271.874;  664.725;    0.000;    0.000
271.940;  610.725;    0.000;    0.000
272.007;  511.725;    0.000;    0.000
272.073;  537.725;    0.000;    0.000
272.139;  557.725;    0.000;    0.000
272.206;  463.725;    0.000;    0.000
272.272;  522.725;    0.000;    0.000
272.338;  531.725;    0.000;    0.000
272.405;  498.725;    0.000;    0.000
272.471;  516.725;    0.000;    0.000
272.537;  517.725;    0.000;    0.000
272.604;  502.725;    0.000;    0.000
272.670;  551.725;    0.000;    0.000
272.736;  666.725;    0.000;    0.000
272.802;  619.725;    0.000;    0.000
272.869;  526.725;    0.000;    0.000
272.935;  484.725;    0.000;    0.000
273.001;  501.725;    0.000;    0.000
273.068;  560.725;    0.000;    0.000
273.134;  507.725;    0.000;    0.000
273.200;  520.725;    0.000;    0.000
273.266;  527.725;    0.000;    0.000
273.333;  602.725;    0.000;    0.000
273.399;  523.725;    0.000;    0.000
273.465;  561.725;    0.000;    0.000
273.531;  519.725;    0.000;    0.000
273.597;  625.725;    0.000;    0.000
273.664;  702.725;    0.000;    0.000
273.730;  713.725;    0.000;    0.000
273.796;  676.725;    0.000;    0.000
273.862;  887.725;    0.000;    0.000
273.928; 1304.725;    0.000;    0.000
273.995; 1204.725;    0.000;    0.000
274.061;  746.725;    0.000;    0.000
274.127;  677.725;    0.000;    0.000
274.193;  681.725;    0.000;    0.000
274.259;  887.725;    0.000;    0.000
274.325;  927.725;    0.000;    0.000
274.391;  724.725;    0.000;    0.000
274.457;  672.725;    0.000;    0.000
274.524;  732.725;    0.000;    0.000
274.590; 1165.725;    0.000;    0.000
274.656; 1603.725;    0.000;    0.000
274.722; 1269.725;    0.000;    0.000
274.788;  935.725;    0.000;    0.000
274.854; 1233.725;    0.000;    0.000
274.920; 1616.725;    0.000;    0.000
274.986; 1299.725;    0.000;    0.000
275.052;  836.725;    0.000;    0.000
275.118;  697.725;    0.000;    0.000
275.184;  700.725;    0.000;    0.000
275.250;  811.725;    0.000;    0.000
275.316;  827.725;    0.000;    0.000
275.382;  803.725;    0.000;    0.000
275.448;  810.725;    0.000;    0.000
275.514; 1331.725;    0.000;    0.000
275.580; 1583.725;    0.000;    0.000
275.646; 1079.725;    0.000;    0.000
275.712;  803.725;    0.000;    0.000
275.778;  656.725;    0.000;    0.000
275.844;  643.725;    0.000;    0.000
275.910;  661.725;    0.000;    0.000
275.976;  709.725;    0.000;    0.000
276.042;  619.725;    0.000;    0.000
276.108;  709.725;    0.000;    0.000
276.174;  755.725;    0.000;    0.000
276.240;  708.725;    0.000;    0.000
276.306;  716.725;    0.000;    0.000
276.372;  731.725;    0.000;    0.000
276.437;  770.725;    0.000;    0.000
276.503;  763.725;    0.000;    0.000
276.569;  815.725;    0.000;    0.000
276.635;  813.725;    0.000;    0.000
276.701; 1005.725;    0.000;    0.000
276.767;  944.725;    0.000;    0.000
276.833;  965.725;    0.000;    0.000
276.899;  919.725;    0.000;    0.000
276.964;  946.725;    0.000;    0.000
277.030; 1018.725;    0.000;    0.000
277.096;  963.725;    0.000;    0.000
277.162;  946.725;    0.000;    0.000
277.228;  969.725;    0.000;    0.000
277.293;  974.725;    0.000;    0.000
277.359; 1124.725;    0.000;    0.000
277.425; 1175.725;    0.000;    0.000
277.491; 1122.725;    0.000;    0.000
277.557; 1414.725;    0.000;    0.000
277.622; 2036.725;    0.000;    0.000
277.688; 2269.725;    0.000;    0.000
277.754; 2159.725;    0.000;    0.000
277.820; 2410.725;    0.000;    0.000
277.885; 2616.725;    0.000;    0.000
277.951; 3465.725;    0.000;    0.000
278.017; 3138.725;    0.000;    0.000
278.083; 2649.725;    0.000;    0.000
278.148; 2608.725;    0.000;    0.000
278.214; 2525.725;    0.000;    0.000
278.280; 2870.725;    0.000;    0.000
278.345; 2672.725;    0.000;    0.000
278.411; 2268.725;    0.000;    0.000
278.477; 2229.725;    0.000;    0.000
278.542; 2346.725;    0.000;    0.000
278.608; 2486.725;    0.000;    0.000
278.674; 2805.725;    0.000;    0.000
278.739; 3099.725;    0.000;    0.000
278.805; 3460.725;    0.000;    0.000
278.871; 3700.725;    0.000;    0.000
278.936; 4334.725;    0.000;    0.000
279.002; 5640.725;    0.000;    0.000
279.067; 7121.725;    0.000;    0.000
279.133; 7325.725;    0.000;    0.000
279.199; 6667.725;    0.000;    0.000
279.264; 6728.725;    0.000;    0.000
279.330; 7283.725;    0.000;    0.000
279.395; 7940.725;    0.000;    0.000
279.461; 8810.725;    0.000;    0.000
279.527; 8555.725;    0.000;    0.000
279.592; 8995.725;    0.000;    0.000
279.658; 9081.725;    0.000;    0.000
279.723; 9005.725;    0.000;    0.000
279.789; 9374.725;    0.000;    0.000
279.854; 8715.725;    0.000;    0.000
279.920; 7753.725;    0.000;    0.000
279.985; 7288.725;    0.000;    0.000
280.051; 7256.725;    0.000;    0.000
280.116; 7862.725;    0.000;    0.000
280.182; 8903.725;    0.000;    0.000
280.247; 9108.725;    0.000;    0.000
280.313; 9043.725;    0.000;    0.000
280.378; 8215.725;    0.000;    0.000
280.444; 6786.725;    0.000;    0.000
280.509; 5931.725;    0.000;    0.000
280.574; 5089.725;    0.000;    0.000
280.640; 4617.725;    0.000;    0.000
280.705; 4199.725;    0.000;    0.000
280.771; 3940.725;    0.000;    0.000
280.836; 3553.725;    0.000;    0.000
280.902; 3140.725;    0.000;    0.000
280.967; 3094.725;    0.000;    0.000
281.032; 2869.725;    0.000;    0.000
281.098; 2777.725;    0.000;    0.000
281.163; 2632.725;    0.000;    0.000
281.229; 2511.725;    0.000;    0.000
281.294; 2364.725;    0.000;    0.000
281.359; 2198.725;    0.000;    0.000
281.425; 2240.725;    0.000;    0.000
281.490; 2001.725;    0.000;    0.000
281.555; 1985.725;    0.000;    0.000
281.621; 1809.725;    0.000;    0.000
281.686; 1890.725;    0.000;    0.000
281.751; 1795.725;    0.000;    0.000
281.816; 1694.725;    0.000;    0.000
281.882; 1660.725;    0.000;    0.000
281.947; 1638.725;    0.000;    0.000
282.012; 1468.725;    0.000;    0.000
282.078; 1569.725;    0.000;    0.000
282.143; 1450.725;    0.000;    0.000
282.208; 1447.725;    0.000;    0.000
282.273; 1422.725;    0.000;    0.000
282.339; 1369.725;    0.000;    0.000
282.404; 1288.725;    0.000;    0.000
282.469; 1238.725;    0.000;    0.000
282.534; 1339.725;    0.000;    0.000
282.600; 1260.725;    0.000;    0.000
282.665; 1260.725;    0.000;    0.000
282.730; 1203.725;    0.000;    0.000
282.795; 1228.725;    0.000;    0.000
282.860; 1213.725;    0.000;    0.000
282.926; 1231.725;    0.000;    0.000
282.991; 1157.725;    0.000;    0.000
283.056; 1195.725;    0.000;    0.000
283.121; 1185.725;    0.000;    0.000
283.186; 1200.725;    0.000;    0.000
283.251; 1145.725;    0.000;    0.000
283.316; 1100.725;    0.000;    0.000
283.382; 1051.725;    0.000;    0.000
283.447; 1064.725;    0.000;    0.000
283.512; 1075.725;    0.000;    0.000
283.577; 1110.725;    0.000;    0.000
283.642; 1069.725;    0.000;    0.000
283.707;  949.725;    0.000;    0.000
283.772; 1005.725;    0.000;    0.000
283.837; 1033.725;    0.000;    0.000
283.902; 1026.725;    0.000;    0.000
283.967; 1032.725;    0.000;    0.000
284.032; 1058.725;    0.000;    0.000
284.097; 1148.725;    0.000;    0.000
284.163; 1022.725;    0.000;    0.000
284.228; 1118.725;    0.000;    0.000
284.293; 1047.725;    0.000;    0.000
284.358; 1174.725;    0.000;    0.000
284.423; 1155.725;    0.000;    0.000
284.488; 1084.725;    0.000;    0.000
284.553; 1168.725;    0.000;    0.000
284.618; 1219.725;    0.000;    0.000
284.683; 1276.725;    0.000;    0.000
284.748; 1387.725;    0.000;    0.000
284.812; 1561.725;    0.000;    0.000
284.877; 1719.725;    0.000;    0.000
284.942; 2053.725;    0.000;    0.000
285.007; 2423.725;    0.000;    0.000
285.072; 3471.725;    0.000;    0.000
285.137; 4736.725;    0.000;    0.000
285.202; 6049.725;    0.000;    0.000
285.267; 6398.725;    0.000;    0.000
285.332; 4817.725;    0.000;    0.000
285.397; 3499.725;    0.000;    0.000
285.462; 2709.725;    0.000;    0.000
285.527; 2216.725;    0.000;    0.000
285.591; 1804.725;    0.000;    0.000
285.656; 1710.725;    0.000;    0.000
285.721; 1497.725;    0.000;    0.000
285.786; 1514.725;    0.000;    0.000
285.851; 1379.725;    0.000;    0.000
285.916; 1277.725;    0.000;    0.000
285.981; 1172.725;    0.000;    0.000
286.045; 1202.725;    0.000;    0.000
286.110; 1066.725;    0.000;    0.000
286.175; 1033.725;    0.000;    0.000
286.240; 1080.725;    0.000;    0.000
286.305; 1081.725;    0.000;    0.000
286.369; 1032.725;    0.000;    0.000
286.434;  960.725;    0.000;    0.000
286.499;  974.725;    0.000;    0.000
286.564;  923.725;    0.000;    0.000
286.628;  932.725;    0.000;    0.000
286.693;  891.725;    0.000;    0.000
286.758;  891.725;    0.000;    0.000
286.823;  916.725;    0.000;    0.000
286.887;  853.725;    0.000;    0.000
286.952;  851.725;    0.000;    0.000
287.017;  909.725;    0.000;    0.000
287.082;  869.725;    0.000;    0.000
287.146;  843.725;    0.000;    0.000
287.211;  884.725;    0.000;    0.000
287.276;  891.725;    0.000;    0.000
287.340;  886.725;    0.000;    0.000
287.405;  900.725;    0.000;    0.000
287.470;  819.725;    0.000;    0.000
287.534;  829.725;    0.000;    0.000
287.599;  831.725;    0.000;    0.000
287.663;  860.725;    0.000;    0.000
287.728;  853.725;    0.000;    0.000
287.793;  887.725;    0.000;    0.000
287.857;  866.725;    0.000;    0.000
287.922;  933.725;    0.000;    0.000
287.987; 1089.725;    0.000;    0.000
288.051; 1402.725;    0.000;    0.000
288.116; 2795.725;    0.000;    0.000
288.180; 3542.725;    0.000;    0.000
288.245; 2538.725;    0.000;    0.000
288.309; 1720.725;    0.000;    0.000
288.374; 1426.725;    0.000;    0.000
288.439; 1291.725;    0.000;    0.000
288.503; 1090.725;    0.000;    0.000
288.568; 1038.725;    0.000;    0.000
288.632;  983.725;    0.000;    0.000
288.697;  960.725;    0.000;    0.000
288.761;  843.725;    0.000;    0.000
288.826;  834.725;    0.000;    0.000
288.890;  846.725;    0.000;    0.000
288.955;  837.725;    0.000;    0.000
289.019;  845.725;    0.000;    0.000
289.084;  837.725;    0.000;    0.000
289.148;  786.725;    0.000;    0.000
289.212;  770.725;    0.000;    0.000
289.277;  716.725;    0.000;    0.000
289.341;  798.725;    0.000;    0.000
289.406;  772.725;    0.000;    0.000
289.470;  790.725;    0.000;    0.000
289.535;  816.725;    0.000;    0.000
289.599;  765.725;    0.000;    0.000
289.663;  674.725;    0.000;    0.000
289.728;  769.725;    0.000;    0.000
289.792;  806.725;    0.000;    0.000
289.857;  807.725;    0.000;    0.000
289.921;  724.725;    0.000;    0.000
289.985;  702.725;    0.000;    0.000
290.050;  722.725;    0.000;    0.000
290.114;  704.725;    0.000;    0.000
290.178;  739.725;    0.000;    0.000
290.243;  675.725;    0.000;    0.000
290.307;  728.725;    0.000;    0.000
290.371;  740.725;    0.000;    0.000
290.436;  689.725;    0.000;    0.000
290.500;  705.725;    0.000;    0.000
290.564;  741.725;    0.000;    0.000
290.629;  745.725;    0.000;    0.000
290.693;  727.725;    0.000;    0.000
290.757;  738.725;    0.000;    0.000
290.821;  708.725;    0.000;    0.000
290.886;  668.725;    0.000;    0.000
290.950;  808.725;    0.000;    0.000
291.014;  743.725;    0.000;    0.000
291.078;  754.725;    0.000;    0.000
291.143;  767.725;    0.000;    0.000
291.207;  801.725;    0.000;    0.000
291.271;  791.725;    0.000;    0.000
291.335;  791.725;    0.000;    0.000
291.399;  886.725;    0.000;    0.000
291.464;  939.725;    0.000;    0.000
291.528; 1034.725;    0.000;    0.000
291.592;  999.725;    0.000;    0.000
291.656;  927.725;    0.000;    0.000
291.720;  902.725;    0.000;    0.000
291.784;  925.725;    0.000;    0.000
291.849;  896.725;    0.000;    0.000
291.913;  863.725;    0.000;    0.000
291.977;  851.725;    0.000;    0.000
292.041;  854.725;    0.000;    0.000
292.105;  884.725;    0.000;    0.000
292.169;  845.725;    0.000;    0.000
292.233;  947.725;    0.000;    0.000
292.297;  989.725;    0.000;    0.000
292.361; 1008.725;    0.000;    0.000
292.425; 1053.725;    0.000;    0.000
292.490; 1132.725;    0.000;    0.000
292.554; 1089.725;    0.000;    0.000
292.618; 1244.725;    0.000;    0.000
292.682; 1443.725;    0.000;    0.000
292.746; 1646.725;    0.000;    0.000
292.810; 2409.725;    0.000;    0.000
292.874; 3270.725;    0.000;    0.000
292.938; 3487.725;    0.000;    0.000
293.002; 3087.725;    0.000;    0.000
293.066; 2706.725;    0.000;    0.000
293.130; 2430.725;    0.000;    0.000
293.194; 2408.725;    0.000;    0.000
293.258; 2245.725;    0.000;    0.000
293.322; 2147.725;    0.000;    0.000
293.386; 2252.725;    0.000;    0.000
293.450; 2240.725;    0.000;    0.000
293.514; 2629.725;    0.000;    0.000
293.577; 3516.725;    0.000;    0.000
293.641; 4875.725;    0.000;    0.000
293.705; 5635.725;    0.000;    0.000
293.769; 5067.725;    0.000;    0.000
293.833; 4332.725;    0.000;    0.000
293.897; 3819.725;    0.000;    0.000
293.961; 3371.725;    0.000;    0.000
294.025; 2979.725;    0.000;    0.000
294.089; 2617.725;    0.000;    0.000
294.152; 2489.725;    0.000;    0.000
294.216; 2247.725;    0.000;    0.000
294.280; 2095.725;    0.000;    0.000
294.344; 1935.725;    0.000;    0.000
294.408; 1916.725;    0.000;    0.000
294.472; 1786.725;    0.000;    0.000
294.536; 1651.725;    0.000;    0.000
294.599; 1577.725;    0.000;    0.000
294.663; 1577.725;    0.000;    0.000
294.727; 1459.725;    0.000;    0.000
294.791; 1682.725;    0.000;    0.000
294.855; 1491.725;    0.000;    0.000
294.918; 1456.725;    0.000;    0.000
294.982; 1358.725;    0.000;    0.000
295.046; 1141.725;    0.000;    0.000
295.110; 1128.725;    0.000;    0.000
295.173; 1089.725;    0.000;    0.000
295.237; 1109.725;    0.000;    0.000
295.301; 1110.725;    0.000;    0.000
295.364; 1186.725;    0.000;    0.000
295.428; 1113.725;    0.000;    0.000
295.492;  976.725;    0.000;    0.000
295.556; 1020.725;    0.000;    0.000
295.619;  978.725;    0.000;    0.000
295.683;  972.725;    0.000;    0.000
295.747;  968.725;    0.000;    0.000
295.810;  937.725;    0.000;    0.000
295.874;  939.725;    0.000;    0.000
295.938;  950.725;    0.000;    0.000
296.001;  919.725;    0.000;    0.000
296.065;  885.725;    0.000;    0.000
296.128;  886.725;    0.000;    0.000
296.192;  797.725;    0.000;    0.000
296.256;  800.725;    0.000;    0.000
296.319;  857.725;    0.000;    0.000
296.383;  886.725;    0.000;    0.000
296.447;  868.725;    0.000;    0.000
296.510;  906.725;    0.000;    0.000
296.574;  857.725;    0.000;    0.000
296.637;  998.725;    0.000;    0.000
296.701; 1020.725;    0.000;    0.000
296.764;  765.725;    0.000;    0.000
296.828;  818.725;    0.000;    0.000
296.891;  808.725;    0.000;    0.000
296.955;  928.725;    0.000;    0.000
297.018;  861.725;    0.000;    0.000
297.082;  834.725;    0.000;    0.000
297.145;  754.725;    0.000;    0.000
297.209;  805.725;    0.000;    0.000
297.272;  937.725;    0.000;    0.000
297.336;  948.725;    0.000;    0.000
297.399;  808.725;    0.000;    0.000
297.463;  724.725;    0.000;    0.000
297.526;  718.725;    0.000;    0.000
297.590;  676.725;    0.000;    0.000
297.653;  683.725;    0.000;    0.000
297.717;  733.725;    0.000;    0.000
297.780;  697.725;    0.000;    0.000
297.843;  698.725;    0.000;    0.000
297.907;  705.725;    0.000;    0.000
297.970;  765.725;    0.000;    0.000
298.034;  704.725;    0.000;    0.000
298.097;  764.725;    0.000;    0.000
298.160;  746.725;    0.000;    0.000
298.224;  714.725;    0.000;    0.000
298.287;  814.725;    0.000;    0.000
298.350;  951.725;    0.000;    0.000
298.414;  957.725;    0.000;    0.000
298.477;  896.725;    0.000;    0.000
298.540;  940.725;    0.000;    0.000
298.604;  814.725;    0.000;    0.000
298.667;  777.725;    0.000;    0.000
298.730;  820.725;    0.000;    0.000
298.794;  767.725;    0.000;    0.000
298.857;  703.725;    0.000;    0.000
298.920;  688.725;    0.000;    0.000
298.984;  706.725;    0.000;    0.000
299.047;  677.725;    0.000;    0.000
299.110;  693.725;    0.000;    0.000
299.173;  707.725;    0.000;    0.000
299.237;  663.725;    0.000;    0.000
299.300;  666.725;    0.000;    0.000
299.363;  750.725;    0.000;    0.000
299.426;  852.725;    0.000;    0.000
299.489;  735.725;    0.000;    0.000
299.553;  693.725;    0.000;    0.000
299.616;  708.725;    0.000;    0.000
299.679;  672.725;    0.000;    0.000
299.742;  707.725;    0.000;    0.000
299.805;  665.725;    0.000;    0.000
299.868;  716.725;    0.000;    0.000
299.932;  757.725;    0.000;    0.000
299.995;  813.725;    0.000;    0.000
300.058;  863.725;    0.000;    0.000
300.121;  834.725;    0.000;    0.000
300.184;  695.725;    0.000;    0.000
300.247;  800.725;    0.000;    0.000
300.310;  814.725;    0.000;    0.000
300.374;  755.725;    0.000;    0.000
300.437;  696.725;    0.000;    0.000
300.500;  683.725;    0.000;    0.000
300.563;  679.725;    0.000;    0.000
300.626;  700.725;    0.000;    0.000
300.689;  685.725;    0.000;    0.000
300.752;  735.725;    0.000;    0.000
300.815;  773.725;    0.000;    0.000
300.878;  715.725;    0.000;    0.000
300.941;  705.725;    0.000;    0.000
301.004;  690.725;    0.000;    0.000
301.067;  649.725;    0.000;    0.000
301.130;  708.725;    0.000;    0.000
301.193;  675.725;    0.000;    0.000
301.256;  678.725;    0.000;    0.000
301.319;  696.725;    0.000;    0.000
301.382;  638.725;    0.000;    0.000
301.445;  701.725;    0.000;    0.000
301.508;  629.725;    0.000;    0.000
301.571;  644.725;    0.000;    0.000
301.634;  693.725;    0.000;    0.000
301.697;  674.725;    0.000;    0.000
301.760;  710.725;    0.000;    0.000
301.823;  638.725;    0.000;    0.000
301.885;  743.725;    0.000;    0.000
301.948;  706.725;    0.000;    0.000
302.011; 1126.725;    0.000;    0.000
302.074; 1452.725;    0.000;    0.000
302.137; 1002.725;    0.000;    0.000
302.200;  715.725;    0.000;    0.000
302.263;  696.725;    0.000;    0.000
302.326;  660.725;    0.000;    0.000
302.388;  737.725;    0.000;    0.000
302.451;  672.725;    0.000;    0.000
302.514;  679.725;    0.000;    0.000
302.577;  807.725;    0.000;    0.000
302.640;  705.725;    0.000;    0.000
302.703;  698.725;    0.000;    0.000
302.765;  635.725;    0.000;    0.000
302.828;  689.725;    0.000;    0.000
302.891;  643.725;    0.000;    0.000
302.954;  660.725;    0.000;    0.000
303.016;  706.725;    0.000;    0.000
303.079;  681.725;    0.000;    0.000
303.142;  704.725;    0.000;    0.000
303.205;  673.725;    0.000;    0.000
303.267;  647.725;    0.000;    0.000
303.330;  642.725;    0.000;    0.000
303.393;  626.725;    0.000;    0.000
303.456;  657.725;    0.000;    0.000
303.518;  590.725;    0.000;    0.000
303.581;  611.725;    0.000;    0.000
303.644;  658.725;    0.000;    0.000
303.706;  776.725;    0.000;    0.000
303.769;  840.725;    0.000;    0.000
303.832;  654.725;    0.000;    0.000
303.894;  657.725;    0.000;    0.000
303.957;  692.725;    0.000;    0.000
304.020;  711.725;    0.000;    0.000
304.082;  735.725;    0.000;    0.000
304.145;  694.725;    0.000;    0.000
304.207;  698.725;    0.000;    0.000
304.270;  643.725;    0.000;    0.000
304.333;  709.725;    0.000;    0.000
304.395;  705.725;    0.000;    0.000
304.458;  672.725;    0.000;    0.000
304.520;  674.725;    0.000;    0.000
304.583;  625.725;    0.000;    0.000
304.646;  704.725;    0.000;    0.000
304.708;  796.725;    0.000;    0.000
304.771;  821.725;    0.000;    0.000
304.833;  744.725;    0.000;    0.000
304.896;  690.725;    0.000;    0.000
304.958;  635.725;    0.000;    0.000
305.021;  741.725;    0.000;    0.000
305.083;  720.725;    0.000;    0.000
305.146;  741.725;    0.000;    0.000
305.208;  682.725;    0.000;    0.000
305.271;  663.725;    0.000;    0.000
305.333;  698.725;    0.000;    0.000
305.396;  679.725;    0.000;    0.000
305.458;  676.725;    0.000;    0.000
305.520;  696.725;    0.000;    0.000
305.583;  699.725;    0.000;    0.000
305.645;  794.725;    0.000;    0.000
305.708;  889.725;    0.000;    0.000
305.770;  921.725;    0.000;    0.000
305.833;  861.725;    0.000;    0.000
305.895;  917.725;    0.000;    0.000
305.957;  774.725;    0.000;    0.000
306.020;  702.725;    0.000;    0.000
306.082;  732.725;    0.000;    0.000
306.144;  714.725;    0.000;    0.000
306.207;  694.725;    0.000;    0.000
306.269;  752.725;    0.000;    0.000
306.331;  696.725;    0.000;    0.000
306.394;  711.725;    0.000;    0.000
306.456;  724.725;    0.000;    0.000
306.518;  736.725;    0.000;    0.000
306.581;  797.725;    0.000;    0.000
306.643;  805.725;    0.000;    0.000
306.705;  869.725;    0.000;    0.000
306.768;  787.725;    0.000;    0.000
306.830;  737.725;    0.000;    0.000
306.892;  752.725;    0.000;    0.000
306.954;  702.725;    0.000;    0.000
307.017;  784.725;    0.000;    0.000
307.079;  755.725;    0.000;    0.000
307.141;  800.725;    0.000;    0.000
307.203;  841.725;    0.000;    0.000
307.266;  846.725;    0.000;    0.000
307.328;  897.725;    0.000;    0.000
307.390;  865.725;    0.000;    0.000
307.452;  919.725;    0.000;    0.000
307.514;  966.725;    0.000;    0.000
307.577;  938.725;    0.000;    0.000
307.639;  866.725;    0.000;    0.000
307.701;  888.725;    0.000;    0.000
307.763;  895.725;    0.000;    0.000
307.825; 1026.725;    0.000;    0.000
307.887;  950.725;    0.000;    0.000
307.949;  848.725;    0.000;    0.000
308.012;  855.725;    0.000;    0.000
308.074;  919.725;    0.000;    0.000
308.136; 1112.725;    0.000;    0.000
308.198; 1274.725;    0.000;    0.000
308.260; 1235.725;    0.000;    0.000
308.322; 1091.725;    0.000;    0.000
308.384; 1063.725;    0.000;    0.000
308.446;  973.725;    0.000;    0.000
308.508;  956.725;    0.000;    0.000
308.570;  983.725;    0.000;    0.000
308.632;  979.725;    0.000;    0.000
308.694;  967.725;    0.000;    0.000
308.756; 1218.725;    0.000;    0.000
308.818; 1255.725;    0.000;    0.000
308.880; 1077.725;    0.000;    0.000
308.942; 1113.725;    0.000;    0.000
309.004; 1091.725;    0.000;    0.000
309.066; 1184.725;    0.000;    0.000
309.128; 1239.725;    0.000;    0.000
309.190; 1494.725;    0.000;    0.000
309.252; 1984.725;    0.000;    0.000
309.314; 2133.725;    0.000;    0.000
309.376; 1603.725;    0.000;    0.000
309.438; 1403.725;    0.000;    0.000
309.500; 1382.725;    0.000;    0.000
309.562; 1363.725;    0.000;    0.000
309.624; 1486.725;    0.000;    0.000
309.686; 1677.725;    0.000;    0.000
309.747; 1579.725;    0.000;    0.000
309.809; 1464.725;    0.000;    0.000
309.871; 1361.725;    0.000;    0.000
309.933; 1250.725;    0.000;    0.000
309.995; 1296.725;    0.000;    0.000
310.057; 1289.725;    0.000;    0.000
310.119; 1187.725;    0.000;    0.000
310.180; 1218.725;    0.000;    0.000
310.242; 1076.725;    0.000;    0.000
310.304; 1081.725;    0.000;    0.000
310.366; 1110.725;    0.000;    0.000
310.428; 1079.725;    0.000;    0.000
310.489; 1004.725;    0.000;    0.000
310.551; 1035.725;    0.000;    0.000
310.613; 1002.725;    0.000;    0.000
310.675;  988.725;    0.000;    0.000
310.737;  999.725;    0.000;    0.000
310.798;  957.725;    0.000;    0.000
310.860;  969.725;    0.000;    0.000
310.922;  958.725;    0.000;    0.000
310.983;  907.725;    0.000;    0.000
311.045;  957.725;    0.000;    0.000
311.107;  910.725;    0.000;    0.000
311.169;  844.725;    0.000;    0.000
311.230;  862.725;    0.000;    0.000
311.292;  931.725;    0.000;    0.000
311.354;  910.725;    0.000;    0.000
311.415;  890.725;    0.000;    0.000
311.477;  923.725;    0.000;    0.000
311.539;  840.725;    0.000;    0.000
311.600;  859.725;    0.000;    0.000
311.662;  852.725;    0.000;    0.000
311.724;  862.725;    0.000;    0.000
311.785;  889.725;    0.000;    0.000
311.847;  867.725;    0.000;    0.000
311.908;  803.725;    0.000;    0.000
311.970;  831.725;    0.000;    0.000
312.032;  866.725;    0.000;    0.000
312.093;  894.725;    0.000;    0.000
312.155;  817.725;    0.000;    0.000
312.216;  791.725;    0.000;    0.000
312.278;  803.725;    0.000;    0.000
312.339;  748.725;    0.000;    0.000
312.401;  850.725;    0.000;    0.000
312.462;  814.725;    0.000;    0.000
312.524;  809.725;    0.000;    0.000
312.585;  781.725;    0.000;    0.000
312.647;  751.725;    0.000;    0.000
312.708;  768.725;    0.000;    0.000
312.770;  770.725;    0.000;    0.000
312.831;  798.725;    0.000;    0.000
312.893;  808.725;    0.000;    0.000
312.954;  851.725;    0.000;    0.000
313.016;  797.725;    0.000;    0.000
313.077;  832.725;    0.000;    0.000
313.139;  772.725;    0.000;    0.000
313.200;  805.725;    0.000;    0.000
313.261;  791.725;    0.000;    0.000
313.323;  776.725;    0.000;    0.000
313.384;  827.725;    0.000;    0.000
313.446;  783.725;    0.000;    0.000
313.507;  756.725;    0.000;    0.000
313.568;  795.725;    0.000;    0.000
313.630;  739.725;    0.000;    0.000
313.691;  747.725;    0.000;    0.000
313.752;  723.725;    0.000;    0.000
313.814;  707.725;    0.000;    0.000
313.875;  763.725;    0.000;    0.000
313.936;  741.725;    0.000;    0.000
313.998;  743.725;    0.000;    0.000
314.059;  811.725;    0.000;    0.000
314.120;  753.725;    0.000;    0.000
314.182;  795.725;    0.000;    0.000
314.243;  742.725;    0.000;    0.000
314.304;  731.725;    0.000;    0.000
314.365;  781.725;    0.000;    0.000
314.427;  750.725;    0.000;    0.000
314.488;  793.725;    0.000;    0.000
314.549;  802.725;    0.000;    0.000
314.610;  741.725;    0.000;    0.000
314.672;  738.725;    0.000;    0.000
314.733;  740.725;    0.000;    0.000
314.794;  702.725;    0.000;    0.000
314.855;  738.725;    0.000;    0.000
314.917;  714.725;    0.000;    0.000
314.978;  734.725;    0.000;    0.000
315.039;  737.725;    0.000;    0.000
315.100;  758.725;    0.000;    0.000
315.161;  774.725;    0.000;    0.000
315.222;  794.725;    0.000;    0.000
315.283;  704.725;    0.000;    0.000
315.345;  742.725;    0.000;    0.000
315.406;  802.725;    0.000;    0.000
315.467;  730.725;    0.000;    0.000
315.528;  758.725;    0.000;    0.000
315.589;  747.725;    0.000;    0.000
315.650;  792.725;    0.000;    0.000
315.711;  744.725;    0.000;    0.000
315.772;  766.725;    0.000;    0.000
315.833;  812.725;    0.000;    0.000
315.894;  833.725;    0.000;    0.000
315.955;  865.725;    0.000;    0.000
316.016;  861.725;    0.000;    0.000
316.078;  852.725;    0.000;    0.000
316.139;  861.725;    0.000;    0.000
316.200;  882.725;    0.000;    0.000
316.261;  888.725;    0.000;    0.000
316.322;  858.725;    0.000;    0.000
316.383;  849.725;    0.000;    0.000
316.444;  774.725;    0.000;    0.000
316.504;  790.725;    0.000;    0.000
316.565;  777.725;    0.000;    0.000
316.626;  788.725;    0.000;    0.000
316.687;  790.725;    0.000;    0.000
316.748;  842.725;    0.000;    0.000
316.809;  856.725;    0.000;    0.000
316.870;  862.725;    0.000;    0.000
316.931;  791.725;    0.000;    0.000
316.992;  800.725;    0.000;    0.000
317.053;  724.725;    0.000;    0.000
317.114;  767.725;    0.000;    0.000
317.175;  762.725;    0.000;    0.000
317.235;  767.725;    0.000;    0.000
317.296;  721.725;    0.000;    0.000
317.357;  767.725;    0.000;    0.000
317.418;  807.725;    0.000;    0.000
317.479;  742.725;    0.000;    0.000
317.540;  789.725;    0.000;    0.000
317.601;  746.725;    0.000;    0.000
317.661;  777.725;    0.000;    0.000
317.722;  805.725;    0.000;    0.000
317.783;  808.725;    0.000;    0.000
317.844;  854.725;    0.000;    0.000
317.904;  926.725;    0.000;    0.000
317.965;  976.725;    0.000;    0.000
318.026;  918.725;    0.000;    0.000
318.087;  949.725;    0.000;    0.000
318.148;  882.725;    0.000;    0.000
318.208;  886.725;    0.000;    0.000
318.269;  823.725;    0.000;    0.000
318.330;  862.725;    0.000;    0.000
318.390;  800.725;    0.000;    0.000
318.451;  822.725;    0.000;    0.000
318.512;  756.725;    0.000;    0.000
318.572;  769.725;    0.000;    0.000
318.633;  836.725;    0.000;    0.000
318.694;  787.725;    0.000;    0.000
318.754;  774.725;    0.000;    0.000
318.815;  785.725;    0.000;    0.000
318.876;  772.725;    0.000;    0.000
318.936;  843.725;    0.000;    0.000
318.997;  813.725;    0.000;    0.000
319.058;  930.725;    0.000;    0.000
319.118;  904.725;    0.000;    0.000
319.179;  861.725;    0.000;    0.000
319.239;  881.725;    0.000;    0.000
319.300;  846.725;    0.000;    0.000
319.361;  778.725;    0.000;    0.000
319.421;  821.725;    0.000;    0.000
319.482;  776.725;    0.000;    0.000
319.542;  790.725;    0.000;    0.000
319.603;  796.725;    0.000;    0.000
319.663;  830.725;    0.000;    0.000
319.724;  804.725;    0.000;    0.000
319.784;  747.725;    0.000;    0.000
319.845;  756.725;    0.000;    0.000
319.905;  751.725;    0.000;    0.000
319.966;  856.725;    0.000;    0.000
320.026;  833.725;    0.000;    0.000
320.087;  837.725;    0.000;    0.000
320.147;  783.725;    0.000;    0.000
320.208;  813.725;    0.000;    0.000
320.268;  811.725;    0.000;    0.000
320.329;  746.725;    0.000;    0.000
320.389;  752.725;    0.000;    0.000
320.449;  725.725;    0.000;    0.000
320.510;  778.725;    0.000;    0.000
320.570;  765.725;    0.000;    0.000
320.631;  748.725;    0.000;    0.000
320.691;  733.725;    0.000;    0.000
320.751;  730.725;    0.000;    0.000
320.812;  752.725;    0.000;    0.000
320.872;  802.725;    0.000;    0.000
320.932;  715.725;    0.000;    0.000
320.993;  736.725;    0.000;    0.000
321.053;  836.725;    0.000;    0.000
321.113;  765.725;    0.000;    0.000
321.174;  836.725;    0.000;    0.000
321.234;  797.725;    0.000;    0.000
321.294;  857.725;    0.000;    0.000
321.355;  851.725;    0.000;    0.000
321.415;  848.725;    0.000;    0.000
321.475;  781.725;    0.000;    0.000
321.535;  798.725;    0.000;    0.000
321.596;  796.725;    0.000;    0.000
321.656;  855.725;    0.000;    0.000
321.716;  839.725;    0.000;    0.000
321.776;  848.725;    0.000;    0.000
321.837;  822.725;    0.000;    0.000
321.897;  827.725;    0.000;    0.000
321.957;  759.725;    0.000;    0.000
322.017;  793.725;    0.000;    0.000
322.077;  801.725;    0.000;    0.000
322.138;  854.725;    0.000;    0.000
322.198;  829.725;    0.000;    0.000
322.258;  907.725;    0.000;    0.000
322.318;  830.725;    0.000;    0.000
322.378;  852.725;    0.000;    0.000
322.438;  840.725;    0.000;    0.000
322.499;  934.725;    0.000;    0.000
322.559;  843.725;    0.000;    0.000
322.619;  838.725;    0.000;    0.000
322.679;  789.725;    0.000;    0.000
322.739;  819.725;    0.000;    0.000
322.799;  874.725;    0.000;    0.000
322.859;  891.725;    0.000;    0.000
322.919;  890.725;    0.000;    0.000
322.979;  860.725;    0.000;    0.000
323.039;  815.725;    0.000;    0.000
323.099;  750.725;    0.000;    0.000
323.159;  779.725;    0.000;    0.000
323.219;  802.725;    0.000;    0.000
323.279;  881.725;    0.000;    0.000
323.339;  937.725;    0.000;    0.000
323.399; 1300.725;    0.000;    0.000
323.459; 1323.725;    0.000;    0.000
323.519; 1070.725;    0.000;    0.000
323.579; 1072.725;    0.000;    0.000
323.639; 1186.725;    0.000;    0.000
323.699; 1059.725;    0.000;    0.000
323.759;  885.725;    0.000;    0.000
323.819;  910.725;    0.000;    0.000
323.879; 1057.725;    0.000;    0.000
323.939;  996.725;    0.000;    0.000
323.999;  849.725;    0.000;    0.000
324.059;  786.725;    0.000;    0.000
324.119;  914.725;    0.000;    0.000
324.178;  968.725;    0.000;    0.000
324.238;  791.725;    0.000;    0.000
324.298;  752.725;    0.000;    0.000
324.358;  742.725;    0.000;    0.000
324.418;  762.725;    0.000;    0.000
324.478;  689.725;    0.000;    0.000
324.538;  711.725;    0.000;    0.000
324.597;  733.725;    0.000;    0.000
324.657;  764.725;    0.000;    0.000
324.717;  736.725;    0.000;    0.000
324.777;  812.725;    0.000;    0.000
324.837;  885.725;    0.000;    0.000
324.896;  802.725;    0.000;    0.000
324.956;  751.725;    0.000;    0.000
325.016;  719.725;    0.000;    0.000
325.076;  727.725;    0.000;    0.000
325.135;  822.725;    0.000;    0.000
325.195;  804.725;    0.000;    0.000
325.255;  835.725;    0.000;    0.000
325.315;  849.725;    0.000;    0.000
325.374;  781.725;    0.000;    0.000
325.434;  736.725;    0.000;    0.000
325.494;  691.725;    0.000;    0.000
325.553;  711.725;    0.000;    0.000
325.613;  720.725;    0.000;    0.000
325.673;  616.725;    0.000;    0.000
325.732;  719.725;    0.000;    0.000
325.792;  703.725;    0.000;    0.000
325.852;  679.725;    0.000;    0.000
325.911;  737.725;    0.000;    0.000
325.971;  719.725;    0.000;    0.000
326.031;  741.725;    0.000;    0.000
326.090;  835.725;    0.000;    0.000
326.150;  883.725;    0.000;    0.000
326.209;  856.725;    0.000;    0.000
326.269;  709.725;    0.000;    0.000
326.328;  716.725;    0.000;    0.000
326.388;  723.725;    0.000;    0.000
326.448;  703.725;    0.000;    0.000
326.507;  689.725;    0.000;    0.000
326.567;  638.725;    0.000;    0.000
326.626;  669.725;    0.000;    0.000
326.686;  643.725;    0.000;    0.000
326.745;  637.725;    0.000;    0.000
326.805;  652.725;    0.000;    0.000
326.864;  660.725;    0.000;    0.000
326.924;  698.725;    0.000;    0.000
326.983;  649.725;    0.000;    0.000
327.043;  662.725;    0.000;    0.000
327.102;  749.725;    0.000;    0.000
327.161;  749.725;    0.000;    0.000
327.221;  720.725;    0.000;    0.000
327.280;  702.725;    0.000;    0.000
327.340;  624.725;    0.000;    0.000
327.399;  692.725;    0.000;    0.000
327.459;  674.725;    0.000;    0.000
327.518;  703.725;    0.000;    0.000
327.577;  680.725;    0.000;    0.000
327.637;  697.725;    0.000;    0.000
327.696;  685.725;    0.000;    0.000
327.755;  688.725;    0.000;    0.000
327.815;  759.725;    0.000;    0.000
327.874;  763.725;    0.000;    0.000
327.933;  696.725;    0.000;    0.000
327.993;  684.725;    0.000;    0.000
328.052;  713.725;    0.000;    0.000
328.111;  691.725;    0.000;    0.000
328.171;  677.725;    0.000;    0.000
328.230;  697.725;    0.000;    0.000
328.289;  699.725;    0.000;    0.000
328.349;  680.725;    0.000;    0.000
328.408;  701.725;    0.000;    0.000
328.467;  630.725;    0.000;    0.000
328.526;  672.725;    0.000;    0.000
328.586;  625.725;    0.000;    0.000
328.645;  735.725;    0.000;    0.000
328.704;  794.725;    0.000;    0.000
328.763;  738.725;    0.000;    0.000
328.822;  753.725;    0.000;    0.000
328.882;  702.725;    0.000;    0.000
328.941;  677.725;    0.000;    0.000
329.000;  680.725;    0.000;    0.000
329.059;  682.725;    0.000;    0.000
329.118;  716.725;    0.000;    0.000
329.177;  672.725;    0.000;    0.000
329.237;  746.725;    0.000;    0.000
329.296;  657.725;    0.000;    0.000
329.355;  692.725;    0.000;    0.000
329.414;  677.725;    0.000;    0.000
329.473;  671.725;    0.000;    0.000
329.532;  670.725;    0.000;    0.000
329.591;  658.725;    0.000;    0.000
329.650;  683.725;    0.000;    0.000
329.709;  666.725;    0.000;    0.000
329.768;  635.725;    0.000;    0.000
329.827;  698.725;    0.000;    0.000
329.886;  650.725;    0.000;    0.000
329.945;  651.725;    0.000;    0.000
330.004;  660.725;    0.000;    0.000
330.063;  637.725;    0.000;    0.000
330.122;  656.725;    0.000;    0.000
330.181;  670.725;    0.000;    0.000
330.240;  641.725;    0.000;    0.000
330.299;  615.725;    0.000;    0.000
330.358;  650.725;    0.000;    0.000
330.417;  647.725;    0.000;    0.000
330.476;  658.725;    0.000;    0.000
330.535;  742.725;    0.000;    0.000
330.594;  719.725;    0.000;    0.000
330.653;  746.725;    0.000;    0.000
330.712;  669.725;    0.000;    0.000
330.771;  636.725;    0.000;    0.000
330.830;  640.725;    0.000;    0.000
330.889;  633.725;    0.000;    0.000
330.948;  654.725;    0.000;    0.000
331.006;  622.725;    0.000;    0.000
331.065;  563.725;    0.000;    0.000
331.124;  651.725;    0.000;    0.000
331.183;  626.725;    0.000;    0.000
331.242;  606.725;    0.000;    0.000
331.301;  608.725;    0.000;    0.000
331.359;  673.725;    0.000;    0.000
331.418;  657.725;    0.000;    0.000
331.477;  660.725;    0.000;    0.000
331.536;  646.725;    0.000;    0.000
331.595;  629.725;    0.000;    0.000
331.653;  614.725;    0.000;    0.000
331.712;  660.725;    0.000;    0.000
331.771;  655.725;    0.000;    0.000
331.830;  646.725;    0.000;    0.000
331.888;  650.725;    0.000;    0.000
331.947;  646.725;    0.000;    0.000
332.006;  625.725;    0.000;    0.000
332.065;  633.725;    0.000;    0.000
332.123;  720.725;    0.000;    0.000
332.182;  698.725;    0.000;    0.000
332.241;  784.725;    0.000;    0.000
332.299;  768.725;    0.000;    0.000
332.358;  764.725;    0.000;    0.000
332.417;  735.725;    0.000;    0.000
332.475;  682.725;    0.000;    0.000
332.534;  675.725;    0.000;    0.000
332.592;  625.725;    0.000;    0.000
332.651;  669.725;    0.000;    0.000
332.710;  661.725;    0.000;    0.000
332.768;  654.725;    0.000;    0.000
332.827;  681.725;    0.000;    0.000
332.885;  790.725;    0.000;    0.000
332.944;  768.725;    0.000;    0.000
333.003;  788.725;    0.000;    0.000
333.061;  716.725;    0.000;    0.000
333.120;  778.725;    0.000;    0.000
333.178;  884.725;    0.000;    0.000
333.237;  883.725;    0.000;    0.000
333.295;  861.725;    0.000;    0.000
333.354;  705.725;    0.000;    0.000
333.412;  764.725;    0.000;    0.000
333.471;  789.725;    0.000;    0.000
333.529;  843.725;    0.000;    0.000
333.588;  882.725;    0.000;    0.000
333.646;  928.725;    0.000;    0.000
333.705; 1017.725;    0.000;    0.000
333.763;  900.725;    0.000;    0.000
333.822;  813.725;    0.000;    0.000
333.880;  800.725;    0.000;    0.000
333.938;  797.725;    0.000;    0.000
333.997;  800.725;    0.000;    0.000
334.055;  889.725;    0.000;    0.000
334.114;  942.725;    0.000;    0.000
334.172; 1009.725;    0.000;    0.000
334.230;  936.725;    0.000;    0.000
334.289;  795.725;    0.000;    0.000
334.347;  788.725;    0.000;    0.000
334.405;  776.725;    0.000;    0.000
334.464;  734.725;    0.000;    0.000
334.522;  701.725;    0.000;    0.000
334.580;  745.725;    0.000;    0.000
334.639;  779.725;    0.000;    0.000
334.697;  765.725;    0.000;    0.000
334.755;  802.725;    0.000;    0.000
334.814; 1008.725;    0.000;    0.000
334.872; 1508.725;    0.000;    0.000
334.930; 1567.725;    0.000;    0.000
334.988; 1164.725;    0.000;    0.000
335.047;  784.725;    0.000;    0.000
335.105;  747.725;    0.000;    0.000
335.163;  703.725;    0.000;    0.000
335.221;  719.725;    0.000;    0.000
335.280;  727.725;    0.000;    0.000
335.338;  751.725;    0.000;    0.000
335.396;  705.725;    0.000;    0.000
335.454;  731.725;    0.000;    0.000
335.512;  735.725;    0.000;    0.000
335.570;  731.725;    0.000;    0.000
335.629;  743.725;    0.000;    0.000
335.687;  702.725;    0.000;    0.000
335.745;  687.725;    0.000;    0.000
335.803;  699.725;    0.000;    0.000
335.861;  683.725;    0.000;    0.000
335.919;  751.725;    0.000;    0.000
335.977;  806.725;    0.000;    0.000
336.035; 1033.725;    0.000;    0.000
336.094; 1193.725;    0.000;    0.000
336.152; 1083.725;    0.000;    0.000
336.210;  799.725;    0.000;    0.000
336.268;  774.725;    0.000;    0.000
336.326;  730.725;    0.000;    0.000
336.384;  658.725;    0.000;    0.000
336.442;  693.725;    0.000;    0.000
336.500;  685.725;    0.000;    0.000
336.558;  738.725;    0.000;    0.000
336.616;  742.725;    0.000;    0.000
336.674;  704.725;    0.000;    0.000
336.732;  642.725;    0.000;    0.000
336.790;  634.725;    0.000;    0.000
336.848;  676.725;    0.000;    0.000
336.906;  762.725;    0.000;    0.000
336.964;  751.725;    0.000;    0.000
337.022;  730.725;    0.000;    0.000
337.080;  778.725;    0.000;    0.000
337.138;  823.725;    0.000;    0.000
337.195;  914.725;    0.000;    0.000
337.253; 1075.725;    0.000;    0.000
337.311;  952.725;    0.000;    0.000
337.369;  780.725;    0.000;    0.000
337.427;  635.725;    0.000;    0.000
337.485;  712.725;    0.000;    0.000
337.543;  641.725;    0.000;    0.000
337.601;  691.725;    0.000;    0.000
337.658;  743.725;    0.000;    0.000
337.716;  725.725;    0.000;    0.000
337.774;  725.725;    0.000;    0.000
337.832;  666.725;    0.000;    0.000
337.890;  617.725;    0.000;    0.000
337.947;  671.725;    0.000;    0.000
338.005;  742.725;    0.000;    0.000
338.063;  730.725;    0.000;    0.000
338.121;  682.725;    0.000;    0.000
338.178;  706.725;    0.000;    0.000
338.236;  751.725;    0.000;    0.000
338.294;  880.725;    0.000;    0.000
338.352; 1018.725;    0.000;    0.000
338.409;  866.725;    0.000;    0.000
338.467;  726.725;    0.000;    0.000
338.525;  715.725;    0.000;    0.000
338.583;  713.725;    0.000;    0.000
338.640;  676.725;    0.000;    0.000
338.698;  718.725;    0.000;    0.000
338.756;  706.725;    0.000;    0.000
338.813;  715.725;    0.000;    0.000
338.871;  650.725;    0.000;    0.000
338.928;  685.725;    0.000;    0.000
338.986;  694.725;    0.000;    0.000
339.044;  712.725;    0.000;    0.000
339.101;  699.725;    0.000;    0.000
339.159;  626.725;    0.000;    0.000
339.216;  740.725;    0.000;    0.000
339.274;  754.725;    0.000;    0.000
339.332;  749.725;    0.000;    0.000
339.389;  751.725;    0.000;    0.000
339.447;  706.725;    0.000;    0.000
339.504;  747.725;    0.000;    0.000
339.562;  672.725;    0.000;    0.000
339.619;  670.725;    0.000;    0.000
339.677;  691.725;    0.000;    0.000
339.734;  632.725;    0.000;    0.000
339.792;  623.725;    0.000;    0.000
339.849;  681.725;    0.000;    0.000
339.907;  692.725;    0.000;    0.000
339.964;  707.725;    0.000;    0.000
340.022;  665.725;    0.000;    0.000
340.079;  705.725;    0.000;    0.000
340.137;  686.725;    0.000;    0.000
340.194;  693.725;    0.000;    0.000
340.252;  727.725;    0.000;    0.000
340.309;  664.725;    0.000;    0.000
340.366;  672.725;    0.000;    0.000
340.424;  730.725;    0.000;    0.000
340.481;  670.725;    0.000;    0.000
340.538;  659.725;    0.000;    0.000
340.596;  641.725;    0.000;    0.000
340.653;  693.725;    0.000;    0.000
340.711;  786.725;    0.000;    0.000
340.768;  796.725;    0.000;    0.000
340.825;  649.725;    0.000;    0.000
340.883;  686.725;    0.000;    0.000
340.940;  694.725;    0.000;    0.000
340.997;  690.725;    0.000;    0.000
341.054;  639.725;    0.000;    0.000
341.112;  688.725;    0.000;    0.000
341.169;  642.725;    0.000;    0.000
341.226;  670.725;    0.000;    0.000
341.284;  738.725;    0.000;    0.000
341.341;  715.725;    0.000;    0.000
341.398;  723.725;    0.000;    0.000
341.455;  762.725;    0.000;    0.000
341.512;  768.725;    0.000;    0.000
341.570;  696.725;    0.000;    0.000
341.627;  691.725;    0.000;    0.000
341.684;  631.725;    0.000;    0.000
341.741;  720.725;    0.000;    0.000
341.798;  725.725;    0.000;    0.000
341.856;  673.725;    0.000;    0.000
341.913;  697.725;    0.000;    0.000
341.970;  695.725;    0.000;    0.000
342.027;  675.725;    0.000;    0.000
342.084;  658.725;    0.000;    0.000
342.141;  682.725;    0.000;    0.000
342.198;  748.725;    0.000;    0.000
342.255;  705.725;    0.000;    0.000
342.313;  703.725;    0.000;    0.000
342.370;  728.725;    0.000;    0.000
342.427;  730.725;    0.000;    0.000
342.484;  739.725;    0.000;    0.000
342.541;  680.725;    0.000;    0.000
342.598;  703.725;    0.000;    0.000
342.655;  727.725;    0.000;    0.000
342.712;  786.725;    0.000;    0.000
342.769;  757.725;    0.000;    0.000
342.826;  745.725;    0.000;    0.000
342.883;  663.725;    0.000;    0.000
342.940;  645.725;    0.000;    0.000
342.997;  666.725;    0.000;    0.000
343.054;  684.725;    0.000;    0.000
343.111;  648.725;    0.000;    0.000
343.168;  659.725;    0.000;    0.000
343.225;  748.725;    0.000;    0.000
343.282;  768.725;    0.000;    0.000
343.339;  765.725;    0.000;    0.000
343.395;  727.725;    0.000;    0.000
343.452;  709.725;    0.000;    0.000
343.509;  625.725;    0.000;    0.000
343.566;  759.725;    0.000;    0.000
343.623;  714.725;    0.000;    0.000
343.680;  745.725;    0.000;    0.000
343.737;  678.725;    0.000;    0.000
343.794;  726.725;    0.000;    0.000
343.850;  755.725;    0.000;    0.000
343.907;  726.725;    0.000;    0.000
343.964;  844.725;    0.000;    0.000
344.021; 1204.725;    0.000;    0.000
344.078; 1268.725;    0.000;    0.000
344.134;  947.725;    0.000;    0.000
344.191;  774.725;    0.000;    0.000
344.248;  809.725;    0.000;    0.000
344.305;  805.725;    0.000;    0.000
344.361;  807.725;    0.000;    0.000
344.418;  871.725;    0.000;    0.000
344.475;  786.725;    0.000;    0.000
344.532;  802.725;    0.000;    0.000
344.588;  812.725;    0.000;    0.000
344.645;  789.725;    0.000;    0.000
344.702;  751.725;    0.000;    0.000
344.758;  782.725;    0.000;    0.000
344.815;  730.725;    0.000;    0.000
344.872;  701.725;    0.000;    0.000
344.928;  710.725;    0.000;    0.000
344.985;  731.725;    0.000;    0.000
345.042;  762.725;    0.000;    0.000
345.098;  696.725;    0.000;    0.000
345.155;  730.725;    0.000;    0.000
345.212;  796.725;    0.000;    0.000
345.268;  761.725;    0.000;    0.000
345.325;  672.725;    0.000;    0.000
345.381;  713.725;    0.000;    0.000
345.438;  776.725;    0.000;    0.000
345.495;  739.725;    0.000;    0.000
345.551;  768.725;    0.000;    0.000
345.608;  751.725;    0.000;    0.000
345.664;  724.725;    0.000;    0.000
345.721;  773.725;    0.000;    0.000
345.777;  771.725;    0.000;    0.000
345.834;  765.725;    0.000;    0.000
345.890;  781.725;    0.000;    0.000
345.947;  747.725;    0.000;    0.000
346.003;  772.725;    0.000;    0.000
346.060;  781.725;    0.000;    0.000
346.116;  824.725;    0.000;    0.000
346.173;  850.725;    0.000;    0.000
346.229;  771.725;    0.000;    0.000
346.285;  757.725;    0.000;    0.000
346.342;  724.725;    0.000;    0.000
346.398;  715.725;    0.000;    0.000
346.455;  732.725;    0.000;    0.000
346.511;  803.725;    0.000;    0.000
346.567;  860.725;    0.000;    0.000
346.624;  823.725;    0.000;    0.000
346.680;  763.725;    0.000;    0.000
346.737;  757.725;    0.000;    0.000
346.793;  771.725;    0.000;    0.000
346.849;  749.725;    0.000;    0.000
346.906;  741.725;    0.000;    0.000
346.962;  767.725;    0.000;    0.000
347.018;  786.725;    0.000;    0.000
347.074;  747.725;    0.000;    0.000
347.131;  734.725;    0.000;    0.000
347.187;  682.725;    0.000;    0.000
347.243;  771.725;    0.000;    0.000
347.300;  742.725;    0.000;    0.000
347.356;  757.725;    0.000;    0.000
347.412;  760.725;    0.000;    0.000
347.468;  864.725;    0.000;    0.000
347.524;  891.725;    0.000;    0.000
347.581;  864.725;    0.000;    0.000
347.637;  918.725;    0.000;    0.000
347.693;  899.725;    0.000;    0.000
347.749;  837.725;    0.000;    0.000
347.805;  765.725;    0.000;    0.000
347.862;  729.725;    0.000;    0.000
347.918;  726.725;    0.000;    0.000
347.974;  767.725;    0.000;    0.000
348.030;  758.725;    0.000;    0.000
348.086;  704.725;    0.000;    0.000
348.142;  778.725;    0.000;    0.000
348.198;  734.725;    0.000;    0.000
348.254;  785.725;    0.000;    0.000
348.311;  736.725;    0.000;    0.000
348.367;  811.725;    0.000;    0.000
348.423;  798.725;    0.000;    0.000
348.479;  746.725;    0.000;    0.000
348.535;  790.725;    0.000;    0.000
348.591;  845.725;    0.000;    0.000
348.647;  753.725;    0.000;    0.000
348.703;  796.725;    0.000;    0.000
348.759;  776.725;    0.000;    0.000
348.815;  742.725;    0.000;    0.000
348.871;  776.725;    0.000;    0.000
348.927;  838.725;    0.000;    0.000
348.983;  915.725;    0.000;    0.000
349.039;  949.725;    0.000;    0.000
349.095;  840.725;    0.000;    0.000
349.151;  809.725;    0.000;    0.000
349.207;  772.725;    0.000;    0.000
349.263;  881.725;    0.000;    0.000
349.319;  828.725;    0.000;    0.000
349.374;  795.725;    0.000;    0.000
349.430;  766.725;    0.000;    0.000
349.486;  771.725;    0.000;    0.000
349.542;  792.725;    0.000;    0.000
349.598;  803.725;    0.000;    0.000
349.654;  805.725;    0.000;    0.000
349.710;  848.725;    0.000;    0.000
349.766;  851.725;    0.000;    0.000
349.821;  777.725;    0.000;    0.000
349.877;  789.725;    0.000;    0.000
349.933;  780.725;    0.000;    0.000
349.989;  763.725;    0.000;    0.000
350.045;  737.725;    0.000;    0.000
350.100;  806.725;    0.000;    0.000
350.156;  808.725;    0.000;    0.000
350.212;  807.725;    0.000;    0.000
350.268;  795.725;    0.000;    0.000
350.323;  772.725;    0.000;    0.000
350.379;  812.725;    0.000;    0.000
350.435;  931.725;    0.000;    0.000
350.491;  855.725;    0.000;    0.000
350.546;  779.725;    0.000;    0.000
350.602;  785.725;    0.000;    0.000
350.658;  785.725;    0.000;    0.000
350.713;  753.725;    0.000;    0.000
350.769;  709.725;    0.000;    0.000
350.825;  787.725;    0.000;    0.000
350.880;  728.725;    0.000;    0.000
350.936;  870.725;    0.000;    0.000
350.992;  850.725;    0.000;    0.000
351.047;  918.725;    0.000;    0.000
351.103;  863.725;    0.000;    0.000
351.158;  821.725;    0.000;    0.000
351.214;  800.725;    0.000;    0.000
351.270;  758.725;    0.000;    0.000
351.325;  856.725;    0.000;    0.000
351.381;  841.725;    0.000;    0.000
351.436;  920.725;    0.000;    0.000
351.492;  883.725;    0.000;    0.000
351.547;  866.725;    0.000;    0.000
351.603;  797.725;    0.000;    0.000
351.658;  766.725;    0.000;    0.000
351.714;  765.725;    0.000;    0.000
351.769;  765.725;    0.000;    0.000
351.825;  792.725;    0.000;    0.000
351.880;  744.725;    0.000;    0.000
351.936;  736.725;    0.000;    0.000
351.991;  814.725;    0.000;    0.000
352.047;  916.725;    0.000;    0.000
352.102;  863.725;    0.000;    0.000
352.158;  885.725;    0.000;    0.000
352.213;  843.725;    0.000;    0.000
352.268;  768.725;    0.000;    0.000
352.324;  783.725;    0.000;    0.000
352.379;  945.725;    0.000;    0.000
352.434; 1012.725;    0.000;    0.000
352.490;  967.725;    0.000;    0.000
352.545;  931.725;    0.000;    0.000
352.601;  935.725;    0.000;    0.000
352.656;  872.725;    0.000;    0.000
352.711;  785.725;    0.000;    0.000
352.767;  733.725;    0.000;    0.000
352.822;  799.725;    0.000;    0.000
352.877;  759.725;    0.000;    0.000
352.932;  801.725;    0.000;    0.000
352.988;  770.725;    0.000;    0.000
353.043;  836.725;    0.000;    0.000
353.098;  783.725;    0.000;    0.000
353.153;  823.725;    0.000;    0.000
353.209;  816.725;    0.000;    0.000
353.264;  866.725;    0.000;    0.000
353.319;  853.725;    0.000;    0.000
353.374;  849.725;    0.000;    0.000
353.430;  777.725;    0.000;    0.000
353.485;  809.725;    0.000;    0.000
353.540;  856.725;    0.000;    0.000
353.595;  856.725;    0.000;    0.000
353.650;  818.725;    0.000;    0.000
353.705;  838.725;    0.000;    0.000
353.761;  804.725;    0.000;    0.000
353.816;  809.725;    0.000;    0.000
353.871;  801.725;    0.000;    0.000
353.926;  792.725;    0.000;    0.000
353.981;  884.725;    0.000;    0.000
354.036;  861.725;    0.000;    0.000
354.091;  884.725;    0.000;    0.000
354.146;  858.725;    0.000;    0.000
354.201;  899.725;    0.000;    0.000
354.256;  813.725;    0.000;    0.000
354.311;  828.725;    0.000;    0.000
354.367;  815.725;    0.000;    0.000
354.422;  794.725;    0.000;    0.000
354.477;  775.725;    0.000;    0.000
354.532;  800.725;    0.000;    0.000
354.587;  835.725;    0.000;    0.000
354.642;  793.725;    0.000;    0.000
354.697;  818.725;    0.000;    0.000
354.751;  831.725;    0.000;    0.000
354.806;  831.725;    0.000;    0.000
354.861;  805.725;    0.000;    0.000
354.916;  796.725;    0.000;    0.000
354.971;  870.725;    0.000;    0.000
355.026;  821.725;    0.000;    0.000
355.081;  861.725;    0.000;    0.000
355.136;  786.725;    0.000;    0.000
355.191;  795.725;    0.000;    0.000
355.246;  846.725;    0.000;    0.000
355.301;  926.725;    0.000;    0.000
355.355;  876.725;    0.000;    0.000
355.410;  920.725;    0.000;    0.000
355.465;  891.725;    0.000;    0.000
355.520;  912.725;    0.000;    0.000
355.575;  910.725;    0.000;    0.000
355.630;  905.725;    0.000;    0.000
355.684;  825.725;    0.000;    0.000
355.739;  865.725;    0.000;    0.000
355.794;  995.725;    0.000;    0.000
355.849; 1028.725;    0.000;    0.000
355.904;  928.725;    0.000;    0.000
355.958;  858.725;    0.000;    0.000
356.013;  824.725;    0.000;    0.000
356.068;  849.725;    0.000;    0.000
356.123;  825.725;    0.000;    0.000
356.177;  831.725;    0.000;    0.000
356.232;  834.725;    0.000;    0.000
356.287;  891.725;    0.000;    0.000
356.341;  850.725;    0.000;    0.000
356.396;  836.725;    0.000;    0.000
356.451; 1117.725;    0.000;    0.000
356.505; 1410.725;    0.000;    0.000
356.560; 1357.725;    0.000;    0.000
356.615; 1020.725;    0.000;    0.000
356.669;  975.725;    0.000;    0.000
356.724;  954.725;    0.000;    0.000
356.778;  928.725;    0.000;    0.000
356.833;  884.725;    0.000;    0.000
356.888; 1083.725;    0.000;    0.000
356.942; 1713.725;    0.000;    0.000
356.997; 2080.725;    0.000;    0.000
357.051; 1631.725;    0.000;    0.000
357.106; 1071.725;    0.000;    0.000
357.160;  915.725;    0.000;    0.000
357.215;  854.725;    0.000;    0.000
357.269;  931.725;    0.000;    0.000
357.324;  905.725;    0.000;    0.000
357.378;  877.725;    0.000;    0.000
357.433;  865.725;    0.000;    0.000
357.487;  872.725;    0.000;    0.000
357.542;  899.725;    0.000;    0.000
357.596;  864.725;    0.000;    0.000
357.651;  880.725;    0.000;    0.000
357.705;  878.725;    0.000;    0.000
357.760;  875.725;    0.000;    0.000
357.814;  967.725;    0.000;    0.000
357.868;  951.725;    0.000;    0.000
357.923;  953.725;    0.000;    0.000
357.977;  918.725;    0.000;    0.000
358.032; 1561.725;    0.000;    0.000
358.086; 2379.725;    0.000;    0.000
358.140; 2275.725;    0.000;    0.000
358.195; 1418.725;    0.000;    0.000
358.249; 1050.725;    0.000;    0.000
358.303;  980.725;    0.000;    0.000
358.358;  953.725;    0.000;    0.000
358.412;  963.725;    0.000;    0.000
358.466; 1142.725;    0.000;    0.000
358.521; 1220.725;    0.000;    0.000
358.575; 1165.725;    0.000;    0.000
358.629; 1096.725;    0.000;    0.000
358.683; 1115.725;    0.000;    0.000
358.738; 1052.725;    0.000;    0.000
358.792;  883.725;    0.000;    0.000
358.846;  946.725;    0.000;    0.000
358.900;  915.725;    0.000;    0.000
358.954;  925.725;    0.000;    0.000
359.009;  889.725;    0.000;    0.000
359.063;  887.725;    0.000;    0.000
359.117;  868.725;    0.000;    0.000
359.171;  847.725;    0.000;    0.000
359.225;  880.725;    0.000;    0.000
359.280;  844.725;    0.000;    0.000
359.334;  899.725;    0.000;    0.000
359.388;  981.725;    0.000;    0.000
359.442;  907.725;    0.000;    0.000
359.496;  817.725;    0.000;    0.000
359.550;  893.725;    0.000;    0.000
359.604;  835.725;    0.000;    0.000
359.658;  848.725;    0.000;    0.000
359.712;  883.725;    0.000;    0.000
359.766;  824.725;    0.000;    0.000
359.820;  812.725;    0.000;    0.000
359.875;  909.725;    0.000;    0.000
359.929;  863.725;    0.000;    0.000
359.983;  857.725;    0.000;    0.000
360.037;  879.725;    0.000;    0.000
360.091;  817.725;    0.000;    0.000
360.145;  852.725;    0.000;    0.000
360.199;  841.725;    0.000;    0.000
360.253;  890.725;    0.000;    0.000
360.306;  891.725;    0.000;    0.000
360.360;  908.725;    0.000;    0.000
360.414;  813.725;    0.000;    0.000
360.468;  982.725;    0.000;    0.000
360.522;  994.725;    0.000;    0.000
360.576; 1019.725;    0.000;    0.000
360.630; 1093.725;    0.000;    0.000
360.684; 1008.725;    0.000;    0.000
360.738; 1002.725;    0.000;    0.000
360.792; 1090.725;    0.000;    0.000
360.846; 1415.725;    0.000;    0.000
360.899; 1476.725;    0.000;    0.000
360.953; 1137.725;    0.000;    0.000
361.007;  938.725;    0.000;    0.000
361.061;  920.725;    0.000;    0.000
361.115;  869.725;    0.000;    0.000
361.168;  875.725;    0.000;    0.000
361.222;  864.725;    0.000;    0.000
361.276;  900.725;    0.000;    0.000
361.330;  887.725;    0.000;    0.000
361.384;  868.725;    0.000;    0.000
361.437;  873.725;    0.000;    0.000
361.491;  805.725;    0.000;    0.000
361.545;  843.725;    0.000;    0.000
361.599;  825.725;    0.000;    0.000
361.652;  863.725;    0.000;    0.000
361.706;  932.725;    0.000;    0.000
361.760; 1004.725;    0.000;    0.000
361.813; 1457.725;    0.000;    0.000
361.867; 1680.725;    0.000;    0.000
361.921; 1399.725;    0.000;    0.000
361.974; 1049.725;    0.000;    0.000
362.028;  941.725;    0.000;    0.000
362.082;  916.725;    0.000;    0.000
362.135;  941.725;    0.000;    0.000
362.189;  967.725;    0.000;    0.000
362.242;  950.725;    0.000;    0.000
362.296;  870.725;    0.000;    0.000
362.350;  855.725;    0.000;    0.000
362.403;  866.725;    0.000;    0.000
362.457;  895.725;    0.000;    0.000
362.510;  870.725;    0.000;    0.000
362.564;  850.725;    0.000;    0.000
362.617;  859.725;    0.000;    0.000
362.671;  880.725;    0.000;    0.000
362.724;  837.725;    0.000;    0.000
362.778;  850.725;    0.000;    0.000
362.831;  848.725;    0.000;    0.000
362.885;  897.725;    0.000;    0.000
362.938;  847.725;    0.000;    0.000
362.992;  296.725;    0.000;    0.000
363.045;  266.725;    0.000;    0.000
363.099;  265.725;    0.000;    0.000
363.152;  290.725;    0.000;    0.000
363.205;  315.725;    0.000;    0.000
363.259;  261.725;    0.000;    0.000
363.312;  282.725;    0.000;    0.000
363.366;  284.725;    0.000;    0.000
363.419;  300.725;    0.000;    0.000
363.472;  277.725;    0.000;    0.000
363.526;  294.725;    0.000;    0.000
363.579;  286.725;    0.000;    0.000
363.632;  307.725;    0.000;    0.000
363.686;  275.725;    0.000;    0.000
363.739;  294.725;    0.000;    0.000
363.792;  302.725;    0.000;    0.000

