
Integration time [ms]:   1.000
Averaging Nr. [scans]: 1
Smoothing Nr. [pixels]: 0
Data measured with spectrometer [name]: UV2
Wave   ;Sample   ;Dark     ;Reference
[nm]   ;[counts] ;[counts] ;[counts] 

353.533;  236.125;    0.000;    0.000
353.597;  257.125;    0.000;    0.000
353.660;  208.125;    0.000;    0.000
353.723;  181.125;    0.000;    0.000
353.786;  233.125;    0.000;    0.000
353.850;  211.125;    0.000;    0.000
353.913;  198.125;    0.000;    0.000
353.976;  223.125;    0.000;    0.000
354.039;  198.125;    0.000;    0.000
354.102;  230.125;    0.000;    0.000
354.166;  219.125;    0.000;    0.000
354.229;  220.125;    0.000;    0.000
354.292;  203.125;    0.000;    0.000
354.355;  214.125;    0.000;    0.000
354.418;  200.125;    0.000;    0.000
354.481;  213.125;    0.000;    0.000
354.545;  275.125;    0.000;    0.000
354.608;  305.125;    0.000;    0.000
354.671;  242.125;    0.000;    0.000
354.734;  279.125;    0.000;    0.000
354.797;  260.125;    0.000;    0.000
354.860;  261.125;    0.000;    0.000
354.923;  236.125;    0.000;    0.000
354.986;  256.125;    0.000;    0.000
355.050;  277.125;    0.000;    0.000
355.113;  299.125;    0.000;    0.000
355.176;  286.125;    0.000;    0.000
355.239;  289.125;    0.000;    0.000
355.302;  257.125;    0.000;    0.000
355.365;  280.125;    0.000;    0.000
355.428;  323.125;    0.000;    0.000
355.491;  330.125;    0.000;    0.000
355.554;  270.125;    0.000;    0.000
355.617;  264.125;    0.000;    0.000
355.680;  259.125;    0.000;    0.000
355.743;  255.125;    0.000;    0.000
355.806;  262.125;    0.000;    0.000
355.869;  356.125;    0.000;    0.000
355.932;  255.125;    0.000;    0.000
355.995;  275.125;    0.000;    0.000
356.058;  265.125;    0.000;    0.000
356.121;  306.125;    0.000;    0.000
356.184;  303.125;    0.000;    0.000
356.247;  289.125;    0.000;    0.000
356.310;  277.125;    0.000;    0.000
356.373;  286.125;    0.000;    0.000
356.436;  302.125;    0.000;    0.000
356.498;  313.125;    0.000;    0.000
356.561;  304.125;    0.000;    0.000
356.624;  290.125;    0.000;    0.000
356.687;  280.125;    0.000;    0.000
356.750;  292.125;    0.000;    0.000
356.813;  272.125;    0.000;    0.000
356.876;  281.125;    0.000;    0.000
356.939;  336.125;    0.000;    0.000
357.001;  353.125;    0.000;    0.000
357.064;  335.125;    0.000;    0.000
357.127;  299.125;    0.000;    0.000
357.190;  292.125;    0.000;    0.000
357.253;  269.125;    0.000;    0.000
357.316;  294.125;    0.000;    0.000
357.378;  303.125;    0.000;    0.000
357.441;  259.125;    0.000;    0.000
357.504;  275.125;    0.000;    0.000
357.567;  222.125;    0.000;    0.000
357.629;  290.125;    0.000;    0.000
357.692;  245.125;    0.000;    0.000
357.755;  271.125;    0.000;    0.000
357.818;  249.125;    0.000;    0.000
357.880;  298.125;    0.000;    0.000
357.943;  272.125;    0.000;    0.000
358.006;  274.125;    0.000;    0.000
358.069;  347.125;    0.000;    0.000
358.131;  362.125;    0.000;    0.000
358.194;  292.125;    0.000;    0.000
358.257;  267.125;    0.000;    0.000
358.319;  242.125;    0.000;    0.000
358.382;  315.125;    0.000;    0.000
358.445;  272.125;    0.000;    0.000
358.507;  269.125;    0.000;    0.000
358.570;  319.125;    0.000;    0.000
358.633;  276.125;    0.000;    0.000
358.695;  291.125;    0.000;    0.000
358.758;  257.125;    0.000;    0.000
358.821;  256.125;    0.000;    0.000
358.883;  239.125;    0.000;    0.000
358.946;  271.125;    0.000;    0.000
359.008;  299.125;    0.000;    0.000
359.071;  248.125;    0.000;    0.000
359.134;  259.125;    0.000;    0.000
359.196;  245.125;    0.000;    0.000
359.259;  237.125;    0.000;    0.000
359.321;  285.125;    0.000;    0.000
359.384;  269.125;    0.000;    0.000
359.446;  251.125;    0.000;    0.000
359.509;  268.125;    0.000;    0.000
359.571;  232.125;    0.000;    0.000
359.634;  278.125;    0.000;    0.000
359.696;  246.125;    0.000;    0.000
359.759;  277.125;    0.000;    0.000
359.821;  297.125;    0.000;    0.000
359.884;  245.125;    0.000;    0.000
359.946;  302.125;    0.000;    0.000
360.009;  286.125;    0.000;    0.000
360.071;  252.125;    0.000;    0.000
360.134;  300.125;    0.000;    0.000
360.196;  278.125;    0.000;    0.000
360.259;  282.125;    0.000;    0.000
360.321;  280.125;    0.000;    0.000
360.384;  301.125;    0.000;    0.000
360.446;  253.125;    0.000;    0.000
360.508;  274.125;    0.000;    0.000
360.571;  320.125;    0.000;    0.000
360.633;  275.125;    0.000;    0.000
360.696;  260.125;    0.000;    0.000
360.758;  298.125;    0.000;    0.000
360.820;  316.125;    0.000;    0.000
360.883;  315.125;    0.000;    0.000
360.945;  299.125;    0.000;    0.000
361.007;  275.125;    0.000;    0.000
361.070;  284.125;    0.000;    0.000
361.132;  279.125;    0.000;    0.000
361.194;  309.125;    0.000;    0.000
361.257;  249.125;    0.000;    0.000
361.319;  285.125;    0.000;    0.000
361.381;  269.125;    0.000;    0.000
361.443;  271.125;    0.000;    0.000
361.506;  304.125;    0.000;    0.000
361.568;  226.125;    0.000;    0.000
361.630;  296.125;    0.000;    0.000
361.693;  290.125;    0.000;    0.000
361.755;  329.125;    0.000;    0.000
361.817;  401.125;    0.000;    0.000
361.879;  352.125;    0.000;    0.000
361.941;  295.125;    0.000;    0.000
362.004;  288.125;    0.000;    0.000
362.066;  308.125;    0.000;    0.000
362.128;  292.125;    0.000;    0.000
362.190;  277.125;    0.000;    0.000
362.252;  305.125;    0.000;    0.000
362.315;  295.125;    0.000;    0.000
362.377;  277.125;    0.000;    0.000
362.439;  245.125;    0.000;    0.000
362.501;  282.125;    0.000;    0.000
362.563;  240.125;    0.000;    0.000
362.625;  299.125;    0.000;    0.000
362.688;  284.125;    0.000;    0.000
362.750;  326.125;    0.000;    0.000
362.812;  264.125;    0.000;    0.000
362.874;  287.125;    0.000;    0.000
362.936;  321.125;    0.000;    0.000
362.998;  257.125;    0.000;    0.000
363.060;  312.125;    0.000;    0.000
363.122;  345.125;    0.000;    0.000
363.184;  367.125;    0.000;    0.000
363.246;  288.125;    0.000;    0.000
363.308;  284.125;    0.000;    0.000
363.370;  287.125;    0.000;    0.000
363.432;  254.125;    0.000;    0.000
363.494;  277.125;    0.000;    0.000
363.556;  291.125;    0.000;    0.000
363.618;  295.125;    0.000;    0.000
363.680;  313.125;    0.000;    0.000
363.742;  306.125;    0.000;    0.000
363.804;  318.125;    0.000;    0.000
363.866;  327.125;    0.000;    0.000
363.928;  271.125;    0.000;    0.000
363.990;  280.125;    0.000;    0.000
364.052;  336.125;    0.000;    0.000
364.114;  284.125;    0.000;    0.000
364.176;  341.125;    0.000;    0.000
364.238;  345.125;    0.000;    0.000
364.300;  329.125;    0.000;    0.000
364.362;  331.125;    0.000;    0.000
364.424;  257.125;    0.000;    0.000
364.486;  326.125;    0.000;    0.000
364.548;  320.125;    0.000;    0.000
364.609;  330.125;    0.000;    0.000
364.671;  311.125;    0.000;    0.000
364.733;  306.125;    0.000;    0.000
364.795;  316.125;    0.000;    0.000
364.857;  319.125;    0.000;    0.000
364.919;  310.125;    0.000;    0.000
364.981;  315.125;    0.000;    0.000
365.042;  310.125;    0.000;    0.000
365.104;  279.125;    0.000;    0.000
365.166;  263.125;    0.000;    0.000
365.228;  312.125;    0.000;    0.000
365.290;  303.125;    0.000;    0.000
365.351;  296.125;    0.000;    0.000
365.413;  297.125;    0.000;    0.000
365.475;  297.125;    0.000;    0.000
365.537;  319.125;    0.000;    0.000
365.598;  283.125;    0.000;    0.000
365.660;  263.125;    0.000;    0.000
365.722;  324.125;    0.000;    0.000
365.784;  290.125;    0.000;    0.000
365.845;  305.125;    0.000;    0.000
365.907;  261.125;    0.000;    0.000
365.969;  321.125;    0.000;    0.000
366.030;  279.125;    0.000;    0.000
366.092;  316.125;    0.000;    0.000
366.154;  320.125;    0.000;    0.000
366.215;  318.125;    0.000;    0.000
366.277;  282.125;    0.000;    0.000
366.339;  301.125;    0.000;    0.000
366.400;  251.125;    0.000;    0.000
366.462;  303.125;    0.000;    0.000
366.524;  294.125;    0.000;    0.000
366.585;  296.125;    0.000;    0.000
366.647;  278.125;    0.000;    0.000
366.708;  261.125;    0.000;    0.000
366.770;  283.125;    0.000;    0.000
366.832;  352.125;    0.000;    0.000
366.893;  273.125;    0.000;    0.000
366.955;  324.125;    0.000;    0.000
367.016;  308.125;    0.000;    0.000
367.078;  317.125;    0.000;    0.000
367.139;  319.125;    0.000;    0.000
367.201;  268.125;    0.000;    0.000
367.262;  303.125;    0.000;    0.000
367.324;  317.125;    0.000;    0.000
367.385;  268.125;    0.000;    0.000
367.447;  311.125;    0.000;    0.000
367.508;  239.125;    0.000;    0.000
367.570;  315.125;    0.000;    0.000
367.631;  276.125;    0.000;    0.000
367.693;  299.125;    0.000;    0.000
367.754;  355.125;    0.000;    0.000
367.816;  287.125;    0.000;    0.000
367.877;  337.125;    0.000;    0.000
367.939;  313.125;    0.000;    0.000
368.000;  307.125;    0.000;    0.000
368.062;  313.125;    0.000;    0.000
368.123;  329.125;    0.000;    0.000
368.184;  364.125;    0.000;    0.000
368.246;  334.125;    0.000;    0.000
368.307;  329.125;    0.000;    0.000
368.369;  318.125;    0.000;    0.000
368.430;  346.125;    0.000;    0.000
368.491;  389.125;    0.000;    0.000
368.553;  386.125;    0.000;    0.000
368.614;  324.125;    0.000;    0.000
368.675;  304.125;    0.000;    0.000
368.737;  334.125;    0.000;    0.000
368.798;  334.125;    0.000;    0.000
368.859;  316.125;    0.000;    0.000
368.921;  345.125;    0.000;    0.000
368.982;  341.125;    0.000;    0.000
369.043;  346.125;    0.000;    0.000
369.104;  302.125;    0.000;    0.000
369.166;  325.125;    0.000;    0.000
369.227;  328.125;    0.000;    0.000
369.288;  324.125;    0.000;    0.000
369.349;  342.125;    0.000;    0.000
369.411;  354.125;    0.000;    0.000
369.472;  338.125;    0.000;    0.000
369.533;  337.125;    0.000;    0.000
369.594;  325.125;    0.000;    0.000
369.656;  298.125;    0.000;    0.000
369.717;  292.125;    0.000;    0.000
369.778;  346.125;    0.000;    0.000
369.839;  314.125;    0.000;    0.000
369.900;  338.125;    0.000;    0.000
369.961;  304.125;    0.000;    0.000
370.023;  351.125;    0.000;    0.000
370.084;  318.125;    0.000;    0.000
370.145;  324.125;    0.000;    0.000
370.206;  346.125;    0.000;    0.000
370.267;  341.125;    0.000;    0.000
370.328;  357.125;    0.000;    0.000
370.389;  388.125;    0.000;    0.000
370.451;  389.125;    0.000;    0.000
370.512;  374.125;    0.000;    0.000
370.573;  352.125;    0.000;    0.000
370.634;  344.125;    0.000;    0.000
370.695;  305.125;    0.000;    0.000
370.756;  340.125;    0.000;    0.000
370.817;  360.125;    0.000;    0.000
370.878;  377.125;    0.000;    0.000
370.939;  333.125;    0.000;    0.000
371.000;  338.125;    0.000;    0.000
371.061;  339.125;    0.000;    0.000
371.122;  341.125;    0.000;    0.000
371.183;  314.125;    0.000;    0.000
371.244;  380.125;    0.000;    0.000
371.305;  304.125;    0.000;    0.000
371.366;  335.125;    0.000;    0.000
371.427;  318.125;    0.000;    0.000
371.488;  318.125;    0.000;    0.000
371.549;  323.125;    0.000;    0.000
371.610;  317.125;    0.000;    0.000
371.671;  311.125;    0.000;    0.000
371.732;  320.125;    0.000;    0.000
371.793;  346.125;    0.000;    0.000
371.853;  353.125;    0.000;    0.000
371.914;  414.125;    0.000;    0.000
371.975;  411.125;    0.000;    0.000
372.036;  417.125;    0.000;    0.000
372.097;  334.125;    0.000;    0.000
372.158;  374.125;    0.000;    0.000
372.219;  374.125;    0.000;    0.000
372.280;  379.125;    0.000;    0.000
372.340;  364.125;    0.000;    0.000
372.401;  352.125;    0.000;    0.000
372.462;  354.125;    0.000;    0.000
372.523;  322.125;    0.000;    0.000
372.584;  357.125;    0.000;    0.000
372.645;  335.125;    0.000;    0.000
372.705;  415.125;    0.000;    0.000
372.766;  384.125;    0.000;    0.000
372.827;  348.125;    0.000;    0.000
372.888;  366.125;    0.000;    0.000
372.948;  377.125;    0.000;    0.000
373.009;  419.125;    0.000;    0.000
373.070;  353.125;    0.000;    0.000
373.131;  349.125;    0.000;    0.000
373.191;  416.125;    0.000;    0.000
373.252;  380.125;    0.000;    0.000
373.313;  407.125;    0.000;    0.000
373.373;  402.125;    0.000;    0.000
373.434;  554.125;    0.000;    0.000
373.495;  591.125;    0.000;    0.000
373.555;  493.125;    0.000;    0.000
373.616;  447.125;    0.000;    0.000
373.677;  508.125;    0.000;    0.000
373.737;  476.125;    0.000;    0.000
373.798;  427.125;    0.000;    0.000
373.859;  396.125;    0.000;    0.000
373.919;  403.125;    0.000;    0.000
373.980;  387.125;    0.000;    0.000
374.041;  407.125;    0.000;    0.000
374.101;  443.125;    0.000;    0.000
374.162;  417.125;    0.000;    0.000
374.222;  427.125;    0.000;    0.000
374.283;  435.125;    0.000;    0.000
374.343;  437.125;    0.000;    0.000
374.404;  433.125;    0.000;    0.000
374.465;  414.125;    0.000;    0.000
374.525;  485.125;    0.000;    0.000
374.586;  443.125;    0.000;    0.000
374.646;  456.125;    0.000;    0.000
374.707;  432.125;    0.000;    0.000
374.767;  468.125;    0.000;    0.000
374.828;  478.125;    0.000;    0.000
374.888;  577.125;    0.000;    0.000
374.949;  587.125;    0.000;    0.000
375.009;  453.125;    0.000;    0.000
375.070;  435.125;    0.000;    0.000
375.130;  402.125;    0.000;    0.000
375.190;  430.125;    0.000;    0.000
375.251;  453.125;    0.000;    0.000
375.311;  418.125;    0.000;    0.000
375.372;  429.125;    0.000;    0.000
375.432;  390.125;    0.000;    0.000
375.493;  396.125;    0.000;    0.000
375.553;  434.125;    0.000;    0.000
375.613;  402.125;    0.000;    0.000
375.674;  470.125;    0.000;    0.000
375.734;  492.125;    0.000;    0.000
375.794;  531.125;    0.000;    0.000
375.855;  590.125;    0.000;    0.000
375.915;  624.125;    0.000;    0.000
375.975;  544.125;    0.000;    0.000
376.036;  523.125;    0.000;    0.000
376.096;  525.125;    0.000;    0.000
376.156;  500.125;    0.000;    0.000
376.217;  495.125;    0.000;    0.000
376.277;  521.125;    0.000;    0.000
376.337;  501.125;    0.000;    0.000
376.398;  548.125;    0.000;    0.000
376.458;  491.125;    0.000;    0.000
376.518;  449.125;    0.000;    0.000
376.578;  440.125;    0.000;    0.000
376.639;  442.125;    0.000;    0.000
376.699;  501.125;    0.000;    0.000
376.759;  485.125;    0.000;    0.000
376.819;  464.125;    0.000;    0.000
376.880;  473.125;    0.000;    0.000
376.940;  442.125;    0.000;    0.000
377.000;  460.125;    0.000;    0.000
377.060;  492.125;    0.000;    0.000
377.120;  459.125;    0.000;    0.000
377.180;  446.125;    0.000;    0.000
377.241;  426.125;    0.000;    0.000
377.301;  473.125;    0.000;    0.000
377.361;  415.125;    0.000;    0.000
377.421;  451.125;    0.000;    0.000
377.481;  474.125;    0.000;    0.000
377.541;  442.125;    0.000;    0.000
377.601;  470.125;    0.000;    0.000
377.661;  555.125;    0.000;    0.000
377.722;  541.125;    0.000;    0.000
377.782;  460.125;    0.000;    0.000
377.842;  486.125;    0.000;    0.000
377.902;  510.125;    0.000;    0.000
377.962;  467.125;    0.000;    0.000
378.022;  506.125;    0.000;    0.000
378.082;  515.125;    0.000;    0.000
378.142;  496.125;    0.000;    0.000
378.202;  538.125;    0.000;    0.000
378.262;  481.125;    0.000;    0.000
378.322;  582.125;    0.000;    0.000
378.382;  483.125;    0.000;    0.000
378.442;  495.125;    0.000;    0.000
378.502;  500.125;    0.000;    0.000
378.562;  532.125;    0.000;    0.000
378.622;  576.125;    0.000;    0.000
378.682;  559.125;    0.000;    0.000
378.742;  571.125;    0.000;    0.000
378.802;  553.125;    0.000;    0.000
378.862;  615.125;    0.000;    0.000
378.921;  543.125;    0.000;    0.000
378.981;  571.125;    0.000;    0.000
379.041;  569.125;    0.000;    0.000
379.101;  544.125;    0.000;    0.000
379.161;  551.125;    0.000;    0.000
379.221;  569.125;    0.000;    0.000
379.281;  605.125;    0.000;    0.000
379.341;  598.125;    0.000;    0.000
379.401;  563.125;    0.000;    0.000
379.460;  625.125;    0.000;    0.000
379.520;  654.125;    0.000;    0.000
379.580;  608.125;    0.000;    0.000
379.640;  644.125;    0.000;    0.000
379.700;  599.125;    0.000;    0.000
379.759;  644.125;    0.000;    0.000
379.819;  612.125;    0.000;    0.000
379.879;  661.125;    0.000;    0.000
379.939;  669.125;    0.000;    0.000
379.999;  625.125;    0.000;    0.000
380.058;  621.125;    0.000;    0.000
380.118;  647.125;    0.000;    0.000
380.178;  666.125;    0.000;    0.000
380.237;  642.125;    0.000;    0.000
380.297;  692.125;    0.000;    0.000
380.357;  664.125;    0.000;    0.000
380.417;  637.125;    0.000;    0.000
380.476;  654.125;    0.000;    0.000
380.536;  718.125;    0.000;    0.000
380.596;  731.125;    0.000;    0.000
380.655;  691.125;    0.000;    0.000
380.715;  696.125;    0.000;    0.000
380.775;  714.125;    0.000;    0.000
380.834;  710.125;    0.000;    0.000
380.894;  685.125;    0.000;    0.000
380.954;  667.125;    0.000;    0.000
381.013;  747.125;    0.000;    0.000
381.073;  678.125;    0.000;    0.000
381.132;  694.125;    0.000;    0.000
381.192;  712.125;    0.000;    0.000
381.252;  775.125;    0.000;    0.000
381.311;  755.125;    0.000;    0.000
381.371;  722.125;    0.000;    0.000
381.430;  716.125;    0.000;    0.000
381.490;  829.125;    0.000;    0.000
381.549;  869.125;    0.000;    0.000
381.609;  821.125;    0.000;    0.000
381.668;  844.125;    0.000;    0.000
381.728;  825.125;    0.000;    0.000
381.787;  828.125;    0.000;    0.000
381.847;  848.125;    0.000;    0.000
381.906;  832.125;    0.000;    0.000
381.966;  987.125;    0.000;    0.000
382.025; 1092.125;    0.000;    0.000
382.085; 1039.125;    0.000;    0.000
382.144;  967.125;    0.000;    0.000
382.204;  927.125;    0.000;    0.000
382.263;  983.125;    0.000;    0.000
382.323;  935.125;    0.000;    0.000
382.382; 1037.125;    0.000;    0.000
382.441; 1059.125;    0.000;    0.000
382.501; 1141.125;    0.000;    0.000
382.560; 1243.125;    0.000;    0.000
382.619; 1275.125;    0.000;    0.000
382.679; 1344.125;    0.000;    0.000
382.738; 1493.125;    0.000;    0.000
382.798; 1644.125;    0.000;    0.000
382.857; 1809.125;    0.000;    0.000
382.916; 1891.125;    0.000;    0.000
382.976; 1907.125;    0.000;    0.000
383.035; 1770.125;    0.000;    0.000
383.094; 2019.125;    0.000;    0.000
383.154; 2422.125;    0.000;    0.000
383.213; 2515.125;    0.000;    0.000
383.272; 2185.125;    0.000;    0.000
383.331; 1766.125;    0.000;    0.000
383.391; 1713.125;    0.000;    0.000
383.450; 1722.125;    0.000;    0.000
383.509; 1677.125;    0.000;    0.000
383.568; 1742.125;    0.000;    0.000
383.628; 1942.125;    0.000;    0.000
383.687; 2272.125;    0.000;    0.000
383.746; 2734.125;    0.000;    0.000
383.805; 2852.125;    0.000;    0.000
383.864; 2460.125;    0.000;    0.000
383.924; 1986.125;    0.000;    0.000
383.983; 1551.125;    0.000;    0.000
384.042; 1436.125;    0.000;    0.000
384.101; 1301.125;    0.000;    0.000
384.160; 1183.125;    0.000;    0.000
384.219; 1120.125;    0.000;    0.000
384.279; 1085.125;    0.000;    0.000
384.338; 1013.125;    0.000;    0.000
384.397;  938.125;    0.000;    0.000
384.456;  963.125;    0.000;    0.000
384.515;  899.125;    0.000;    0.000
384.574;  956.125;    0.000;    0.000
384.633;  922.125;    0.000;    0.000
384.692;  848.125;    0.000;    0.000
384.751;  905.125;    0.000;    0.000
384.810;  845.125;    0.000;    0.000
384.869;  813.125;    0.000;    0.000
384.929;  858.125;    0.000;    0.000
384.988;  915.125;    0.000;    0.000
385.047;  870.125;    0.000;    0.000
385.106;  820.125;    0.000;    0.000
385.165;  802.125;    0.000;    0.000
385.224;  858.125;    0.000;    0.000
385.283;  869.125;    0.000;    0.000
385.342;  798.125;    0.000;    0.000
385.401;  909.125;    0.000;    0.000
385.459;  882.125;    0.000;    0.000
385.518;  838.125;    0.000;    0.000
385.577;  934.125;    0.000;    0.000
385.636;  948.125;    0.000;    0.000
385.695;  864.125;    0.000;    0.000
385.754;  876.125;    0.000;    0.000
385.813;  856.125;    0.000;    0.000
385.872;  836.125;    0.000;    0.000
385.931;  983.125;    0.000;    0.000
385.990;  925.125;    0.000;    0.000
386.049;  879.125;    0.000;    0.000
386.107;  861.125;    0.000;    0.000
386.166;  779.125;    0.000;    0.000
386.225;  793.125;    0.000;    0.000
386.284;  780.125;    0.000;    0.000
386.343;  793.125;    0.000;    0.000
386.402;  784.125;    0.000;    0.000
386.460;  867.125;    0.000;    0.000
386.519;  770.125;    0.000;    0.000
386.578;  831.125;    0.000;    0.000
386.637;  738.125;    0.000;    0.000
386.696;  717.125;    0.000;    0.000
386.754;  749.125;    0.000;    0.000
386.813;  734.125;    0.000;    0.000
386.872;  725.125;    0.000;    0.000
386.931;  744.125;    0.000;    0.000
386.989;  720.125;    0.000;    0.000
387.048;  712.125;    0.000;    0.000
387.107;  798.125;    0.000;    0.000
387.165;  722.125;    0.000;    0.000
387.224;  749.125;    0.000;    0.000
387.283;  679.125;    0.000;    0.000
387.342;  733.125;    0.000;    0.000
387.400;  728.125;    0.000;    0.000
387.459;  720.125;    0.000;    0.000
387.517;  736.125;    0.000;    0.000
387.576;  687.125;    0.000;    0.000
387.635;  712.125;    0.000;    0.000
387.693;  743.125;    0.000;    0.000
387.752;  733.125;    0.000;    0.000
387.811;  693.125;    0.000;    0.000
387.869;  685.125;    0.000;    0.000
387.928;  727.125;    0.000;    0.000
387.986;  681.125;    0.000;    0.000
388.045;  668.125;    0.000;    0.000
388.103;  638.125;    0.000;    0.000
388.162;  638.125;    0.000;    0.000
388.221;  639.125;    0.000;    0.000
388.279;  624.125;    0.000;    0.000
388.338;  691.125;    0.000;    0.000
388.396;  652.125;    0.000;    0.000
388.455;  664.125;    0.000;    0.000
388.513;  647.125;    0.000;    0.000
388.572;  707.125;    0.000;    0.000
388.630;  705.125;    0.000;    0.000
388.689;  663.125;    0.000;    0.000
388.747;  633.125;    0.000;    0.000
388.806;  659.125;    0.000;    0.000
388.864;  649.125;    0.000;    0.000
388.922;  662.125;    0.000;    0.000
388.981;  581.125;    0.000;    0.000
389.039;  584.125;    0.000;    0.000
389.098;  623.125;    0.000;    0.000
389.156;  692.125;    0.000;    0.000
389.214;  672.125;    0.000;    0.000
389.273;  630.125;    0.000;    0.000
389.331;  651.125;    0.000;    0.000
389.390;  623.125;    0.000;    0.000
389.448;  669.125;    0.000;    0.000
389.506;  637.125;    0.000;    0.000
389.565;  720.125;    0.000;    0.000
389.623;  671.125;    0.000;    0.000
389.681;  665.125;    0.000;    0.000
389.740;  658.125;    0.000;    0.000
389.798;  622.125;    0.000;    0.000
389.856;  653.125;    0.000;    0.000
389.914;  635.125;    0.000;    0.000
389.973;  662.125;    0.000;    0.000
390.031;  648.125;    0.000;    0.000
390.089;  612.125;    0.000;    0.000
390.147;  636.125;    0.000;    0.000
390.206;  657.125;    0.000;    0.000
390.264;  632.125;    0.000;    0.000
390.322;  627.125;    0.000;    0.000
390.380;  599.125;    0.000;    0.000
390.439;  671.125;    0.000;    0.000
390.497;  798.125;    0.000;    0.000
390.555;  795.125;    0.000;    0.000
390.613;  729.125;    0.000;    0.000
390.671;  749.125;    0.000;    0.000
390.729;  641.125;    0.000;    0.000
390.788;  596.125;    0.000;    0.000
390.846;  625.125;    0.000;    0.000
390.904;  600.125;    0.000;    0.000
390.962;  582.125;    0.000;    0.000
391.020;  628.125;    0.000;    0.000
391.078;  607.125;    0.000;    0.000
391.136;  606.125;    0.000;    0.000
391.194;  559.125;    0.000;    0.000
391.253;  602.125;    0.000;    0.000
391.311;  591.125;    0.000;    0.000
391.369;  617.125;    0.000;    0.000
391.427;  648.125;    0.000;    0.000
391.485;  639.125;    0.000;    0.000
391.543;  598.125;    0.000;    0.000
391.601;  537.125;    0.000;    0.000
391.659;  584.125;    0.000;    0.000
391.717;  553.125;    0.000;    0.000
391.775;  555.125;    0.000;    0.000
391.833;  558.125;    0.000;    0.000
391.891;  616.125;    0.000;    0.000
391.949;  561.125;    0.000;    0.000
392.007;  592.125;    0.000;    0.000
392.065;  551.125;    0.000;    0.000
392.123;  546.125;    0.000;    0.000
392.180;  575.125;    0.000;    0.000
392.238;  596.125;    0.000;    0.000
392.296;  579.125;    0.000;    0.000
392.354;  597.125;    0.000;    0.000
392.412;  622.125;    0.000;    0.000
392.470;  569.125;    0.000;    0.000
392.528;  611.125;    0.000;    0.000
392.586;  571.125;    0.000;    0.000
392.644;  628.125;    0.000;    0.000
392.701;  536.125;    0.000;    0.000
392.759;  686.125;    0.000;    0.000
392.817;  649.125;    0.000;    0.000
392.875;  687.125;    0.000;    0.000
392.933;  729.125;    0.000;    0.000
392.991;  757.125;    0.000;    0.000
393.048;  800.125;    0.000;    0.000
393.106;  824.125;    0.000;    0.000
393.164;  971.125;    0.000;    0.000
393.222; 1288.125;    0.000;    0.000
393.279; 1840.125;    0.000;    0.000
393.337; 2145.125;    0.000;    0.000
393.395; 1773.125;    0.000;    0.000
393.453; 1073.125;    0.000;    0.000
393.510;  821.125;    0.000;    0.000
393.568;  771.125;    0.000;    0.000
393.626;  696.125;    0.000;    0.000
393.684;  668.125;    0.000;    0.000
393.741;  616.125;    0.000;    0.000
393.799;  632.125;    0.000;    0.000
393.857;  527.125;    0.000;    0.000
393.914;  607.125;    0.000;    0.000
393.972;  569.125;    0.000;    0.000
394.030;  571.125;    0.000;    0.000
394.087;  591.125;    0.000;    0.000
394.145;  589.125;    0.000;    0.000
394.202;  593.125;    0.000;    0.000
394.260;  630.125;    0.000;    0.000
394.318;  777.125;    0.000;    0.000
394.375;  899.125;    0.000;    0.000
394.433;  916.125;    0.000;    0.000
394.490;  706.125;    0.000;    0.000
394.548;  614.125;    0.000;    0.000
394.605;  644.125;    0.000;    0.000
394.663;  611.125;    0.000;    0.000
394.720;  591.125;    0.000;    0.000
394.778;  566.125;    0.000;    0.000
394.836;  544.125;    0.000;    0.000
394.893;  519.125;    0.000;    0.000
394.951;  599.125;    0.000;    0.000
395.008;  569.125;    0.000;    0.000
395.065;  554.125;    0.000;    0.000
395.123;  565.125;    0.000;    0.000
395.180;  529.125;    0.000;    0.000
395.238;  551.125;    0.000;    0.000
395.295;  562.125;    0.000;    0.000
395.353;  622.125;    0.000;    0.000
395.410;  566.125;    0.000;    0.000
395.468;  572.125;    0.000;    0.000
395.525;  571.125;    0.000;    0.000
395.582;  574.125;    0.000;    0.000
395.640;  652.125;    0.000;    0.000
395.697;  620.125;    0.000;    0.000
395.754;  589.125;    0.000;    0.000
395.812;  587.125;    0.000;    0.000
395.869;  634.125;    0.000;    0.000
395.927;  603.125;    0.000;    0.000
395.984;  659.125;    0.000;    0.000
396.041;  752.125;    0.000;    0.000
396.098; 1053.125;    0.000;    0.000
396.156; 1114.125;    0.000;    0.000
396.213; 1051.125;    0.000;    0.000
396.270;  827.125;    0.000;    0.000
396.328;  711.125;    0.000;    0.000
396.385;  744.125;    0.000;    0.000
396.442;  694.125;    0.000;    0.000
396.499;  719.125;    0.000;    0.000
396.557;  713.125;    0.000;    0.000
396.614;  785.125;    0.000;    0.000
396.671;  851.125;    0.000;    0.000
396.728; 1252.125;    0.000;    0.000
396.785; 1627.125;    0.000;    0.000
396.843; 1650.125;    0.000;    0.000
396.900; 1254.125;    0.000;    0.000
396.957;  773.125;    0.000;    0.000
397.014;  641.125;    0.000;    0.000
397.071;  637.125;    0.000;    0.000
397.128;  620.125;    0.000;    0.000
397.186;  592.125;    0.000;    0.000
397.243;  538.125;    0.000;    0.000
397.300;  556.125;    0.000;    0.000
397.357;  596.125;    0.000;    0.000
397.414;  555.125;    0.000;    0.000
397.471;  557.125;    0.000;    0.000
397.528;  564.125;    0.000;    0.000
397.585;  595.125;    0.000;    0.000
397.642;  545.125;    0.000;    0.000
397.699;  567.125;    0.000;    0.000
397.756;  562.125;    0.000;    0.000
397.814;  583.125;    0.000;    0.000
397.871;  561.125;    0.000;    0.000
397.928;  546.125;    0.000;    0.000
397.985;  523.125;    0.000;    0.000
398.042;  604.125;    0.000;    0.000
398.099;  567.125;    0.000;    0.000
398.156;  584.125;    0.000;    0.000
398.212;  580.125;    0.000;    0.000
398.269;  573.125;    0.000;    0.000
398.326;  525.125;    0.000;    0.000
398.383;  567.125;    0.000;    0.000
398.440;  575.125;    0.000;    0.000
398.497;  621.125;    0.000;    0.000
398.554;  534.125;    0.000;    0.000
398.611;  554.125;    0.000;    0.000
398.668;  527.125;    0.000;    0.000
398.725;  511.125;    0.000;    0.000
398.782;  518.125;    0.000;    0.000
398.839;  590.125;    0.000;    0.000
398.895;  538.125;    0.000;    0.000
398.952;  565.125;    0.000;    0.000
399.009;  595.125;    0.000;    0.000
399.066;  560.125;    0.000;    0.000
399.123;  512.125;    0.000;    0.000
399.180;  582.125;    0.000;    0.000
399.236;  578.125;    0.000;    0.000
399.293;  579.125;    0.000;    0.000
399.350;  547.125;    0.000;    0.000
399.407;  577.125;    0.000;    0.000
399.463;  526.125;    0.000;    0.000
399.520;  524.125;    0.000;    0.000
399.577;  551.125;    0.000;    0.000
399.634;  585.125;    0.000;    0.000
399.690;  592.125;    0.000;    0.000
399.747;  614.125;    0.000;    0.000
399.804;  643.125;    0.000;    0.000
399.861;  655.125;    0.000;    0.000
399.917;  624.125;    0.000;    0.000
399.974;  571.125;    0.000;    0.000
400.031;  578.125;    0.000;    0.000
400.087;  579.125;    0.000;    0.000
400.144;  523.125;    0.000;    0.000
400.201;  561.125;    0.000;    0.000
400.257;  535.125;    0.000;    0.000
400.314;  568.125;    0.000;    0.000
400.370;  567.125;    0.000;    0.000
400.427;  607.125;    0.000;    0.000
400.484;  580.125;    0.000;    0.000
400.540;  585.125;    0.000;    0.000
400.597;  563.125;    0.000;    0.000
400.653;  565.125;    0.000;    0.000
400.710;  559.125;    0.000;    0.000
400.766;  589.125;    0.000;    0.000
400.823;  576.125;    0.000;    0.000
400.879;  577.125;    0.000;    0.000
400.936;  518.125;    0.000;    0.000
400.993;  531.125;    0.000;    0.000
401.049;  568.125;    0.000;    0.000
401.105;  565.125;    0.000;    0.000
401.162;  564.125;    0.000;    0.000
401.218;  558.125;    0.000;    0.000
401.275;  555.125;    0.000;    0.000
401.331;  573.125;    0.000;    0.000
401.388;  566.125;    0.000;    0.000
401.444;  521.125;    0.000;    0.000
401.501;  538.125;    0.000;    0.000
401.557;  481.125;    0.000;    0.000
401.614;  544.125;    0.000;    0.000
401.670;  526.125;    0.000;    0.000
401.726;  542.125;    0.000;    0.000
401.783;  464.125;    0.000;    0.000
401.839;  562.125;    0.000;    0.000
401.895;  563.125;    0.000;    0.000
401.952;  476.125;    0.000;    0.000
402.008;  468.125;    0.000;    0.000
402.064;  503.125;    0.000;    0.000
402.121;  556.125;    0.000;    0.000
402.177;  521.125;    0.000;    0.000
402.233;  473.125;    0.000;    0.000
402.290;  499.125;    0.000;    0.000
402.346;  565.125;    0.000;    0.000
402.402;  525.125;    0.000;    0.000
402.458;  512.125;    0.000;    0.000
402.515;  536.125;    0.000;    0.000
402.571;  547.125;    0.000;    0.000
402.627;  498.125;    0.000;    0.000
402.683;  552.125;    0.000;    0.000
402.740;  501.125;    0.000;    0.000
402.796;  525.125;    0.000;    0.000
402.852;  555.125;    0.000;    0.000
402.908;  546.125;    0.000;    0.000
402.964;  561.125;    0.000;    0.000
403.021;  558.125;    0.000;    0.000
403.077;  570.125;    0.000;    0.000
403.133;  479.125;    0.000;    0.000
403.189;  554.125;    0.000;    0.000
403.245;  548.125;    0.000;    0.000
403.301;  590.125;    0.000;    0.000
403.357;  562.125;    0.000;    0.000
403.414;  511.125;    0.000;    0.000
403.470;  584.125;    0.000;    0.000
403.526;  497.125;    0.000;    0.000
403.582;  554.125;    0.000;    0.000
403.638;  562.125;    0.000;    0.000
403.694;  549.125;    0.000;    0.000
403.750;  551.125;    0.000;    0.000
403.806;  548.125;    0.000;    0.000
403.862;  540.125;    0.000;    0.000
403.918;  530.125;    0.000;    0.000
403.974;  528.125;    0.000;    0.000
404.030;  557.125;    0.000;    0.000
404.086;  553.125;    0.000;    0.000
404.142;  549.125;    0.000;    0.000
404.198;  566.125;    0.000;    0.000
404.254;  547.125;    0.000;    0.000
404.310;  518.125;    0.000;    0.000
404.366;  496.125;    0.000;    0.000
404.422;  554.125;    0.000;    0.000
404.478;  688.125;    0.000;    0.000
404.534;  775.125;    0.000;    0.000
404.590;  814.125;    0.000;    0.000
404.646;  625.125;    0.000;    0.000
404.701;  572.125;    0.000;    0.000
404.757;  585.125;    0.000;    0.000
404.813;  519.125;    0.000;    0.000
404.869;  572.125;    0.000;    0.000
404.925;  534.125;    0.000;    0.000
404.981;  535.125;    0.000;    0.000
405.037;  524.125;    0.000;    0.000
405.092;  479.125;    0.000;    0.000
405.148;  499.125;    0.000;    0.000
405.204;  502.125;    0.000;    0.000
405.260;  543.125;    0.000;    0.000
405.316;  533.125;    0.000;    0.000
405.371;  535.125;    0.000;    0.000
405.427;  525.125;    0.000;    0.000
405.483;  612.125;    0.000;    0.000
405.539;  545.125;    0.000;    0.000
405.594;  560.125;    0.000;    0.000
405.650;  515.125;    0.000;    0.000
405.706;  556.125;    0.000;    0.000
405.761;  553.125;    0.000;    0.000
405.817;  526.125;    0.000;    0.000
405.873;  523.125;    0.000;    0.000
405.928;  529.125;    0.000;    0.000
405.984;  597.125;    0.000;    0.000
406.040;  596.125;    0.000;    0.000
406.095;  538.125;    0.000;    0.000
406.151;  577.125;    0.000;    0.000
406.207;  598.125;    0.000;    0.000
406.262;  670.125;    0.000;    0.000
406.318;  751.125;    0.000;    0.000
406.374;  746.125;    0.000;    0.000
406.429;  620.125;    0.000;    0.000
406.485;  594.125;    0.000;    0.000
406.540;  532.125;    0.000;    0.000
406.596;  575.125;    0.000;    0.000
406.651;  576.125;    0.000;    0.000
406.707;  511.125;    0.000;    0.000
406.763;  516.125;    0.000;    0.000
406.818;  543.125;    0.000;    0.000
406.874;  549.125;    0.000;    0.000
406.929;  583.125;    0.000;    0.000
406.985;  603.125;    0.000;    0.000
407.040;  651.125;    0.000;    0.000
407.095;  657.125;    0.000;    0.000
407.151;  782.125;    0.000;    0.000
407.206;  713.125;    0.000;    0.000
407.262;  601.125;    0.000;    0.000
407.317;  653.125;    0.000;    0.000
407.373;  634.125;    0.000;    0.000
407.428;  576.125;    0.000;    0.000
407.484;  562.125;    0.000;    0.000
407.539;  560.125;    0.000;    0.000
407.594;  618.125;    0.000;    0.000
407.650;  596.125;    0.000;    0.000
407.705;  603.125;    0.000;    0.000
407.760;  632.125;    0.000;    0.000
407.816;  645.125;    0.000;    0.000
407.871;  640.125;    0.000;    0.000
407.926;  573.125;    0.000;    0.000
407.982;  585.125;    0.000;    0.000
408.037;  561.125;    0.000;    0.000
408.092;  584.125;    0.000;    0.000
408.148;  585.125;    0.000;    0.000
408.203;  574.125;    0.000;    0.000
408.258;  600.125;    0.000;    0.000
408.314;  604.125;    0.000;    0.000
408.369;  595.125;    0.000;    0.000
408.424;  620.125;    0.000;    0.000
408.479;  586.125;    0.000;    0.000
408.534;  565.125;    0.000;    0.000
408.590;  561.125;    0.000;    0.000
408.645;  587.125;    0.000;    0.000
408.700;  613.125;    0.000;    0.000
408.755;  656.125;    0.000;    0.000
408.810;  536.125;    0.000;    0.000
408.866;  596.125;    0.000;    0.000
408.921;  589.125;    0.000;    0.000
408.976;  572.125;    0.000;    0.000
409.031;  603.125;    0.000;    0.000
409.086;  545.125;    0.000;    0.000
409.141;  591.125;    0.000;    0.000
409.196;  594.125;    0.000;    0.000
409.252;  587.125;    0.000;    0.000
409.307;  523.125;    0.000;    0.000
409.362;  550.125;    0.000;    0.000
409.417;  581.125;    0.000;    0.000
409.472;  622.125;    0.000;    0.000
409.527;  599.125;    0.000;    0.000
409.582;  575.125;    0.000;    0.000
409.637;  614.125;    0.000;    0.000
409.692;  644.125;    0.000;    0.000
409.747;  544.125;    0.000;    0.000
409.802;  595.125;    0.000;    0.000
409.857;  579.125;    0.000;    0.000
409.912;  594.125;    0.000;    0.000
409.967;  555.125;    0.000;    0.000
410.022;  553.125;    0.000;    0.000
410.077;  563.125;    0.000;    0.000
410.132;  631.125;    0.000;    0.000
410.187;  582.125;    0.000;    0.000
410.242;  605.125;    0.000;    0.000
410.297;  598.125;    0.000;    0.000
410.351;  701.125;    0.000;    0.000
410.406;  643.125;    0.000;    0.000
410.461;  612.125;    0.000;    0.000
410.516;  586.125;    0.000;    0.000
410.571;  546.125;    0.000;    0.000
410.626;  572.125;    0.000;    0.000
410.681;  615.125;    0.000;    0.000
410.736;  599.125;    0.000;    0.000
410.790;  616.125;    0.000;    0.000
410.845;  658.125;    0.000;    0.000
410.900;  581.125;    0.000;    0.000
410.955;  613.125;    0.000;    0.000
411.010;  591.125;    0.000;    0.000
411.064;  597.125;    0.000;    0.000
411.119;  620.125;    0.000;    0.000
411.174;  622.125;    0.000;    0.000
411.229;  632.125;    0.000;    0.000
411.283;  603.125;    0.000;    0.000
411.338;  598.125;    0.000;    0.000
411.393;  605.125;    0.000;    0.000
411.447;  672.125;    0.000;    0.000
411.502;  639.125;    0.000;    0.000
411.557;  621.125;    0.000;    0.000
411.612;  600.125;    0.000;    0.000
411.666;  604.125;    0.000;    0.000
411.721;  621.125;    0.000;    0.000
411.776;  671.125;    0.000;    0.000
411.830;  666.125;    0.000;    0.000
411.885;  667.125;    0.000;    0.000
411.939;  667.125;    0.000;    0.000
411.994;  630.125;    0.000;    0.000
412.049;  635.125;    0.000;    0.000
412.103;  692.125;    0.000;    0.000
412.158;  651.125;    0.000;    0.000
412.212;  663.125;    0.000;    0.000
412.267;  626.125;    0.000;    0.000
412.322;  715.125;    0.000;    0.000
412.376;  703.125;    0.000;    0.000
412.431;  679.125;    0.000;    0.000
412.485;  701.125;    0.000;    0.000
412.540;  674.125;    0.000;    0.000
412.594;  671.125;    0.000;    0.000
412.649;  633.125;    0.000;    0.000
412.703;  747.125;    0.000;    0.000
412.758;  734.125;    0.000;    0.000
412.812;  674.125;    0.000;    0.000
412.866;  669.125;    0.000;    0.000
412.921;  710.125;    0.000;    0.000
412.975;  697.125;    0.000;    0.000
413.030;  716.125;    0.000;    0.000
413.084;  700.125;    0.000;    0.000
413.139;  726.125;    0.000;    0.000
413.193;  710.125;    0.000;    0.000
413.247;  770.125;    0.000;    0.000
413.302;  685.125;    0.000;    0.000
413.356;  663.125;    0.000;    0.000
413.410;  674.125;    0.000;    0.000
413.465;  684.125;    0.000;    0.000
413.519;  634.125;    0.000;    0.000
413.573;  650.125;    0.000;    0.000
413.628;  631.125;    0.000;    0.000
413.682;  640.125;    0.000;    0.000
413.736;  667.125;    0.000;    0.000
413.791;  718.125;    0.000;    0.000
413.845;  674.125;    0.000;    0.000
413.899;  651.125;    0.000;    0.000
413.953;  627.125;    0.000;    0.000
414.008;  589.125;    0.000;    0.000
414.062;  628.125;    0.000;    0.000
414.116;  654.125;    0.000;    0.000
414.170;  697.125;    0.000;    0.000
414.225;  635.125;    0.000;    0.000
414.279;  664.125;    0.000;    0.000
414.333;  713.125;    0.000;    0.000
414.387;  720.125;    0.000;    0.000
414.441;  672.125;    0.000;    0.000
414.496;  665.125;    0.000;    0.000
414.550;  655.125;    0.000;    0.000
414.604;  622.125;    0.000;    0.000
414.658;  571.125;    0.000;    0.000
414.712;  599.125;    0.000;    0.000
414.766;  638.125;    0.000;    0.000
414.820;  633.125;    0.000;    0.000
414.874;  628.125;    0.000;    0.000
414.928;  603.125;    0.000;    0.000
414.982;  631.125;    0.000;    0.000
415.037;  628.125;    0.000;    0.000
415.091;  630.125;    0.000;    0.000
415.145;  655.125;    0.000;    0.000
415.199;  613.125;    0.000;    0.000
415.253;  629.125;    0.000;    0.000
415.307;  619.125;    0.000;    0.000
415.361;  614.125;    0.000;    0.000
415.415;  617.125;    0.000;    0.000
415.469;  680.125;    0.000;    0.000
415.523;  626.125;    0.000;    0.000
415.577;  565.125;    0.000;    0.000
415.631;  630.125;    0.000;    0.000
415.684;  670.125;    0.000;    0.000
415.738;  617.125;    0.000;    0.000
415.792;  608.125;    0.000;    0.000
415.846;  596.125;    0.000;    0.000
415.900;  634.125;    0.000;    0.000
415.954;  598.125;    0.000;    0.000
416.008;  608.125;    0.000;    0.000
416.062;  597.125;    0.000;    0.000
416.116;  615.125;    0.000;    0.000
416.169;  628.125;    0.000;    0.000
416.223;  646.125;    0.000;    0.000
416.277;  603.125;    0.000;    0.000
416.331;  598.125;    0.000;    0.000
416.385;  651.125;    0.000;    0.000
416.439;  641.125;    0.000;    0.000
416.492;  674.125;    0.000;    0.000
416.546;  653.125;    0.000;    0.000
416.600;  642.125;    0.000;    0.000
416.654;  661.125;    0.000;    0.000
416.707;  658.125;    0.000;    0.000
416.761;  590.125;    0.000;    0.000
416.815;  612.125;    0.000;    0.000
416.869;  650.125;    0.000;    0.000
416.922;  626.125;    0.000;    0.000
416.976;  644.125;    0.000;    0.000
417.030;  592.125;    0.000;    0.000
417.083;  609.125;    0.000;    0.000
417.137;  672.125;    0.000;    0.000
417.191;  594.125;    0.000;    0.000
417.244;  625.125;    0.000;    0.000
417.298;  583.125;    0.000;    0.000
417.352;  586.125;    0.000;    0.000
417.405;  617.125;    0.000;    0.000
417.459;  622.125;    0.000;    0.000
417.512;  652.125;    0.000;    0.000
417.566;  615.125;    0.000;    0.000
417.620;  632.125;    0.000;    0.000
417.673;  590.125;    0.000;    0.000
417.727;  616.125;    0.000;    0.000
417.780;  597.125;    0.000;    0.000
417.834;  633.125;    0.000;    0.000
417.887;  649.125;    0.000;    0.000
417.941;  586.125;    0.000;    0.000
417.994;  639.125;    0.000;    0.000
418.048;  614.125;    0.000;    0.000
418.101;  630.125;    0.000;    0.000
418.155;  638.125;    0.000;    0.000
418.208;  628.125;    0.000;    0.000
418.262;  617.125;    0.000;    0.000
418.315;  626.125;    0.000;    0.000
418.369;  640.125;    0.000;    0.000
418.422;  610.125;    0.000;    0.000
418.476;  633.125;    0.000;    0.000
418.529;  666.125;    0.000;    0.000
418.582;  670.125;    0.000;    0.000
418.636;  647.125;    0.000;    0.000
418.689;  620.125;    0.000;    0.000
418.743;  648.125;    0.000;    0.000
418.796;  596.125;    0.000;    0.000
418.849;  596.125;    0.000;    0.000
418.903;  641.125;    0.000;    0.000
418.956;  599.125;    0.000;    0.000
419.009;  633.125;    0.000;    0.000
419.063;  579.125;    0.000;    0.000
419.116;  661.125;    0.000;    0.000
419.169;  620.125;    0.000;    0.000
419.222;  633.125;    0.000;    0.000
419.276;  586.125;    0.000;    0.000
419.329;  623.125;    0.000;    0.000
419.382;  584.125;    0.000;    0.000
419.435;  573.125;    0.000;    0.000
419.489;  610.125;    0.000;    0.000
419.542;  598.125;    0.000;    0.000
419.595;  629.125;    0.000;    0.000
419.648;  621.125;    0.000;    0.000
419.701;  604.125;    0.000;    0.000
419.755;  594.125;    0.000;    0.000
419.808;  592.125;    0.000;    0.000
419.861;  636.125;    0.000;    0.000
419.914;  672.125;    0.000;    0.000
419.967;  665.125;    0.000;    0.000
420.020;  622.125;    0.000;    0.000
420.073;  639.125;    0.000;    0.000
420.127;  605.125;    0.000;    0.000
420.180;  631.125;    0.000;    0.000
420.233;  700.125;    0.000;    0.000
420.286;  600.125;    0.000;    0.000
420.339;  623.125;    0.000;    0.000
420.392;  648.125;    0.000;    0.000
420.445;  565.125;    0.000;    0.000
420.498;  589.125;    0.000;    0.000
420.551;  539.125;    0.000;    0.000
420.604;  625.125;    0.000;    0.000
420.657;  591.125;    0.000;    0.000
420.710;  616.125;    0.000;    0.000
420.763;  630.125;    0.000;    0.000
420.816;  573.125;    0.000;    0.000
420.869;  596.125;    0.000;    0.000
420.922;  601.125;    0.000;    0.000
420.975;  587.125;    0.000;    0.000
421.028;  638.125;    0.000;    0.000
421.081;  620.125;    0.000;    0.000
421.134;  563.125;    0.000;    0.000
421.187;  548.125;    0.000;    0.000
421.239;  593.125;    0.000;    0.000
421.292;  606.125;    0.000;    0.000
421.345;  607.125;    0.000;    0.000
421.398;  565.125;    0.000;    0.000
421.451;  627.125;    0.000;    0.000
421.504;  590.125;    0.000;    0.000
421.557;  578.125;    0.000;    0.000
421.609;  579.125;    0.000;    0.000
421.662;  596.125;    0.000;    0.000
421.715;  581.125;    0.000;    0.000
421.768;  646.125;    0.000;    0.000
421.821;  600.125;    0.000;    0.000
421.873;  605.125;    0.000;    0.000
421.926;  593.125;    0.000;    0.000
421.979;  644.125;    0.000;    0.000
422.032;  566.125;    0.000;    0.000
422.084;  633.125;    0.000;    0.000
422.137;  576.125;    0.000;    0.000
422.190;  600.125;    0.000;    0.000
422.243;  571.125;    0.000;    0.000
422.295;  630.125;    0.000;    0.000
422.348;  576.125;    0.000;    0.000
422.401;  599.125;    0.000;    0.000
422.453;  683.125;    0.000;    0.000
422.506;  661.125;    0.000;    0.000
422.559;  686.125;    0.000;    0.000
422.611;  995.125;    0.000;    0.000
422.664; 1063.125;    0.000;    0.000
422.716; 1013.125;    0.000;    0.000
422.769;  734.125;    0.000;    0.000
422.822;  648.125;    0.000;    0.000
422.874;  589.125;    0.000;    0.000
422.927;  635.125;    0.000;    0.000
422.979;  626.125;    0.000;    0.000
423.032;  626.125;    0.000;    0.000
423.084;  641.125;    0.000;    0.000
423.137;  574.125;    0.000;    0.000
423.189;  601.125;    0.000;    0.000
423.242;  590.125;    0.000;    0.000
423.294;  622.125;    0.000;    0.000
423.347;  576.125;    0.000;    0.000
423.399;  612.125;    0.000;    0.000
423.452;  644.125;    0.000;    0.000
423.504;  606.125;    0.000;    0.000
423.557;  558.125;    0.000;    0.000
423.609;  631.125;    0.000;    0.000
423.662;  599.125;    0.000;    0.000
423.714;  595.125;    0.000;    0.000
423.766;  578.125;    0.000;    0.000
423.819;  608.125;    0.000;    0.000
423.871;  605.125;    0.000;    0.000
423.923;  591.125;    0.000;    0.000
423.976;  609.125;    0.000;    0.000
424.028;  602.125;    0.000;    0.000
424.081;  607.125;    0.000;    0.000
424.133;  572.125;    0.000;    0.000
424.185;  577.125;    0.000;    0.000
424.238;  568.125;    0.000;    0.000
424.290;  626.125;    0.000;    0.000
424.342;  581.125;    0.000;    0.000
424.394;  589.125;    0.000;    0.000
424.447;  650.125;    0.000;    0.000
424.499;  567.125;    0.000;    0.000
424.551;  596.125;    0.000;    0.000
424.603;  568.125;    0.000;    0.000
424.656;  636.125;    0.000;    0.000
424.708;  556.125;    0.000;    0.000
424.760;  573.125;    0.000;    0.000
424.812;  651.125;    0.000;    0.000
424.864;  575.125;    0.000;    0.000
424.917;  599.125;    0.000;    0.000
424.969;  621.125;    0.000;    0.000
425.021;  644.125;    0.000;    0.000
425.073;  675.125;    0.000;    0.000
425.125;  671.125;    0.000;    0.000
425.177;  577.125;    0.000;    0.000
425.229;  654.125;    0.000;    0.000
425.282;  623.125;    0.000;    0.000
425.334;  581.125;    0.000;    0.000
425.386;  649.125;    0.000;    0.000
425.438;  648.125;    0.000;    0.000
425.490;  606.125;    0.000;    0.000
425.542;  591.125;    0.000;    0.000
425.594;  598.125;    0.000;    0.000
425.646;  604.125;    0.000;    0.000
425.698;  539.125;    0.000;    0.000
425.750;  600.125;    0.000;    0.000
425.802;  617.125;    0.000;    0.000
425.854;  554.125;    0.000;    0.000
425.906;  591.125;    0.000;    0.000
425.958;  569.125;    0.000;    0.000
426.010;  629.125;    0.000;    0.000
426.062;  640.125;    0.000;    0.000
426.114;  632.125;    0.000;    0.000
426.166;  621.125;    0.000;    0.000
426.218;  590.125;    0.000;    0.000
426.270;  596.125;    0.000;    0.000
426.321;  623.125;    0.000;    0.000
426.373;  571.125;    0.000;    0.000
426.425;  594.125;    0.000;    0.000
426.477;  586.125;    0.000;    0.000
426.529;  625.125;    0.000;    0.000
426.581;  589.125;    0.000;    0.000
426.633;  577.125;    0.000;    0.000
426.684;  552.125;    0.000;    0.000
426.736;  600.125;    0.000;    0.000
426.788;  612.125;    0.000;    0.000
426.840;  542.125;    0.000;    0.000
426.892;  548.125;    0.000;    0.000
426.943;  615.125;    0.000;    0.000
426.995;  583.125;    0.000;    0.000
427.047;  613.125;    0.000;    0.000
427.099;  698.125;    0.000;    0.000
427.150;  737.125;    0.000;    0.000
427.202;  777.125;    0.000;    0.000
427.254;  627.125;    0.000;    0.000
427.306;  570.125;    0.000;    0.000
427.357;  572.125;    0.000;    0.000
427.409;  618.125;    0.000;    0.000
427.461;  548.125;    0.000;    0.000
427.512;  599.125;    0.000;    0.000
427.564;  592.125;    0.000;    0.000
427.616;  571.125;    0.000;    0.000
427.667;  556.125;    0.000;    0.000
427.719;  561.125;    0.000;    0.000
427.770;  541.125;    0.000;    0.000
427.822;  567.125;    0.000;    0.000
427.874;  587.125;    0.000;    0.000
427.925;  531.125;    0.000;    0.000
427.977;  580.125;    0.000;    0.000
428.028;  578.125;    0.000;    0.000
428.080;  537.125;    0.000;    0.000
428.131;  587.125;    0.000;    0.000
428.183;  591.125;    0.000;    0.000
428.234;  583.125;    0.000;    0.000
428.286;  588.125;    0.000;    0.000
428.337;  594.125;    0.000;    0.000
428.389;  559.125;    0.000;    0.000
428.440;  561.125;    0.000;    0.000
428.492;  583.125;    0.000;    0.000
428.543;  531.125;    0.000;    0.000
428.595;  576.125;    0.000;    0.000
428.646;  573.125;    0.000;    0.000
428.697;  612.125;    0.000;    0.000
428.749;  541.125;    0.000;    0.000
428.800;  585.125;    0.000;    0.000
428.852;  591.125;    0.000;    0.000
428.903;  596.125;    0.000;    0.000
428.954;  613.125;    0.000;    0.000
429.006;  592.125;    0.000;    0.000
429.057;  620.125;    0.000;    0.000
429.108;  577.125;    0.000;    0.000
429.160;  563.125;    0.000;    0.000
429.211;  576.125;    0.000;    0.000
429.262;  541.125;    0.000;    0.000
429.314;  595.125;    0.000;    0.000
429.365;  588.125;    0.000;    0.000
429.416;  625.125;    0.000;    0.000
429.467;  587.125;    0.000;    0.000
429.519;  570.125;    0.000;    0.000
429.570;  499.125;    0.000;    0.000
429.621;  559.125;    0.000;    0.000
429.672;  542.125;    0.000;    0.000
429.724;  555.125;    0.000;    0.000
429.775;  560.125;    0.000;    0.000
429.826;  573.125;    0.000;    0.000
429.877;  607.125;    0.000;    0.000
429.928;  662.125;    0.000;    0.000
429.980;  573.125;    0.000;    0.000
430.031;  647.125;    0.000;    0.000
430.082;  662.125;    0.000;    0.000
430.133;  625.125;    0.000;    0.000
430.184;  650.125;    0.000;    0.000
430.235;  606.125;    0.000;    0.000
430.286;  577.125;    0.000;    0.000
430.337;  582.125;    0.000;    0.000
430.388;  538.125;    0.000;    0.000
430.439;  570.125;    0.000;    0.000
430.490;  578.125;    0.000;    0.000
430.542;  594.125;    0.000;    0.000
430.593;  666.125;    0.000;    0.000
430.644;  608.125;    0.000;    0.000
430.695;  640.125;    0.000;    0.000
430.746;  762.125;    0.000;    0.000
430.797;  762.125;    0.000;    0.000
430.848;  682.125;    0.000;    0.000
430.898;  597.125;    0.000;    0.000
430.949;  565.125;    0.000;    0.000
431.000;  550.125;    0.000;    0.000
431.051;  552.125;    0.000;    0.000
431.102;  542.125;    0.000;    0.000
431.153;  538.125;    0.000;    0.000
431.204;  510.125;    0.000;    0.000
431.255;  554.125;    0.000;    0.000
431.306;  515.125;    0.000;    0.000
431.357;  566.125;    0.000;    0.000
431.408;  602.125;    0.000;    0.000
431.458;  570.125;    0.000;    0.000
431.509;  566.125;    0.000;    0.000
431.560;  557.125;    0.000;    0.000
431.611;  506.125;    0.000;    0.000
431.662;  578.125;    0.000;    0.000
431.713;  522.125;    0.000;    0.000
431.763;  528.125;    0.000;    0.000
431.814;  596.125;    0.000;    0.000
431.865;  554.125;    0.000;    0.000
431.916;  532.125;    0.000;    0.000
431.966;  536.125;    0.000;    0.000
432.017;  597.125;    0.000;    0.000
432.068;  553.125;    0.000;    0.000
432.118;  550.125;    0.000;    0.000
432.169;  547.125;    0.000;    0.000
432.220;  529.125;    0.000;    0.000
432.271;  542.125;    0.000;    0.000
432.321;  588.125;    0.000;    0.000
432.372;  550.125;    0.000;    0.000
432.423;  535.125;    0.000;    0.000
432.473;  630.125;    0.000;    0.000
432.524;  770.125;    0.000;    0.000
432.574;  759.125;    0.000;    0.000
432.625;  666.125;    0.000;    0.000
432.676;  633.125;    0.000;    0.000
432.726;  558.125;    0.000;    0.000
432.777;  590.125;    0.000;    0.000
432.827;  597.125;    0.000;    0.000
432.878;  536.125;    0.000;    0.000
432.928;  536.125;    0.000;    0.000
432.979;  538.125;    0.000;    0.000
433.029;  474.125;    0.000;    0.000
433.080;  510.125;    0.000;    0.000
433.130;  541.125;    0.000;    0.000
433.181;  543.125;    0.000;    0.000
433.231;  548.125;    0.000;    0.000
433.282;  540.125;    0.000;    0.000
433.332;  578.125;    0.000;    0.000
433.383;  590.125;    0.000;    0.000
433.433;  597.125;    0.000;    0.000
433.484;  589.125;    0.000;    0.000
433.534;  547.125;    0.000;    0.000
433.585;  588.125;    0.000;    0.000
433.635;  590.125;    0.000;    0.000
433.685;  634.125;    0.000;    0.000
433.736;  586.125;    0.000;    0.000
433.786;  565.125;    0.000;    0.000
433.836;  591.125;    0.000;    0.000
433.887;  522.125;    0.000;    0.000
433.937;  594.125;    0.000;    0.000
433.987;  540.125;    0.000;    0.000
434.038;  584.125;    0.000;    0.000
434.088;  585.125;    0.000;    0.000
434.138;  564.125;    0.000;    0.000
434.189;  580.125;    0.000;    0.000
434.239;  545.125;    0.000;    0.000
434.289;  591.125;    0.000;    0.000
434.339;  580.125;    0.000;    0.000
434.389;  631.125;    0.000;    0.000
434.440;  571.125;    0.000;    0.000
434.490;  640.125;    0.000;    0.000
434.540;  607.125;    0.000;    0.000
434.590;  565.125;    0.000;    0.000
434.640;  555.125;    0.000;    0.000
434.691;  595.125;    0.000;    0.000
434.741;  557.125;    0.000;    0.000
434.791;  583.125;    0.000;    0.000
434.841;  592.125;    0.000;    0.000
434.891;  581.125;    0.000;    0.000
434.941;  587.125;    0.000;    0.000
434.991;  610.125;    0.000;    0.000
435.042;  637.125;    0.000;    0.000
435.092;  581.125;    0.000;    0.000
435.142;  584.125;    0.000;    0.000
435.192;  585.125;    0.000;    0.000
435.242;  606.125;    0.000;    0.000
435.292;  594.125;    0.000;    0.000
435.342;  594.125;    0.000;    0.000
435.392;  597.125;    0.000;    0.000
435.442;  606.125;    0.000;    0.000
435.492;  564.125;    0.000;    0.000
435.542;  562.125;    0.000;    0.000
435.592;  558.125;    0.000;    0.000
435.642;  598.125;    0.000;    0.000
435.692;  532.125;    0.000;    0.000
435.742;  593.125;    0.000;    0.000
435.792;  578.125;    0.000;    0.000
435.842;  602.125;    0.000;    0.000
435.891;  574.125;    0.000;    0.000
435.941;  593.125;    0.000;    0.000
435.991;  622.125;    0.000;    0.000
436.041;  554.125;    0.000;    0.000
436.091;  592.125;    0.000;    0.000
436.141;  542.125;    0.000;    0.000
436.191;  572.125;    0.000;    0.000
436.241;  536.125;    0.000;    0.000
436.290;  614.125;    0.000;    0.000
436.340;  589.125;    0.000;    0.000
436.390;  564.125;    0.000;    0.000
436.440;  561.125;    0.000;    0.000
436.490;  537.125;    0.000;    0.000
436.539;  602.125;    0.000;    0.000
436.589;  552.125;    0.000;    0.000
436.639;  573.125;    0.000;    0.000
436.689;  538.125;    0.000;    0.000
436.738;  572.125;    0.000;    0.000
436.788;  560.125;    0.000;    0.000
436.838;  557.125;    0.000;    0.000
436.887;  554.125;    0.000;    0.000
436.937;  572.125;    0.000;    0.000
436.987;  565.125;    0.000;    0.000
437.036;  553.125;    0.000;    0.000
437.086;  538.125;    0.000;    0.000
437.136;  598.125;    0.000;    0.000
437.185;  551.125;    0.000;    0.000
437.235;  610.125;    0.000;    0.000
437.285;  572.125;    0.000;    0.000
437.334;  546.125;    0.000;    0.000
437.384;  578.125;    0.000;    0.000
437.433;  567.125;    0.000;    0.000
437.483;  558.125;    0.000;    0.000
437.532;  525.125;    0.000;    0.000
437.582;  590.125;    0.000;    0.000
437.631;  572.125;    0.000;    0.000
437.681;  583.125;    0.000;    0.000
437.730;  618.125;    0.000;    0.000
437.780;  550.125;    0.000;    0.000
437.829;  542.125;    0.000;    0.000
437.879;  539.125;    0.000;    0.000
437.928;  533.125;    0.000;    0.000
437.978;  584.125;    0.000;    0.000
438.027;  602.125;    0.000;    0.000
438.077;  562.125;    0.000;    0.000
438.126;  557.125;    0.000;    0.000
438.176;  584.125;    0.000;    0.000
438.225;  613.125;    0.000;    0.000
438.274;  772.125;    0.000;    0.000
438.324;  958.125;    0.000;    0.000
438.373;  904.125;    0.000;    0.000
438.422;  723.125;    0.000;    0.000
438.472;  602.125;    0.000;    0.000
438.521;  573.125;    0.000;    0.000
438.570;  590.125;    0.000;    0.000
438.620;  649.125;    0.000;    0.000
438.669;  571.125;    0.000;    0.000
438.718;  600.125;    0.000;    0.000
438.768;  532.125;    0.000;    0.000
438.817;  610.125;    0.000;    0.000
438.866;  544.125;    0.000;    0.000
438.915;  591.125;    0.000;    0.000
438.965;  559.125;    0.000;    0.000
439.014;  561.125;    0.000;    0.000
439.063;  604.125;    0.000;    0.000
439.112;  579.125;    0.000;    0.000
439.162;  597.125;    0.000;    0.000
439.211;  587.125;    0.000;    0.000
439.260;  572.125;    0.000;    0.000
439.309;  601.125;    0.000;    0.000
439.358;  587.125;    0.000;    0.000
439.407;  608.125;    0.000;    0.000
439.456;  579.125;    0.000;    0.000
439.506;  617.125;    0.000;    0.000
439.555;  546.125;    0.000;    0.000
439.604;  543.125;    0.000;    0.000
439.653;  571.125;    0.000;    0.000
439.702;  541.125;    0.000;    0.000
439.751;  564.125;    0.000;    0.000
439.800;  604.125;    0.000;    0.000
439.849;  563.125;    0.000;    0.000
439.898;  559.125;    0.000;    0.000
439.947;  566.125;    0.000;    0.000
439.996;  605.125;    0.000;    0.000
440.045;  591.125;    0.000;    0.000
440.094;  623.125;    0.000;    0.000
440.143;  593.125;    0.000;    0.000
440.192;  626.125;    0.000;    0.000
440.241;  578.125;    0.000;    0.000
440.290;  613.125;    0.000;    0.000
440.339;  577.125;    0.000;    0.000
440.388;  634.125;    0.000;    0.000
440.437;  754.125;    0.000;    0.000
440.486;  702.125;    0.000;    0.000
440.535;  676.125;    0.000;    0.000
440.583;  632.125;    0.000;    0.000
440.632;  580.125;    0.000;    0.000
440.681;  598.125;    0.000;    0.000
440.730;  604.125;    0.000;    0.000
440.779;  605.125;    0.000;    0.000
440.828;  581.125;    0.000;    0.000
440.876;  617.125;    0.000;    0.000
440.925;  604.125;    0.000;    0.000
440.974;  565.125;    0.000;    0.000
441.023;  604.125;    0.000;    0.000
441.072;  544.125;    0.000;    0.000
441.120;  606.125;    0.000;    0.000
441.169;  643.125;    0.000;    0.000
441.218;  590.125;    0.000;    0.000
441.267;  607.125;    0.000;    0.000
441.315;  627.125;    0.000;    0.000
441.364;  638.125;    0.000;    0.000
441.413;  717.125;    0.000;    0.000
441.461;  642.125;    0.000;    0.000
441.510;  701.125;    0.000;    0.000
441.559;  673.125;    0.000;    0.000
441.607;  624.125;    0.000;    0.000
441.656;  620.125;    0.000;    0.000
441.705;  648.125;    0.000;    0.000
441.753;  636.125;    0.000;    0.000
441.802;  594.125;    0.000;    0.000
441.850;  631.125;    0.000;    0.000
441.899;  593.125;    0.000;    0.000
441.948;  623.125;    0.000;    0.000
441.996;  595.125;    0.000;    0.000
442.045;  654.125;    0.000;    0.000
442.093;  623.125;    0.000;    0.000
442.142;  642.125;    0.000;    0.000
442.190;  665.125;    0.000;    0.000
442.239;  649.125;    0.000;    0.000
442.287;  604.125;    0.000;    0.000
442.336;  627.125;    0.000;    0.000
442.384;  622.125;    0.000;    0.000
442.433;  614.125;    0.000;    0.000
442.481;  628.125;    0.000;    0.000
442.529;  695.125;    0.000;    0.000
442.578;  665.125;    0.000;    0.000
442.626;  626.125;    0.000;    0.000
442.675;  684.125;    0.000;    0.000
442.723;  619.125;    0.000;    0.000
442.771;  651.125;    0.000;    0.000
442.820;  682.125;    0.000;    0.000
442.868;  632.125;    0.000;    0.000
442.917;  637.125;    0.000;    0.000
442.965;  691.125;    0.000;    0.000
443.013;  663.125;    0.000;    0.000
443.062;  630.125;    0.000;    0.000
443.110;  601.125;    0.000;    0.000
443.158;  638.125;    0.000;    0.000
443.206;  639.125;    0.000;    0.000
443.255;  665.125;    0.000;    0.000
443.303;  660.125;    0.000;    0.000
443.351;  692.125;    0.000;    0.000
443.399;  664.125;    0.000;    0.000
443.448;  673.125;    0.000;    0.000
443.496;  700.125;    0.000;    0.000
443.544;  693.125;    0.000;    0.000
443.592;  687.125;    0.000;    0.000
443.640;  697.125;    0.000;    0.000
443.689;  652.125;    0.000;    0.000
443.737;  665.125;    0.000;    0.000
443.785;  688.125;    0.000;    0.000
443.833;  695.125;    0.000;    0.000
443.881;  652.125;    0.000;    0.000
443.929;  685.125;    0.000;    0.000
443.977;  664.125;    0.000;    0.000
444.025;  687.125;    0.000;    0.000
444.074;  673.125;    0.000;    0.000
444.122;  693.125;    0.000;    0.000
444.170;  676.125;    0.000;    0.000
444.218;  723.125;    0.000;    0.000
444.266;  711.125;    0.000;    0.000
444.314;  762.125;    0.000;    0.000
444.362;  748.125;    0.000;    0.000
444.410;  725.125;    0.000;    0.000
444.458;  731.125;    0.000;    0.000
444.506;  703.125;    0.000;    0.000
444.554;  686.125;    0.000;    0.000
444.602;  739.125;    0.000;    0.000
444.650;  700.125;    0.000;    0.000
444.698;  707.125;    0.000;    0.000
444.746;  711.125;    0.000;    0.000
444.793;  728.125;    0.000;    0.000
444.841;  719.125;    0.000;    0.000
444.889;  769.125;    0.000;    0.000
444.937;  731.125;    0.000;    0.000
444.985;  723.125;    0.000;    0.000
445.033;  749.125;    0.000;    0.000
445.081;  745.125;    0.000;    0.000
445.129;  742.125;    0.000;    0.000
445.176;  711.125;    0.000;    0.000
445.224;  725.125;    0.000;    0.000
445.272;  756.125;    0.000;    0.000
445.320;  768.125;    0.000;    0.000
445.368;  792.125;    0.000;    0.000
445.415;  793.125;    0.000;    0.000
445.463;  736.125;    0.000;    0.000
445.511;  807.125;    0.000;    0.000
445.559;  777.125;    0.000;    0.000
445.606;  757.125;    0.000;    0.000
445.654;  786.125;    0.000;    0.000
445.702;  729.125;    0.000;    0.000
445.749;  751.125;    0.000;    0.000
445.797;  754.125;    0.000;    0.000
445.845;  758.125;    0.000;    0.000
445.892;  722.125;    0.000;    0.000
445.940;  776.125;    0.000;    0.000
445.988;  809.125;    0.000;    0.000
446.035;  786.125;    0.000;    0.000
446.083;  782.125;    0.000;    0.000
446.130;  756.125;    0.000;    0.000
446.178;  827.125;    0.000;    0.000
446.226;  796.125;    0.000;    0.000
446.273;  766.125;    0.000;    0.000
446.321;  800.125;    0.000;    0.000
446.368;  841.125;    0.000;    0.000
446.416;  791.125;    0.000;    0.000
446.463;  811.125;    0.000;    0.000
446.511;  794.125;    0.000;    0.000
446.558;  801.125;    0.000;    0.000
446.606;  882.125;    0.000;    0.000
446.653;  867.125;    0.000;    0.000
446.701;  895.125;    0.000;    0.000
446.748;  870.125;    0.000;    0.000
446.796;  916.125;    0.000;    0.000
446.843;  926.125;    0.000;    0.000
446.891;  961.125;    0.000;    0.000
446.938;  911.125;    0.000;    0.000
446.985;  916.125;    0.000;    0.000
447.033;  905.125;    0.000;    0.000
447.080;  990.125;    0.000;    0.000
447.128;  940.125;    0.000;    0.000
447.175; 1011.125;    0.000;    0.000
447.222;  979.125;    0.000;    0.000
447.270;  992.125;    0.000;    0.000
447.317;  956.125;    0.000;    0.000
447.364;  977.125;    0.000;    0.000
447.411; 1035.125;    0.000;    0.000
447.459; 1071.125;    0.000;    0.000
447.506;  989.125;    0.000;    0.000
447.553; 1061.125;    0.000;    0.000
447.601; 1140.125;    0.000;    0.000
447.648; 1159.125;    0.000;    0.000
447.695; 1115.125;    0.000;    0.000
447.742; 1108.125;    0.000;    0.000
447.789; 1178.125;    0.000;    0.000
447.837; 1189.125;    0.000;    0.000
447.884; 1199.125;    0.000;    0.000
447.931; 1257.125;    0.000;    0.000
447.978; 1229.125;    0.000;    0.000
448.025; 1280.125;    0.000;    0.000
448.072; 1266.125;    0.000;    0.000
448.120; 1271.125;    0.000;    0.000
448.167; 1290.125;    0.000;    0.000
448.214; 1180.125;    0.000;    0.000
448.261; 1207.125;    0.000;    0.000
448.308; 1150.125;    0.000;    0.000
448.355; 1217.125;    0.000;    0.000
448.402; 1164.125;    0.000;    0.000
448.449; 1069.125;    0.000;    0.000
448.496; 1097.125;    0.000;    0.000
448.543; 1026.125;    0.000;    0.000
448.590; 1048.125;    0.000;    0.000
448.637; 1037.125;    0.000;    0.000
448.684; 1044.125;    0.000;    0.000
448.731; 1064.125;    0.000;    0.000
448.778; 1030.125;    0.000;    0.000
448.825; 1007.125;    0.000;    0.000
448.872;  908.125;    0.000;    0.000
448.919;  965.125;    0.000;    0.000
448.966;  949.125;    0.000;    0.000
449.013;  918.125;    0.000;    0.000
449.060;  981.125;    0.000;    0.000
449.107;  913.125;    0.000;    0.000
449.154;  928.125;    0.000;    0.000
449.200;  908.125;    0.000;    0.000
449.247;  916.125;    0.000;    0.000
449.294;  874.125;    0.000;    0.000
449.341;  898.125;    0.000;    0.000
449.388;  815.125;    0.000;    0.000
449.435;  841.125;    0.000;    0.000
449.481;  897.125;    0.000;    0.000
449.528;  862.125;    0.000;    0.000
449.575;  816.125;    0.000;    0.000
449.622;  811.125;    0.000;    0.000
449.668;  758.125;    0.000;    0.000
449.715;  820.125;    0.000;    0.000
449.762;  790.125;    0.000;    0.000
449.809;  841.125;    0.000;    0.000
449.855;  829.125;    0.000;    0.000
449.902;  750.125;    0.000;    0.000
449.949;  797.125;    0.000;    0.000
449.995;  836.125;    0.000;    0.000
450.042;  804.125;    0.000;    0.000
450.089;  830.125;    0.000;    0.000
450.135;  826.125;    0.000;    0.000
450.182;  792.125;    0.000;    0.000
450.229;  811.125;    0.000;    0.000
450.275;  767.125;    0.000;    0.000
450.322;  772.125;    0.000;    0.000
450.368;  748.125;    0.000;    0.000
450.415;  809.125;    0.000;    0.000
450.462;  781.125;    0.000;    0.000
450.508;  737.125;    0.000;    0.000
450.555;  751.125;    0.000;    0.000
450.601;  815.125;    0.000;    0.000
450.648;  740.125;    0.000;    0.000
450.694;  726.125;    0.000;    0.000
450.741;  738.125;    0.000;    0.000
450.787;  759.125;    0.000;    0.000
450.834;  741.125;    0.000;    0.000
450.880;  715.125;    0.000;    0.000
450.927;  726.125;    0.000;    0.000
450.973;  750.125;    0.000;    0.000
451.019;  667.125;    0.000;    0.000
451.066;  696.125;    0.000;    0.000
451.112;  725.125;    0.000;    0.000
451.159;  700.125;    0.000;    0.000
451.205;  710.125;    0.000;    0.000
451.251;  775.125;    0.000;    0.000
451.298;  731.125;    0.000;    0.000
451.344;  778.125;    0.000;    0.000
451.390;  741.125;    0.000;    0.000
451.437;  720.125;    0.000;    0.000
451.483;  727.125;    0.000;    0.000
451.529;  667.125;    0.000;    0.000
451.576;  700.125;    0.000;    0.000
451.622;  664.125;    0.000;    0.000
451.668;  691.125;    0.000;    0.000
451.714;  687.125;    0.000;    0.000
451.761;  731.125;    0.000;    0.000
451.807;  705.125;    0.000;    0.000
451.853;  741.125;    0.000;    0.000
451.899;  675.125;    0.000;    0.000
451.945;  691.125;    0.000;    0.000
451.992;  681.125;    0.000;    0.000
452.038;  670.125;    0.000;    0.000
452.084;  636.125;    0.000;    0.000
452.130;  665.125;    0.000;    0.000
452.176;  729.125;    0.000;    0.000
452.222;  644.125;    0.000;    0.000
452.268;  724.125;    0.000;    0.000
452.315;  673.125;    0.000;    0.000
452.361;  662.125;    0.000;    0.000
452.407;  680.125;    0.000;    0.000
452.453;  705.125;    0.000;    0.000
452.499;  691.125;    0.000;    0.000
452.545;  660.125;    0.000;    0.000
452.591;  666.125;    0.000;    0.000
452.637;  653.125;    0.000;    0.000
452.683;  674.125;    0.000;    0.000
452.729;  669.125;    0.000;    0.000
452.775;  661.125;    0.000;    0.000
452.821;  680.125;    0.000;    0.000
452.867;  668.125;    0.000;    0.000
452.913;  642.125;    0.000;    0.000
452.959;  680.125;    0.000;    0.000
453.005;  726.125;    0.000;    0.000
453.051;  667.125;    0.000;    0.000
453.097;  613.125;    0.000;    0.000
453.142;  578.125;    0.000;    0.000
453.188;  697.125;    0.000;    0.000
453.234;  670.125;    0.000;    0.000
453.280;  727.125;    0.000;    0.000
453.326;  746.125;    0.000;    0.000
453.372;  748.125;    0.000;    0.000
453.418;  794.125;    0.000;    0.000
453.463;  758.125;    0.000;    0.000
453.509;  743.125;    0.000;    0.000
453.555;  758.125;    0.000;    0.000
453.601;  689.125;    0.000;    0.000
453.647;  728.125;    0.000;    0.000
453.692;  660.125;    0.000;    0.000
453.738;  689.125;    0.000;    0.000
453.784;  650.125;    0.000;    0.000
453.829;  652.125;    0.000;    0.000
453.875;  623.125;    0.000;    0.000
453.921;  621.125;    0.000;    0.000
453.967;  618.125;    0.000;    0.000
454.012;  704.125;    0.000;    0.000
454.058;  619.125;    0.000;    0.000
454.104;  655.125;    0.000;    0.000
454.149;  630.125;    0.000;    0.000
454.195;  600.125;    0.000;    0.000
454.240;  697.125;    0.000;    0.000
454.286;  651.125;    0.000;    0.000
454.332;  657.125;    0.000;    0.000
454.377;  652.125;    0.000;    0.000
454.423;  643.125;    0.000;    0.000
454.468;  642.125;    0.000;    0.000
454.514;  609.125;    0.000;    0.000
454.559;  634.125;    0.000;    0.000
454.605;  601.125;    0.000;    0.000
454.650;  657.125;    0.000;    0.000
454.696;  624.125;    0.000;    0.000
454.741;  694.125;    0.000;    0.000
454.787;  652.125;    0.000;    0.000
454.832;  638.125;    0.000;    0.000
454.878;  684.125;    0.000;    0.000
454.923;  713.125;    0.000;    0.000
454.969;  668.125;    0.000;    0.000
455.014;  709.125;    0.000;    0.000
455.060;  644.125;    0.000;    0.000
455.105;  635.125;    0.000;    0.000
455.150;  664.125;    0.000;    0.000
455.196;  697.125;    0.000;    0.000
455.241;  684.125;    0.000;    0.000
455.286;  643.125;    0.000;    0.000
455.332;  655.125;    0.000;    0.000
455.377;  603.125;    0.000;    0.000
455.422;  662.125;    0.000;    0.000
455.468;  661.125;    0.000;    0.000
455.513;  663.125;    0.000;    0.000
455.558;  619.125;    0.000;    0.000
455.604;  633.125;    0.000;    0.000
455.649;  654.125;    0.000;    0.000
455.694;  628.125;    0.000;    0.000
455.739;  613.125;    0.000;    0.000
455.785;  667.125;    0.000;    0.000
455.830;  652.125;    0.000;    0.000
455.875;  648.125;    0.000;    0.000
455.920;  591.125;    0.000;    0.000
455.965;  584.125;    0.000;    0.000
456.010;  651.125;    0.000;    0.000
456.056;  655.125;    0.000;    0.000
456.101;  577.125;    0.000;    0.000
456.146;  607.125;    0.000;    0.000
456.191;  623.125;    0.000;    0.000
456.236;  665.125;    0.000;    0.000
456.281;  581.125;    0.000;    0.000
456.326;  604.125;    0.000;    0.000
456.371;  573.125;    0.000;    0.000
456.416;  635.125;    0.000;    0.000
456.461;  640.125;    0.000;    0.000
456.507;  602.125;    0.000;    0.000
456.552;  671.125;    0.000;    0.000
456.597;  638.125;    0.000;    0.000
456.642;  603.125;    0.000;    0.000
456.687;  621.125;    0.000;    0.000
456.732;  610.125;    0.000;    0.000
456.776;  587.125;    0.000;    0.000
456.821;  574.125;    0.000;    0.000
456.866;  639.125;    0.000;    0.000
456.911;  562.125;    0.000;    0.000
456.956;  610.125;    0.000;    0.000
457.001;  585.125;    0.000;    0.000
457.046;  598.125;    0.000;    0.000
457.091;  591.125;    0.000;    0.000
457.136;  642.125;    0.000;    0.000
457.181;  690.125;    0.000;    0.000
457.225;  658.125;    0.000;    0.000
457.270;  620.125;    0.000;    0.000
457.315;  649.125;    0.000;    0.000
457.360;  550.125;    0.000;    0.000
457.405;  632.125;    0.000;    0.000
457.450;  614.125;    0.000;    0.000
457.494;  625.125;    0.000;    0.000
457.539;  618.125;    0.000;    0.000
457.584;  596.125;    0.000;    0.000
457.629;  603.125;    0.000;    0.000
457.673;  584.125;    0.000;    0.000
457.718;  614.125;    0.000;    0.000
457.763;  626.125;    0.000;    0.000
457.807;  637.125;    0.000;    0.000
457.852;  579.125;    0.000;    0.000
457.897;  595.125;    0.000;    0.000
457.941;  630.125;    0.000;    0.000
457.986;  648.125;    0.000;    0.000
458.031;  594.125;    0.000;    0.000
458.075;  611.125;    0.000;    0.000
458.120;  605.125;    0.000;    0.000
458.165;  602.125;    0.000;    0.000
458.209;  571.125;    0.000;    0.000
458.254;  636.125;    0.000;    0.000
458.298;  601.125;    0.000;    0.000
458.343;  630.125;    0.000;    0.000
458.387;  614.125;    0.000;    0.000
458.432;  617.125;    0.000;    0.000
458.476;  629.125;    0.000;    0.000
458.521;  592.125;    0.000;    0.000
458.565;  664.125;    0.000;    0.000
458.610;  592.125;    0.000;    0.000
458.654;  636.125;    0.000;    0.000
458.699;  592.125;    0.000;    0.000
458.743;  607.125;    0.000;    0.000
458.788;  667.125;    0.000;    0.000
458.832;  639.125;    0.000;    0.000
458.877;  639.125;    0.000;    0.000
458.921;  601.125;    0.000;    0.000
458.965;  621.125;    0.000;    0.000
459.010;  631.125;    0.000;    0.000
459.054;  631.125;    0.000;    0.000
459.099;  643.125;    0.000;    0.000
459.143;  654.125;    0.000;    0.000
459.187;  654.125;    0.000;    0.000
459.231;  635.125;    0.000;    0.000
459.276;  613.125;    0.000;    0.000
459.320;  623.125;    0.000;    0.000
459.364;  652.125;    0.000;    0.000
459.409;  594.125;    0.000;    0.000
459.453;  625.125;    0.000;    0.000
459.497;  688.125;    0.000;    0.000
459.541;  707.125;    0.000;    0.000
459.586;  639.125;    0.000;    0.000
459.630;  634.125;    0.000;    0.000
459.674;  646.125;    0.000;    0.000
459.718;  649.125;    0.000;    0.000
459.762;  641.125;    0.000;    0.000
459.807;  669.125;    0.000;    0.000
459.851;  626.125;    0.000;    0.000
459.895;  620.125;    0.000;    0.000
459.939;  636.125;    0.000;    0.000
459.983;  590.125;    0.000;    0.000
460.027;  616.125;    0.000;    0.000
460.071;  664.125;    0.000;    0.000
460.115;  659.125;    0.000;    0.000
460.159;  643.125;    0.000;    0.000
460.204;  638.125;    0.000;    0.000
460.248;  629.125;    0.000;    0.000
460.292;  703.125;    0.000;    0.000
460.336;  633.125;    0.000;    0.000
460.380;  637.125;    0.000;    0.000
460.424;  640.125;    0.000;    0.000
460.468;  630.125;    0.000;    0.000
460.512;  659.125;    0.000;    0.000
460.556;  668.125;    0.000;    0.000
460.599;  712.125;    0.000;    0.000
460.643;  639.125;    0.000;    0.000
460.687;  688.125;    0.000;    0.000
460.731;  621.125;    0.000;    0.000
460.775;  597.125;    0.000;    0.000
460.819;  621.125;    0.000;    0.000
460.863;  655.125;    0.000;    0.000
460.907;  551.125;    0.000;    0.000
460.951;  678.125;    0.000;    0.000
460.995;  662.125;    0.000;    0.000
461.038;  618.125;    0.000;    0.000
461.082;  631.125;    0.000;    0.000
461.126;  665.125;    0.000;    0.000
461.170;  628.125;    0.000;    0.000
461.214;  620.125;    0.000;    0.000
461.257;  686.125;    0.000;    0.000
461.301;  661.125;    0.000;    0.000
461.345;  650.125;    0.000;    0.000
461.389;  629.125;    0.000;    0.000
461.432;  653.125;    0.000;    0.000
461.476;  656.125;    0.000;    0.000
461.520;  666.125;    0.000;    0.000
461.563;  688.125;    0.000;    0.000
461.607;  650.125;    0.000;    0.000
461.651;  606.125;    0.000;    0.000
461.694;  643.125;    0.000;    0.000
461.738;  660.125;    0.000;    0.000
461.782;  683.125;    0.000;    0.000
461.825;  692.125;    0.000;    0.000
461.869;  692.125;    0.000;    0.000
461.913;  669.125;    0.000;    0.000
461.956;  655.125;    0.000;    0.000
462.000;  643.125;    0.000;    0.000
462.043;  651.125;    0.000;    0.000
462.087;  673.125;    0.000;    0.000
462.130;  632.125;    0.000;    0.000
462.174;  693.125;    0.000;    0.000
462.217;  677.125;    0.000;    0.000
462.261;  687.125;    0.000;    0.000
462.304;  668.125;    0.000;    0.000
462.348;  645.125;    0.000;    0.000
462.391;  694.125;    0.000;    0.000
462.435;  712.125;    0.000;    0.000
462.478;  653.125;    0.000;    0.000
462.522;  675.125;    0.000;    0.000
462.565;  668.125;    0.000;    0.000
462.608;  710.125;    0.000;    0.000
462.652;  713.125;    0.000;    0.000
462.695;  708.125;    0.000;    0.000
462.739;  715.125;    0.000;    0.000
462.782;  713.125;    0.000;    0.000
462.825;  770.125;    0.000;    0.000
462.869;  676.125;    0.000;    0.000
462.912;  749.125;    0.000;    0.000
462.955;  693.125;    0.000;    0.000
462.998;  692.125;    0.000;    0.000
463.042;  736.125;    0.000;    0.000
463.085;  701.125;    0.000;    0.000
463.128;  668.125;    0.000;    0.000
463.172;  750.125;    0.000;    0.000
463.215;  357.125;    0.000;    0.000
463.258;  315.125;    0.000;    0.000
463.301;  322.125;    0.000;    0.000
463.344;  331.125;    0.000;    0.000
463.388;  326.125;    0.000;    0.000
463.431;  290.125;    0.000;    0.000
463.474;  355.125;    0.000;    0.000
463.517;  342.125;    0.000;    0.000
463.560;  313.125;    0.000;    0.000
463.603;  356.125;    0.000;    0.000
463.646;  342.125;    0.000;    0.000
463.690;  339.125;    0.000;    0.000
463.733;  362.125;    0.000;    0.000
463.776;  300.125;    0.000;    0.000
463.819;  357.125;    0.000;    0.000
463.862;  294.125;    0.000;    0.000

