
Integration time [ms]:   1.000
Averaging Nr. [scans]: 1
Smoothing Nr. [pixels]: 0
Data measured with spectrometer [name]: UV1
Wave   ;Sample   ;Dark     ;Reference
[nm]   ;[counts] ;[counts] ;[counts] 

236.381;  153.225;    0.000;    0.000
236.451;  185.225;    0.000;    0.000
236.520;  167.225;    0.000;    0.000
236.590;  204.225;    0.000;    0.000
236.660;  193.225;    0.000;    0.000
236.730;  190.225;    0.000;    0.000
236.799;  190.225;    0.000;    0.000
236.869;  203.225;    0.000;    0.000
236.939;  179.225;    0.000;    0.000
237.009;  168.225;    0.000;    0.000
237.078;  188.225;    0.000;    0.000
237.148;  172.225;    0.000;    0.000
237.218;  201.225;    0.000;    0.000
237.287;  193.225;    0.000;    0.000
237.357;  173.225;    0.000;    0.000
237.427;  189.225;    0.000;    0.000
237.496;  441.225;    0.000;    0.000
237.566;  456.225;    0.000;    0.000
237.636;  412.225;    0.000;    0.000
237.705;  484.225;    0.000;    0.000
237.775;  420.225;    0.000;    0.000
237.845;  430.225;    0.000;    0.000
237.914;  431.225;    0.000;    0.000
237.984;  477.225;    0.000;    0.000
238.054;  393.225;    0.000;    0.000
238.123;  439.225;    0.000;    0.000
238.193;  418.225;    0.000;    0.000
238.263;  491.225;    0.000;    0.000
238.332;  388.225;    0.000;    0.000
238.402;  452.225;    0.000;    0.000
238.471;  391.225;    0.000;    0.000
238.541;  400.225;    0.000;    0.000
238.611;  369.225;    0.000;    0.000
238.680;  421.225;    0.000;    0.000
238.750;  455.225;    0.000;    0.000
238.819;  447.225;    0.000;    0.000
238.889;  467.225;    0.000;    0.000
238.958;  450.225;    0.000;    0.000
239.028;  414.225;    0.000;    0.000
239.097;  383.225;    0.000;    0.000
239.167;  419.225;    0.000;    0.000
239.237;  427.225;    0.000;    0.000
239.306;  378.225;    0.000;    0.000
239.376;  428.225;    0.000;    0.000
239.445;  481.225;    0.000;    0.000
239.515;  403.225;    0.000;    0.000
239.584;  397.225;    0.000;    0.000
239.654;  402.225;    0.000;    0.000
239.723;  413.225;    0.000;    0.000
239.793;  396.225;    0.000;    0.000
239.862;  413.225;    0.000;    0.000
239.932;  424.225;    0.000;    0.000
240.001;  450.225;    0.000;    0.000
240.070;  442.225;    0.000;    0.000
240.140;  403.225;    0.000;    0.000
240.209;  380.225;    0.000;    0.000
240.279;  409.225;    0.000;    0.000
240.348;  440.225;    0.000;    0.000
240.418;  428.225;    0.000;    0.000
240.487;  383.225;    0.000;    0.000
240.556;  395.225;    0.000;    0.000
240.626;  454.225;    0.000;    0.000
240.695;  411.225;    0.000;    0.000
240.765;  423.225;    0.000;    0.000
240.834;  439.225;    0.000;    0.000
240.903;  421.225;    0.000;    0.000
240.973;  408.225;    0.000;    0.000
241.042;  467.225;    0.000;    0.000
241.112;  399.225;    0.000;    0.000
241.181;  381.225;    0.000;    0.000
241.250;  432.225;    0.000;    0.000
241.320;  439.225;    0.000;    0.000
241.389;  365.225;    0.000;    0.000
241.458;  415.225;    0.000;    0.000
241.528;  436.225;    0.000;    0.000
241.597;  425.225;    0.000;    0.000
241.666;  457.225;    0.000;    0.000
241.736;  456.225;    0.000;    0.000
241.805;  429.225;    0.000;    0.000
241.874;  413.225;    0.000;    0.000
241.943;  414.225;    0.000;    0.000
242.013;  424.225;    0.000;    0.000
242.082;  421.225;    0.000;    0.000
242.151;  412.225;    0.000;    0.000
242.221;  434.225;    0.000;    0.000
242.290;  414.225;    0.000;    0.000
242.359;  403.225;    0.000;    0.000
242.428;  436.225;    0.000;    0.000
242.498;  381.225;    0.000;    0.000
242.567;  446.225;    0.000;    0.000
242.636;  420.225;    0.000;    0.000
242.705;  459.225;    0.000;    0.000
242.774;  421.225;    0.000;    0.000
242.844;  438.225;    0.000;    0.000
242.913;  478.225;    0.000;    0.000
242.982;  453.225;    0.000;    0.000
243.051;  417.225;    0.000;    0.000
243.120;  498.225;    0.000;    0.000
243.190;  376.225;    0.000;    0.000
243.259;  434.225;    0.000;    0.000
243.328;  394.225;    0.000;    0.000
243.397;  382.225;    0.000;    0.000
243.466;  404.225;    0.000;    0.000
243.535;  399.225;    0.000;    0.000
243.605;  406.225;    0.000;    0.000
243.674;  392.225;    0.000;    0.000
243.743;  420.225;    0.000;    0.000
243.812;  397.225;    0.000;    0.000
243.881;  425.225;    0.000;    0.000
243.950;  400.225;    0.000;    0.000
244.019;  441.225;    0.000;    0.000
244.088;  387.225;    0.000;    0.000
244.158;  462.225;    0.000;    0.000
244.227;  400.225;    0.000;    0.000
244.296;  397.225;    0.000;    0.000
244.365;  452.225;    0.000;    0.000
244.434;  395.225;    0.000;    0.000
244.503;  390.225;    0.000;    0.000
244.572;  369.225;    0.000;    0.000
244.641;  390.225;    0.000;    0.000
244.710;  431.225;    0.000;    0.000
244.779;  421.225;    0.000;    0.000
244.848;  358.225;    0.000;    0.000
244.917;  424.225;    0.000;    0.000
244.986;  356.225;    0.000;    0.000
245.055;  427.225;    0.000;    0.000
245.124;  410.225;    0.000;    0.000
245.193;  382.225;    0.000;    0.000
245.262;  389.225;    0.000;    0.000
245.331;  453.225;    0.000;    0.000
245.400;  367.225;    0.000;    0.000
245.469;  430.225;    0.000;    0.000
245.538;  422.225;    0.000;    0.000
245.607;  440.225;    0.000;    0.000
245.676;  436.225;    0.000;    0.000
245.745;  395.225;    0.000;    0.000
245.814;  436.225;    0.000;    0.000
245.883;  452.225;    0.000;    0.000
245.952;  453.225;    0.000;    0.000
246.021;  461.225;    0.000;    0.000
246.090;  411.225;    0.000;    0.000
246.159;  415.225;    0.000;    0.000
246.227;  403.225;    0.000;    0.000
246.296;  410.225;    0.000;    0.000
246.365;  430.225;    0.000;    0.000
246.434;  437.225;    0.000;    0.000
246.503;  395.225;    0.000;    0.000
246.572;  459.225;    0.000;    0.000
246.641;  400.225;    0.000;    0.000
246.710;  444.225;    0.000;    0.000
246.779;  428.225;    0.000;    0.000
246.847;  425.225;    0.000;    0.000
246.916;  387.225;    0.000;    0.000
246.985;  405.225;    0.000;    0.000
247.054;  409.225;    0.000;    0.000
247.123;  421.225;    0.000;    0.000
247.192;  408.225;    0.000;    0.000
247.260;  411.225;    0.000;    0.000
247.329;  442.225;    0.000;    0.000
247.398;  446.225;    0.000;    0.000
247.467;  404.225;    0.000;    0.000
247.536;  379.225;    0.000;    0.000
247.604;  449.225;    0.000;    0.000
247.673;  376.225;    0.000;    0.000
247.742;  396.225;    0.000;    0.000
247.811;  455.225;    0.000;    0.000
247.879;  419.225;    0.000;    0.000
247.948;  404.225;    0.000;    0.000
248.017;  387.225;    0.000;    0.000
248.086;  427.225;    0.000;    0.000
248.154;  427.225;    0.000;    0.000
248.223;  417.225;    0.000;    0.000
248.292;  405.225;    0.000;    0.000
248.361;  415.225;    0.000;    0.000
248.429;  413.225;    0.000;    0.000
248.498;  399.225;    0.000;    0.000
248.567;  418.225;    0.000;    0.000
248.635;  412.225;    0.000;    0.000
248.704;  403.225;    0.000;    0.000
248.773;  400.225;    0.000;    0.000
248.841;  409.225;    0.000;    0.000
248.910;  400.225;    0.000;    0.000
248.979;  397.225;    0.000;    0.000
249.047;  415.225;    0.000;    0.000
249.116;  421.225;    0.000;    0.000
249.185;  398.225;    0.000;    0.000
249.253;  413.225;    0.000;    0.000
249.322;  384.225;    0.000;    0.000
249.390;  397.225;    0.000;    0.000
249.459;  406.225;    0.000;    0.000
249.528;  418.225;    0.000;    0.000
249.596;  414.225;    0.000;    0.000
249.665;  349.225;    0.000;    0.000
249.733;  404.225;    0.000;    0.000
249.802;  348.225;    0.000;    0.000
249.871;  390.225;    0.000;    0.000
249.939;  406.225;    0.000;    0.000
250.008;  384.225;    0.000;    0.000
250.076;  395.225;    0.000;    0.000
250.145;  355.225;    0.000;    0.000
250.213;  366.225;    0.000;    0.000
250.282;  400.225;    0.000;    0.000
250.350;  343.225;    0.000;    0.000
250.419;  381.225;    0.000;    0.000
250.487;  407.225;    0.000;    0.000
250.556;  388.225;    0.000;    0.000
250.624;  367.225;    0.000;    0.000
250.693;  341.225;    0.000;    0.000
250.761;  412.225;    0.000;    0.000
250.830;  399.225;    0.000;    0.000
250.898;  393.225;    0.000;    0.000
250.967;  385.225;    0.000;    0.000
251.035;  340.225;    0.000;    0.000
251.104;  333.225;    0.000;    0.000
251.172;  369.225;    0.000;    0.000
251.241;  336.225;    0.000;    0.000
251.309;  368.225;    0.000;    0.000
251.378;  341.225;    0.000;    0.000
251.446;  360.225;    0.000;    0.000
251.514;  390.225;    0.000;    0.000
251.583;  367.225;    0.000;    0.000
251.651;  307.225;    0.000;    0.000
251.720;  352.225;    0.000;    0.000
251.788;  353.225;    0.000;    0.000
251.856;  306.225;    0.000;    0.000
251.925;  341.225;    0.000;    0.000
251.993;  361.225;    0.000;    0.000
252.062;  381.225;    0.000;    0.000
252.130;  352.225;    0.000;    0.000
252.198;  344.225;    0.000;    0.000
252.267;  346.225;    0.000;    0.000
252.335;  330.225;    0.000;    0.000
252.403;  374.225;    0.000;    0.000
252.472;  323.225;    0.000;    0.000
252.540;  349.225;    0.000;    0.000
252.608;  366.225;    0.000;    0.000
252.677;  334.225;    0.000;    0.000
252.745;  346.225;    0.000;    0.000
252.813;  307.225;    0.000;    0.000
252.881;  290.225;    0.000;    0.000
252.950;  314.225;    0.000;    0.000
253.018;  328.225;    0.000;    0.000
253.086;  288.225;    0.000;    0.000
253.155;  305.225;    0.000;    0.000
253.223;  300.225;    0.000;    0.000
253.291;  328.225;    0.000;    0.000
253.359;  307.225;    0.000;    0.000
253.428;  319.225;    0.000;    0.000
253.496;  302.225;    0.000;    0.000
253.564;  297.225;    0.000;    0.000
253.632;  295.225;    0.000;    0.000
253.700;  331.225;    0.000;    0.000
253.769;  345.225;    0.000;    0.000
253.837;  328.225;    0.000;    0.000
253.905;  312.225;    0.000;    0.000
253.973;  331.225;    0.000;    0.000
254.041;  285.225;    0.000;    0.000
254.110;  298.225;    0.000;    0.000
254.178;  327.225;    0.000;    0.000
254.246;  301.225;    0.000;    0.000
254.314;  291.225;    0.000;    0.000
254.382;  258.225;    0.000;    0.000
254.450;  342.225;    0.000;    0.000
254.518;  273.225;    0.000;    0.000
254.587;  300.225;    0.000;    0.000
254.655;  333.225;    0.000;    0.000
254.723;  322.225;    0.000;    0.000
254.791;  290.225;    0.000;    0.000
254.859;  332.225;    0.000;    0.000
254.927;  345.225;    0.000;    0.000
254.995;  344.225;    0.000;    0.000
255.063;  324.225;    0.000;    0.000
255.131;  294.225;    0.000;    0.000
255.199;  307.225;    0.000;    0.000
255.267;  282.225;    0.000;    0.000
255.336;  349.225;    0.000;    0.000
255.404;  269.225;    0.000;    0.000
255.472;  336.225;    0.000;    0.000
255.540;  275.225;    0.000;    0.000
255.608;  300.225;    0.000;    0.000
255.676;  318.225;    0.000;    0.000
255.744;  314.225;    0.000;    0.000
255.812;  303.225;    0.000;    0.000
255.880;  339.225;    0.000;    0.000
255.948;  301.225;    0.000;    0.000
256.016;  292.225;    0.000;    0.000
256.084;  292.225;    0.000;    0.000
256.152;  325.225;    0.000;    0.000
256.220;  305.225;    0.000;    0.000
256.288;  296.225;    0.000;    0.000
256.356;  303.225;    0.000;    0.000
256.424;  289.225;    0.000;    0.000
256.491;  300.225;    0.000;    0.000
256.559;  306.225;    0.000;    0.000
256.627;  313.225;    0.000;    0.000
256.695;  305.225;    0.000;    0.000
256.763;  340.225;    0.000;    0.000
256.831;  305.225;    0.000;    0.000
256.899;  324.225;    0.000;    0.000
256.967;  264.225;    0.000;    0.000
257.035;  276.225;    0.000;    0.000
257.103;  323.225;    0.000;    0.000
257.171;  256.225;    0.000;    0.000
257.238;  287.225;    0.000;    0.000
257.306;  309.225;    0.000;    0.000
257.374;  299.225;    0.000;    0.000
257.442;  297.225;    0.000;    0.000
257.510;  313.225;    0.000;    0.000
257.578;  241.225;    0.000;    0.000
257.646;  334.225;    0.000;    0.000
257.713;  267.225;    0.000;    0.000
257.781;  330.225;    0.000;    0.000
257.849;  340.225;    0.000;    0.000
257.917;  302.225;    0.000;    0.000
257.985;  290.225;    0.000;    0.000
258.052;  263.225;    0.000;    0.000
258.120;  322.225;    0.000;    0.000
258.188;  327.225;    0.000;    0.000
258.256;  276.225;    0.000;    0.000
258.324;  322.225;    0.000;    0.000
258.391;  343.225;    0.000;    0.000
258.459;  326.225;    0.000;    0.000
258.527;  335.225;    0.000;    0.000
258.595;  305.225;    0.000;    0.000
258.662;  302.225;    0.000;    0.000
258.730;  353.225;    0.000;    0.000
258.798;  368.225;    0.000;    0.000
258.865;  321.225;    0.000;    0.000
258.933;  312.225;    0.000;    0.000
259.001;  354.225;    0.000;    0.000
259.069;  304.225;    0.000;    0.000
259.136;  357.225;    0.000;    0.000
259.204;  368.225;    0.000;    0.000
259.272;  393.225;    0.000;    0.000
259.339;  304.225;    0.000;    0.000
259.407;  387.225;    0.000;    0.000
259.475;  298.225;    0.000;    0.000
259.542;  337.225;    0.000;    0.000
259.610;  346.225;    0.000;    0.000
259.677;  363.225;    0.000;    0.000
259.745;  345.225;    0.000;    0.000
259.813;  374.225;    0.000;    0.000
259.880;  366.225;    0.000;    0.000
259.948;  372.225;    0.000;    0.000
260.016;  363.225;    0.000;    0.000
260.083;  408.225;    0.000;    0.000
260.151;  338.225;    0.000;    0.000
260.218;  360.225;    0.000;    0.000
260.286;  395.225;    0.000;    0.000
260.353;  393.225;    0.000;    0.000
260.421;  359.225;    0.000;    0.000
260.489;  408.225;    0.000;    0.000
260.556;  375.225;    0.000;    0.000
260.624;  435.225;    0.000;    0.000
260.691;  376.225;    0.000;    0.000
260.759;  459.225;    0.000;    0.000
260.826;  351.225;    0.000;    0.000
260.894;  385.225;    0.000;    0.000
260.961;  429.225;    0.000;    0.000
261.029;  439.225;    0.000;    0.000
261.096;  427.225;    0.000;    0.000
261.164;  431.225;    0.000;    0.000
261.231;  450.225;    0.000;    0.000
261.299;  418.225;    0.000;    0.000
261.366;  427.225;    0.000;    0.000
261.434;  411.225;    0.000;    0.000
261.501;  395.225;    0.000;    0.000
261.568;  448.225;    0.000;    0.000
261.636;  420.225;    0.000;    0.000
261.703;  453.225;    0.000;    0.000
261.771;  441.225;    0.000;    0.000
261.838;  465.225;    0.000;    0.000
261.906;  461.225;    0.000;    0.000
261.973;  445.225;    0.000;    0.000
262.040;  464.225;    0.000;    0.000
262.108;  402.225;    0.000;    0.000
262.175;  406.225;    0.000;    0.000
262.243;  446.225;    0.000;    0.000
262.310;  418.225;    0.000;    0.000
262.377;  471.225;    0.000;    0.000
262.445;  460.225;    0.000;    0.000
262.512;  490.225;    0.000;    0.000
262.579;  492.225;    0.000;    0.000
262.647;  444.225;    0.000;    0.000
262.714;  535.225;    0.000;    0.000
262.781;  503.225;    0.000;    0.000
262.849;  462.225;    0.000;    0.000
262.916;  515.225;    0.000;    0.000
262.983;  491.225;    0.000;    0.000
263.051;  453.225;    0.000;    0.000
263.118;  513.225;    0.000;    0.000
263.185;  532.225;    0.000;    0.000
263.252;  515.225;    0.000;    0.000
263.320;  475.225;    0.000;    0.000
263.387;  494.225;    0.000;    0.000
263.454;  514.225;    0.000;    0.000
263.522;  511.225;    0.000;    0.000
263.589;  541.225;    0.000;    0.000
263.656;  525.225;    0.000;    0.000
263.723;  488.225;    0.000;    0.000
263.790;  538.225;    0.000;    0.000
263.858;  559.225;    0.000;    0.000
263.925;  552.225;    0.000;    0.000
263.992;  570.225;    0.000;    0.000
264.059;  509.225;    0.000;    0.000
264.126;  526.225;    0.000;    0.000
264.194;  543.225;    0.000;    0.000
264.261;  593.225;    0.000;    0.000
264.328;  564.225;    0.000;    0.000
264.395;  542.225;    0.000;    0.000
264.462;  586.225;    0.000;    0.000
264.529;  545.225;    0.000;    0.000
264.597;  544.225;    0.000;    0.000
264.664;  573.225;    0.000;    0.000
264.731;  616.225;    0.000;    0.000
264.798;  548.225;    0.000;    0.000
264.865;  576.225;    0.000;    0.000
264.932;  603.225;    0.000;    0.000
264.999;  574.225;    0.000;    0.000
265.066;  581.225;    0.000;    0.000
265.133;  601.225;    0.000;    0.000
265.201;  577.225;    0.000;    0.000
265.268;  589.225;    0.000;    0.000
265.335;  580.225;    0.000;    0.000
265.402;  634.225;    0.000;    0.000
265.469;  570.225;    0.000;    0.000
265.536;  604.225;    0.000;    0.000
265.603;  628.225;    0.000;    0.000
265.670;  587.225;    0.000;    0.000
265.737;  646.225;    0.000;    0.000
265.804;  632.225;    0.000;    0.000
265.871;  607.225;    0.000;    0.000
265.938;  661.225;    0.000;    0.000
266.005;  663.225;    0.000;    0.000
266.072;  616.225;    0.000;    0.000
266.139;  649.225;    0.000;    0.000
266.206;  667.225;    0.000;    0.000
266.273;  598.225;    0.000;    0.000
266.340;  595.225;    0.000;    0.000
266.407;  629.225;    0.000;    0.000
266.474;  668.225;    0.000;    0.000
266.541;  671.225;    0.000;    0.000
266.608;  656.225;    0.000;    0.000
266.675;  673.225;    0.000;    0.000
266.742;  666.225;    0.000;    0.000
266.808;  635.225;    0.000;    0.000
266.875;  665.225;    0.000;    0.000
266.942;  693.225;    0.000;    0.000
267.009;  662.225;    0.000;    0.000
267.076;  660.225;    0.000;    0.000
267.143;  683.225;    0.000;    0.000
267.210;  624.225;    0.000;    0.000
267.277;  626.225;    0.000;    0.000
267.344;  638.225;    0.000;    0.000
267.410;  709.225;    0.000;    0.000
267.477;  717.225;    0.000;    0.000
267.544;  693.225;    0.000;    0.000
267.611;  706.225;    0.000;    0.000
267.678;  686.225;    0.000;    0.000
267.745;  744.225;    0.000;    0.000
267.811;  692.225;    0.000;    0.000
267.878;  736.225;    0.000;    0.000
267.945;  684.225;    0.000;    0.000
268.012;  646.225;    0.000;    0.000
268.079;  731.225;    0.000;    0.000
268.145;  711.225;    0.000;    0.000
268.212;  711.225;    0.000;    0.000
268.279;  689.225;    0.000;    0.000
268.346;  698.225;    0.000;    0.000
268.412;  673.225;    0.000;    0.000
268.479;  683.225;    0.000;    0.000
268.546;  703.225;    0.000;    0.000
268.613;  696.225;    0.000;    0.000
268.679;  708.225;    0.000;    0.000
268.746;  736.225;    0.000;    0.000
268.813;  663.225;    0.000;    0.000
268.879;  655.225;    0.000;    0.000
268.946;  721.225;    0.000;    0.000
269.013;  685.225;    0.000;    0.000
269.079;  697.225;    0.000;    0.000
269.146;  681.225;    0.000;    0.000
269.213;  699.225;    0.000;    0.000
269.280;  712.225;    0.000;    0.000
269.346;  700.225;    0.000;    0.000
269.413;  646.225;    0.000;    0.000
269.479;  732.225;    0.000;    0.000
269.546;  749.225;    0.000;    0.000
269.613;  657.225;    0.000;    0.000
269.679;  707.225;    0.000;    0.000
269.746;  688.225;    0.000;    0.000
269.813;  723.225;    0.000;    0.000
269.879;  740.225;    0.000;    0.000
269.946;  700.225;    0.000;    0.000
270.012;  687.225;    0.000;    0.000
270.079;  679.225;    0.000;    0.000
270.145;  717.225;    0.000;    0.000
270.212;  709.225;    0.000;    0.000
270.279;  665.225;    0.000;    0.000
270.345;  705.225;    0.000;    0.000
270.412;  695.225;    0.000;    0.000
270.478;  668.225;    0.000;    0.000
270.545;  692.225;    0.000;    0.000
270.611;  698.225;    0.000;    0.000
270.678;  664.225;    0.000;    0.000
270.744;  703.225;    0.000;    0.000
270.811;  723.225;    0.000;    0.000
270.877;  675.225;    0.000;    0.000
270.944;  698.225;    0.000;    0.000
271.010;  727.225;    0.000;    0.000
271.077;  685.225;    0.000;    0.000
271.143;  713.225;    0.000;    0.000
271.210;  715.225;    0.000;    0.000
271.276;  716.225;    0.000;    0.000
271.342;  685.225;    0.000;    0.000
271.409;  678.225;    0.000;    0.000
271.475;  694.225;    0.000;    0.000
271.542;  705.225;    0.000;    0.000
271.608;  711.225;    0.000;    0.000
271.675;  708.225;    0.000;    0.000
271.741;  716.225;    0.000;    0.000
271.807;  690.225;    0.000;    0.000
271.874;  756.225;    0.000;    0.000
271.940;  707.225;    0.000;    0.000
272.007;  687.225;    0.000;    0.000
272.073;  699.225;    0.000;    0.000
272.139;  670.225;    0.000;    0.000
272.206;  681.225;    0.000;    0.000
272.272;  687.225;    0.000;    0.000
272.338;  705.225;    0.000;    0.000
272.405;  691.225;    0.000;    0.000
272.471;  698.225;    0.000;    0.000
272.537;  756.225;    0.000;    0.000
272.604;  681.225;    0.000;    0.000
272.670;  730.225;    0.000;    0.000
272.736;  735.225;    0.000;    0.000
272.802;  778.225;    0.000;    0.000
272.869;  731.225;    0.000;    0.000
272.935;  728.225;    0.000;    0.000
273.001;  722.225;    0.000;    0.000
273.068;  723.225;    0.000;    0.000
273.134;  712.225;    0.000;    0.000
273.200;  815.225;    0.000;    0.000
273.266;  735.225;    0.000;    0.000
273.333;  754.225;    0.000;    0.000
273.399;  697.225;    0.000;    0.000
273.465;  767.225;    0.000;    0.000
273.531;  753.225;    0.000;    0.000
273.597;  739.225;    0.000;    0.000
273.664;  748.225;    0.000;    0.000
273.730;  710.225;    0.000;    0.000
273.796;  741.225;    0.000;    0.000
273.862;  772.225;    0.000;    0.000
273.928;  735.225;    0.000;    0.000
273.995;  783.225;    0.000;    0.000
274.061;  732.225;    0.000;    0.000
274.127;  786.225;    0.000;    0.000
274.193;  725.225;    0.000;    0.000
274.259;  737.225;    0.000;    0.000
274.325;  751.225;    0.000;    0.000
274.391;  729.225;    0.000;    0.000
274.457;  774.225;    0.000;    0.000
274.524;  798.225;    0.000;    0.000
274.590;  726.225;    0.000;    0.000
274.656;  803.225;    0.000;    0.000
274.722;  786.225;    0.000;    0.000
274.788;  804.225;    0.000;    0.000
274.854;  832.225;    0.000;    0.000
274.920;  822.225;    0.000;    0.000
274.986;  825.225;    0.000;    0.000
275.052;  812.225;    0.000;    0.000
275.118;  753.225;    0.000;    0.000
275.184;  769.225;    0.000;    0.000
275.250;  864.225;    0.000;    0.000
275.316;  782.225;    0.000;    0.000
275.382;  743.225;    0.000;    0.000
275.448;  836.225;    0.000;    0.000
275.514;  854.225;    0.000;    0.000
275.580;  851.225;    0.000;    0.000
275.646;  864.225;    0.000;    0.000
275.712;  815.225;    0.000;    0.000
275.778;  815.225;    0.000;    0.000
275.844;  894.225;    0.000;    0.000
275.910;  889.225;    0.000;    0.000
275.976;  879.225;    0.000;    0.000
276.042;  885.225;    0.000;    0.000
276.108;  903.225;    0.000;    0.000
276.174;  866.225;    0.000;    0.000
276.240;  944.225;    0.000;    0.000
276.306;  873.225;    0.000;    0.000
276.372;  902.225;    0.000;    0.000
276.437;  911.225;    0.000;    0.000
276.503;  906.225;    0.000;    0.000
276.569;  993.225;    0.000;    0.000
276.635;  962.225;    0.000;    0.000
276.701; 1038.225;    0.000;    0.000
276.767;  989.225;    0.000;    0.000
276.833; 1012.225;    0.000;    0.000
276.899; 1114.225;    0.000;    0.000
276.964; 1102.225;    0.000;    0.000
277.030; 1174.225;    0.000;    0.000
277.096; 1082.225;    0.000;    0.000
277.162; 1139.225;    0.000;    0.000
277.228; 1118.225;    0.000;    0.000
277.293; 1244.225;    0.000;    0.000
277.359; 1276.225;    0.000;    0.000
277.425; 1326.225;    0.000;    0.000
277.491; 1417.225;    0.000;    0.000
277.557; 1516.225;    0.000;    0.000
277.622; 2195.225;    0.000;    0.000
277.688; 2455.225;    0.000;    0.000
277.754; 2276.225;    0.000;    0.000
277.820; 2538.225;    0.000;    0.000
277.885; 2913.225;    0.000;    0.000
277.951; 3793.225;    0.000;    0.000
278.017; 3721.225;    0.000;    0.000
278.083; 2823.225;    0.000;    0.000
278.148; 2910.225;    0.000;    0.000
278.214; 2714.225;    0.000;    0.000
278.280; 2920.225;    0.000;    0.000
278.345; 2938.225;    0.000;    0.000
278.411; 2469.225;    0.000;    0.000
278.477; 2472.225;    0.000;    0.000
278.542; 2650.225;    0.000;    0.000
278.608; 2759.225;    0.000;    0.000
278.674; 3106.225;    0.000;    0.000
278.739; 3408.225;    0.000;    0.000
278.805; 3693.225;    0.000;    0.000
278.871; 4422.225;    0.000;    0.000
278.936; 5547.225;    0.000;    0.000
279.002; 7890.225;    0.000;    0.000
279.067;11031.225;    0.000;    0.000
279.133;11864.225;    0.000;    0.000
279.199;10386.225;    0.000;    0.000
279.264;10087.225;    0.000;    0.000
279.330;11404.225;    0.000;    0.000
279.395;14455.225;    0.000;    0.000
279.461;18389.225;    0.000;    0.000
279.527;21716.225;    0.000;    0.000
279.592;21557.225;    0.000;    0.000
279.658;18785.225;    0.000;    0.000
279.723;17081.225;    0.000;    0.000
279.789;17926.225;    0.000;    0.000
279.854;16757.225;    0.000;    0.000
279.920;14094.225;    0.000;    0.000
279.985;12178.225;    0.000;    0.000
280.051;11984.225;    0.000;    0.000
280.116;13196.225;    0.000;    0.000
280.182;16888.225;    0.000;    0.000
280.247;20532.225;    0.000;    0.000
280.313;19582.225;    0.000;    0.000
280.378;14697.225;    0.000;    0.000
280.444;10913.225;    0.000;    0.000
280.509; 8531.225;    0.000;    0.000
280.574; 6993.225;    0.000;    0.000
280.640; 5722.225;    0.000;    0.000
280.705; 5050.225;    0.000;    0.000
280.771; 4578.225;    0.000;    0.000
280.836; 4127.225;    0.000;    0.000
280.902; 3832.225;    0.000;    0.000
280.967; 3542.225;    0.000;    0.000
281.032; 3352.225;    0.000;    0.000
281.098; 3110.225;    0.000;    0.000
281.163; 2919.225;    0.000;    0.000
281.229; 2821.225;    0.000;    0.000
281.294; 2674.225;    0.000;    0.000
281.359; 2589.225;    0.000;    0.000
281.425; 2434.225;    0.000;    0.000
281.490; 2319.225;    0.000;    0.000
281.555; 2344.225;    0.000;    0.000
281.621; 2184.225;    0.000;    0.000
281.686; 2094.225;    0.000;    0.000
281.751; 2144.225;    0.000;    0.000
281.816; 1923.225;    0.000;    0.000
281.882; 1891.225;    0.000;    0.000
281.947; 1859.225;    0.000;    0.000
282.012; 1766.225;    0.000;    0.000
282.078; 1765.225;    0.000;    0.000
282.143; 1695.225;    0.000;    0.000
282.208; 1625.225;    0.000;    0.000
282.273; 1671.225;    0.000;    0.000
282.339; 1544.225;    0.000;    0.000
282.404; 1650.225;    0.000;    0.000
282.469; 1621.225;    0.000;    0.000
282.534; 1604.225;    0.000;    0.000
282.600; 1507.225;    0.000;    0.000
282.665; 1507.225;    0.000;    0.000
282.730; 1478.225;    0.000;    0.000
282.795; 1472.225;    0.000;    0.000
282.860; 1437.225;    0.000;    0.000
282.926; 1451.225;    0.000;    0.000
282.991; 1395.225;    0.000;    0.000
283.056; 1496.225;    0.000;    0.000
283.121; 1343.225;    0.000;    0.000
283.186; 1410.225;    0.000;    0.000
283.251; 1325.225;    0.000;    0.000
283.316; 1383.225;    0.000;    0.000
283.382; 1341.225;    0.000;    0.000
283.447; 1335.225;    0.000;    0.000
283.512; 1284.225;    0.000;    0.000
283.577; 1298.225;    0.000;    0.000
283.642; 1357.225;    0.000;    0.000
283.707; 1292.225;    0.000;    0.000
283.772; 1301.225;    0.000;    0.000
283.837; 1217.225;    0.000;    0.000
283.902; 1256.225;    0.000;    0.000
283.967; 1242.225;    0.000;    0.000
284.032; 1295.225;    0.000;    0.000
284.097; 1320.225;    0.000;    0.000
284.163; 1324.225;    0.000;    0.000
284.228; 1317.225;    0.000;    0.000
284.293; 1268.225;    0.000;    0.000
284.358; 1335.225;    0.000;    0.000
284.423; 1313.225;    0.000;    0.000
284.488; 1411.225;    0.000;    0.000
284.553; 1438.225;    0.000;    0.000
284.618; 1431.225;    0.000;    0.000
284.683; 1507.225;    0.000;    0.000
284.748; 1530.225;    0.000;    0.000
284.812; 1665.225;    0.000;    0.000
284.877; 1820.225;    0.000;    0.000
284.942; 2037.225;    0.000;    0.000
285.007; 2493.225;    0.000;    0.000
285.072; 3192.225;    0.000;    0.000
285.137; 5134.225;    0.000;    0.000
285.202; 7945.225;    0.000;    0.000
285.267; 7794.225;    0.000;    0.000
285.332; 5294.225;    0.000;    0.000
285.397; 3589.225;    0.000;    0.000
285.462; 2720.225;    0.000;    0.000
285.527; 2398.225;    0.000;    0.000
285.591; 1968.225;    0.000;    0.000
285.656; 1800.225;    0.000;    0.000
285.721; 1758.225;    0.000;    0.000
285.786; 1581.225;    0.000;    0.000
285.851; 1618.225;    0.000;    0.000
285.916; 1549.225;    0.000;    0.000
285.981; 1443.225;    0.000;    0.000
286.045; 1412.225;    0.000;    0.000
286.110; 1378.225;    0.000;    0.000
286.175; 1378.225;    0.000;    0.000
286.240; 1392.225;    0.000;    0.000
286.305; 1333.225;    0.000;    0.000
286.369; 1297.225;    0.000;    0.000
286.434; 1330.225;    0.000;    0.000
286.499; 1254.225;    0.000;    0.000
286.564; 1305.225;    0.000;    0.000
286.628; 1202.225;    0.000;    0.000
286.693; 1304.225;    0.000;    0.000
286.758; 1266.225;    0.000;    0.000
286.823; 1238.225;    0.000;    0.000
286.887; 1200.225;    0.000;    0.000
286.952; 1150.225;    0.000;    0.000
287.017; 1239.225;    0.000;    0.000
287.082; 1186.225;    0.000;    0.000
287.146; 1194.225;    0.000;    0.000
287.211; 1175.225;    0.000;    0.000
287.276; 1168.225;    0.000;    0.000
287.340; 1209.225;    0.000;    0.000
287.405; 1128.225;    0.000;    0.000
287.470; 1192.225;    0.000;    0.000
287.534; 1189.225;    0.000;    0.000
287.599; 1199.225;    0.000;    0.000
287.663; 1178.225;    0.000;    0.000
287.728; 1157.225;    0.000;    0.000
287.793; 1197.225;    0.000;    0.000
287.857; 1176.225;    0.000;    0.000
287.922; 1129.225;    0.000;    0.000
287.987; 1174.225;    0.000;    0.000
288.051; 1162.225;    0.000;    0.000
288.116; 1180.225;    0.000;    0.000
288.180; 1153.225;    0.000;    0.000
288.245; 1146.225;    0.000;    0.000
288.309; 1170.225;    0.000;    0.000
288.374; 1186.225;    0.000;    0.000
288.439; 1167.225;    0.000;    0.000
288.503; 1096.225;    0.000;    0.000
288.568; 1158.225;    0.000;    0.000
288.632; 1154.225;    0.000;    0.000
288.697; 1132.225;    0.000;    0.000
288.761; 1197.225;    0.000;    0.000
288.826; 1117.225;    0.000;    0.000
288.890; 1198.225;    0.000;    0.000
288.955; 1170.225;    0.000;    0.000
289.019; 1189.225;    0.000;    0.000
289.084; 1096.225;    0.000;    0.000
289.148; 1146.225;    0.000;    0.000
289.212; 1144.225;    0.000;    0.000
289.277; 1164.225;    0.000;    0.000
289.341; 1138.225;    0.000;    0.000
289.406; 1125.225;    0.000;    0.000
289.470; 1112.225;    0.000;    0.000
289.535; 1151.225;    0.000;    0.000
289.599; 1177.225;    0.000;    0.000
289.663; 1182.225;    0.000;    0.000
289.728; 1140.225;    0.000;    0.000
289.792; 1165.225;    0.000;    0.000
289.857; 1107.225;    0.000;    0.000
289.921; 1072.225;    0.000;    0.000
289.985; 1158.225;    0.000;    0.000
290.050; 1143.225;    0.000;    0.000
290.114; 1078.225;    0.000;    0.000
290.178; 1161.225;    0.000;    0.000
290.243; 1129.225;    0.000;    0.000
290.307; 1084.225;    0.000;    0.000
290.371; 1209.225;    0.000;    0.000
290.436; 1186.225;    0.000;    0.000
290.500; 1120.225;    0.000;    0.000
290.564; 1126.225;    0.000;    0.000
290.629; 1095.225;    0.000;    0.000
290.693; 1154.225;    0.000;    0.000
290.757; 1218.225;    0.000;    0.000
290.821; 1155.225;    0.000;    0.000
290.886; 1142.225;    0.000;    0.000
290.950; 1143.225;    0.000;    0.000
291.014; 1214.225;    0.000;    0.000
291.078; 1204.225;    0.000;    0.000
291.143; 1193.225;    0.000;    0.000
291.207; 1274.225;    0.000;    0.000
291.271; 1195.225;    0.000;    0.000
291.335; 1210.225;    0.000;    0.000
291.399; 1261.225;    0.000;    0.000
291.464; 1326.225;    0.000;    0.000
291.528; 1480.225;    0.000;    0.000
291.592; 1481.225;    0.000;    0.000
291.656; 1308.225;    0.000;    0.000
291.720; 1312.225;    0.000;    0.000
291.784; 1306.225;    0.000;    0.000
291.849; 1365.225;    0.000;    0.000
291.913; 1302.225;    0.000;    0.000
291.977; 1313.225;    0.000;    0.000
292.041; 1443.225;    0.000;    0.000
292.105; 1320.225;    0.000;    0.000
292.169; 1326.225;    0.000;    0.000
292.233; 1398.225;    0.000;    0.000
292.297; 1438.225;    0.000;    0.000
292.361; 1479.225;    0.000;    0.000
292.425; 1483.225;    0.000;    0.000
292.490; 1524.225;    0.000;    0.000
292.554; 1504.225;    0.000;    0.000
292.618; 1630.225;    0.000;    0.000
292.682; 1777.225;    0.000;    0.000
292.746; 2009.225;    0.000;    0.000
292.810; 2693.225;    0.000;    0.000
292.874; 3763.225;    0.000;    0.000
292.938; 4076.225;    0.000;    0.000
293.002; 3498.225;    0.000;    0.000
293.066; 3100.225;    0.000;    0.000
293.130; 2906.225;    0.000;    0.000
293.194; 2613.225;    0.000;    0.000
293.258; 2559.225;    0.000;    0.000
293.322; 2532.225;    0.000;    0.000
293.386; 2553.225;    0.000;    0.000
293.450; 2652.225;    0.000;    0.000
293.514; 2908.225;    0.000;    0.000
293.577; 3813.225;    0.000;    0.000
293.641; 5755.225;    0.000;    0.000
293.705; 6800.225;    0.000;    0.000
293.769; 6119.225;    0.000;    0.000
293.833; 5095.225;    0.000;    0.000
293.897; 4324.225;    0.000;    0.000
293.961; 3705.225;    0.000;    0.000
294.025; 3383.225;    0.000;    0.000
294.089; 3147.225;    0.000;    0.000
294.152; 2835.225;    0.000;    0.000
294.216; 2545.225;    0.000;    0.000
294.280; 2444.225;    0.000;    0.000
294.344; 2367.225;    0.000;    0.000
294.408; 2281.225;    0.000;    0.000
294.472; 2033.225;    0.000;    0.000
294.536; 1956.225;    0.000;    0.000
294.599; 1981.225;    0.000;    0.000
294.663; 1873.225;    0.000;    0.000
294.727; 1876.225;    0.000;    0.000
294.791; 1714.225;    0.000;    0.000
294.855; 1765.225;    0.000;    0.000
294.918; 1762.225;    0.000;    0.000
294.982; 1682.225;    0.000;    0.000
295.046; 1681.225;    0.000;    0.000
295.110; 1682.225;    0.000;    0.000
295.173; 1584.225;    0.000;    0.000
295.237; 1522.225;    0.000;    0.000
295.301; 1518.225;    0.000;    0.000
295.364; 1608.225;    0.000;    0.000
295.428; 1566.225;    0.000;    0.000
295.492; 1513.225;    0.000;    0.000
295.556; 1556.225;    0.000;    0.000
295.619; 1516.225;    0.000;    0.000
295.683; 1481.225;    0.000;    0.000
295.747; 1522.225;    0.000;    0.000
295.810; 1506.225;    0.000;    0.000
295.874; 1463.225;    0.000;    0.000
295.938; 1449.225;    0.000;    0.000
296.001; 1386.225;    0.000;    0.000
296.065; 1362.225;    0.000;    0.000
296.128; 1358.225;    0.000;    0.000
296.192; 1365.225;    0.000;    0.000
296.256; 1322.225;    0.000;    0.000
296.319; 1368.225;    0.000;    0.000
296.383; 1430.225;    0.000;    0.000
296.447; 1438.225;    0.000;    0.000
296.510; 1394.225;    0.000;    0.000
296.574; 1324.225;    0.000;    0.000
296.637; 1341.225;    0.000;    0.000
296.701; 1362.225;    0.000;    0.000
296.764; 1378.225;    0.000;    0.000
296.828; 1362.225;    0.000;    0.000
296.891; 1341.225;    0.000;    0.000
296.955; 1350.225;    0.000;    0.000
297.018; 1348.225;    0.000;    0.000
297.082; 1398.225;    0.000;    0.000
297.145; 1320.225;    0.000;    0.000
297.209; 1352.225;    0.000;    0.000
297.272; 1304.225;    0.000;    0.000
297.336; 1361.225;    0.000;    0.000
297.399; 1354.225;    0.000;    0.000
297.463; 1399.225;    0.000;    0.000
297.526; 1345.225;    0.000;    0.000
297.590; 1293.225;    0.000;    0.000
297.653; 1386.225;    0.000;    0.000
297.717; 1328.225;    0.000;    0.000
297.780; 1313.225;    0.000;    0.000
297.843; 1314.225;    0.000;    0.000
297.907; 1388.225;    0.000;    0.000
297.970; 1288.225;    0.000;    0.000
298.034; 1305.225;    0.000;    0.000
298.097; 1378.225;    0.000;    0.000
298.160; 1312.225;    0.000;    0.000
298.224; 1357.225;    0.000;    0.000
298.287; 1405.225;    0.000;    0.000
298.350; 1410.225;    0.000;    0.000
298.414; 1372.225;    0.000;    0.000
298.477; 1269.225;    0.000;    0.000
298.540; 1328.225;    0.000;    0.000
298.604; 1318.225;    0.000;    0.000
298.667; 1292.225;    0.000;    0.000
298.730; 1255.225;    0.000;    0.000
298.794; 1316.225;    0.000;    0.000
298.857; 1265.225;    0.000;    0.000
298.920; 1326.225;    0.000;    0.000
298.984; 1361.225;    0.000;    0.000
299.047; 1367.225;    0.000;    0.000
299.110; 1339.225;    0.000;    0.000
299.173; 1286.225;    0.000;    0.000
299.237; 1302.225;    0.000;    0.000
299.300; 1334.225;    0.000;    0.000
299.363; 1235.225;    0.000;    0.000
299.426; 1273.225;    0.000;    0.000
299.489; 1284.225;    0.000;    0.000
299.553; 1262.225;    0.000;    0.000
299.616; 1282.225;    0.000;    0.000
299.679; 1325.225;    0.000;    0.000
299.742; 1340.225;    0.000;    0.000
299.805; 1255.225;    0.000;    0.000
299.868; 1278.225;    0.000;    0.000
299.932; 1204.225;    0.000;    0.000
299.995; 1272.225;    0.000;    0.000
300.058; 1283.225;    0.000;    0.000
300.121; 1265.225;    0.000;    0.000
300.184; 1276.225;    0.000;    0.000
300.247; 1283.225;    0.000;    0.000
300.310; 1271.225;    0.000;    0.000
300.374; 1263.225;    0.000;    0.000
300.437; 1300.225;    0.000;    0.000
300.500; 1263.225;    0.000;    0.000
300.563; 1217.225;    0.000;    0.000
300.626; 1279.225;    0.000;    0.000
300.689; 1279.225;    0.000;    0.000
300.752; 1279.225;    0.000;    0.000
300.815; 1321.225;    0.000;    0.000
300.878; 1228.225;    0.000;    0.000
300.941; 1315.225;    0.000;    0.000
301.004; 1337.225;    0.000;    0.000
301.067; 1247.225;    0.000;    0.000
301.130; 1224.225;    0.000;    0.000
301.193; 1283.225;    0.000;    0.000
301.256; 1253.225;    0.000;    0.000
301.319; 1258.225;    0.000;    0.000
301.382; 1281.225;    0.000;    0.000
301.445; 1319.225;    0.000;    0.000
301.508; 1303.225;    0.000;    0.000
301.571; 1238.225;    0.000;    0.000
301.634; 1222.225;    0.000;    0.000
301.697; 1272.225;    0.000;    0.000
301.760; 1313.225;    0.000;    0.000
301.823; 1341.225;    0.000;    0.000
301.885; 1322.225;    0.000;    0.000
301.948; 1280.225;    0.000;    0.000
302.011; 1321.225;    0.000;    0.000
302.074; 1338.225;    0.000;    0.000
302.137; 1280.225;    0.000;    0.000
302.200; 1288.225;    0.000;    0.000
302.263; 1289.225;    0.000;    0.000
302.326; 1242.225;    0.000;    0.000
302.388; 1302.225;    0.000;    0.000
302.451; 1273.225;    0.000;    0.000
302.514; 1333.225;    0.000;    0.000
302.577; 1308.225;    0.000;    0.000
302.640; 1312.225;    0.000;    0.000
302.703; 1284.225;    0.000;    0.000
302.765; 1324.225;    0.000;    0.000
302.828; 1312.225;    0.000;    0.000
302.891; 1327.225;    0.000;    0.000
302.954; 1313.225;    0.000;    0.000
303.016; 1255.225;    0.000;    0.000
303.079; 1345.225;    0.000;    0.000
303.142; 1297.225;    0.000;    0.000
303.205; 1301.225;    0.000;    0.000
303.267; 1260.225;    0.000;    0.000
303.330; 1307.225;    0.000;    0.000
303.393; 1282.225;    0.000;    0.000
303.456; 1338.225;    0.000;    0.000
303.518; 1274.225;    0.000;    0.000
303.581; 1303.225;    0.000;    0.000
303.644; 1285.225;    0.000;    0.000
303.706; 1348.225;    0.000;    0.000
303.769; 1372.225;    0.000;    0.000
303.832; 1350.225;    0.000;    0.000
303.894; 1337.225;    0.000;    0.000
303.957; 1328.225;    0.000;    0.000
304.020; 1327.225;    0.000;    0.000
304.082; 1331.225;    0.000;    0.000
304.145; 1382.225;    0.000;    0.000
304.207; 1422.225;    0.000;    0.000
304.270; 1429.225;    0.000;    0.000
304.333; 1387.225;    0.000;    0.000
304.395; 1381.225;    0.000;    0.000
304.458; 1368.225;    0.000;    0.000
304.520; 1422.225;    0.000;    0.000
304.583; 1432.225;    0.000;    0.000
304.646; 1303.225;    0.000;    0.000
304.708; 1352.225;    0.000;    0.000
304.771; 1405.225;    0.000;    0.000
304.833; 1452.225;    0.000;    0.000
304.896; 1415.225;    0.000;    0.000
304.958; 1419.225;    0.000;    0.000
305.021; 1417.225;    0.000;    0.000
305.083; 1428.225;    0.000;    0.000
305.146; 1405.225;    0.000;    0.000
305.208; 1393.225;    0.000;    0.000
305.271; 1339.225;    0.000;    0.000
305.333; 1378.225;    0.000;    0.000
305.396; 1419.225;    0.000;    0.000
305.458; 1448.225;    0.000;    0.000
305.520; 1472.225;    0.000;    0.000
305.583; 1447.225;    0.000;    0.000
305.645; 1456.225;    0.000;    0.000
305.708; 1387.225;    0.000;    0.000
305.770; 1461.225;    0.000;    0.000
305.833; 1527.225;    0.000;    0.000
305.895; 1471.225;    0.000;    0.000
305.957; 1419.225;    0.000;    0.000
306.020; 1441.225;    0.000;    0.000
306.082; 1456.225;    0.000;    0.000
306.144; 1427.225;    0.000;    0.000
306.207; 1465.225;    0.000;    0.000
306.269; 1513.225;    0.000;    0.000
306.331; 1480.225;    0.000;    0.000
306.394; 1459.225;    0.000;    0.000
306.456; 1409.225;    0.000;    0.000
306.518; 1464.225;    0.000;    0.000
306.581; 1434.225;    0.000;    0.000
306.643; 1473.225;    0.000;    0.000
306.705; 1509.225;    0.000;    0.000
306.768; 1540.225;    0.000;    0.000
306.830; 1509.225;    0.000;    0.000
306.892; 1548.225;    0.000;    0.000
306.954; 1514.225;    0.000;    0.000
307.017; 1494.225;    0.000;    0.000
307.079; 1605.225;    0.000;    0.000
307.141; 1488.225;    0.000;    0.000
307.203; 1577.225;    0.000;    0.000
307.266; 1554.225;    0.000;    0.000
307.328; 1612.225;    0.000;    0.000
307.390; 1652.225;    0.000;    0.000
307.452; 1549.225;    0.000;    0.000
307.514; 1654.225;    0.000;    0.000
307.577; 1638.225;    0.000;    0.000
307.639; 1523.225;    0.000;    0.000
307.701; 1581.225;    0.000;    0.000
307.763; 1540.225;    0.000;    0.000
307.825; 1550.225;    0.000;    0.000
307.887; 1622.225;    0.000;    0.000
307.949; 1591.225;    0.000;    0.000
308.012; 1614.225;    0.000;    0.000
308.074; 1655.225;    0.000;    0.000
308.136; 1636.225;    0.000;    0.000
308.198; 1626.225;    0.000;    0.000
308.260; 1623.225;    0.000;    0.000
308.322; 1688.225;    0.000;    0.000
308.384; 1681.225;    0.000;    0.000
308.446; 1659.225;    0.000;    0.000
308.508; 1680.225;    0.000;    0.000
308.570; 1697.225;    0.000;    0.000
308.632; 1709.225;    0.000;    0.000
308.694; 1666.225;    0.000;    0.000
308.756; 1699.225;    0.000;    0.000
308.818; 1777.225;    0.000;    0.000
308.880; 1696.225;    0.000;    0.000
308.942; 1772.225;    0.000;    0.000
309.004; 1788.225;    0.000;    0.000
309.066; 1813.225;    0.000;    0.000
309.128; 1904.225;    0.000;    0.000
309.190; 1891.225;    0.000;    0.000
309.252; 2053.225;    0.000;    0.000
309.314; 1973.225;    0.000;    0.000
309.376; 2018.225;    0.000;    0.000
309.438; 2007.225;    0.000;    0.000
309.500; 2033.225;    0.000;    0.000
309.562; 1966.225;    0.000;    0.000
309.624; 2014.225;    0.000;    0.000
309.686; 2118.225;    0.000;    0.000
309.747; 2101.225;    0.000;    0.000
309.809; 2002.225;    0.000;    0.000
309.871; 1970.225;    0.000;    0.000
309.933; 1958.225;    0.000;    0.000
309.995; 1964.225;    0.000;    0.000
310.057; 1960.225;    0.000;    0.000
310.119; 1948.225;    0.000;    0.000
310.180; 1818.225;    0.000;    0.000
310.242; 1852.225;    0.000;    0.000
310.304; 1821.225;    0.000;    0.000
310.366; 1851.225;    0.000;    0.000
310.428; 1763.225;    0.000;    0.000
310.489; 1838.225;    0.000;    0.000
310.551; 1781.225;    0.000;    0.000
310.613; 1814.225;    0.000;    0.000
310.675; 1875.225;    0.000;    0.000
310.737; 1731.225;    0.000;    0.000
310.798; 1792.225;    0.000;    0.000
310.860; 1754.225;    0.000;    0.000
310.922; 1750.225;    0.000;    0.000
310.983; 1775.225;    0.000;    0.000
311.045; 1793.225;    0.000;    0.000
311.107; 1725.225;    0.000;    0.000
311.169; 1726.225;    0.000;    0.000
311.230; 1762.225;    0.000;    0.000
311.292; 1741.225;    0.000;    0.000
311.354; 1832.225;    0.000;    0.000
311.415; 1804.225;    0.000;    0.000
311.477; 1792.225;    0.000;    0.000
311.539; 1756.225;    0.000;    0.000
311.600; 1734.225;    0.000;    0.000
311.662; 1799.225;    0.000;    0.000
311.724; 1727.225;    0.000;    0.000
311.785; 1793.225;    0.000;    0.000
311.847; 1761.225;    0.000;    0.000
311.908; 1636.225;    0.000;    0.000
311.970; 1759.225;    0.000;    0.000
312.032; 1703.225;    0.000;    0.000
312.093; 1756.225;    0.000;    0.000
312.155; 1752.225;    0.000;    0.000
312.216; 1735.225;    0.000;    0.000
312.278; 1779.225;    0.000;    0.000
312.339; 1657.225;    0.000;    0.000
312.401; 1825.225;    0.000;    0.000
312.462; 1661.225;    0.000;    0.000
312.524; 1667.225;    0.000;    0.000
312.585; 1745.225;    0.000;    0.000
312.647; 1706.225;    0.000;    0.000
312.708; 1644.225;    0.000;    0.000
312.770; 1712.225;    0.000;    0.000
312.831; 1799.225;    0.000;    0.000
312.893; 1762.225;    0.000;    0.000
312.954; 1868.225;    0.000;    0.000
313.016; 1825.225;    0.000;    0.000
313.077; 1785.225;    0.000;    0.000
313.139; 1721.225;    0.000;    0.000
313.200; 1744.225;    0.000;    0.000
313.261; 1841.225;    0.000;    0.000
313.323; 1792.225;    0.000;    0.000
313.384; 1820.225;    0.000;    0.000
313.446; 1842.225;    0.000;    0.000
313.507; 1789.225;    0.000;    0.000
313.568; 1798.225;    0.000;    0.000
313.630; 1729.225;    0.000;    0.000
313.691; 1795.225;    0.000;    0.000
313.752; 1784.225;    0.000;    0.000
313.814; 1728.225;    0.000;    0.000
313.875; 1824.225;    0.000;    0.000
313.936; 1810.225;    0.000;    0.000
313.998; 1777.225;    0.000;    0.000
314.059; 1805.225;    0.000;    0.000
314.120; 1771.225;    0.000;    0.000
314.182; 1827.225;    0.000;    0.000
314.243; 1836.225;    0.000;    0.000
314.304; 1794.225;    0.000;    0.000
314.365; 1880.225;    0.000;    0.000
314.427; 1853.225;    0.000;    0.000
314.488; 1811.225;    0.000;    0.000
314.549; 1847.225;    0.000;    0.000
314.610; 1778.225;    0.000;    0.000
314.672; 1827.225;    0.000;    0.000
314.733; 1810.225;    0.000;    0.000
314.794; 1793.225;    0.000;    0.000
314.855; 1799.225;    0.000;    0.000
314.917; 1736.225;    0.000;    0.000
314.978; 1793.225;    0.000;    0.000
315.039; 1828.225;    0.000;    0.000
315.100; 1800.225;    0.000;    0.000
315.161; 1799.225;    0.000;    0.000
315.222; 1881.225;    0.000;    0.000
315.283; 1792.225;    0.000;    0.000
315.345; 1815.225;    0.000;    0.000
315.406; 1895.225;    0.000;    0.000
315.467; 1815.225;    0.000;    0.000
315.528; 1888.225;    0.000;    0.000
315.589; 1887.225;    0.000;    0.000
315.650; 1843.225;    0.000;    0.000
315.711; 1817.225;    0.000;    0.000
315.772; 1819.225;    0.000;    0.000
315.833; 1803.225;    0.000;    0.000
315.894; 1813.225;    0.000;    0.000
315.955; 1817.225;    0.000;    0.000
316.016; 1898.225;    0.000;    0.000
316.078; 1795.225;    0.000;    0.000
316.139; 1829.225;    0.000;    0.000
316.200; 1770.225;    0.000;    0.000
316.261; 1884.225;    0.000;    0.000
316.322; 1806.225;    0.000;    0.000
316.383; 1841.225;    0.000;    0.000
316.444; 1882.225;    0.000;    0.000
316.504; 1884.225;    0.000;    0.000
316.565; 1811.225;    0.000;    0.000
316.626; 1878.225;    0.000;    0.000
316.687; 1802.225;    0.000;    0.000
316.748; 1900.225;    0.000;    0.000
316.809; 1801.225;    0.000;    0.000
316.870; 1897.225;    0.000;    0.000
316.931; 1906.225;    0.000;    0.000
316.992; 1890.225;    0.000;    0.000
317.053; 1819.225;    0.000;    0.000
317.114; 1898.225;    0.000;    0.000
317.175; 1930.225;    0.000;    0.000
317.235; 1998.225;    0.000;    0.000
317.296; 1896.225;    0.000;    0.000
317.357; 1891.225;    0.000;    0.000
317.418; 1868.225;    0.000;    0.000
317.479; 1938.225;    0.000;    0.000
317.540; 1918.225;    0.000;    0.000
317.601; 1801.225;    0.000;    0.000
317.661; 1785.225;    0.000;    0.000
317.722; 1885.225;    0.000;    0.000
317.783; 1896.225;    0.000;    0.000
317.844; 1872.225;    0.000;    0.000
317.904; 1824.225;    0.000;    0.000
317.965; 1782.225;    0.000;    0.000
318.026; 1852.225;    0.000;    0.000
318.087; 1873.225;    0.000;    0.000
318.148; 1825.225;    0.000;    0.000
318.208; 1885.225;    0.000;    0.000
318.269; 1872.225;    0.000;    0.000
318.330; 1929.225;    0.000;    0.000
318.390; 1888.225;    0.000;    0.000
318.451; 1950.225;    0.000;    0.000
318.512; 1942.225;    0.000;    0.000
318.572; 1935.225;    0.000;    0.000
318.633; 1976.225;    0.000;    0.000
318.694; 1891.225;    0.000;    0.000
318.754; 1892.225;    0.000;    0.000
318.815; 1924.225;    0.000;    0.000
318.876; 1855.225;    0.000;    0.000
318.936; 1823.225;    0.000;    0.000
318.997; 1825.225;    0.000;    0.000
319.058; 1929.225;    0.000;    0.000
319.118; 1863.225;    0.000;    0.000
319.179; 1879.225;    0.000;    0.000
319.239; 1907.225;    0.000;    0.000
319.300; 1888.225;    0.000;    0.000
319.361; 1878.225;    0.000;    0.000
319.421; 1859.225;    0.000;    0.000
319.482; 1913.225;    0.000;    0.000
319.542; 1811.225;    0.000;    0.000
319.603; 1775.225;    0.000;    0.000
319.663; 1894.225;    0.000;    0.000
319.724; 1819.225;    0.000;    0.000
319.784; 1864.225;    0.000;    0.000
319.845; 1901.225;    0.000;    0.000
319.905; 1873.225;    0.000;    0.000
319.966; 1884.225;    0.000;    0.000
320.026; 1935.225;    0.000;    0.000
320.087; 1865.225;    0.000;    0.000
320.147; 1878.225;    0.000;    0.000
320.208; 1934.225;    0.000;    0.000
320.268; 1905.225;    0.000;    0.000
320.329; 1899.225;    0.000;    0.000
320.389; 1928.225;    0.000;    0.000
320.449; 1938.225;    0.000;    0.000
320.510; 1912.225;    0.000;    0.000
320.570; 1916.225;    0.000;    0.000
320.631; 1913.225;    0.000;    0.000
320.691; 1827.225;    0.000;    0.000
320.751; 1842.225;    0.000;    0.000
320.812; 1887.225;    0.000;    0.000
320.872; 1971.225;    0.000;    0.000
320.932; 1906.225;    0.000;    0.000
320.993; 1965.225;    0.000;    0.000
321.053; 1918.225;    0.000;    0.000
321.113; 1925.225;    0.000;    0.000
321.174; 1989.225;    0.000;    0.000
321.234; 1976.225;    0.000;    0.000
321.294; 1910.225;    0.000;    0.000
321.355; 1912.225;    0.000;    0.000
321.415; 1958.225;    0.000;    0.000
321.475; 1932.225;    0.000;    0.000
321.535; 1915.225;    0.000;    0.000
321.596; 1946.225;    0.000;    0.000
321.656; 1923.225;    0.000;    0.000
321.716; 2000.225;    0.000;    0.000
321.776; 1997.225;    0.000;    0.000
321.837; 1953.225;    0.000;    0.000
321.897; 1914.225;    0.000;    0.000
321.957; 1977.225;    0.000;    0.000
322.017; 1841.225;    0.000;    0.000
322.077; 1992.225;    0.000;    0.000
322.138; 2084.225;    0.000;    0.000
322.198; 1990.225;    0.000;    0.000
322.258; 2034.225;    0.000;    0.000
322.318; 1948.225;    0.000;    0.000
322.378; 2047.225;    0.000;    0.000
322.438; 1909.225;    0.000;    0.000
322.499; 1962.225;    0.000;    0.000
322.559; 1968.225;    0.000;    0.000
322.619; 1977.225;    0.000;    0.000
322.679; 1971.225;    0.000;    0.000
322.739; 1928.225;    0.000;    0.000
322.799; 1904.225;    0.000;    0.000
322.859; 2017.225;    0.000;    0.000
322.919; 1966.225;    0.000;    0.000
322.979; 1929.225;    0.000;    0.000
323.039; 1973.225;    0.000;    0.000
323.099; 2009.225;    0.000;    0.000
323.159; 1936.225;    0.000;    0.000
323.219; 1952.225;    0.000;    0.000
323.279; 2098.225;    0.000;    0.000
323.339; 2042.225;    0.000;    0.000
323.399; 2104.225;    0.000;    0.000
323.459; 1987.225;    0.000;    0.000
323.519; 2165.225;    0.000;    0.000
323.579; 2064.225;    0.000;    0.000
323.639; 2102.225;    0.000;    0.000
323.699; 2083.225;    0.000;    0.000
323.759; 2085.225;    0.000;    0.000
323.819; 2048.225;    0.000;    0.000
323.879; 2113.225;    0.000;    0.000
323.939; 2054.225;    0.000;    0.000
323.999; 2067.225;    0.000;    0.000
324.059; 2050.225;    0.000;    0.000
324.119; 2019.225;    0.000;    0.000
324.178; 1960.225;    0.000;    0.000
324.238; 2020.225;    0.000;    0.000
324.298; 2023.225;    0.000;    0.000
324.358; 2018.225;    0.000;    0.000
324.418; 2081.225;    0.000;    0.000
324.478; 1951.225;    0.000;    0.000
324.538; 1919.225;    0.000;    0.000
324.597; 1989.225;    0.000;    0.000
324.657; 1992.225;    0.000;    0.000
324.717; 2074.225;    0.000;    0.000
324.777; 2019.225;    0.000;    0.000
324.837; 1929.225;    0.000;    0.000
324.896; 1982.225;    0.000;    0.000
324.956; 1999.225;    0.000;    0.000
325.016; 1940.225;    0.000;    0.000
325.076; 2015.225;    0.000;    0.000
325.135; 2044.225;    0.000;    0.000
325.195; 2012.225;    0.000;    0.000
325.255; 1921.225;    0.000;    0.000
325.315; 2021.225;    0.000;    0.000
325.374; 1941.225;    0.000;    0.000
325.434; 1999.225;    0.000;    0.000
325.494; 2005.225;    0.000;    0.000
325.553; 2084.225;    0.000;    0.000
325.613; 2014.225;    0.000;    0.000
325.673; 1976.225;    0.000;    0.000
325.732; 1991.225;    0.000;    0.000
325.792; 1934.225;    0.000;    0.000
325.852; 1971.225;    0.000;    0.000
325.911; 1922.225;    0.000;    0.000
325.971; 1973.225;    0.000;    0.000
326.031; 1963.225;    0.000;    0.000
326.090; 1960.225;    0.000;    0.000
326.150; 1987.225;    0.000;    0.000
326.209; 1958.225;    0.000;    0.000
326.269; 2066.225;    0.000;    0.000
326.328; 1963.225;    0.000;    0.000
326.388; 1987.225;    0.000;    0.000
326.448; 2089.225;    0.000;    0.000
326.507; 2078.225;    0.000;    0.000
326.567; 1964.225;    0.000;    0.000
326.626; 1987.225;    0.000;    0.000
326.686; 1967.225;    0.000;    0.000
326.745; 1840.225;    0.000;    0.000
326.805; 1946.225;    0.000;    0.000
326.864; 1971.225;    0.000;    0.000
326.924; 2059.225;    0.000;    0.000
326.983; 2011.225;    0.000;    0.000
327.043; 2053.225;    0.000;    0.000
327.102; 2078.225;    0.000;    0.000
327.161; 2037.225;    0.000;    0.000
327.221; 2071.225;    0.000;    0.000
327.280; 2013.225;    0.000;    0.000
327.340; 2006.225;    0.000;    0.000
327.399; 2084.225;    0.000;    0.000
327.459; 1976.225;    0.000;    0.000
327.518; 2051.225;    0.000;    0.000
327.577; 2024.225;    0.000;    0.000
327.637; 2062.225;    0.000;    0.000
327.696; 1991.225;    0.000;    0.000
327.755; 2017.225;    0.000;    0.000
327.815; 2007.225;    0.000;    0.000
327.874; 2061.225;    0.000;    0.000
327.933; 2068.225;    0.000;    0.000
327.993; 2067.225;    0.000;    0.000
328.052; 1970.225;    0.000;    0.000
328.111; 2091.225;    0.000;    0.000
328.171; 2018.225;    0.000;    0.000
328.230; 2037.225;    0.000;    0.000
328.289; 2131.225;    0.000;    0.000
328.349; 2064.225;    0.000;    0.000
328.408; 2075.225;    0.000;    0.000
328.467; 2044.225;    0.000;    0.000
328.526; 2108.225;    0.000;    0.000
328.586; 2041.225;    0.000;    0.000
328.645; 2161.225;    0.000;    0.000
328.704; 2041.225;    0.000;    0.000
328.763; 1971.225;    0.000;    0.000
328.822; 1999.225;    0.000;    0.000
328.882; 2126.225;    0.000;    0.000
328.941; 2056.225;    0.000;    0.000
329.000; 2082.225;    0.000;    0.000
329.059; 2127.225;    0.000;    0.000
329.118; 2055.225;    0.000;    0.000
329.177; 2000.225;    0.000;    0.000
329.237; 2075.225;    0.000;    0.000
329.296; 2082.225;    0.000;    0.000
329.355; 2093.225;    0.000;    0.000
329.414; 2109.225;    0.000;    0.000
329.473; 2143.225;    0.000;    0.000
329.532; 2033.225;    0.000;    0.000
329.591; 2086.225;    0.000;    0.000
329.650; 2100.225;    0.000;    0.000
329.709; 2192.225;    0.000;    0.000
329.768; 2201.225;    0.000;    0.000
329.827; 2262.225;    0.000;    0.000
329.886; 2348.225;    0.000;    0.000
329.945; 2459.225;    0.000;    0.000
330.004; 2379.225;    0.000;    0.000
330.063; 2416.225;    0.000;    0.000
330.122; 2568.225;    0.000;    0.000
330.181; 2721.225;    0.000;    0.000
330.240; 2649.225;    0.000;    0.000
330.299; 2587.225;    0.000;    0.000
330.358; 2419.225;    0.000;    0.000
330.417; 2361.225;    0.000;    0.000
330.476; 2280.225;    0.000;    0.000
330.535; 2290.225;    0.000;    0.000
330.594; 2251.225;    0.000;    0.000
330.653; 2163.225;    0.000;    0.000
330.712; 2052.225;    0.000;    0.000
330.771; 2115.225;    0.000;    0.000
330.830; 2162.225;    0.000;    0.000
330.889; 2213.225;    0.000;    0.000
330.948; 2213.225;    0.000;    0.000
331.006; 2099.225;    0.000;    0.000
331.065; 2073.225;    0.000;    0.000
331.124; 2184.225;    0.000;    0.000
331.183; 2046.225;    0.000;    0.000
331.242; 2092.225;    0.000;    0.000
331.301; 2031.225;    0.000;    0.000
331.359; 2058.225;    0.000;    0.000
331.418; 2077.225;    0.000;    0.000
331.477; 2060.225;    0.000;    0.000
331.536; 2091.225;    0.000;    0.000
331.595; 2037.225;    0.000;    0.000
331.653; 2016.225;    0.000;    0.000
331.712; 2034.225;    0.000;    0.000
331.771; 2013.225;    0.000;    0.000
331.830; 2123.225;    0.000;    0.000
331.888; 2072.225;    0.000;    0.000
331.947; 2013.225;    0.000;    0.000
332.006; 2108.225;    0.000;    0.000
332.065; 1986.225;    0.000;    0.000
332.123; 2119.225;    0.000;    0.000
332.182; 2119.225;    0.000;    0.000
332.241; 2132.225;    0.000;    0.000
332.299; 2071.225;    0.000;    0.000
332.358; 2078.225;    0.000;    0.000
332.417; 2135.225;    0.000;    0.000
332.475; 2091.225;    0.000;    0.000
332.534; 2043.225;    0.000;    0.000
332.592; 2125.225;    0.000;    0.000
332.651; 2158.225;    0.000;    0.000
332.710; 2079.225;    0.000;    0.000
332.768; 2149.225;    0.000;    0.000
332.827; 2111.225;    0.000;    0.000
332.885; 2126.225;    0.000;    0.000
332.944; 2038.225;    0.000;    0.000
333.003; 2131.225;    0.000;    0.000
333.061; 2070.225;    0.000;    0.000
333.120; 2189.225;    0.000;    0.000
333.178; 2308.225;    0.000;    0.000
333.237; 2314.225;    0.000;    0.000
333.295; 2253.225;    0.000;    0.000
333.354; 2204.225;    0.000;    0.000
333.412; 2212.225;    0.000;    0.000
333.471; 2337.225;    0.000;    0.000
333.529; 2396.225;    0.000;    0.000
333.588; 2346.225;    0.000;    0.000
333.646; 2383.225;    0.000;    0.000
333.705; 2541.225;    0.000;    0.000
333.763; 2550.225;    0.000;    0.000
333.822; 2407.225;    0.000;    0.000
333.880; 2376.225;    0.000;    0.000
333.938; 2379.225;    0.000;    0.000
333.997; 2410.225;    0.000;    0.000
334.055; 2394.225;    0.000;    0.000
334.114; 2367.225;    0.000;    0.000
334.172; 2259.225;    0.000;    0.000
334.230; 2269.225;    0.000;    0.000
334.289; 2226.225;    0.000;    0.000
334.347; 2330.225;    0.000;    0.000
334.405; 2393.225;    0.000;    0.000
334.464; 2261.225;    0.000;    0.000
334.522; 2238.225;    0.000;    0.000
334.580; 2278.225;    0.000;    0.000
334.639; 2298.225;    0.000;    0.000
334.697; 2256.225;    0.000;    0.000
334.755; 2254.225;    0.000;    0.000
334.814; 2310.225;    0.000;    0.000
334.872; 2228.225;    0.000;    0.000
334.930; 2208.225;    0.000;    0.000
334.988; 2195.225;    0.000;    0.000
335.047; 2142.225;    0.000;    0.000
335.105; 2302.225;    0.000;    0.000
335.163; 2239.225;    0.000;    0.000
335.221; 2343.225;    0.000;    0.000
335.280; 2319.225;    0.000;    0.000
335.338; 2336.225;    0.000;    0.000
335.396; 2262.225;    0.000;    0.000
335.454; 2179.225;    0.000;    0.000
335.512; 2173.225;    0.000;    0.000
335.570; 2243.225;    0.000;    0.000
335.629; 2343.225;    0.000;    0.000
335.687; 2326.225;    0.000;    0.000
335.745; 2433.225;    0.000;    0.000
335.803; 2426.225;    0.000;    0.000
335.861; 2453.225;    0.000;    0.000
335.919; 2445.225;    0.000;    0.000
335.977; 2396.225;    0.000;    0.000
336.035; 2366.225;    0.000;    0.000
336.094; 2382.225;    0.000;    0.000
336.152; 2398.225;    0.000;    0.000
336.210; 2428.225;    0.000;    0.000
336.268; 2555.225;    0.000;    0.000
336.326; 2528.225;    0.000;    0.000
336.384; 2504.225;    0.000;    0.000
336.442; 2354.225;    0.000;    0.000
336.500; 2383.225;    0.000;    0.000
336.558; 2319.225;    0.000;    0.000
336.616; 2437.225;    0.000;    0.000
336.674; 2307.225;    0.000;    0.000
336.732; 2350.225;    0.000;    0.000
336.790; 2383.225;    0.000;    0.000
336.848; 2423.225;    0.000;    0.000
336.906; 2394.225;    0.000;    0.000
336.964; 2325.225;    0.000;    0.000
337.022; 2480.225;    0.000;    0.000
337.080; 2467.225;    0.000;    0.000
337.138; 2477.225;    0.000;    0.000
337.195; 2442.225;    0.000;    0.000
337.253; 2372.225;    0.000;    0.000
337.311; 2413.225;    0.000;    0.000
337.369; 2333.225;    0.000;    0.000
337.427; 2244.225;    0.000;    0.000
337.485; 2308.225;    0.000;    0.000
337.543; 2299.225;    0.000;    0.000
337.601; 2240.225;    0.000;    0.000
337.658; 2294.225;    0.000;    0.000
337.716; 2295.225;    0.000;    0.000
337.774; 2261.225;    0.000;    0.000
337.832; 2201.225;    0.000;    0.000
337.890; 2109.225;    0.000;    0.000
337.947; 2194.225;    0.000;    0.000
338.005; 2219.225;    0.000;    0.000
338.063; 2228.225;    0.000;    0.000
338.121; 2310.225;    0.000;    0.000
338.178; 2306.225;    0.000;    0.000
338.236; 2272.225;    0.000;    0.000
338.294; 2341.225;    0.000;    0.000
338.352; 2271.225;    0.000;    0.000
338.409; 2302.225;    0.000;    0.000
338.467; 2352.225;    0.000;    0.000
338.525; 2305.225;    0.000;    0.000
338.583; 2226.225;    0.000;    0.000
338.640; 2293.225;    0.000;    0.000
338.698; 2290.225;    0.000;    0.000
338.756; 2235.225;    0.000;    0.000
338.813; 2332.225;    0.000;    0.000
338.871; 2334.225;    0.000;    0.000
338.928; 2424.225;    0.000;    0.000
338.986; 2490.225;    0.000;    0.000
339.044; 2463.225;    0.000;    0.000
339.101; 2457.225;    0.000;    0.000
339.159; 2464.225;    0.000;    0.000
339.216; 2321.225;    0.000;    0.000
339.274; 2428.225;    0.000;    0.000
339.332; 2335.225;    0.000;    0.000
339.389; 2366.225;    0.000;    0.000
339.447; 2255.225;    0.000;    0.000
339.504; 2298.225;    0.000;    0.000
339.562; 2313.225;    0.000;    0.000
339.619; 2263.225;    0.000;    0.000
339.677; 2244.225;    0.000;    0.000
339.734; 2243.225;    0.000;    0.000
339.792; 2268.225;    0.000;    0.000
339.849; 2350.225;    0.000;    0.000
339.907; 2327.225;    0.000;    0.000
339.964; 2281.225;    0.000;    0.000
340.022; 2299.225;    0.000;    0.000
340.079; 2311.225;    0.000;    0.000
340.137; 2278.225;    0.000;    0.000
340.194; 2405.225;    0.000;    0.000
340.252; 2300.225;    0.000;    0.000
340.309; 2243.225;    0.000;    0.000
340.366; 2315.225;    0.000;    0.000
340.424; 2312.225;    0.000;    0.000
340.481; 2308.225;    0.000;    0.000
340.538; 2211.225;    0.000;    0.000
340.596; 2257.225;    0.000;    0.000
340.653; 2389.225;    0.000;    0.000
340.711; 2453.225;    0.000;    0.000
340.768; 2399.225;    0.000;    0.000
340.825; 2421.225;    0.000;    0.000
340.883; 2410.225;    0.000;    0.000
340.940; 2396.225;    0.000;    0.000
340.997; 2348.225;    0.000;    0.000
341.054; 2281.225;    0.000;    0.000
341.112; 2388.225;    0.000;    0.000
341.169; 2434.225;    0.000;    0.000
341.226; 2375.225;    0.000;    0.000
341.284; 2459.225;    0.000;    0.000
341.341; 2494.225;    0.000;    0.000
341.398; 2365.225;    0.000;    0.000
341.455; 2424.225;    0.000;    0.000
341.512; 2481.225;    0.000;    0.000
341.570; 2435.225;    0.000;    0.000
341.627; 2448.225;    0.000;    0.000
341.684; 2410.225;    0.000;    0.000
341.741; 2457.225;    0.000;    0.000
341.798; 2474.225;    0.000;    0.000
341.856; 2383.225;    0.000;    0.000
341.913; 2427.225;    0.000;    0.000
341.970; 2472.225;    0.000;    0.000
342.027; 2416.225;    0.000;    0.000
342.084; 2446.225;    0.000;    0.000
342.141; 2541.225;    0.000;    0.000
342.198; 2521.225;    0.000;    0.000
342.255; 2523.225;    0.000;    0.000
342.313; 2365.225;    0.000;    0.000
342.370; 2410.225;    0.000;    0.000
342.427; 2404.225;    0.000;    0.000
342.484; 2200.225;    0.000;    0.000
342.541; 2237.225;    0.000;    0.000
342.598; 2234.225;    0.000;    0.000
342.655; 2308.225;    0.000;    0.000
342.712; 2413.225;    0.000;    0.000
342.769; 2377.225;    0.000;    0.000
342.826; 2332.225;    0.000;    0.000
342.883; 2350.225;    0.000;    0.000
342.940; 2265.225;    0.000;    0.000
342.997; 2328.225;    0.000;    0.000
343.054; 2344.225;    0.000;    0.000
343.111; 2319.225;    0.000;    0.000
343.168; 2396.225;    0.000;    0.000
343.225; 2372.225;    0.000;    0.000
343.282; 2357.225;    0.000;    0.000
343.339; 2403.225;    0.000;    0.000
343.395; 2331.225;    0.000;    0.000
343.452; 2439.225;    0.000;    0.000
343.509; 2387.225;    0.000;    0.000
343.566; 2386.225;    0.000;    0.000
343.623; 2333.225;    0.000;    0.000
343.680; 2321.225;    0.000;    0.000
343.737; 2423.225;    0.000;    0.000
343.794; 2481.225;    0.000;    0.000
343.850; 2416.225;    0.000;    0.000
343.907; 2430.225;    0.000;    0.000
343.964; 2390.225;    0.000;    0.000
344.021; 2453.225;    0.000;    0.000
344.078; 2490.225;    0.000;    0.000
344.134; 2449.225;    0.000;    0.000
344.191; 2586.225;    0.000;    0.000
344.248; 2534.225;    0.000;    0.000
344.305; 2484.225;    0.000;    0.000
344.361; 2524.225;    0.000;    0.000
344.418; 2526.225;    0.000;    0.000
344.475; 2446.225;    0.000;    0.000
344.532; 2540.225;    0.000;    0.000
344.588; 2525.225;    0.000;    0.000
344.645; 2457.225;    0.000;    0.000
344.702; 2380.225;    0.000;    0.000
344.758; 2442.225;    0.000;    0.000
344.815; 2499.225;    0.000;    0.000
344.872; 2512.225;    0.000;    0.000
344.928; 2472.225;    0.000;    0.000
344.985; 2523.225;    0.000;    0.000
345.042; 2502.225;    0.000;    0.000
345.098; 2427.225;    0.000;    0.000
345.155; 2403.225;    0.000;    0.000
345.212; 2417.225;    0.000;    0.000
345.268; 2367.225;    0.000;    0.000
345.325; 2354.225;    0.000;    0.000
345.381; 2473.225;    0.000;    0.000
345.438; 2533.225;    0.000;    0.000
345.495; 2538.225;    0.000;    0.000
345.551; 2631.225;    0.000;    0.000
345.608; 2440.225;    0.000;    0.000
345.664; 2478.225;    0.000;    0.000
345.721; 2472.225;    0.000;    0.000
345.777; 2426.225;    0.000;    0.000
345.834; 2465.225;    0.000;    0.000
345.890; 2409.225;    0.000;    0.000
345.947; 2442.225;    0.000;    0.000
346.003; 2545.225;    0.000;    0.000
346.060; 2384.225;    0.000;    0.000
346.116; 2382.225;    0.000;    0.000
346.173; 2324.225;    0.000;    0.000
346.229; 2274.225;    0.000;    0.000
346.285; 2400.225;    0.000;    0.000
346.342; 2405.225;    0.000;    0.000
346.398; 2438.225;    0.000;    0.000
346.455; 2525.225;    0.000;    0.000
346.511; 2486.225;    0.000;    0.000
346.567; 2555.225;    0.000;    0.000
346.624; 2538.225;    0.000;    0.000
346.680; 2536.225;    0.000;    0.000
346.737; 2518.225;    0.000;    0.000
346.793; 2624.225;    0.000;    0.000
346.849; 2595.225;    0.000;    0.000
346.906; 2546.225;    0.000;    0.000
346.962; 2777.225;    0.000;    0.000
347.018; 2716.225;    0.000;    0.000
347.074; 2689.225;    0.000;    0.000
347.131; 2591.225;    0.000;    0.000
347.187; 2702.225;    0.000;    0.000
347.243; 2662.225;    0.000;    0.000
347.300; 2499.225;    0.000;    0.000
347.356; 2622.225;    0.000;    0.000
347.412; 2551.225;    0.000;    0.000
347.468; 2452.225;    0.000;    0.000
347.524; 2412.225;    0.000;    0.000
347.581; 2419.225;    0.000;    0.000
347.637; 2442.225;    0.000;    0.000
347.693; 2391.225;    0.000;    0.000
347.749; 2569.225;    0.000;    0.000
347.805; 2447.225;    0.000;    0.000
347.862; 2477.225;    0.000;    0.000
347.918; 2500.225;    0.000;    0.000
347.974; 2423.225;    0.000;    0.000
348.030; 2480.225;    0.000;    0.000
348.086; 2497.225;    0.000;    0.000
348.142; 2422.225;    0.000;    0.000
348.198; 2491.225;    0.000;    0.000
348.254; 2429.225;    0.000;    0.000
348.311; 2429.225;    0.000;    0.000
348.367; 2416.225;    0.000;    0.000
348.423; 2352.225;    0.000;    0.000
348.479; 2365.225;    0.000;    0.000
348.535; 2490.225;    0.000;    0.000
348.591; 2486.225;    0.000;    0.000
348.647; 2523.225;    0.000;    0.000
348.703; 2513.225;    0.000;    0.000
348.759; 2456.225;    0.000;    0.000
348.815; 2482.225;    0.000;    0.000
348.871; 2504.225;    0.000;    0.000
348.927; 2413.225;    0.000;    0.000
348.983; 2512.225;    0.000;    0.000
349.039; 2635.225;    0.000;    0.000
349.095; 2468.225;    0.000;    0.000
349.151; 2531.225;    0.000;    0.000
349.207; 2466.225;    0.000;    0.000
349.263; 2499.225;    0.000;    0.000
349.319; 2451.225;    0.000;    0.000
349.374; 2431.225;    0.000;    0.000
349.430; 2497.225;    0.000;    0.000
349.486; 2498.225;    0.000;    0.000
349.542; 2645.225;    0.000;    0.000
349.598; 2565.225;    0.000;    0.000
349.654; 2439.225;    0.000;    0.000
349.710; 2594.225;    0.000;    0.000
349.766; 2468.225;    0.000;    0.000
349.821; 2540.225;    0.000;    0.000
349.877; 2488.225;    0.000;    0.000
349.933; 2485.225;    0.000;    0.000
349.989; 2424.225;    0.000;    0.000
350.045; 2583.225;    0.000;    0.000
350.100; 2503.225;    0.000;    0.000
350.156; 2451.225;    0.000;    0.000
350.212; 2456.225;    0.000;    0.000
350.268; 2501.225;    0.000;    0.000
350.323; 2475.225;    0.000;    0.000
350.379; 2489.225;    0.000;    0.000
350.435; 2511.225;    0.000;    0.000
350.491; 2413.225;    0.000;    0.000
350.546; 2434.225;    0.000;    0.000
350.602; 2439.225;    0.000;    0.000
350.658; 2468.225;    0.000;    0.000
350.713; 2435.225;    0.000;    0.000
350.769; 2464.225;    0.000;    0.000
350.825; 2430.225;    0.000;    0.000
350.880; 2431.225;    0.000;    0.000
350.936; 2485.225;    0.000;    0.000
350.992; 2483.225;    0.000;    0.000
351.047; 2473.225;    0.000;    0.000
351.103; 2448.225;    0.000;    0.000
351.158; 2463.225;    0.000;    0.000
351.214; 2450.225;    0.000;    0.000
351.270; 2389.225;    0.000;    0.000
351.325; 2492.225;    0.000;    0.000
351.381; 2373.225;    0.000;    0.000
351.436; 2449.225;    0.000;    0.000
351.492; 2484.225;    0.000;    0.000
351.547; 2566.225;    0.000;    0.000
351.603; 2635.225;    0.000;    0.000
351.658; 2636.225;    0.000;    0.000
351.714; 2508.225;    0.000;    0.000
351.769; 2589.225;    0.000;    0.000
351.825; 2642.225;    0.000;    0.000
351.880; 2543.225;    0.000;    0.000
351.936; 2619.225;    0.000;    0.000
351.991; 2589.225;    0.000;    0.000
352.047; 2660.225;    0.000;    0.000
352.102; 2566.225;    0.000;    0.000
352.158; 2563.225;    0.000;    0.000
352.213; 2459.225;    0.000;    0.000
352.268; 2528.225;    0.000;    0.000
352.324; 2535.225;    0.000;    0.000
352.379; 2430.225;    0.000;    0.000
352.434; 2485.225;    0.000;    0.000
352.490; 2535.225;    0.000;    0.000
352.545; 2497.225;    0.000;    0.000
352.601; 2469.225;    0.000;    0.000
352.656; 2482.225;    0.000;    0.000
352.711; 2430.225;    0.000;    0.000
352.767; 2485.225;    0.000;    0.000
352.822; 2508.225;    0.000;    0.000
352.877; 2374.225;    0.000;    0.000
352.932; 2468.225;    0.000;    0.000
352.988; 2408.225;    0.000;    0.000
353.043; 2532.225;    0.000;    0.000
353.098; 2553.225;    0.000;    0.000
353.153; 2556.225;    0.000;    0.000
353.209; 2533.225;    0.000;    0.000
353.264; 2421.225;    0.000;    0.000
353.319; 2379.225;    0.000;    0.000
353.374; 2372.225;    0.000;    0.000
353.430; 2497.225;    0.000;    0.000
353.485; 2428.225;    0.000;    0.000
353.540; 2518.225;    0.000;    0.000
353.595; 2475.225;    0.000;    0.000
353.650; 2431.225;    0.000;    0.000
353.705; 2450.225;    0.000;    0.000
353.761; 2369.225;    0.000;    0.000
353.816; 2374.225;    0.000;    0.000
353.871; 2387.225;    0.000;    0.000
353.926; 2425.225;    0.000;    0.000
353.981; 2382.225;    0.000;    0.000
354.036; 2336.225;    0.000;    0.000
354.091; 2326.225;    0.000;    0.000
354.146; 2347.225;    0.000;    0.000
354.201; 2394.225;    0.000;    0.000
354.256; 2372.225;    0.000;    0.000
354.311; 2483.225;    0.000;    0.000
354.367; 2434.225;    0.000;    0.000
354.422; 2475.225;    0.000;    0.000
354.477; 2502.225;    0.000;    0.000
354.532; 2533.225;    0.000;    0.000
354.587; 2459.225;    0.000;    0.000
354.642; 2418.225;    0.000;    0.000
354.697; 2385.225;    0.000;    0.000
354.751; 2488.225;    0.000;    0.000
354.806; 2568.225;    0.000;    0.000
354.861; 2445.225;    0.000;    0.000
354.916; 2490.225;    0.000;    0.000
354.971; 2512.225;    0.000;    0.000
355.026; 2495.225;    0.000;    0.000
355.081; 2447.225;    0.000;    0.000
355.136; 2338.225;    0.000;    0.000
355.191; 2390.225;    0.000;    0.000
355.246; 2333.225;    0.000;    0.000
355.301; 2425.225;    0.000;    0.000
355.355; 2483.225;    0.000;    0.000
355.410; 2492.225;    0.000;    0.000
355.465; 2388.225;    0.000;    0.000
355.520; 2422.225;    0.000;    0.000
355.575; 2426.225;    0.000;    0.000
355.630; 2353.225;    0.000;    0.000
355.684; 2315.225;    0.000;    0.000
355.739; 2333.225;    0.000;    0.000
355.794; 2354.225;    0.000;    0.000
355.849; 2386.225;    0.000;    0.000
355.904; 2414.225;    0.000;    0.000
355.958; 2305.225;    0.000;    0.000
356.013; 2316.225;    0.000;    0.000
356.068; 2346.225;    0.000;    0.000
356.123; 2420.225;    0.000;    0.000
356.177; 2478.225;    0.000;    0.000
356.232; 2440.225;    0.000;    0.000
356.287; 2503.225;    0.000;    0.000
356.341; 2472.225;    0.000;    0.000
356.396; 2487.225;    0.000;    0.000
356.451; 2468.225;    0.000;    0.000
356.505; 2409.225;    0.000;    0.000
356.560; 2379.225;    0.000;    0.000
356.615; 2435.225;    0.000;    0.000
356.669; 2379.225;    0.000;    0.000
356.724; 2487.225;    0.000;    0.000
356.778; 2388.225;    0.000;    0.000
356.833; 2415.225;    0.000;    0.000
356.888; 2359.225;    0.000;    0.000
356.942; 2313.225;    0.000;    0.000
356.997; 2397.225;    0.000;    0.000
357.051; 2443.225;    0.000;    0.000
357.106; 2393.225;    0.000;    0.000
357.160; 2333.225;    0.000;    0.000
357.215; 2336.225;    0.000;    0.000
357.269; 2370.225;    0.000;    0.000
357.324; 2379.225;    0.000;    0.000
357.378; 2304.225;    0.000;    0.000
357.433; 2316.225;    0.000;    0.000
357.487; 2321.225;    0.000;    0.000
357.542; 2364.225;    0.000;    0.000
357.596; 2317.225;    0.000;    0.000
357.651; 2433.225;    0.000;    0.000
357.705; 2331.225;    0.000;    0.000
357.760; 2442.225;    0.000;    0.000
357.814; 2357.225;    0.000;    0.000
357.868; 2232.225;    0.000;    0.000
357.923; 2314.225;    0.000;    0.000
357.977; 2301.225;    0.000;    0.000
358.032; 2346.225;    0.000;    0.000
358.086; 2446.225;    0.000;    0.000
358.140; 2367.225;    0.000;    0.000
358.195; 2372.225;    0.000;    0.000
358.249; 2362.225;    0.000;    0.000
358.303; 2266.225;    0.000;    0.000
358.358; 2278.225;    0.000;    0.000
358.412; 2229.225;    0.000;    0.000
358.466; 2273.225;    0.000;    0.000
358.521; 2320.225;    0.000;    0.000
358.575; 2226.225;    0.000;    0.000
358.629; 2268.225;    0.000;    0.000
358.683; 2280.225;    0.000;    0.000
358.738; 2334.225;    0.000;    0.000
358.792; 2263.225;    0.000;    0.000
358.846; 2378.225;    0.000;    0.000
358.900; 2297.225;    0.000;    0.000
358.954; 2353.225;    0.000;    0.000
359.009; 2390.225;    0.000;    0.000
359.063; 2237.225;    0.000;    0.000
359.117; 2354.225;    0.000;    0.000
359.171; 2318.225;    0.000;    0.000
359.225; 2308.225;    0.000;    0.000
359.280; 2278.225;    0.000;    0.000
359.334; 2332.225;    0.000;    0.000
359.388; 2396.225;    0.000;    0.000
359.442; 2378.225;    0.000;    0.000
359.496; 2219.225;    0.000;    0.000
359.550; 2336.225;    0.000;    0.000
359.604; 2269.225;    0.000;    0.000
359.658; 2273.225;    0.000;    0.000
359.712; 2336.225;    0.000;    0.000
359.766; 2281.225;    0.000;    0.000
359.820; 2195.225;    0.000;    0.000
359.875; 2254.225;    0.000;    0.000
359.929; 2274.225;    0.000;    0.000
359.983; 2245.225;    0.000;    0.000
360.037; 2216.225;    0.000;    0.000
360.091; 2305.225;    0.000;    0.000
360.145; 2176.225;    0.000;    0.000
360.199; 2242.225;    0.000;    0.000
360.253; 2250.225;    0.000;    0.000
360.306; 2273.225;    0.000;    0.000
360.360; 2234.225;    0.000;    0.000
360.414; 2227.225;    0.000;    0.000
360.468; 2286.225;    0.000;    0.000
360.522; 2224.225;    0.000;    0.000
360.576; 2290.225;    0.000;    0.000
360.630; 2362.225;    0.000;    0.000
360.684; 2297.225;    0.000;    0.000
360.738; 2234.225;    0.000;    0.000
360.792; 2297.225;    0.000;    0.000
360.846; 2256.225;    0.000;    0.000
360.899; 2250.225;    0.000;    0.000
360.953; 2330.225;    0.000;    0.000
361.007; 2352.225;    0.000;    0.000
361.061; 2324.225;    0.000;    0.000
361.115; 2297.225;    0.000;    0.000
361.168; 2336.225;    0.000;    0.000
361.222; 2224.225;    0.000;    0.000
361.276; 2245.225;    0.000;    0.000
361.330; 2311.225;    0.000;    0.000
361.384; 2180.225;    0.000;    0.000
361.437; 2301.225;    0.000;    0.000
361.491; 2263.225;    0.000;    0.000
361.545; 2246.225;    0.000;    0.000
361.599; 2255.225;    0.000;    0.000
361.652; 2305.225;    0.000;    0.000
361.706; 2216.225;    0.000;    0.000
361.760; 2175.225;    0.000;    0.000
361.813; 2226.225;    0.000;    0.000
361.867; 2271.225;    0.000;    0.000
361.921; 2166.225;    0.000;    0.000
361.974; 2137.225;    0.000;    0.000
362.028; 2199.225;    0.000;    0.000
362.082; 2098.225;    0.000;    0.000
362.135; 2173.225;    0.000;    0.000
362.189; 2238.225;    0.000;    0.000
362.242; 2212.225;    0.000;    0.000
362.296; 2253.225;    0.000;    0.000
362.350; 2222.225;    0.000;    0.000
362.403; 2186.225;    0.000;    0.000
362.457; 2170.225;    0.000;    0.000
362.510; 2117.225;    0.000;    0.000
362.564; 2118.225;    0.000;    0.000
362.617; 2150.225;    0.000;    0.000
362.671; 2170.225;    0.000;    0.000
362.724; 2108.225;    0.000;    0.000
362.778; 2088.225;    0.000;    0.000
362.831; 2184.225;    0.000;    0.000
362.885; 2108.225;    0.000;    0.000
362.938; 1946.225;    0.000;    0.000
362.992;  405.225;    0.000;    0.000
363.045;  321.225;    0.000;    0.000
363.099;  287.225;    0.000;    0.000
363.152;  321.225;    0.000;    0.000
363.205;  282.225;    0.000;    0.000
363.259;  290.225;    0.000;    0.000
363.312;  342.225;    0.000;    0.000
363.366;  327.225;    0.000;    0.000
363.419;  284.225;    0.000;    0.000
363.472;  278.225;    0.000;    0.000
363.526;  286.225;    0.000;    0.000
363.579;  304.225;    0.000;    0.000
363.632;  269.225;    0.000;    0.000
363.686;  297.225;    0.000;    0.000
363.739;  258.225;    0.000;    0.000
363.792;  254.225;    0.000;    0.000

