Pellet_position2_Burst5-n5
Integration time [ms]:   1.000
Averaging Nr. [scans]: 1
Smoothing Nr. [pixels]: 0
Data measured with spectrometer [name]: VIS
Wave   ;Sample   ;Dark     ;Reference
[nm]   ;[counts] ;[counts] ;[counts] 

450.961;  202.725;    0.000;    0.000
451.100;  223.725;    0.000;    0.000
451.239;  210.725;    0.000;    0.000
451.377;  246.725;    0.000;    0.000
451.516;  186.725;    0.000;    0.000
451.655;  219.725;    0.000;    0.000
451.794;  197.725;    0.000;    0.000
451.932;  201.725;    0.000;    0.000
452.071;  241.725;    0.000;    0.000
452.210;  243.725;    0.000;    0.000
452.348;  225.725;    0.000;    0.000
452.487;  246.725;    0.000;    0.000
452.626;  224.725;    0.000;    0.000
452.764;  232.725;    0.000;    0.000
452.903;  223.725;    0.000;    0.000
453.042;  328.725;    0.000;    0.000
453.180; 4309.725;    0.000;    0.000
453.319; 4506.725;    0.000;    0.000
453.458; 4630.725;    0.000;    0.000
453.596; 4555.725;    0.000;    0.000
453.735; 4574.725;    0.000;    0.000
453.873; 4660.725;    0.000;    0.000
454.012; 4605.725;    0.000;    0.000
454.150; 4793.725;    0.000;    0.000
454.289; 4741.725;    0.000;    0.000
454.427; 4775.725;    0.000;    0.000
454.566; 4858.725;    0.000;    0.000
454.705; 4894.725;    0.000;    0.000
454.843; 4784.725;    0.000;    0.000
454.981; 4868.725;    0.000;    0.000
455.120; 4929.725;    0.000;    0.000
455.258; 5125.725;    0.000;    0.000
455.397; 5035.725;    0.000;    0.000
455.535; 5156.725;    0.000;    0.000
455.674; 5092.725;    0.000;    0.000
455.812; 5166.725;    0.000;    0.000
455.950; 5262.725;    0.000;    0.000
456.089; 5247.725;    0.000;    0.000
456.227; 5270.725;    0.000;    0.000
456.366; 5578.725;    0.000;    0.000
456.504; 5465.725;    0.000;    0.000
456.642; 5537.725;    0.000;    0.000
456.781; 5371.725;    0.000;    0.000
456.919; 5337.725;    0.000;    0.000
457.057; 5197.725;    0.000;    0.000
457.196; 5328.725;    0.000;    0.000
457.334; 5466.725;    0.000;    0.000
457.472; 5441.725;    0.000;    0.000
457.610; 5452.725;    0.000;    0.000
457.749; 5648.725;    0.000;    0.000
457.887; 5864.725;    0.000;    0.000
458.025; 5997.725;    0.000;    0.000
458.163; 6012.725;    0.000;    0.000
458.301; 6006.725;    0.000;    0.000
458.440; 6008.725;    0.000;    0.000
458.578; 6182.725;    0.000;    0.000
458.716; 6198.725;    0.000;    0.000
458.854; 6314.725;    0.000;    0.000
458.992; 6261.725;    0.000;    0.000
459.130; 6384.725;    0.000;    0.000
459.269; 6463.725;    0.000;    0.000
459.407; 6471.725;    0.000;    0.000
459.545; 6469.725;    0.000;    0.000
459.683; 6628.725;    0.000;    0.000
459.821; 6626.725;    0.000;    0.000
459.959; 6827.725;    0.000;    0.000
460.097; 6763.725;    0.000;    0.000
460.235; 6872.725;    0.000;    0.000
460.373; 6844.725;    0.000;    0.000
460.511; 6887.725;    0.000;    0.000
460.649; 6935.725;    0.000;    0.000
460.787; 6945.725;    0.000;    0.000
460.925; 7046.725;    0.000;    0.000
461.063; 7310.725;    0.000;    0.000
461.201; 7039.725;    0.000;    0.000
461.339; 7309.725;    0.000;    0.000
461.477; 7046.725;    0.000;    0.000
461.615; 7257.725;    0.000;    0.000
461.753; 7307.725;    0.000;    0.000
461.891; 7317.725;    0.000;    0.000
462.029; 7548.725;    0.000;    0.000
462.166; 7509.725;    0.000;    0.000
462.304; 7590.725;    0.000;    0.000
462.442; 7677.725;    0.000;    0.000
462.580; 7698.725;    0.000;    0.000
462.718; 7904.725;    0.000;    0.000
462.856; 7838.725;    0.000;    0.000
462.993; 8025.725;    0.000;    0.000
463.131; 7864.725;    0.000;    0.000
463.269; 7949.725;    0.000;    0.000
463.407; 7844.725;    0.000;    0.000
463.545; 7743.725;    0.000;    0.000
463.682; 7872.725;    0.000;    0.000
463.820; 8134.725;    0.000;    0.000
463.958; 8342.725;    0.000;    0.000
464.095; 8138.725;    0.000;    0.000
464.233; 8309.725;    0.000;    0.000
464.371; 8292.725;    0.000;    0.000
464.509; 8267.725;    0.000;    0.000
464.646; 8173.725;    0.000;    0.000
464.784; 8197.725;    0.000;    0.000
464.921; 8236.725;    0.000;    0.000
465.059; 7962.725;    0.000;    0.000
465.197; 7793.725;    0.000;    0.000
465.334; 7832.725;    0.000;    0.000
465.472; 7718.725;    0.000;    0.000
465.609; 7668.725;    0.000;    0.000
465.747; 7609.725;    0.000;    0.000
465.885; 7556.725;    0.000;    0.000
466.022; 7552.725;    0.000;    0.000
466.160; 7599.725;    0.000;    0.000
466.297; 7568.725;    0.000;    0.000
466.435; 7614.725;    0.000;    0.000
466.572; 7536.725;    0.000;    0.000
466.710; 7626.725;    0.000;    0.000
466.847; 7577.725;    0.000;    0.000
466.985; 7458.725;    0.000;    0.000
467.122; 7485.725;    0.000;    0.000
467.260; 7524.725;    0.000;    0.000
467.397; 7485.725;    0.000;    0.000
467.534; 7446.725;    0.000;    0.000
467.672; 7407.725;    0.000;    0.000
467.809; 7534.725;    0.000;    0.000
467.947; 7476.725;    0.000;    0.000
468.084; 7348.725;    0.000;    0.000
468.221; 7475.725;    0.000;    0.000
468.359; 7435.725;    0.000;    0.000
468.496; 7383.725;    0.000;    0.000
468.633; 7406.725;    0.000;    0.000
468.771; 7430.725;    0.000;    0.000
468.908; 7477.725;    0.000;    0.000
469.045; 7599.725;    0.000;    0.000
469.183; 7533.725;    0.000;    0.000
469.320; 7635.725;    0.000;    0.000
469.457; 7653.725;    0.000;    0.000
469.594; 7668.725;    0.000;    0.000
469.732; 7753.725;    0.000;    0.000
469.869; 7544.725;    0.000;    0.000
470.006; 7833.725;    0.000;    0.000
470.143; 7800.725;    0.000;    0.000
470.280; 7826.725;    0.000;    0.000
470.417; 7760.725;    0.000;    0.000
470.555; 7928.725;    0.000;    0.000
470.692; 7808.725;    0.000;    0.000
470.829; 7840.725;    0.000;    0.000
470.966; 7709.725;    0.000;    0.000
471.103; 7968.725;    0.000;    0.000
471.240; 7698.725;    0.000;    0.000
471.377; 7772.725;    0.000;    0.000
471.514; 7808.725;    0.000;    0.000
471.651; 7754.725;    0.000;    0.000
471.789; 7742.725;    0.000;    0.000
471.926; 7625.725;    0.000;    0.000
472.063; 7782.725;    0.000;    0.000
472.200; 7672.725;    0.000;    0.000
472.337; 7641.725;    0.000;    0.000
472.474; 7669.725;    0.000;    0.000
472.611; 7546.725;    0.000;    0.000
472.748; 7445.725;    0.000;    0.000
472.884; 7706.725;    0.000;    0.000
473.021; 7438.725;    0.000;    0.000
473.158; 7710.725;    0.000;    0.000
473.295; 7509.725;    0.000;    0.000
473.432; 7538.725;    0.000;    0.000
473.569; 7507.725;    0.000;    0.000
473.706; 7517.725;    0.000;    0.000
473.843; 7559.725;    0.000;    0.000
473.980; 7578.725;    0.000;    0.000
474.117; 7539.725;    0.000;    0.000
474.253; 7593.725;    0.000;    0.000
474.390; 7538.725;    0.000;    0.000
474.527; 7479.725;    0.000;    0.000
474.664; 7555.725;    0.000;    0.000
474.801; 7529.725;    0.000;    0.000
474.937; 7594.725;    0.000;    0.000
475.074; 7695.725;    0.000;    0.000
475.211; 7705.725;    0.000;    0.000
475.348; 7735.725;    0.000;    0.000
475.484; 7584.725;    0.000;    0.000
475.621; 7677.725;    0.000;    0.000
475.758; 7807.725;    0.000;    0.000
475.894; 7672.725;    0.000;    0.000
476.031; 7595.725;    0.000;    0.000
476.168; 7712.725;    0.000;    0.000
476.304; 7732.725;    0.000;    0.000
476.441; 7759.725;    0.000;    0.000
476.578; 7730.725;    0.000;    0.000
476.714; 7631.725;    0.000;    0.000
476.851; 7890.725;    0.000;    0.000
476.987; 7822.725;    0.000;    0.000
477.124; 7937.725;    0.000;    0.000
477.261; 7941.725;    0.000;    0.000
477.397; 7951.725;    0.000;    0.000
477.534; 7883.725;    0.000;    0.000
477.670; 8085.725;    0.000;    0.000
477.807; 8012.725;    0.000;    0.000
477.943; 7922.725;    0.000;    0.000
478.080; 8127.725;    0.000;    0.000
478.216; 7999.725;    0.000;    0.000
478.353; 8162.725;    0.000;    0.000
478.489; 8212.725;    0.000;    0.000
478.626; 8239.725;    0.000;    0.000
478.762; 8271.725;    0.000;    0.000
478.898; 8499.725;    0.000;    0.000
479.035; 8453.725;    0.000;    0.000
479.171; 8320.725;    0.000;    0.000
479.308; 8311.725;    0.000;    0.000
479.444; 8359.725;    0.000;    0.000
479.580; 8313.725;    0.000;    0.000
479.717; 8200.725;    0.000;    0.000
479.853; 8374.725;    0.000;    0.000
479.989; 8351.725;    0.000;    0.000
480.126; 8325.725;    0.000;    0.000
480.262; 8564.725;    0.000;    0.000
480.398; 8486.725;    0.000;    0.000
480.535; 8537.725;    0.000;    0.000
480.671; 8507.725;    0.000;    0.000
480.807; 8444.725;    0.000;    0.000
480.943; 8366.725;    0.000;    0.000
481.080; 8409.725;    0.000;    0.000
481.216; 8328.725;    0.000;    0.000
481.352; 8371.725;    0.000;    0.000
481.488; 8484.725;    0.000;    0.000
481.624; 8423.725;    0.000;    0.000
481.761; 8226.725;    0.000;    0.000
481.897; 8228.725;    0.000;    0.000
482.033; 8181.725;    0.000;    0.000
482.169; 8264.725;    0.000;    0.000
482.305; 8267.725;    0.000;    0.000
482.441; 8245.725;    0.000;    0.000
482.577; 8266.725;    0.000;    0.000
482.713; 8348.725;    0.000;    0.000
482.849; 8286.725;    0.000;    0.000
482.985; 8257.725;    0.000;    0.000
483.121; 8282.725;    0.000;    0.000
483.257; 8309.725;    0.000;    0.000
483.394; 8398.725;    0.000;    0.000
483.530; 8351.725;    0.000;    0.000
483.666; 8292.725;    0.000;    0.000
483.801; 8309.725;    0.000;    0.000
483.937; 8156.725;    0.000;    0.000
484.073; 8353.725;    0.000;    0.000
484.209; 8303.725;    0.000;    0.000
484.345; 8342.725;    0.000;    0.000
484.481; 8370.725;    0.000;    0.000
484.617; 8300.725;    0.000;    0.000
484.753; 8314.725;    0.000;    0.000
484.889; 8391.725;    0.000;    0.000
485.025; 8429.725;    0.000;    0.000
485.161; 8341.725;    0.000;    0.000
485.296; 8520.725;    0.000;    0.000
485.432; 8407.725;    0.000;    0.000
485.568; 8409.725;    0.000;    0.000
485.704; 8424.725;    0.000;    0.000
485.840; 8308.725;    0.000;    0.000
485.975; 8528.725;    0.000;    0.000
486.111; 8537.725;    0.000;    0.000
486.247; 8572.725;    0.000;    0.000
486.383; 8364.725;    0.000;    0.000
486.518; 8506.725;    0.000;    0.000
486.654; 8522.725;    0.000;    0.000
486.790; 8404.725;    0.000;    0.000
486.926; 8444.725;    0.000;    0.000
487.061; 8242.725;    0.000;    0.000
487.197; 8481.725;    0.000;    0.000
487.333; 8365.725;    0.000;    0.000
487.468; 8384.725;    0.000;    0.000
487.604; 8384.725;    0.000;    0.000
487.739; 8327.725;    0.000;    0.000
487.875; 8470.725;    0.000;    0.000
488.011; 8382.725;    0.000;    0.000
488.146; 8356.725;    0.000;    0.000
488.282; 8344.725;    0.000;    0.000
488.417; 8421.725;    0.000;    0.000
488.553; 8595.725;    0.000;    0.000
488.688; 8435.725;    0.000;    0.000
488.824; 8392.725;    0.000;    0.000
488.960; 8286.725;    0.000;    0.000
489.095; 8390.725;    0.000;    0.000
489.230; 8475.725;    0.000;    0.000
489.366; 8407.725;    0.000;    0.000
489.501; 8476.725;    0.000;    0.000
489.637; 8625.725;    0.000;    0.000
489.772; 8587.725;    0.000;    0.000
489.908; 8561.725;    0.000;    0.000
490.043; 8615.725;    0.000;    0.000
490.179; 8666.725;    0.000;    0.000
490.314; 8514.725;    0.000;    0.000
490.449; 8641.725;    0.000;    0.000
490.585; 8518.725;    0.000;    0.000
490.720; 8581.725;    0.000;    0.000
490.855; 8469.725;    0.000;    0.000
490.991; 8617.725;    0.000;    0.000
491.126; 8756.725;    0.000;    0.000
491.261; 8393.725;    0.000;    0.000
491.396; 8596.725;    0.000;    0.000
491.532; 8580.725;    0.000;    0.000
491.667; 8724.725;    0.000;    0.000
491.802; 8566.725;    0.000;    0.000
491.937; 8774.725;    0.000;    0.000
492.073; 8850.725;    0.000;    0.000
492.208; 8660.725;    0.000;    0.000
492.343; 8686.725;    0.000;    0.000
492.478; 8701.725;    0.000;    0.000
492.613; 8753.725;    0.000;    0.000
492.749; 8795.725;    0.000;    0.000
492.884; 8706.725;    0.000;    0.000
493.019; 8841.725;    0.000;    0.000
493.154; 8614.725;    0.000;    0.000
493.289; 8704.725;    0.000;    0.000
493.424; 8649.725;    0.000;    0.000
493.559; 8615.725;    0.000;    0.000
493.694; 8692.725;    0.000;    0.000
493.829; 8471.725;    0.000;    0.000
493.964; 8700.725;    0.000;    0.000
494.099; 8538.725;    0.000;    0.000
494.234; 8619.725;    0.000;    0.000
494.369; 8702.725;    0.000;    0.000
494.504; 8807.725;    0.000;    0.000
494.639; 8650.725;    0.000;    0.000
494.774; 8613.725;    0.000;    0.000
494.909; 8673.725;    0.000;    0.000
495.044; 8653.725;    0.000;    0.000
495.179; 8505.725;    0.000;    0.000
495.314; 8699.725;    0.000;    0.000
495.449; 8716.725;    0.000;    0.000
495.584; 8682.725;    0.000;    0.000
495.719; 8806.725;    0.000;    0.000
495.854; 8680.725;    0.000;    0.000
495.988; 8719.725;    0.000;    0.000
496.123; 8742.725;    0.000;    0.000
496.258; 8909.725;    0.000;    0.000
496.393; 8739.725;    0.000;    0.000
496.528; 8878.725;    0.000;    0.000
496.663; 8851.725;    0.000;    0.000
496.797; 9029.725;    0.000;    0.000
496.932; 9008.725;    0.000;    0.000
497.067; 9141.725;    0.000;    0.000
497.202; 9283.725;    0.000;    0.000
497.336; 9177.725;    0.000;    0.000
497.471; 9458.725;    0.000;    0.000
497.606; 9626.725;    0.000;    0.000
497.740; 9716.725;    0.000;    0.000
497.875; 9937.725;    0.000;    0.000
498.010; 9900.725;    0.000;    0.000
498.144;10083.725;    0.000;    0.000
498.279;10337.725;    0.000;    0.000
498.414;10354.725;    0.000;    0.000
498.548;10532.725;    0.000;    0.000
498.683;10518.725;    0.000;    0.000
498.817;10787.725;    0.000;    0.000
498.952;10906.725;    0.000;    0.000
499.087;11107.725;    0.000;    0.000
499.221;11298.725;    0.000;    0.000
499.356;11495.725;    0.000;    0.000
499.490;11643.725;    0.000;    0.000
499.625;12057.725;    0.000;    0.000
499.759;12249.725;    0.000;    0.000
499.894;12281.725;    0.000;    0.000
500.028;12693.725;    0.000;    0.000
500.162;13025.725;    0.000;    0.000
500.297;13006.725;    0.000;    0.000
500.431;13072.725;    0.000;    0.000
500.566;13054.725;    0.000;    0.000
500.700;12846.725;    0.000;    0.000
500.835;12900.725;    0.000;    0.000
500.969;12565.725;    0.000;    0.000
501.103;12244.725;    0.000;    0.000
501.238;12087.725;    0.000;    0.000
501.372;11637.725;    0.000;    0.000
501.506;11240.725;    0.000;    0.000
501.641;11180.725;    0.000;    0.000
501.775;10874.725;    0.000;    0.000
501.909;10797.725;    0.000;    0.000
502.043;10522.725;    0.000;    0.000
502.178;10390.725;    0.000;    0.000
502.312;10034.725;    0.000;    0.000
502.446;10079.725;    0.000;    0.000
502.580; 9892.725;    0.000;    0.000
502.715; 9785.725;    0.000;    0.000
502.849; 9621.725;    0.000;    0.000
502.983; 9467.725;    0.000;    0.000
503.117; 9491.725;    0.000;    0.000
503.251; 9308.725;    0.000;    0.000
503.385; 9110.725;    0.000;    0.000
503.520; 9072.725;    0.000;    0.000
503.654; 8991.725;    0.000;    0.000
503.788; 8967.725;    0.000;    0.000
503.922; 8784.725;    0.000;    0.000
504.056; 8717.725;    0.000;    0.000
504.190; 8708.725;    0.000;    0.000
504.324; 8631.725;    0.000;    0.000
504.458; 8603.725;    0.000;    0.000
504.592; 8396.725;    0.000;    0.000
504.726; 8176.725;    0.000;    0.000
504.860; 8286.725;    0.000;    0.000
504.994; 8181.725;    0.000;    0.000
505.128; 8107.725;    0.000;    0.000
505.262; 7984.725;    0.000;    0.000
505.396; 7694.725;    0.000;    0.000
505.530; 7721.725;    0.000;    0.000
505.664; 7804.725;    0.000;    0.000
505.798; 7813.725;    0.000;    0.000
505.932; 7576.725;    0.000;    0.000
506.066; 7549.725;    0.000;    0.000
506.199; 7594.725;    0.000;    0.000
506.333; 7458.725;    0.000;    0.000
506.467; 7344.725;    0.000;    0.000
506.601; 7220.725;    0.000;    0.000
506.735; 7302.725;    0.000;    0.000
506.869; 7139.725;    0.000;    0.000
507.002; 7245.725;    0.000;    0.000
507.136; 7240.725;    0.000;    0.000
507.270; 7116.725;    0.000;    0.000
507.404; 7065.725;    0.000;    0.000
507.537; 7079.725;    0.000;    0.000
507.671; 6932.725;    0.000;    0.000
507.805; 7086.725;    0.000;    0.000
507.939; 7002.725;    0.000;    0.000
508.072; 6904.725;    0.000;    0.000
508.206; 6893.725;    0.000;    0.000
508.340; 6884.725;    0.000;    0.000
508.473; 6857.725;    0.000;    0.000
508.607; 6783.725;    0.000;    0.000
508.740; 6828.725;    0.000;    0.000
508.874; 6970.725;    0.000;    0.000
509.008; 6874.725;    0.000;    0.000
509.141; 6820.725;    0.000;    0.000
509.275; 6777.725;    0.000;    0.000
509.408; 6798.725;    0.000;    0.000
509.542; 6669.725;    0.000;    0.000
509.675; 6719.725;    0.000;    0.000
509.809; 6712.725;    0.000;    0.000
509.942; 6534.725;    0.000;    0.000
510.076; 6517.725;    0.000;    0.000
510.209; 6660.725;    0.000;    0.000
510.343; 6655.725;    0.000;    0.000
510.476; 6692.725;    0.000;    0.000
510.610; 6539.725;    0.000;    0.000
510.743; 6580.725;    0.000;    0.000
510.877; 6374.725;    0.000;    0.000
511.010; 6603.725;    0.000;    0.000
511.143; 6496.725;    0.000;    0.000
511.277; 6381.725;    0.000;    0.000
511.410; 6450.725;    0.000;    0.000
511.543; 6477.725;    0.000;    0.000
511.677; 6391.725;    0.000;    0.000
511.810; 6412.725;    0.000;    0.000
511.943; 6446.725;    0.000;    0.000
512.077; 6347.725;    0.000;    0.000
512.210; 6324.725;    0.000;    0.000
512.343; 6487.725;    0.000;    0.000
512.476; 6570.725;    0.000;    0.000
512.610; 6265.725;    0.000;    0.000
512.743; 6465.725;    0.000;    0.000
512.876; 6440.725;    0.000;    0.000
513.009; 6461.725;    0.000;    0.000
513.142; 6363.725;    0.000;    0.000
513.276; 6310.725;    0.000;    0.000
513.409; 6450.725;    0.000;    0.000
513.542; 6488.725;    0.000;    0.000
513.675; 6360.725;    0.000;    0.000
513.808; 6449.725;    0.000;    0.000
513.941; 6287.725;    0.000;    0.000
514.074; 6427.725;    0.000;    0.000
514.207; 6308.725;    0.000;    0.000
514.340; 6390.725;    0.000;    0.000
514.474; 6402.725;    0.000;    0.000
514.607; 6501.725;    0.000;    0.000
514.740; 6605.725;    0.000;    0.000
514.873; 6548.725;    0.000;    0.000
515.006; 6595.725;    0.000;    0.000
515.139; 6507.725;    0.000;    0.000
515.272; 6638.725;    0.000;    0.000
515.404; 6754.725;    0.000;    0.000
515.537; 6754.725;    0.000;    0.000
515.670; 6729.725;    0.000;    0.000
515.803; 6857.725;    0.000;    0.000
515.936; 6927.725;    0.000;    0.000
516.069; 6785.725;    0.000;    0.000
516.202; 7033.725;    0.000;    0.000
516.335; 7020.725;    0.000;    0.000
516.468; 7484.725;    0.000;    0.000
516.600; 8701.725;    0.000;    0.000
516.733;10676.725;    0.000;    0.000
516.866;10768.725;    0.000;    0.000
516.999; 9924.725;    0.000;    0.000
517.132;12110.725;    0.000;    0.000
517.264;16562.725;    0.000;    0.000
517.397;16230.725;    0.000;    0.000
517.530;12342.725;    0.000;    0.000
517.663;10480.725;    0.000;    0.000
517.795; 9981.725;    0.000;    0.000
517.928; 9385.725;    0.000;    0.000
518.061; 9705.725;    0.000;    0.000
518.193;12505.725;    0.000;    0.000
518.326;19394.725;    0.000;    0.000
518.459;20758.725;    0.000;    0.000
518.591;15524.725;    0.000;    0.000
518.724;11984.725;    0.000;    0.000
518.857;10450.725;    0.000;    0.000
518.989; 9571.725;    0.000;    0.000
519.122; 8919.725;    0.000;    0.000
519.254; 8416.725;    0.000;    0.000
519.387; 8166.725;    0.000;    0.000
519.519; 7759.725;    0.000;    0.000
519.652; 7551.725;    0.000;    0.000
519.784; 7335.725;    0.000;    0.000
519.917; 7202.725;    0.000;    0.000
520.049; 6997.725;    0.000;    0.000
520.182; 7005.725;    0.000;    0.000
520.314; 6857.725;    0.000;    0.000
520.447; 6707.725;    0.000;    0.000
520.579; 6717.725;    0.000;    0.000
520.712; 6620.725;    0.000;    0.000
520.844; 6668.725;    0.000;    0.000
520.976; 6562.725;    0.000;    0.000
521.109; 6407.725;    0.000;    0.000
521.241; 6384.725;    0.000;    0.000
521.373; 6272.725;    0.000;    0.000
521.506; 6370.725;    0.000;    0.000
521.638; 6161.725;    0.000;    0.000
521.770; 6059.725;    0.000;    0.000
521.903; 6148.725;    0.000;    0.000
522.035; 5996.725;    0.000;    0.000
522.167; 6093.725;    0.000;    0.000
522.300; 5962.725;    0.000;    0.000
522.432; 5935.725;    0.000;    0.000
522.564; 5900.725;    0.000;    0.000
522.696; 6050.725;    0.000;    0.000
522.828; 5842.725;    0.000;    0.000
522.961; 5933.725;    0.000;    0.000
523.093; 5865.725;    0.000;    0.000
523.225; 5928.725;    0.000;    0.000
523.357; 5833.725;    0.000;    0.000
523.489; 5883.725;    0.000;    0.000
523.621; 5798.725;    0.000;    0.000
523.753; 5776.725;    0.000;    0.000
523.886; 5788.725;    0.000;    0.000
524.018; 5652.725;    0.000;    0.000
524.150; 5755.725;    0.000;    0.000
524.282; 5577.725;    0.000;    0.000
524.414; 5690.725;    0.000;    0.000
524.546; 5638.725;    0.000;    0.000
524.678; 5536.725;    0.000;    0.000
524.810; 5501.725;    0.000;    0.000
524.942; 5530.725;    0.000;    0.000
525.074; 5521.725;    0.000;    0.000
525.206; 5385.725;    0.000;    0.000
525.338; 5564.725;    0.000;    0.000
525.470; 5478.725;    0.000;    0.000
525.601; 5375.725;    0.000;    0.000
525.733; 5358.725;    0.000;    0.000
525.865; 5350.725;    0.000;    0.000
525.997; 5488.725;    0.000;    0.000
526.129; 5337.725;    0.000;    0.000
526.261; 5351.725;    0.000;    0.000
526.393; 5349.725;    0.000;    0.000
526.524; 5337.725;    0.000;    0.000
526.656; 5262.725;    0.000;    0.000
526.788; 5248.725;    0.000;    0.000
526.920; 5417.725;    0.000;    0.000
527.052; 5236.725;    0.000;    0.000
527.183; 5350.725;    0.000;    0.000
527.315; 5373.725;    0.000;    0.000
527.447; 5214.725;    0.000;    0.000
527.578; 5266.725;    0.000;    0.000
527.710; 5352.725;    0.000;    0.000
527.842; 5135.725;    0.000;    0.000
527.973; 5270.725;    0.000;    0.000
528.105; 5203.725;    0.000;    0.000
528.237; 5249.725;    0.000;    0.000
528.368; 5240.725;    0.000;    0.000
528.500; 5193.725;    0.000;    0.000
528.632; 5273.725;    0.000;    0.000
528.763; 5275.725;    0.000;    0.000
528.895; 5256.725;    0.000;    0.000
529.026; 5216.725;    0.000;    0.000
529.158; 5166.725;    0.000;    0.000
529.289; 5222.725;    0.000;    0.000
529.421; 5223.725;    0.000;    0.000
529.552; 5166.725;    0.000;    0.000
529.684; 5210.725;    0.000;    0.000
529.815; 5311.725;    0.000;    0.000
529.947; 5269.725;    0.000;    0.000
530.078; 5177.725;    0.000;    0.000
530.210; 5199.725;    0.000;    0.000
530.341; 5257.725;    0.000;    0.000
530.472; 5187.725;    0.000;    0.000
530.604; 5218.725;    0.000;    0.000
530.735; 5270.725;    0.000;    0.000
530.867; 5223.725;    0.000;    0.000
530.998; 5324.725;    0.000;    0.000
531.129; 5217.725;    0.000;    0.000
531.261; 5385.725;    0.000;    0.000
531.392; 5301.725;    0.000;    0.000
531.523; 5299.725;    0.000;    0.000
531.654; 5336.725;    0.000;    0.000
531.786; 5478.725;    0.000;    0.000
531.917; 5466.725;    0.000;    0.000
532.048; 5410.725;    0.000;    0.000
532.179; 5269.725;    0.000;    0.000
532.311; 5300.725;    0.000;    0.000
532.442; 5247.725;    0.000;    0.000
532.573; 5259.725;    0.000;    0.000
532.704; 5203.725;    0.000;    0.000
532.835; 5236.725;    0.000;    0.000
532.966; 5188.725;    0.000;    0.000
533.097; 5307.725;    0.000;    0.000
533.229; 5071.725;    0.000;    0.000
533.360; 5249.725;    0.000;    0.000
533.491; 5186.725;    0.000;    0.000
533.622; 5284.725;    0.000;    0.000
533.753; 5203.725;    0.000;    0.000
533.884; 5241.725;    0.000;    0.000
534.015; 5228.725;    0.000;    0.000
534.146; 5261.725;    0.000;    0.000
534.277; 5362.725;    0.000;    0.000
534.408; 5277.725;    0.000;    0.000
534.539; 5258.725;    0.000;    0.000
534.670; 5228.725;    0.000;    0.000
534.801; 5138.725;    0.000;    0.000
534.932; 5205.725;    0.000;    0.000
535.063; 5184.725;    0.000;    0.000
535.194; 5113.725;    0.000;    0.000
535.324; 5062.725;    0.000;    0.000
535.455; 5121.725;    0.000;    0.000
535.586; 5184.725;    0.000;    0.000
535.717; 4976.725;    0.000;    0.000
535.848; 5108.725;    0.000;    0.000
535.979; 5175.725;    0.000;    0.000
536.109; 5080.725;    0.000;    0.000
536.240; 5166.725;    0.000;    0.000
536.371; 5086.725;    0.000;    0.000
536.502; 5052.725;    0.000;    0.000
536.632; 5121.725;    0.000;    0.000
536.763; 5056.725;    0.000;    0.000
536.894; 5095.725;    0.000;    0.000
537.025; 5053.725;    0.000;    0.000
537.155; 5160.725;    0.000;    0.000
537.286; 5066.725;    0.000;    0.000
537.417; 5156.725;    0.000;    0.000
537.547; 5009.725;    0.000;    0.000
537.678; 5056.725;    0.000;    0.000
537.808; 4968.725;    0.000;    0.000
537.939; 5079.725;    0.000;    0.000
538.070; 4980.725;    0.000;    0.000
538.200; 5092.725;    0.000;    0.000
538.331; 5050.725;    0.000;    0.000
538.461; 4970.725;    0.000;    0.000
538.592; 5069.725;    0.000;    0.000
538.722; 5070.725;    0.000;    0.000
538.853; 4956.725;    0.000;    0.000
538.983; 4951.725;    0.000;    0.000
539.114; 5085.725;    0.000;    0.000
539.244; 4994.725;    0.000;    0.000
539.375; 5087.725;    0.000;    0.000
539.505; 4996.725;    0.000;    0.000
539.636; 4953.725;    0.000;    0.000
539.766; 5140.725;    0.000;    0.000
539.896; 4943.725;    0.000;    0.000
540.027; 5039.725;    0.000;    0.000
540.157; 5078.725;    0.000;    0.000
540.287; 5034.725;    0.000;    0.000
540.418; 5106.725;    0.000;    0.000
540.548; 5121.725;    0.000;    0.000
540.678; 5075.725;    0.000;    0.000
540.809; 5153.725;    0.000;    0.000
540.939; 5175.725;    0.000;    0.000
541.069; 5107.725;    0.000;    0.000
541.199; 5070.725;    0.000;    0.000
541.330; 5089.725;    0.000;    0.000
541.460; 5070.725;    0.000;    0.000
541.590; 5127.725;    0.000;    0.000
541.720; 5077.725;    0.000;    0.000
541.851; 5173.725;    0.000;    0.000
541.981; 5184.725;    0.000;    0.000
542.111; 5133.725;    0.000;    0.000
542.241; 5183.725;    0.000;    0.000
542.371; 5290.725;    0.000;    0.000
542.501; 5236.725;    0.000;    0.000
542.631; 5360.725;    0.000;    0.000
542.761; 5324.725;    0.000;    0.000
542.891; 5457.725;    0.000;    0.000
543.021; 5429.725;    0.000;    0.000
543.151; 5478.725;    0.000;    0.000
543.281; 5426.725;    0.000;    0.000
543.411; 5392.725;    0.000;    0.000
543.541; 5270.725;    0.000;    0.000
543.671; 5264.725;    0.000;    0.000
543.801; 5273.725;    0.000;    0.000
543.931; 5259.725;    0.000;    0.000
544.061; 5344.725;    0.000;    0.000
544.191; 5209.725;    0.000;    0.000
544.321; 5414.725;    0.000;    0.000
544.451; 5398.725;    0.000;    0.000
544.581; 5219.725;    0.000;    0.000
544.711; 5456.725;    0.000;    0.000
544.841; 5416.725;    0.000;    0.000
544.970; 5503.725;    0.000;    0.000
545.100; 5617.725;    0.000;    0.000
545.230; 5757.725;    0.000;    0.000
545.360; 5678.725;    0.000;    0.000
545.490; 5776.725;    0.000;    0.000
545.619; 5517.725;    0.000;    0.000
545.749; 5350.725;    0.000;    0.000
545.879; 5474.725;    0.000;    0.000
546.009; 5417.725;    0.000;    0.000
546.138; 5380.725;    0.000;    0.000
546.268; 5346.725;    0.000;    0.000
546.398; 5343.725;    0.000;    0.000
546.527; 5333.725;    0.000;    0.000
546.657; 5250.725;    0.000;    0.000
546.787; 5338.725;    0.000;    0.000
546.916; 5355.725;    0.000;    0.000
547.046; 5307.725;    0.000;    0.000
547.175; 5278.725;    0.000;    0.000
547.305; 5337.725;    0.000;    0.000
547.434; 5261.725;    0.000;    0.000
547.564; 5357.725;    0.000;    0.000
547.694; 5265.725;    0.000;    0.000
547.823; 5383.725;    0.000;    0.000
547.953; 5250.725;    0.000;    0.000
548.082; 5330.725;    0.000;    0.000
548.211; 5322.725;    0.000;    0.000
548.341; 5314.725;    0.000;    0.000
548.470; 5327.725;    0.000;    0.000
548.600; 5271.725;    0.000;    0.000
548.729; 5177.725;    0.000;    0.000
548.859; 5263.725;    0.000;    0.000
548.988; 5253.725;    0.000;    0.000
549.117; 5355.725;    0.000;    0.000
549.247; 5277.725;    0.000;    0.000
549.376; 5262.725;    0.000;    0.000
549.505; 5491.725;    0.000;    0.000
549.635; 5354.725;    0.000;    0.000
549.764; 5289.725;    0.000;    0.000
549.893; 5290.725;    0.000;    0.000
550.023; 5459.725;    0.000;    0.000
550.152; 5417.725;    0.000;    0.000
550.281; 5349.725;    0.000;    0.000
550.410; 5424.725;    0.000;    0.000
550.539; 5523.725;    0.000;    0.000
550.669; 5457.725;    0.000;    0.000
550.798; 5612.725;    0.000;    0.000
550.927; 5448.725;    0.000;    0.000
551.056; 5454.725;    0.000;    0.000
551.185; 5467.725;    0.000;    0.000
551.314; 5446.725;    0.000;    0.000
551.443; 5474.725;    0.000;    0.000
551.573; 5396.725;    0.000;    0.000
551.702; 5463.725;    0.000;    0.000
551.831; 5661.725;    0.000;    0.000
551.960; 5541.725;    0.000;    0.000
552.089; 5601.725;    0.000;    0.000
552.218; 5556.725;    0.000;    0.000
552.347; 5531.725;    0.000;    0.000
552.476; 5496.725;    0.000;    0.000
552.605; 5584.725;    0.000;    0.000
552.734; 5902.725;    0.000;    0.000
552.863; 5850.725;    0.000;    0.000
552.992; 5979.725;    0.000;    0.000
553.121; 5940.725;    0.000;    0.000
553.249; 5936.725;    0.000;    0.000
553.378; 5797.725;    0.000;    0.000
553.507; 5735.725;    0.000;    0.000
553.636; 5595.725;    0.000;    0.000
553.765; 5848.725;    0.000;    0.000
553.894; 5732.725;    0.000;    0.000
554.023; 5736.725;    0.000;    0.000
554.151; 5661.725;    0.000;    0.000
554.280; 5583.725;    0.000;    0.000
554.409; 5560.725;    0.000;    0.000
554.538; 5466.725;    0.000;    0.000
554.666; 5492.725;    0.000;    0.000
554.795; 5442.725;    0.000;    0.000
554.924; 5537.725;    0.000;    0.000
555.053; 5498.725;    0.000;    0.000
555.181; 5473.725;    0.000;    0.000
555.310; 5482.725;    0.000;    0.000
555.439; 5559.725;    0.000;    0.000
555.567; 5462.725;    0.000;    0.000
555.696; 5461.725;    0.000;    0.000
555.824; 5432.725;    0.000;    0.000
555.953; 5441.725;    0.000;    0.000
556.082; 5373.725;    0.000;    0.000
556.210; 5553.725;    0.000;    0.000
556.339; 5428.725;    0.000;    0.000
556.467; 5372.725;    0.000;    0.000
556.596; 5562.725;    0.000;    0.000
556.724; 5372.725;    0.000;    0.000
556.853; 5336.725;    0.000;    0.000
556.981; 5606.725;    0.000;    0.000
557.110; 5368.725;    0.000;    0.000
557.238; 5491.725;    0.000;    0.000
557.367; 5308.725;    0.000;    0.000
557.495; 5428.725;    0.000;    0.000
557.623; 5337.725;    0.000;    0.000
557.752; 5408.725;    0.000;    0.000
557.880; 5405.725;    0.000;    0.000
558.008; 5300.725;    0.000;    0.000
558.137; 5504.725;    0.000;    0.000
558.265; 5354.725;    0.000;    0.000
558.393; 5416.725;    0.000;    0.000
558.522; 5444.725;    0.000;    0.000
558.650; 5544.725;    0.000;    0.000
558.778; 5428.725;    0.000;    0.000
558.907; 5559.725;    0.000;    0.000
559.035; 5486.725;    0.000;    0.000
559.163; 5546.725;    0.000;    0.000
559.291; 5362.725;    0.000;    0.000
559.419; 5456.725;    0.000;    0.000
559.548; 5363.725;    0.000;    0.000
559.676; 5571.725;    0.000;    0.000
559.804; 5555.725;    0.000;    0.000
559.932; 5547.725;    0.000;    0.000
560.060; 5580.725;    0.000;    0.000
560.188; 5605.725;    0.000;    0.000
560.316; 5627.725;    0.000;    0.000
560.444; 5541.725;    0.000;    0.000
560.572; 5703.725;    0.000;    0.000
560.700; 5698.725;    0.000;    0.000
560.828; 5646.725;    0.000;    0.000
560.957; 5675.725;    0.000;    0.000
561.085; 5804.725;    0.000;    0.000
561.212; 5707.725;    0.000;    0.000
561.340; 5615.725;    0.000;    0.000
561.468; 5701.725;    0.000;    0.000
561.596; 5667.725;    0.000;    0.000
561.724; 5768.725;    0.000;    0.000
561.852; 5621.725;    0.000;    0.000
561.980; 5661.725;    0.000;    0.000
562.108; 5750.725;    0.000;    0.000
562.236; 5821.725;    0.000;    0.000
562.364; 5918.725;    0.000;    0.000
562.492; 5846.725;    0.000;    0.000
562.619; 5944.725;    0.000;    0.000
562.747; 5955.725;    0.000;    0.000
562.875; 5976.725;    0.000;    0.000
563.003; 5937.725;    0.000;    0.000
563.130; 6131.725;    0.000;    0.000
563.258; 6206.725;    0.000;    0.000
563.386; 6061.725;    0.000;    0.000
563.514; 6102.725;    0.000;    0.000
563.641; 6360.725;    0.000;    0.000
563.769; 6255.725;    0.000;    0.000
563.897; 6309.725;    0.000;    0.000
564.024; 6446.725;    0.000;    0.000
564.152; 6583.725;    0.000;    0.000
564.280; 6502.725;    0.000;    0.000
564.407; 6463.725;    0.000;    0.000
564.535; 6504.725;    0.000;    0.000
564.662; 6699.725;    0.000;    0.000
564.790; 6705.725;    0.000;    0.000
564.917; 6597.725;    0.000;    0.000
565.045; 6683.725;    0.000;    0.000
565.173; 6668.725;    0.000;    0.000
565.300; 6863.725;    0.000;    0.000
565.428; 6898.725;    0.000;    0.000
565.555; 7030.725;    0.000;    0.000
565.682; 7137.725;    0.000;    0.000
565.810; 7122.725;    0.000;    0.000
565.937; 7259.725;    0.000;    0.000
566.065; 7405.725;    0.000;    0.000
566.192; 7447.725;    0.000;    0.000
566.320; 7590.725;    0.000;    0.000
566.447; 7661.725;    0.000;    0.000
566.574; 7905.725;    0.000;    0.000
566.702; 7868.725;    0.000;    0.000
566.829; 7957.725;    0.000;    0.000
566.956; 7907.725;    0.000;    0.000
567.084; 8060.725;    0.000;    0.000
567.211; 8030.725;    0.000;    0.000
567.338; 8052.725;    0.000;    0.000
567.465; 8074.725;    0.000;    0.000
567.593; 8197.725;    0.000;    0.000
567.720; 8126.725;    0.000;    0.000
567.847; 8223.725;    0.000;    0.000
567.974; 8302.725;    0.000;    0.000
568.101; 8381.725;    0.000;    0.000
568.228; 9286.725;    0.000;    0.000
568.356; 9513.725;    0.000;    0.000
568.483; 9173.725;    0.000;    0.000
568.610; 9175.725;    0.000;    0.000
568.737; 9878.725;    0.000;    0.000
568.864;10895.725;    0.000;    0.000
568.991;10442.725;    0.000;    0.000
569.118; 9534.725;    0.000;    0.000
569.245; 9003.725;    0.000;    0.000
569.372; 8433.725;    0.000;    0.000
569.499; 8265.725;    0.000;    0.000
569.626; 8067.725;    0.000;    0.000
569.753; 7821.725;    0.000;    0.000
569.880; 7783.725;    0.000;    0.000
570.007; 7576.725;    0.000;    0.000
570.134; 7524.725;    0.000;    0.000
570.261; 7433.725;    0.000;    0.000
570.388; 7196.725;    0.000;    0.000
570.515; 7329.725;    0.000;    0.000
570.642; 7142.725;    0.000;    0.000
570.768; 7208.725;    0.000;    0.000
570.895; 7096.725;    0.000;    0.000
571.022; 7106.725;    0.000;    0.000
571.149; 7128.725;    0.000;    0.000
571.276; 7027.725;    0.000;    0.000
571.402; 6878.725;    0.000;    0.000
571.529; 6936.725;    0.000;    0.000
571.656; 6777.725;    0.000;    0.000
571.783; 6862.725;    0.000;    0.000
571.909; 6767.725;    0.000;    0.000
572.036; 6843.725;    0.000;    0.000
572.163; 6636.725;    0.000;    0.000
572.289; 6604.725;    0.000;    0.000
572.416; 6611.725;    0.000;    0.000
572.543; 6583.725;    0.000;    0.000
572.669; 6517.725;    0.000;    0.000
572.796; 6572.725;    0.000;    0.000
572.922; 6394.725;    0.000;    0.000
573.049; 6421.725;    0.000;    0.000
573.176; 6387.725;    0.000;    0.000
573.302; 6530.725;    0.000;    0.000
573.429; 6540.725;    0.000;    0.000
573.555; 6499.725;    0.000;    0.000
573.682; 6602.725;    0.000;    0.000
573.808; 6379.725;    0.000;    0.000
573.935; 6575.725;    0.000;    0.000
574.061; 6444.725;    0.000;    0.000
574.188; 6443.725;    0.000;    0.000
574.314; 6351.725;    0.000;    0.000
574.440; 6405.725;    0.000;    0.000
574.567; 6371.725;    0.000;    0.000
574.693; 6456.725;    0.000;    0.000
574.820; 6309.725;    0.000;    0.000
574.946; 6489.725;    0.000;    0.000
575.072; 6376.725;    0.000;    0.000
575.198; 6263.725;    0.000;    0.000
575.325; 6444.725;    0.000;    0.000
575.451; 6474.725;    0.000;    0.000
575.577; 6376.725;    0.000;    0.000
575.704; 6366.725;    0.000;    0.000
575.830; 6399.725;    0.000;    0.000
575.956; 6304.725;    0.000;    0.000
576.082; 6351.725;    0.000;    0.000
576.208; 6314.725;    0.000;    0.000
576.335; 6239.725;    0.000;    0.000
576.461; 6251.725;    0.000;    0.000
576.587; 6260.725;    0.000;    0.000
576.713; 6335.725;    0.000;    0.000
576.839; 6301.725;    0.000;    0.000
576.965; 6263.725;    0.000;    0.000
577.091; 6271.725;    0.000;    0.000
577.217; 6434.725;    0.000;    0.000
577.343; 6287.725;    0.000;    0.000
577.470; 6440.725;    0.000;    0.000
577.596; 6443.725;    0.000;    0.000
577.722; 6421.725;    0.000;    0.000
577.848; 6299.725;    0.000;    0.000
577.973; 6329.725;    0.000;    0.000
578.099; 6322.725;    0.000;    0.000
578.225; 6425.725;    0.000;    0.000
578.351; 6344.725;    0.000;    0.000
578.477; 6301.725;    0.000;    0.000
578.603; 6374.725;    0.000;    0.000
578.729; 6407.725;    0.000;    0.000
578.855; 6330.725;    0.000;    0.000
578.981; 6374.725;    0.000;    0.000
579.107; 6288.725;    0.000;    0.000
579.232; 6343.725;    0.000;    0.000
579.358; 6321.725;    0.000;    0.000
579.484; 6363.725;    0.000;    0.000
579.610; 6501.725;    0.000;    0.000
579.735; 6536.725;    0.000;    0.000
579.861; 6387.725;    0.000;    0.000
579.987; 6460.725;    0.000;    0.000
580.113; 6491.725;    0.000;    0.000
580.238; 6440.725;    0.000;    0.000
580.364; 6538.725;    0.000;    0.000
580.490; 6569.725;    0.000;    0.000
580.615; 6608.725;    0.000;    0.000
580.741; 6473.725;    0.000;    0.000
580.867; 6552.725;    0.000;    0.000
580.992; 6625.725;    0.000;    0.000
581.118; 6698.725;    0.000;    0.000
581.243; 6732.725;    0.000;    0.000
581.369; 6760.725;    0.000;    0.000
581.494; 6856.725;    0.000;    0.000
581.620; 6804.725;    0.000;    0.000
581.745; 6831.725;    0.000;    0.000
581.871; 6840.725;    0.000;    0.000
581.996; 6986.725;    0.000;    0.000
582.122; 6976.725;    0.000;    0.000
582.247; 7084.725;    0.000;    0.000
582.373; 6973.725;    0.000;    0.000
582.498; 6998.725;    0.000;    0.000
582.624; 7147.725;    0.000;    0.000
582.749; 7282.725;    0.000;    0.000
582.874; 7068.725;    0.000;    0.000
583.000; 7240.725;    0.000;    0.000
583.125; 7249.725;    0.000;    0.000
583.250; 7417.725;    0.000;    0.000
583.376; 7515.725;    0.000;    0.000
583.501; 7504.725;    0.000;    0.000
583.626; 7682.725;    0.000;    0.000
583.751; 7642.725;    0.000;    0.000
583.877; 7620.725;    0.000;    0.000
584.002; 7895.725;    0.000;    0.000
584.127; 8010.725;    0.000;    0.000
584.252; 8061.725;    0.000;    0.000
584.377; 8183.725;    0.000;    0.000
584.503; 8224.725;    0.000;    0.000
584.628; 8335.725;    0.000;    0.000
584.753; 8481.725;    0.000;    0.000
584.878; 8320.725;    0.000;    0.000
585.003; 8647.725;    0.000;    0.000
585.128; 8928.725;    0.000;    0.000
585.253; 9509.725;    0.000;    0.000
585.378; 9468.725;    0.000;    0.000
585.503; 9204.725;    0.000;    0.000
585.628; 9169.725;    0.000;    0.000
585.753; 9316.725;    0.000;    0.000
585.878; 9492.725;    0.000;    0.000
586.003; 9782.725;    0.000;    0.000
586.128;10060.725;    0.000;    0.000
586.253;10346.725;    0.000;    0.000
586.378;10380.725;    0.000;    0.000
586.503;10858.725;    0.000;    0.000
586.628;11167.725;    0.000;    0.000
586.753;11318.725;    0.000;    0.000
586.878;11879.725;    0.000;    0.000
587.003;12186.725;    0.000;    0.000
587.127;12859.725;    0.000;    0.000
587.252;13373.725;    0.000;    0.000
587.377;14141.725;    0.000;    0.000
587.502;14817.725;    0.000;    0.000
587.627;15911.725;    0.000;    0.000
587.751;16759.725;    0.000;    0.000
587.876;18066.725;    0.000;    0.000
588.001;19246.725;    0.000;    0.000
588.125;21008.725;    0.000;    0.000
588.250;22879.725;    0.000;    0.000
588.375;25383.725;    0.000;    0.000
588.499;29047.725;    0.000;    0.000
588.624;33479.725;    0.000;    0.000
588.749;40376.725;    0.000;    0.000
588.873;49307.725;    0.000;    0.000
588.998;58397.725;    0.000;    0.000
589.122;60549.725;    0.000;    0.000
589.247;55845.725;    0.000;    0.000
589.372;51070.725;    0.000;    0.000
589.496;51881.725;    0.000;    0.000
589.621;55582.725;    0.000;    0.000
589.745;53454.725;    0.000;    0.000
589.870;45150.725;    0.000;    0.000
589.994;37901.725;    0.000;    0.000
590.118;32836.725;    0.000;    0.000
590.243;28629.725;    0.000;    0.000
590.367;25785.725;    0.000;    0.000
590.492;23465.725;    0.000;    0.000
590.616;21652.725;    0.000;    0.000
590.740;20042.725;    0.000;    0.000
590.865;18472.725;    0.000;    0.000
590.989;17322.725;    0.000;    0.000
591.114;16442.725;    0.000;    0.000
591.238;15588.725;    0.000;    0.000
591.362;15063.725;    0.000;    0.000
591.486;14532.725;    0.000;    0.000
591.611;13979.725;    0.000;    0.000
591.735;13321.725;    0.000;    0.000
591.859;12838.725;    0.000;    0.000
591.983;12501.725;    0.000;    0.000
592.107;12024.725;    0.000;    0.000
592.232;11559.725;    0.000;    0.000
592.356;11576.725;    0.000;    0.000
592.480;11287.725;    0.000;    0.000
592.604;11032.725;    0.000;    0.000
592.728;10944.725;    0.000;    0.000
592.852;10557.725;    0.000;    0.000
592.976;10268.725;    0.000;    0.000
593.100;10159.725;    0.000;    0.000
593.224;10042.725;    0.000;    0.000
593.349;10234.725;    0.000;    0.000
593.473; 9748.725;    0.000;    0.000
593.597; 9610.725;    0.000;    0.000
593.721; 9569.725;    0.000;    0.000
593.844; 9415.725;    0.000;    0.000
593.968; 9287.725;    0.000;    0.000
594.092; 9206.725;    0.000;    0.000
594.216; 9117.725;    0.000;    0.000
594.340; 8972.725;    0.000;    0.000
594.464; 8801.725;    0.000;    0.000
594.588; 8717.725;    0.000;    0.000
594.712; 8561.725;    0.000;    0.000
594.836; 8558.725;    0.000;    0.000
594.959; 8362.725;    0.000;    0.000
595.083; 8194.725;    0.000;    0.000
595.207; 8196.725;    0.000;    0.000
595.331; 8080.725;    0.000;    0.000
595.455; 8071.725;    0.000;    0.000
595.578; 7869.725;    0.000;    0.000
595.702; 7919.725;    0.000;    0.000
595.826; 7712.725;    0.000;    0.000
595.949; 7620.725;    0.000;    0.000
596.073; 7693.725;    0.000;    0.000
596.197; 7576.725;    0.000;    0.000
596.320; 7515.725;    0.000;    0.000
596.444; 7556.725;    0.000;    0.000
596.568; 7288.725;    0.000;    0.000
596.691; 7362.725;    0.000;    0.000
596.815; 7348.725;    0.000;    0.000
596.938; 7209.725;    0.000;    0.000
597.062; 7072.725;    0.000;    0.000
597.186; 6992.725;    0.000;    0.000
597.309; 7123.725;    0.000;    0.000
597.433; 6998.725;    0.000;    0.000
597.556; 6932.725;    0.000;    0.000
597.679; 6860.725;    0.000;    0.000
597.803; 6976.725;    0.000;    0.000
597.926; 6893.725;    0.000;    0.000
598.050; 6889.725;    0.000;    0.000
598.173; 6798.725;    0.000;    0.000
598.297; 6766.725;    0.000;    0.000
598.420; 6728.725;    0.000;    0.000
598.543; 6716.725;    0.000;    0.000
598.667; 6582.725;    0.000;    0.000
598.790; 6677.725;    0.000;    0.000
598.913; 6475.725;    0.000;    0.000
599.037; 6496.725;    0.000;    0.000
599.160; 6570.725;    0.000;    0.000
599.283; 6483.725;    0.000;    0.000
599.406; 6466.725;    0.000;    0.000
599.530; 6559.725;    0.000;    0.000
599.653; 6322.725;    0.000;    0.000
599.776; 6397.725;    0.000;    0.000
599.899; 6275.725;    0.000;    0.000
600.022; 6385.725;    0.000;    0.000
600.145; 6389.725;    0.000;    0.000
600.269; 6371.725;    0.000;    0.000
600.392; 6336.725;    0.000;    0.000
600.515; 6257.725;    0.000;    0.000
600.638; 6366.725;    0.000;    0.000
600.761; 6234.725;    0.000;    0.000
600.884; 6309.725;    0.000;    0.000
601.007; 6256.725;    0.000;    0.000
601.130; 6226.725;    0.000;    0.000
601.253; 6285.725;    0.000;    0.000
601.376; 6263.725;    0.000;    0.000
601.499; 6190.725;    0.000;    0.000
601.622; 6244.725;    0.000;    0.000
601.745; 6137.725;    0.000;    0.000
601.868; 6020.725;    0.000;    0.000
601.991; 6071.725;    0.000;    0.000
602.113; 6149.725;    0.000;    0.000
602.236; 6058.725;    0.000;    0.000
602.359; 6046.725;    0.000;    0.000
602.482; 6260.725;    0.000;    0.000
602.605; 5991.725;    0.000;    0.000
602.728; 6156.725;    0.000;    0.000
602.850; 5935.725;    0.000;    0.000
602.973; 6027.725;    0.000;    0.000
603.096; 6006.725;    0.000;    0.000
603.219; 5895.725;    0.000;    0.000
603.341; 5854.725;    0.000;    0.000
603.464; 6081.725;    0.000;    0.000
603.587; 5783.725;    0.000;    0.000
603.709; 5813.725;    0.000;    0.000
603.832; 5895.725;    0.000;    0.000
603.955; 5851.725;    0.000;    0.000
604.077; 5736.725;    0.000;    0.000
604.200; 5755.725;    0.000;    0.000
604.322; 5830.725;    0.000;    0.000
604.445; 5797.725;    0.000;    0.000
604.568; 5697.725;    0.000;    0.000
604.690; 5768.725;    0.000;    0.000
604.813; 5771.725;    0.000;    0.000
604.935; 5821.725;    0.000;    0.000
605.058; 5702.725;    0.000;    0.000
605.180; 5690.725;    0.000;    0.000
605.303; 5790.725;    0.000;    0.000
605.425; 5757.725;    0.000;    0.000
605.547; 5728.725;    0.000;    0.000
605.670; 5647.725;    0.000;    0.000
605.792; 5709.725;    0.000;    0.000
605.915; 5623.725;    0.000;    0.000
606.037; 5734.725;    0.000;    0.000
606.159; 5596.725;    0.000;    0.000
606.282; 5599.725;    0.000;    0.000
606.404; 5576.725;    0.000;    0.000
606.526; 5597.725;    0.000;    0.000
606.648; 5515.725;    0.000;    0.000
606.771; 5482.725;    0.000;    0.000
606.893; 5551.725;    0.000;    0.000
607.015; 5506.725;    0.000;    0.000
607.137; 5414.725;    0.000;    0.000
607.260; 5497.725;    0.000;    0.000
607.382; 5585.725;    0.000;    0.000
607.504; 5469.725;    0.000;    0.000
607.626; 5611.725;    0.000;    0.000
607.748; 5593.725;    0.000;    0.000
607.870; 5562.725;    0.000;    0.000
607.992; 5568.725;    0.000;    0.000
608.114; 5632.725;    0.000;    0.000
608.236; 5665.725;    0.000;    0.000
608.359; 5526.725;    0.000;    0.000
608.481; 5503.725;    0.000;    0.000
608.603; 5548.725;    0.000;    0.000
608.725; 5538.725;    0.000;    0.000
608.847; 5522.725;    0.000;    0.000
608.968; 5547.725;    0.000;    0.000
609.090; 5541.725;    0.000;    0.000
609.212; 5522.725;    0.000;    0.000
609.334; 5643.725;    0.000;    0.000
609.456; 5505.725;    0.000;    0.000
609.578; 5581.725;    0.000;    0.000
609.700; 5502.725;    0.000;    0.000
609.822; 5475.725;    0.000;    0.000
609.944; 5481.725;    0.000;    0.000
610.065; 5648.725;    0.000;    0.000
610.187; 5472.725;    0.000;    0.000
610.309; 5525.725;    0.000;    0.000
610.431; 5575.725;    0.000;    0.000
610.552; 5580.725;    0.000;    0.000
610.674; 5444.725;    0.000;    0.000
610.796; 5454.725;    0.000;    0.000
610.918; 5516.725;    0.000;    0.000
611.039; 5373.725;    0.000;    0.000
611.161; 5360.725;    0.000;    0.000
611.282; 5354.725;    0.000;    0.000
611.404; 5435.725;    0.000;    0.000
611.526; 5406.725;    0.000;    0.000
611.647; 5456.725;    0.000;    0.000
611.769; 5268.725;    0.000;    0.000
611.890; 5431.725;    0.000;    0.000
612.012; 5367.725;    0.000;    0.000
612.134; 5491.725;    0.000;    0.000
612.255; 5316.725;    0.000;    0.000
612.377; 5334.725;    0.000;    0.000
612.498; 5233.725;    0.000;    0.000
612.619; 5403.725;    0.000;    0.000
612.741; 5397.725;    0.000;    0.000
612.862; 5452.725;    0.000;    0.000
612.984; 5411.725;    0.000;    0.000
613.105; 5476.725;    0.000;    0.000
613.226; 5215.725;    0.000;    0.000
613.348; 5454.725;    0.000;    0.000
613.469; 5474.725;    0.000;    0.000
613.590; 5359.725;    0.000;    0.000
613.712; 5402.725;    0.000;    0.000
613.833; 5605.725;    0.000;    0.000
613.954; 5565.725;    0.000;    0.000
614.076; 5441.725;    0.000;    0.000
614.197; 5605.725;    0.000;    0.000
614.318; 5489.725;    0.000;    0.000
614.439; 5468.725;    0.000;    0.000
614.560; 5466.725;    0.000;    0.000
614.682; 5480.725;    0.000;    0.000
614.803; 5476.725;    0.000;    0.000
614.924; 5544.725;    0.000;    0.000
615.045; 5406.725;    0.000;    0.000
615.166; 5573.725;    0.000;    0.000
615.287; 5684.725;    0.000;    0.000
615.408; 5908.725;    0.000;    0.000
615.529; 6042.725;    0.000;    0.000
615.650; 5843.725;    0.000;    0.000
615.771; 5666.725;    0.000;    0.000
615.892; 5856.725;    0.000;    0.000
616.013; 6262.725;    0.000;    0.000
616.134; 6741.725;    0.000;    0.000
616.255; 6483.725;    0.000;    0.000
616.376; 5915.725;    0.000;    0.000
616.497; 5744.725;    0.000;    0.000
616.618; 5529.725;    0.000;    0.000
616.739; 5596.725;    0.000;    0.000
616.860; 5531.725;    0.000;    0.000
616.981; 5403.725;    0.000;    0.000
617.101; 5490.725;    0.000;    0.000
617.222; 5492.725;    0.000;    0.000
617.343; 5474.725;    0.000;    0.000
617.464; 5507.725;    0.000;    0.000
617.585; 5361.725;    0.000;    0.000
617.705; 5353.725;    0.000;    0.000
617.826; 5426.725;    0.000;    0.000
617.947; 5427.725;    0.000;    0.000
618.068; 5273.725;    0.000;    0.000
618.188; 5316.725;    0.000;    0.000
618.309; 5220.725;    0.000;    0.000
618.430; 5273.725;    0.000;    0.000
618.550; 5145.725;    0.000;    0.000
618.671; 5242.725;    0.000;    0.000
618.791; 5236.725;    0.000;    0.000
618.912; 5236.725;    0.000;    0.000
619.033; 5270.725;    0.000;    0.000
619.153; 5286.725;    0.000;    0.000
619.274; 5069.725;    0.000;    0.000
619.394; 5280.725;    0.000;    0.000
619.515; 5096.725;    0.000;    0.000
619.635; 5097.725;    0.000;    0.000
619.756; 5101.725;    0.000;    0.000
619.876; 5196.725;    0.000;    0.000
619.996; 5130.725;    0.000;    0.000
620.117; 5070.725;    0.000;    0.000
620.237; 5126.725;    0.000;    0.000
620.358; 5040.725;    0.000;    0.000
620.478; 5142.725;    0.000;    0.000
620.598; 5145.725;    0.000;    0.000
620.719; 5139.725;    0.000;    0.000
620.839; 5045.725;    0.000;    0.000
620.959; 5060.725;    0.000;    0.000
621.079; 5075.725;    0.000;    0.000
621.200; 5074.725;    0.000;    0.000
621.320; 5121.725;    0.000;    0.000
621.440; 5174.725;    0.000;    0.000
621.560; 5038.725;    0.000;    0.000
621.681; 5095.725;    0.000;    0.000
621.801; 5125.725;    0.000;    0.000
621.921; 5150.725;    0.000;    0.000
622.041; 5153.725;    0.000;    0.000
622.161; 5133.725;    0.000;    0.000
622.281; 5067.725;    0.000;    0.000
622.401; 5122.725;    0.000;    0.000
622.521; 5131.725;    0.000;    0.000
622.641; 5160.725;    0.000;    0.000
622.761; 5168.725;    0.000;    0.000
622.882; 5205.725;    0.000;    0.000
623.002; 5161.725;    0.000;    0.000
623.121; 5099.725;    0.000;    0.000
623.241; 4952.725;    0.000;    0.000
623.361; 5016.725;    0.000;    0.000
623.481; 5052.725;    0.000;    0.000
623.601; 5070.725;    0.000;    0.000
623.721; 5067.725;    0.000;    0.000
623.841; 5068.725;    0.000;    0.000
623.961; 5082.725;    0.000;    0.000
624.081; 4918.725;    0.000;    0.000
624.201; 5011.725;    0.000;    0.000
624.320; 5033.725;    0.000;    0.000
624.440; 4936.725;    0.000;    0.000
624.560; 4983.725;    0.000;    0.000
624.680; 4977.725;    0.000;    0.000
624.799; 4839.725;    0.000;    0.000
624.919; 4902.725;    0.000;    0.000
625.039; 4992.725;    0.000;    0.000
625.159; 4913.725;    0.000;    0.000
625.278; 5040.725;    0.000;    0.000
625.398; 5021.725;    0.000;    0.000
625.518; 4889.725;    0.000;    0.000
625.637; 4826.725;    0.000;    0.000
625.757; 4896.725;    0.000;    0.000
625.876; 4754.725;    0.000;    0.000
625.996; 5026.725;    0.000;    0.000
626.115; 4876.725;    0.000;    0.000
626.235; 4917.725;    0.000;    0.000
626.355; 4828.725;    0.000;    0.000
626.474; 4899.725;    0.000;    0.000
626.593; 4803.725;    0.000;    0.000
626.713; 4882.725;    0.000;    0.000
626.832; 4864.725;    0.000;    0.000
626.952; 4848.725;    0.000;    0.000
627.071; 4985.725;    0.000;    0.000
627.191; 4967.725;    0.000;    0.000
627.310; 4811.725;    0.000;    0.000
627.429; 4780.725;    0.000;    0.000
627.549; 4954.725;    0.000;    0.000
627.668; 4886.725;    0.000;    0.000
627.787; 4857.725;    0.000;    0.000
627.907; 4857.725;    0.000;    0.000
628.026; 4818.725;    0.000;    0.000
628.145; 4707.725;    0.000;    0.000
628.264; 4841.725;    0.000;    0.000
628.384; 4946.725;    0.000;    0.000
628.503; 4768.725;    0.000;    0.000
628.622; 4811.725;    0.000;    0.000
628.741; 4871.725;    0.000;    0.000
628.860; 4800.725;    0.000;    0.000
628.980; 4853.725;    0.000;    0.000
629.099; 4848.725;    0.000;    0.000
629.218; 4829.725;    0.000;    0.000
629.337; 4845.725;    0.000;    0.000
629.456; 4776.725;    0.000;    0.000
629.575; 4780.725;    0.000;    0.000
629.694; 4828.725;    0.000;    0.000
629.813; 4604.725;    0.000;    0.000
629.932; 4764.725;    0.000;    0.000
630.051; 4710.725;    0.000;    0.000
630.170; 4778.725;    0.000;    0.000
630.289; 4734.725;    0.000;    0.000
630.408; 4706.725;    0.000;    0.000
630.527; 4684.725;    0.000;    0.000
630.646; 4667.725;    0.000;    0.000
630.764; 4657.725;    0.000;    0.000
630.883; 4647.725;    0.000;    0.000
631.002; 4551.725;    0.000;    0.000
631.121; 4576.725;    0.000;    0.000
631.240; 4701.725;    0.000;    0.000
631.359; 4730.725;    0.000;    0.000
631.477; 4715.725;    0.000;    0.000
631.596; 4677.725;    0.000;    0.000
631.715; 4660.725;    0.000;    0.000
631.834; 4670.725;    0.000;    0.000
631.952; 4699.725;    0.000;    0.000
632.071; 4511.725;    0.000;    0.000
632.190; 4650.725;    0.000;    0.000
632.308; 4630.725;    0.000;    0.000
632.427; 4603.725;    0.000;    0.000
632.546; 4647.725;    0.000;    0.000
632.664; 4497.725;    0.000;    0.000
632.783; 4685.725;    0.000;    0.000
632.901; 4545.725;    0.000;    0.000
633.020; 4643.725;    0.000;    0.000
633.138; 4529.725;    0.000;    0.000
633.257; 4474.725;    0.000;    0.000
633.375; 4652.725;    0.000;    0.000
633.494; 4688.725;    0.000;    0.000
633.612; 4635.725;    0.000;    0.000
633.731; 4510.725;    0.000;    0.000
633.849; 4649.725;    0.000;    0.000
633.968; 4574.725;    0.000;    0.000
634.086; 4552.725;    0.000;    0.000
634.204; 4607.725;    0.000;    0.000
634.323; 4613.725;    0.000;    0.000
634.441; 4554.725;    0.000;    0.000
634.559; 4461.725;    0.000;    0.000
634.678; 4520.725;    0.000;    0.000
634.796; 4451.725;    0.000;    0.000
634.914; 4502.725;    0.000;    0.000
635.032; 4511.725;    0.000;    0.000
635.151; 4466.725;    0.000;    0.000
635.269; 4540.725;    0.000;    0.000
635.387; 4481.725;    0.000;    0.000
635.505; 4489.725;    0.000;    0.000
635.623; 4449.725;    0.000;    0.000
635.742; 4447.725;    0.000;    0.000
635.860; 4524.725;    0.000;    0.000
635.978; 4520.725;    0.000;    0.000
636.096; 4498.725;    0.000;    0.000
636.214; 4506.725;    0.000;    0.000
636.332; 4449.725;    0.000;    0.000
636.450; 4438.725;    0.000;    0.000
636.568; 4450.725;    0.000;    0.000
636.686; 4465.725;    0.000;    0.000
636.804; 4497.725;    0.000;    0.000
636.922; 4480.725;    0.000;    0.000
637.040; 4553.725;    0.000;    0.000
637.158; 4449.725;    0.000;    0.000
637.276; 4486.725;    0.000;    0.000
637.394; 4494.725;    0.000;    0.000
637.512; 4472.725;    0.000;    0.000
637.629; 4368.725;    0.000;    0.000
637.747; 4398.725;    0.000;    0.000
637.865; 4433.725;    0.000;    0.000
637.983; 4453.725;    0.000;    0.000
638.101; 4484.725;    0.000;    0.000
638.218; 4482.725;    0.000;    0.000
638.336; 4469.725;    0.000;    0.000
638.454; 4334.725;    0.000;    0.000
638.572; 4378.725;    0.000;    0.000
638.689; 4346.725;    0.000;    0.000
638.807; 4469.725;    0.000;    0.000
638.925; 4410.725;    0.000;    0.000
639.042; 4451.725;    0.000;    0.000
639.160; 4467.725;    0.000;    0.000
639.278; 4339.725;    0.000;    0.000
639.395; 4360.725;    0.000;    0.000
639.513; 4549.725;    0.000;    0.000
639.630; 4419.725;    0.000;    0.000
639.748; 4455.725;    0.000;    0.000
639.865; 4417.725;    0.000;    0.000
639.983; 4436.725;    0.000;    0.000
640.100; 4342.725;    0.000;    0.000
640.218; 4449.725;    0.000;    0.000
640.335; 4327.725;    0.000;    0.000
640.453; 4410.725;    0.000;    0.000
640.570; 4386.725;    0.000;    0.000
640.687; 4405.725;    0.000;    0.000
640.805; 4460.725;    0.000;    0.000
640.922; 4359.725;    0.000;    0.000
641.040; 4397.725;    0.000;    0.000
641.157; 4287.725;    0.000;    0.000
641.274; 4456.725;    0.000;    0.000
641.391; 4464.725;    0.000;    0.000
641.509; 4307.725;    0.000;    0.000
641.626; 4482.725;    0.000;    0.000
641.743; 4417.725;    0.000;    0.000
641.860; 4306.725;    0.000;    0.000
641.978; 4360.725;    0.000;    0.000
642.095; 4425.725;    0.000;    0.000
642.212; 4291.725;    0.000;    0.000
642.329; 4316.725;    0.000;    0.000
642.446; 4319.725;    0.000;    0.000
642.563; 4428.725;    0.000;    0.000
642.681; 4266.725;    0.000;    0.000
642.798; 4379.725;    0.000;    0.000
642.915; 4336.725;    0.000;    0.000
643.032; 4275.725;    0.000;    0.000
643.149; 4328.725;    0.000;    0.000
643.266; 4353.725;    0.000;    0.000
643.383; 4369.725;    0.000;    0.000
643.500; 4354.725;    0.000;    0.000
643.617; 4331.725;    0.000;    0.000
643.734; 4296.725;    0.000;    0.000
643.850; 4424.725;    0.000;    0.000
643.967; 4386.725;    0.000;    0.000
644.084; 4471.725;    0.000;    0.000
644.201; 4365.725;    0.000;    0.000
644.318; 4370.725;    0.000;    0.000
644.435; 4450.725;    0.000;    0.000
644.552; 4405.725;    0.000;    0.000
644.668; 4515.725;    0.000;    0.000
644.785; 4438.725;    0.000;    0.000
644.902; 4523.725;    0.000;    0.000
645.019; 4441.725;    0.000;    0.000
645.135; 4404.725;    0.000;    0.000
645.252; 4429.725;    0.000;    0.000
645.369; 4587.725;    0.000;    0.000
645.485; 4451.725;    0.000;    0.000
645.602; 4382.725;    0.000;    0.000
645.719; 4464.725;    0.000;    0.000
645.835; 4550.725;    0.000;    0.000
645.952; 4501.725;    0.000;    0.000
646.068; 4501.725;    0.000;    0.000
646.185; 4537.725;    0.000;    0.000
646.302; 4586.725;    0.000;    0.000
646.418; 4537.725;    0.000;    0.000
646.535; 4554.725;    0.000;    0.000
646.651; 4440.725;    0.000;    0.000
646.768; 4486.725;    0.000;    0.000
646.884; 4583.725;    0.000;    0.000
647.000; 4566.725;    0.000;    0.000
647.117; 4515.725;    0.000;    0.000
647.233; 4478.725;    0.000;    0.000
647.350; 4503.725;    0.000;    0.000
647.466; 4617.725;    0.000;    0.000
647.582; 4573.725;    0.000;    0.000
647.699; 4597.725;    0.000;    0.000
647.815; 4505.725;    0.000;    0.000
647.931; 4577.725;    0.000;    0.000
648.047; 4648.725;    0.000;    0.000
648.164; 4688.725;    0.000;    0.000
648.280; 4608.725;    0.000;    0.000
648.396; 4698.725;    0.000;    0.000
648.512; 4768.725;    0.000;    0.000
648.629; 4666.725;    0.000;    0.000
648.745; 4572.725;    0.000;    0.000
648.861; 4696.725;    0.000;    0.000
648.977; 4699.725;    0.000;    0.000
649.093; 4612.725;    0.000;    0.000
649.209; 4721.725;    0.000;    0.000
649.325; 4680.725;    0.000;    0.000
649.441; 4722.725;    0.000;    0.000
649.557; 4717.725;    0.000;    0.000
649.673; 4730.725;    0.000;    0.000
649.789; 4762.725;    0.000;    0.000
649.905; 4722.725;    0.000;    0.000
650.021; 4833.725;    0.000;    0.000
650.137; 4832.725;    0.000;    0.000
650.253; 4833.725;    0.000;    0.000
650.369; 4803.725;    0.000;    0.000
650.485; 4751.725;    0.000;    0.000
650.601; 4770.725;    0.000;    0.000
650.717; 4762.725;    0.000;    0.000
650.833; 4766.725;    0.000;    0.000
650.948; 4941.725;    0.000;    0.000
651.064; 4839.725;    0.000;    0.000
651.180; 4897.725;    0.000;    0.000
651.296; 4913.725;    0.000;    0.000
651.411; 4919.725;    0.000;    0.000
651.527; 4850.725;    0.000;    0.000
651.643; 4931.725;    0.000;    0.000
651.759; 4918.725;    0.000;    0.000
651.874; 4968.725;    0.000;    0.000
651.990; 4933.725;    0.000;    0.000
652.105; 5051.725;    0.000;    0.000
652.221; 4981.725;    0.000;    0.000
652.337; 5059.725;    0.000;    0.000
652.452; 5108.725;    0.000;    0.000
652.568; 5012.725;    0.000;    0.000
652.683; 5101.725;    0.000;    0.000
652.799; 5092.725;    0.000;    0.000
652.914; 5037.725;    0.000;    0.000
653.030; 5132.725;    0.000;    0.000
653.145; 5232.725;    0.000;    0.000
653.261; 5278.725;    0.000;    0.000
653.376; 5342.725;    0.000;    0.000
653.492; 5356.725;    0.000;    0.000
653.607; 5274.725;    0.000;    0.000
653.722; 5420.725;    0.000;    0.000
653.838; 5451.725;    0.000;    0.000
653.953; 5591.725;    0.000;    0.000
654.068; 5492.725;    0.000;    0.000
654.184; 5737.725;    0.000;    0.000
654.299; 5642.725;    0.000;    0.000
654.414; 5709.725;    0.000;    0.000
654.530; 5829.725;    0.000;    0.000
654.645; 5994.725;    0.000;    0.000
654.760; 5982.725;    0.000;    0.000
654.875; 6061.725;    0.000;    0.000
654.990; 6248.725;    0.000;    0.000
655.106; 6358.725;    0.000;    0.000
655.221; 6425.725;    0.000;    0.000
655.336; 6439.725;    0.000;    0.000
655.451; 6690.725;    0.000;    0.000
655.566; 6698.725;    0.000;    0.000
655.681; 6975.725;    0.000;    0.000
655.796; 7032.725;    0.000;    0.000
655.911; 7185.725;    0.000;    0.000
656.026; 7559.725;    0.000;    0.000
656.141; 7923.725;    0.000;    0.000
656.256; 7965.725;    0.000;    0.000
656.371; 8096.725;    0.000;    0.000
656.486; 8174.725;    0.000;    0.000
656.601; 7955.725;    0.000;    0.000
656.716; 7933.725;    0.000;    0.000
656.831; 7686.725;    0.000;    0.000
656.946; 7682.725;    0.000;    0.000
657.060; 7455.725;    0.000;    0.000
657.175; 7371.725;    0.000;    0.000
657.290; 7384.725;    0.000;    0.000
657.405; 7187.725;    0.000;    0.000
657.520; 6973.725;    0.000;    0.000
657.634; 6883.725;    0.000;    0.000
657.749; 6715.725;    0.000;    0.000
657.864; 6672.725;    0.000;    0.000
657.979; 6607.725;    0.000;    0.000
658.093; 6436.725;    0.000;    0.000
658.208; 6403.725;    0.000;    0.000
658.323; 6397.725;    0.000;    0.000
658.437; 6228.725;    0.000;    0.000
658.552; 6199.725;    0.000;    0.000
658.666; 6136.725;    0.000;    0.000
658.781; 5935.725;    0.000;    0.000
658.895; 6060.725;    0.000;    0.000
659.010; 5882.725;    0.000;    0.000
659.125; 5885.725;    0.000;    0.000
659.239; 5706.725;    0.000;    0.000
659.353; 5655.725;    0.000;    0.000
659.468; 5678.725;    0.000;    0.000
659.582; 5661.725;    0.000;    0.000
659.697; 5550.725;    0.000;    0.000
659.811; 5533.725;    0.000;    0.000
659.926; 5459.725;    0.000;    0.000
660.040; 5389.725;    0.000;    0.000
660.154; 5384.725;    0.000;    0.000
660.269; 5431.725;    0.000;    0.000
660.383; 5262.725;    0.000;    0.000
660.497; 5323.725;    0.000;    0.000
660.612; 5384.725;    0.000;    0.000
660.726; 5204.725;    0.000;    0.000
660.840; 5193.725;    0.000;    0.000
660.954; 5143.725;    0.000;    0.000
661.068; 5243.725;    0.000;    0.000
661.183; 5066.725;    0.000;    0.000
661.297; 5024.725;    0.000;    0.000
661.411; 4972.725;    0.000;    0.000
661.525; 4925.725;    0.000;    0.000
661.639; 5013.725;    0.000;    0.000
661.753; 4805.725;    0.000;    0.000
661.867; 4890.725;    0.000;    0.000
661.981; 4800.725;    0.000;    0.000
662.095; 4872.725;    0.000;    0.000
662.209; 4754.725;    0.000;    0.000
662.323; 4688.725;    0.000;    0.000
662.437; 4753.725;    0.000;    0.000
662.551; 4788.725;    0.000;    0.000
662.665; 4690.725;    0.000;    0.000
662.779; 4643.725;    0.000;    0.000
662.893; 4680.725;    0.000;    0.000
663.007; 4632.725;    0.000;    0.000
663.121; 4560.725;    0.000;    0.000
663.235; 4601.725;    0.000;    0.000
663.348; 4509.725;    0.000;    0.000
663.462; 4588.725;    0.000;    0.000
663.576; 4444.725;    0.000;    0.000
663.690; 4496.725;    0.000;    0.000
663.804; 4428.725;    0.000;    0.000
663.917; 4404.725;    0.000;    0.000
664.031; 4356.725;    0.000;    0.000
664.145; 4414.725;    0.000;    0.000
664.258; 4350.725;    0.000;    0.000
664.372; 4312.725;    0.000;    0.000
664.486; 4370.725;    0.000;    0.000
664.599; 4338.725;    0.000;    0.000
664.713; 4351.725;    0.000;    0.000
664.827; 4299.725;    0.000;    0.000
664.940; 4286.725;    0.000;    0.000
665.054; 4345.725;    0.000;    0.000
665.167; 4281.725;    0.000;    0.000
665.281; 4257.725;    0.000;    0.000
665.394; 4207.725;    0.000;    0.000
665.508; 4213.725;    0.000;    0.000
665.621; 4216.725;    0.000;    0.000
665.735; 4230.725;    0.000;    0.000
665.848; 4206.725;    0.000;    0.000
665.961; 4091.725;    0.000;    0.000
666.075; 4174.725;    0.000;    0.000
666.188; 4254.725;    0.000;    0.000
666.301; 4187.725;    0.000;    0.000
666.415; 4143.725;    0.000;    0.000
666.528; 4127.725;    0.000;    0.000
666.641; 4045.725;    0.000;    0.000
666.755; 4049.725;    0.000;    0.000
666.868; 4131.725;    0.000;    0.000
666.981; 4123.725;    0.000;    0.000
667.094; 4019.725;    0.000;    0.000
667.207; 4028.725;    0.000;    0.000
667.321; 4054.725;    0.000;    0.000
667.434; 3987.725;    0.000;    0.000
667.547; 4001.725;    0.000;    0.000
667.660; 4009.725;    0.000;    0.000
667.773; 3964.725;    0.000;    0.000
667.886; 3941.725;    0.000;    0.000
667.999; 4011.725;    0.000;    0.000
668.112; 3958.725;    0.000;    0.000
668.225; 3842.725;    0.000;    0.000
668.338; 3896.725;    0.000;    0.000
668.451; 3960.725;    0.000;    0.000
668.564; 3883.725;    0.000;    0.000
668.677; 3903.725;    0.000;    0.000
668.790; 3855.725;    0.000;    0.000
668.903; 3826.725;    0.000;    0.000
669.016; 3806.725;    0.000;    0.000
669.129; 3949.725;    0.000;    0.000
669.242; 3777.725;    0.000;    0.000
669.355; 3903.725;    0.000;    0.000
669.467; 3849.725;    0.000;    0.000
669.580; 3929.725;    0.000;    0.000
669.693; 3804.725;    0.000;    0.000
669.806; 3902.725;    0.000;    0.000
669.918; 3723.725;    0.000;    0.000
670.031; 3874.725;    0.000;    0.000
670.144; 3664.725;    0.000;    0.000
670.256; 3760.725;    0.000;    0.000
670.369; 3859.725;    0.000;    0.000
670.482; 3765.725;    0.000;    0.000
670.594; 3889.725;    0.000;    0.000
670.707; 3772.725;    0.000;    0.000
670.820; 3824.725;    0.000;    0.000
670.932; 3717.725;    0.000;    0.000
671.045; 3770.725;    0.000;    0.000
671.157; 3744.725;    0.000;    0.000
671.270; 3620.725;    0.000;    0.000
671.382; 3774.725;    0.000;    0.000
671.495; 3762.725;    0.000;    0.000
671.607; 3725.725;    0.000;    0.000
671.720; 3700.725;    0.000;    0.000
671.832; 3694.725;    0.000;    0.000
671.944; 3751.725;    0.000;    0.000
672.057; 3723.725;    0.000;    0.000
672.169; 3640.725;    0.000;    0.000
672.282; 3724.725;    0.000;    0.000
672.394; 3681.725;    0.000;    0.000
672.506; 3637.725;    0.000;    0.000
672.618; 3709.725;    0.000;    0.000
672.731; 3664.725;    0.000;    0.000
672.843; 3666.725;    0.000;    0.000
672.955; 3610.725;    0.000;    0.000
673.067; 3726.725;    0.000;    0.000
673.180; 3784.725;    0.000;    0.000
673.292; 3630.725;    0.000;    0.000
673.404; 3603.725;    0.000;    0.000
673.516; 3545.725;    0.000;    0.000
673.628; 3639.725;    0.000;    0.000
673.740; 3550.725;    0.000;    0.000
673.852; 3671.725;    0.000;    0.000
673.964; 3673.725;    0.000;    0.000
674.076; 3646.725;    0.000;    0.000
674.188; 3521.725;    0.000;    0.000
674.300; 3607.725;    0.000;    0.000
674.412; 3641.725;    0.000;    0.000
674.524; 3648.725;    0.000;    0.000
674.636; 3665.725;    0.000;    0.000
674.748; 3624.725;    0.000;    0.000
674.860; 3605.725;    0.000;    0.000
674.972; 3554.725;    0.000;    0.000
675.084; 3598.725;    0.000;    0.000
675.196; 3610.725;    0.000;    0.000
675.307; 3580.725;    0.000;    0.000
675.419; 3512.725;    0.000;    0.000
675.531; 3597.725;    0.000;    0.000
675.643; 3553.725;    0.000;    0.000
675.755; 3551.725;    0.000;    0.000
675.866; 3654.725;    0.000;    0.000
675.978; 3562.725;    0.000;    0.000
676.090; 3498.725;    0.000;    0.000
676.201; 3626.725;    0.000;    0.000
676.313; 3501.725;    0.000;    0.000
676.425; 3457.725;    0.000;    0.000
676.536; 3603.725;    0.000;    0.000
676.648; 3517.725;    0.000;    0.000
676.759; 3573.725;    0.000;    0.000
676.871; 3540.725;    0.000;    0.000
676.983; 3554.725;    0.000;    0.000
677.094; 3553.725;    0.000;    0.000
677.206; 3594.725;    0.000;    0.000
677.317; 3462.725;    0.000;    0.000
677.429; 3468.725;    0.000;    0.000
677.540; 3477.725;    0.000;    0.000
677.651; 3428.725;    0.000;    0.000
677.763; 3421.725;    0.000;    0.000
677.874; 3381.725;    0.000;    0.000
677.986; 3432.725;    0.000;    0.000
678.097; 3530.725;    0.000;    0.000
678.208; 3492.725;    0.000;    0.000
678.320; 3460.725;    0.000;    0.000
678.431; 3456.725;    0.000;    0.000
678.542; 3410.725;    0.000;    0.000
678.653; 3351.725;    0.000;    0.000
678.765; 3424.725;    0.000;    0.000
678.876; 3324.725;    0.000;    0.000
678.987; 3374.725;    0.000;    0.000
679.098; 3415.725;    0.000;    0.000
679.209; 3511.725;    0.000;    0.000
679.320; 3448.725;    0.000;    0.000
679.432; 3388.725;    0.000;    0.000
679.543; 3419.725;    0.000;    0.000
679.654; 3445.725;    0.000;    0.000
679.765; 3383.725;    0.000;    0.000
679.876; 3462.725;    0.000;    0.000
679.987; 3352.725;    0.000;    0.000
680.098; 3397.725;    0.000;    0.000
680.209; 3526.725;    0.000;    0.000
680.320; 3403.725;    0.000;    0.000
680.431; 3431.725;    0.000;    0.000
680.542; 3444.725;    0.000;    0.000
680.653; 3382.725;    0.000;    0.000
680.763; 3335.725;    0.000;    0.000
680.874; 3369.725;    0.000;    0.000
680.985; 3349.725;    0.000;    0.000
681.096; 3388.725;    0.000;    0.000
681.207; 3311.725;    0.000;    0.000
681.318; 3249.725;    0.000;    0.000
681.428; 3438.725;    0.000;    0.000
681.539; 3452.725;    0.000;    0.000
681.650; 3356.725;    0.000;    0.000
681.761; 3433.725;    0.000;    0.000
681.871; 3360.725;    0.000;    0.000
681.982; 3363.725;    0.000;    0.000
682.093; 3286.725;    0.000;    0.000
682.203; 3392.725;    0.000;    0.000
682.314; 3454.725;    0.000;    0.000
682.424; 3378.725;    0.000;    0.000
682.535; 3329.725;    0.000;    0.000
682.645; 3367.725;    0.000;    0.000
682.756; 3396.725;    0.000;    0.000
682.867; 3401.725;    0.000;    0.000
682.977; 3321.725;    0.000;    0.000
683.087; 3386.725;    0.000;    0.000
683.198; 3371.725;    0.000;    0.000
683.308; 3350.725;    0.000;    0.000
683.419; 3376.725;    0.000;    0.000
683.529; 3336.725;    0.000;    0.000
683.640; 3297.725;    0.000;    0.000
683.750; 3367.725;    0.000;    0.000
683.860; 3405.725;    0.000;    0.000
683.971; 3260.725;    0.000;    0.000
684.081; 3262.725;    0.000;    0.000
684.191; 3464.725;    0.000;    0.000
684.301; 3255.725;    0.000;    0.000
684.412; 3380.725;    0.000;    0.000
684.522; 3320.725;    0.000;    0.000
684.632; 3299.725;    0.000;    0.000
684.742; 3306.725;    0.000;    0.000
684.852; 3267.725;    0.000;    0.000
684.963; 3314.725;    0.000;    0.000
685.073; 3338.725;    0.000;    0.000
685.183; 3381.725;    0.000;    0.000
685.293; 3267.725;    0.000;    0.000
685.403; 3345.725;    0.000;    0.000
685.513; 3269.725;    0.000;    0.000
685.623; 3321.725;    0.000;    0.000
685.733; 3364.725;    0.000;    0.000
685.843; 3305.725;    0.000;    0.000
685.953; 3360.725;    0.000;    0.000
686.063; 3288.725;    0.000;    0.000
686.173; 3224.725;    0.000;    0.000
686.283; 3362.725;    0.000;    0.000
686.393; 3362.725;    0.000;    0.000
686.503; 3334.725;    0.000;    0.000
686.612; 3350.725;    0.000;    0.000
686.722; 3372.725;    0.000;    0.000
686.832; 3333.725;    0.000;    0.000
686.942; 3287.725;    0.000;    0.000
687.052; 3339.725;    0.000;    0.000
687.161; 3369.725;    0.000;    0.000
687.271; 3316.725;    0.000;    0.000
687.381; 3262.725;    0.000;    0.000
687.491; 3339.725;    0.000;    0.000
687.600; 3289.725;    0.000;    0.000
687.710; 3342.725;    0.000;    0.000
687.820; 3292.725;    0.000;    0.000
687.929; 3251.725;    0.000;    0.000
688.039; 3309.725;    0.000;    0.000
688.148; 3350.725;    0.000;    0.000
688.258; 3231.725;    0.000;    0.000
688.367; 3242.725;    0.000;    0.000
688.477; 3215.725;    0.000;    0.000
688.586; 3310.725;    0.000;    0.000
688.696; 3321.725;    0.000;    0.000
688.805; 3377.725;    0.000;    0.000
688.915; 3281.725;    0.000;    0.000
689.024; 3255.725;    0.000;    0.000
689.134; 3209.725;    0.000;    0.000
689.243; 3276.725;    0.000;    0.000
689.352; 3186.725;    0.000;    0.000
689.462; 3272.725;    0.000;    0.000
689.571; 3311.725;    0.000;    0.000
689.680; 3240.725;    0.000;    0.000
689.790; 3246.725;    0.000;    0.000
689.899; 3185.725;    0.000;    0.000
690.008; 3294.725;    0.000;    0.000
690.117; 3303.725;    0.000;    0.000
690.227; 3272.725;    0.000;    0.000
690.336; 3273.725;    0.000;    0.000
690.445; 3216.725;    0.000;    0.000
690.554; 3245.725;    0.000;    0.000
690.663; 3207.725;    0.000;    0.000
690.772; 3240.725;    0.000;    0.000
690.881; 3222.725;    0.000;    0.000
690.990; 3190.725;    0.000;    0.000
691.100; 3292.725;    0.000;    0.000
691.209; 3253.725;    0.000;    0.000
691.318; 3240.725;    0.000;    0.000
691.427; 3265.725;    0.000;    0.000
691.535; 3211.725;    0.000;    0.000
691.644; 3226.725;    0.000;    0.000
691.753; 3214.725;    0.000;    0.000
691.862; 3166.725;    0.000;    0.000
691.971; 3240.725;    0.000;    0.000
692.080; 3269.725;    0.000;    0.000
692.189; 3225.725;    0.000;    0.000
692.298; 3221.725;    0.000;    0.000
692.407; 3249.725;    0.000;    0.000
692.515; 3182.725;    0.000;    0.000
692.624; 3242.725;    0.000;    0.000
692.733; 3248.725;    0.000;    0.000
692.842; 3336.725;    0.000;    0.000
692.950; 3318.725;    0.000;    0.000
693.059; 3237.725;    0.000;    0.000
693.168; 3219.725;    0.000;    0.000
693.276; 3280.725;    0.000;    0.000
693.385; 3234.725;    0.000;    0.000
693.494; 3247.725;    0.000;    0.000
693.602; 3268.725;    0.000;    0.000
693.711; 3317.725;    0.000;    0.000
693.819; 3298.725;    0.000;    0.000
693.928; 3245.725;    0.000;    0.000
694.036; 3185.725;    0.000;    0.000
694.145; 3308.725;    0.000;    0.000
694.253; 3194.725;    0.000;    0.000
694.362; 3265.725;    0.000;    0.000
694.470; 3236.725;    0.000;    0.000
694.579; 3244.725;    0.000;    0.000
694.687; 3278.725;    0.000;    0.000
694.795; 3179.725;    0.000;    0.000
694.904; 3212.725;    0.000;    0.000
695.012; 3252.725;    0.000;    0.000
695.120; 3282.725;    0.000;    0.000
695.229; 3305.725;    0.000;    0.000
695.337; 3207.725;    0.000;    0.000
695.445; 3322.725;    0.000;    0.000
695.553; 3292.725;    0.000;    0.000
695.662; 3313.725;    0.000;    0.000
695.770; 3272.725;    0.000;    0.000
695.878; 3279.725;    0.000;    0.000
695.986; 3175.725;    0.000;    0.000
696.094; 3300.725;    0.000;    0.000
696.202; 3262.725;    0.000;    0.000
696.310; 3198.725;    0.000;    0.000
696.419; 3215.725;    0.000;    0.000
696.527; 3257.725;    0.000;    0.000
696.635; 3208.725;    0.000;    0.000
696.743; 3259.725;    0.000;    0.000
696.851; 3327.725;    0.000;    0.000
696.959; 3229.725;    0.000;    0.000
697.067; 3272.725;    0.000;    0.000
697.174; 3248.725;    0.000;    0.000
697.282; 3235.725;    0.000;    0.000
697.390; 3289.725;    0.000;    0.000
697.498; 3174.725;    0.000;    0.000
697.606; 3182.725;    0.000;    0.000
697.714; 3284.725;    0.000;    0.000
697.822; 3279.725;    0.000;    0.000
697.929; 3194.725;    0.000;    0.000
698.037; 3293.725;    0.000;    0.000
698.145; 3305.725;    0.000;    0.000
698.253; 3216.725;    0.000;    0.000
698.360; 3345.725;    0.000;    0.000
698.468; 3303.725;    0.000;    0.000
698.576; 3254.725;    0.000;    0.000
698.683; 3266.725;    0.000;    0.000
698.791; 3260.725;    0.000;    0.000
698.899; 3332.725;    0.000;    0.000
699.006; 3237.725;    0.000;    0.000
699.114; 3227.725;    0.000;    0.000
699.221; 3325.725;    0.000;    0.000
699.329; 3310.725;    0.000;    0.000
699.436; 3396.725;    0.000;    0.000
699.544; 3308.725;    0.000;    0.000
699.651; 3309.725;    0.000;    0.000
699.759; 3254.725;    0.000;    0.000
699.866; 3333.725;    0.000;    0.000
699.974; 3158.725;    0.000;    0.000
700.081; 3270.725;    0.000;    0.000
700.188; 3302.725;    0.000;    0.000
700.296; 3183.725;    0.000;    0.000
700.403; 3346.725;    0.000;    0.000
700.510; 3189.725;    0.000;    0.000
700.618; 3205.725;    0.000;    0.000
700.725; 3207.725;    0.000;    0.000
700.832; 3205.725;    0.000;    0.000
700.940; 3313.725;    0.000;    0.000
701.047; 3272.725;    0.000;    0.000
701.154; 3232.725;    0.000;    0.000
701.261; 3273.725;    0.000;    0.000
701.368; 3280.725;    0.000;    0.000
701.475; 3220.725;    0.000;    0.000
701.582; 3298.725;    0.000;    0.000
701.690; 3256.725;    0.000;    0.000
701.797; 3188.725;    0.000;    0.000
701.904; 3282.725;    0.000;    0.000
702.011; 3436.725;    0.000;    0.000
702.118; 3289.725;    0.000;    0.000
702.225; 3238.725;    0.000;    0.000
702.332; 3312.725;    0.000;    0.000
702.439; 3291.725;    0.000;    0.000
702.546; 3356.725;    0.000;    0.000
702.652; 3350.725;    0.000;    0.000
702.759; 3371.725;    0.000;    0.000
702.866; 3152.725;    0.000;    0.000
702.973; 3261.725;    0.000;    0.000
703.080; 3314.725;    0.000;    0.000
703.187; 3239.725;    0.000;    0.000
703.293; 3303.725;    0.000;    0.000
703.400; 3060.725;    0.000;    0.000
703.507;  654.725;    0.000;    0.000
703.614;  323.725;    0.000;    0.000
703.720;  291.725;    0.000;    0.000
703.827;  343.725;    0.000;    0.000
703.934;  328.725;    0.000;    0.000
704.040;  307.725;    0.000;    0.000
704.147;  335.725;    0.000;    0.000
704.254;  335.725;    0.000;    0.000
704.360;  327.725;    0.000;    0.000
704.467;  366.725;    0.000;    0.000
704.573;  343.725;    0.000;    0.000
704.680;  327.725;    0.000;    0.000
704.786;  305.725;    0.000;    0.000
704.893;  333.725;    0.000;    0.000
704.999;  321.725;    0.000;    0.000
705.106;  331.725;    0.000;    0.000

