
Integration time [ms]:   1.000
Averaging Nr. [scans]: 1
Smoothing Nr. [pixels]: 0
Data measured with spectrometer [name]: VIS
Wave   ;Sample   ;Dark     ;Reference
[nm]   ;[counts] ;[counts] ;[counts] 

450.961;  193.475;    0.000;    0.000
451.100;  219.475;    0.000;    0.000
451.239;  204.475;    0.000;    0.000
451.377;  223.475;    0.000;    0.000
451.516;  217.475;    0.000;    0.000
451.655;  222.475;    0.000;    0.000
451.794;  245.475;    0.000;    0.000
451.932;  210.475;    0.000;    0.000
452.071;  223.475;    0.000;    0.000
452.210;  246.475;    0.000;    0.000
452.348;  233.475;    0.000;    0.000
452.487;  230.475;    0.000;    0.000
452.626;  205.475;    0.000;    0.000
452.764;  239.475;    0.000;    0.000
452.903;  227.475;    0.000;    0.000
453.042;  304.475;    0.000;    0.000
453.180; 4233.475;    0.000;    0.000
453.319; 4314.475;    0.000;    0.000
453.458; 4403.475;    0.000;    0.000
453.596; 4371.475;    0.000;    0.000
453.735; 4442.475;    0.000;    0.000
453.873; 4502.475;    0.000;    0.000
454.012; 4451.475;    0.000;    0.000
454.150; 4595.475;    0.000;    0.000
454.289; 4525.475;    0.000;    0.000
454.427; 4713.475;    0.000;    0.000
454.566; 4653.475;    0.000;    0.000
454.704; 4801.475;    0.000;    0.000
454.843; 4753.475;    0.000;    0.000
454.981; 4676.475;    0.000;    0.000
455.120; 4734.475;    0.000;    0.000
455.258; 4920.475;    0.000;    0.000
455.397; 4936.475;    0.000;    0.000
455.535; 4942.475;    0.000;    0.000
455.674; 5020.475;    0.000;    0.000
455.812; 5017.475;    0.000;    0.000
455.951; 5078.475;    0.000;    0.000
456.089; 5262.475;    0.000;    0.000
456.227; 5181.475;    0.000;    0.000
456.366; 5314.475;    0.000;    0.000
456.504; 5372.475;    0.000;    0.000
456.642; 5445.475;    0.000;    0.000
456.781; 5311.475;    0.000;    0.000
456.919; 5282.475;    0.000;    0.000
457.057; 5175.475;    0.000;    0.000
457.196; 5282.475;    0.000;    0.000
457.334; 5280.475;    0.000;    0.000
457.472; 5261.475;    0.000;    0.000
457.610; 5509.475;    0.000;    0.000
457.749; 5439.475;    0.000;    0.000
457.887; 5691.475;    0.000;    0.000
458.025; 5990.475;    0.000;    0.000
458.163; 6000.475;    0.000;    0.000
458.301; 5838.475;    0.000;    0.000
458.440; 5899.475;    0.000;    0.000
458.578; 6135.475;    0.000;    0.000
458.716; 6067.475;    0.000;    0.000
458.854; 6298.475;    0.000;    0.000
458.992; 6151.475;    0.000;    0.000
459.130; 6325.475;    0.000;    0.000
459.269; 6383.475;    0.000;    0.000
459.407; 6579.475;    0.000;    0.000
459.545; 6389.475;    0.000;    0.000
459.683; 6651.475;    0.000;    0.000
459.821; 6530.475;    0.000;    0.000
459.959; 6597.475;    0.000;    0.000
460.097; 6637.475;    0.000;    0.000
460.235; 6826.475;    0.000;    0.000
460.373; 6801.475;    0.000;    0.000
460.511; 6777.475;    0.000;    0.000
460.649; 6908.475;    0.000;    0.000
460.787; 6960.475;    0.000;    0.000
460.925; 7025.475;    0.000;    0.000
461.063; 7036.475;    0.000;    0.000
461.201; 7108.475;    0.000;    0.000
461.339; 7042.475;    0.000;    0.000
461.477; 7150.475;    0.000;    0.000
461.615; 7252.475;    0.000;    0.000
461.753; 7282.475;    0.000;    0.000
461.891; 7378.475;    0.000;    0.000
462.029; 7543.475;    0.000;    0.000
462.166; 7445.475;    0.000;    0.000
462.304; 7614.475;    0.000;    0.000
462.442; 7735.475;    0.000;    0.000
462.580; 7819.475;    0.000;    0.000
462.718; 7879.475;    0.000;    0.000
462.856; 7930.475;    0.000;    0.000
462.993; 7839.475;    0.000;    0.000
463.131; 7853.475;    0.000;    0.000
463.269; 7939.475;    0.000;    0.000
463.407; 7903.475;    0.000;    0.000
463.545; 7867.475;    0.000;    0.000
463.682; 7985.475;    0.000;    0.000
463.820; 7870.475;    0.000;    0.000
463.958; 8115.475;    0.000;    0.000
464.095; 8071.475;    0.000;    0.000
464.233; 8263.475;    0.000;    0.000
464.371; 8260.475;    0.000;    0.000
464.509; 8217.475;    0.000;    0.000
464.646; 8275.475;    0.000;    0.000
464.784; 8119.475;    0.000;    0.000
464.921; 8119.475;    0.000;    0.000
465.059; 7920.475;    0.000;    0.000
465.197; 7768.475;    0.000;    0.000
465.334; 7791.475;    0.000;    0.000
465.472; 7843.475;    0.000;    0.000
465.609; 7629.475;    0.000;    0.000
465.747; 7678.475;    0.000;    0.000
465.885; 7734.475;    0.000;    0.000
466.022; 7519.475;    0.000;    0.000
466.160; 7585.475;    0.000;    0.000
466.297; 7510.475;    0.000;    0.000
466.435; 7503.475;    0.000;    0.000
466.572; 7585.475;    0.000;    0.000
466.710; 7549.475;    0.000;    0.000
466.847; 7570.475;    0.000;    0.000
466.985; 7467.475;    0.000;    0.000
467.122; 7365.475;    0.000;    0.000
467.260; 7230.475;    0.000;    0.000
467.397; 7404.475;    0.000;    0.000
467.534; 7393.475;    0.000;    0.000
467.672; 7375.475;    0.000;    0.000
467.809; 7416.475;    0.000;    0.000
467.947; 7497.475;    0.000;    0.000
468.084; 7364.475;    0.000;    0.000
468.221; 7316.475;    0.000;    0.000
468.359; 7439.475;    0.000;    0.000
468.496; 7352.475;    0.000;    0.000
468.633; 7474.475;    0.000;    0.000
468.771; 7446.475;    0.000;    0.000
468.908; 7518.475;    0.000;    0.000
469.045; 7465.475;    0.000;    0.000
469.183; 7480.475;    0.000;    0.000
469.320; 7511.475;    0.000;    0.000
469.457; 7619.475;    0.000;    0.000
469.594; 7543.475;    0.000;    0.000
469.732; 7480.475;    0.000;    0.000
469.869; 7666.475;    0.000;    0.000
470.006; 7649.475;    0.000;    0.000
470.143; 7603.475;    0.000;    0.000
470.280; 7759.475;    0.000;    0.000
470.417; 7840.475;    0.000;    0.000
470.555; 7735.475;    0.000;    0.000
470.692; 7750.475;    0.000;    0.000
470.829; 7811.475;    0.000;    0.000
470.966; 7767.475;    0.000;    0.000
471.103; 7740.475;    0.000;    0.000
471.240; 7927.475;    0.000;    0.000
471.377; 7709.475;    0.000;    0.000
471.514; 7759.475;    0.000;    0.000
471.651; 7737.475;    0.000;    0.000
471.789; 7642.475;    0.000;    0.000
471.926; 7541.475;    0.000;    0.000
472.063; 7692.475;    0.000;    0.000
472.200; 7529.475;    0.000;    0.000
472.337; 7594.475;    0.000;    0.000
472.474; 7425.475;    0.000;    0.000
472.611; 7520.475;    0.000;    0.000
472.748; 7596.475;    0.000;    0.000
472.884; 7594.475;    0.000;    0.000
473.021; 7409.475;    0.000;    0.000
473.158; 7704.475;    0.000;    0.000
473.295; 7386.475;    0.000;    0.000
473.432; 7370.475;    0.000;    0.000
473.569; 7587.475;    0.000;    0.000
473.706; 7366.475;    0.000;    0.000
473.843; 7464.475;    0.000;    0.000
473.980; 7475.475;    0.000;    0.000
474.117; 7453.475;    0.000;    0.000
474.253; 7471.475;    0.000;    0.000
474.390; 7533.475;    0.000;    0.000
474.527; 7452.475;    0.000;    0.000
474.664; 7397.475;    0.000;    0.000
474.801; 7612.475;    0.000;    0.000
474.937; 7629.475;    0.000;    0.000
475.074; 7698.475;    0.000;    0.000
475.211; 7568.475;    0.000;    0.000
475.348; 7560.475;    0.000;    0.000
475.484; 7690.475;    0.000;    0.000
475.621; 7650.475;    0.000;    0.000
475.758; 7621.475;    0.000;    0.000
475.894; 7692.475;    0.000;    0.000
476.031; 7714.475;    0.000;    0.000
476.168; 7643.475;    0.000;    0.000
476.304; 7659.475;    0.000;    0.000
476.441; 7724.475;    0.000;    0.000
476.578; 7560.475;    0.000;    0.000
476.714; 7747.475;    0.000;    0.000
476.851; 7661.475;    0.000;    0.000
476.987; 7931.475;    0.000;    0.000
477.124; 7724.475;    0.000;    0.000
477.261; 8012.475;    0.000;    0.000
477.397; 7893.475;    0.000;    0.000
477.534; 7898.475;    0.000;    0.000
477.670; 7949.475;    0.000;    0.000
477.807; 7986.475;    0.000;    0.000
477.943; 8006.475;    0.000;    0.000
478.080; 8032.475;    0.000;    0.000
478.216; 8083.475;    0.000;    0.000
478.353; 8322.475;    0.000;    0.000
478.489; 8283.475;    0.000;    0.000
478.626; 8341.475;    0.000;    0.000
478.762; 8414.475;    0.000;    0.000
478.898; 8321.475;    0.000;    0.000
479.035; 8503.475;    0.000;    0.000
479.171; 8393.475;    0.000;    0.000
479.308; 8344.475;    0.000;    0.000
479.444; 8257.475;    0.000;    0.000
479.580; 8440.475;    0.000;    0.000
479.717; 8459.475;    0.000;    0.000
479.853; 8458.475;    0.000;    0.000
479.989; 8360.475;    0.000;    0.000
480.126; 8340.475;    0.000;    0.000
480.262; 8554.475;    0.000;    0.000
480.398; 8597.475;    0.000;    0.000
480.535; 8509.475;    0.000;    0.000
480.671; 8418.475;    0.000;    0.000
480.807; 8396.475;    0.000;    0.000
480.943; 8467.475;    0.000;    0.000
481.080; 8342.475;    0.000;    0.000
481.216; 8542.475;    0.000;    0.000
481.352; 8371.475;    0.000;    0.000
481.488; 8256.475;    0.000;    0.000
481.624; 8493.475;    0.000;    0.000
481.760; 8343.475;    0.000;    0.000
481.897; 8297.475;    0.000;    0.000
482.033; 8245.475;    0.000;    0.000
482.169; 8340.475;    0.000;    0.000
482.305; 8130.475;    0.000;    0.000
482.441; 8273.475;    0.000;    0.000
482.577; 8174.475;    0.000;    0.000
482.713; 8240.475;    0.000;    0.000
482.849; 8300.475;    0.000;    0.000
482.985; 8259.475;    0.000;    0.000
483.121; 8300.475;    0.000;    0.000
483.258; 8187.475;    0.000;    0.000
483.394; 8226.475;    0.000;    0.000
483.530; 8286.475;    0.000;    0.000
483.665; 8219.475;    0.000;    0.000
483.801; 8078.475;    0.000;    0.000
483.937; 8333.475;    0.000;    0.000
484.073; 8399.475;    0.000;    0.000
484.209; 8461.475;    0.000;    0.000
484.345; 8367.475;    0.000;    0.000
484.481; 8385.475;    0.000;    0.000
484.617; 8356.475;    0.000;    0.000
484.753; 8475.475;    0.000;    0.000
484.889; 8482.475;    0.000;    0.000
485.025; 8351.475;    0.000;    0.000
485.161; 8360.475;    0.000;    0.000
485.296; 8436.475;    0.000;    0.000
485.432; 8459.475;    0.000;    0.000
485.568; 8457.475;    0.000;    0.000
485.704; 8361.475;    0.000;    0.000
485.840; 8318.475;    0.000;    0.000
485.975; 8430.475;    0.000;    0.000
486.111; 8271.475;    0.000;    0.000
486.247; 8592.475;    0.000;    0.000
486.383; 8430.475;    0.000;    0.000
486.518; 8325.475;    0.000;    0.000
486.654; 8515.475;    0.000;    0.000
486.790; 8427.475;    0.000;    0.000
486.926; 8320.475;    0.000;    0.000
487.061; 8315.475;    0.000;    0.000
487.197; 8488.475;    0.000;    0.000
487.333; 8357.475;    0.000;    0.000
487.468; 8293.475;    0.000;    0.000
487.604; 8446.475;    0.000;    0.000
487.740; 8343.475;    0.000;    0.000
487.875; 8444.475;    0.000;    0.000
488.011; 8412.475;    0.000;    0.000
488.146; 8500.475;    0.000;    0.000
488.282; 8417.475;    0.000;    0.000
488.417; 8503.475;    0.000;    0.000
488.553; 8426.475;    0.000;    0.000
488.688; 8530.475;    0.000;    0.000
488.824; 8442.475;    0.000;    0.000
488.960; 8460.475;    0.000;    0.000
489.095; 8337.475;    0.000;    0.000
489.230; 8513.475;    0.000;    0.000
489.366; 8567.475;    0.000;    0.000
489.501; 8381.475;    0.000;    0.000
489.637; 8532.475;    0.000;    0.000
489.772; 8602.475;    0.000;    0.000
489.908; 8590.475;    0.000;    0.000
490.043; 8599.475;    0.000;    0.000
490.178; 8640.475;    0.000;    0.000
490.314; 8638.475;    0.000;    0.000
490.449; 8645.475;    0.000;    0.000
490.585; 8601.475;    0.000;    0.000
490.720; 8477.475;    0.000;    0.000
490.855; 8618.475;    0.000;    0.000
490.991; 8601.475;    0.000;    0.000
491.126; 8668.475;    0.000;    0.000
491.261; 8574.475;    0.000;    0.000
491.396; 8452.475;    0.000;    0.000
491.532; 8465.475;    0.000;    0.000
491.667; 8548.475;    0.000;    0.000
491.802; 8570.475;    0.000;    0.000
491.937; 8637.475;    0.000;    0.000
492.073; 8600.475;    0.000;    0.000
492.208; 8504.475;    0.000;    0.000
492.343; 8628.475;    0.000;    0.000
492.478; 8703.475;    0.000;    0.000
492.613; 8570.475;    0.000;    0.000
492.749; 8814.475;    0.000;    0.000
492.884; 8744.475;    0.000;    0.000
493.019; 8684.475;    0.000;    0.000
493.154; 8669.475;    0.000;    0.000
493.289; 8523.475;    0.000;    0.000
493.424; 8757.475;    0.000;    0.000
493.559; 8754.475;    0.000;    0.000
493.694; 8620.475;    0.000;    0.000
493.829; 8676.475;    0.000;    0.000
493.964; 8671.475;    0.000;    0.000
494.099; 8682.475;    0.000;    0.000
494.234; 8731.475;    0.000;    0.000
494.369; 8762.475;    0.000;    0.000
494.504; 8786.475;    0.000;    0.000
494.639; 8685.475;    0.000;    0.000
494.774; 8533.475;    0.000;    0.000
494.909; 8571.475;    0.000;    0.000
495.044; 8715.475;    0.000;    0.000
495.179; 8725.475;    0.000;    0.000
495.314; 8754.475;    0.000;    0.000
495.449; 8748.475;    0.000;    0.000
495.584; 8737.475;    0.000;    0.000
495.719; 8809.475;    0.000;    0.000
495.854; 8792.475;    0.000;    0.000
495.988; 8893.475;    0.000;    0.000
496.123; 8780.475;    0.000;    0.000
496.258; 8972.475;    0.000;    0.000
496.393; 9090.475;    0.000;    0.000
496.528; 8948.475;    0.000;    0.000
496.663; 9068.475;    0.000;    0.000
496.797; 9010.475;    0.000;    0.000
496.932; 9078.475;    0.000;    0.000
497.067; 9437.475;    0.000;    0.000
497.202; 9224.475;    0.000;    0.000
497.336; 9414.475;    0.000;    0.000
497.471; 9511.475;    0.000;    0.000
497.606; 9601.475;    0.000;    0.000
497.740; 9768.475;    0.000;    0.000
497.875; 9950.475;    0.000;    0.000
498.010;10185.475;    0.000;    0.000
498.144;10251.475;    0.000;    0.000
498.279;10482.475;    0.000;    0.000
498.414;10492.475;    0.000;    0.000
498.548;10587.475;    0.000;    0.000
498.683;10676.475;    0.000;    0.000
498.817;10823.475;    0.000;    0.000
498.952;10883.475;    0.000;    0.000
499.087;11278.475;    0.000;    0.000
499.221;11387.475;    0.000;    0.000
499.356;11552.475;    0.000;    0.000
499.490;11751.475;    0.000;    0.000
499.625;12051.475;    0.000;    0.000
499.759;12299.475;    0.000;    0.000
499.894;12701.475;    0.000;    0.000
500.028;12974.475;    0.000;    0.000
500.162;13017.475;    0.000;    0.000
500.297;13155.475;    0.000;    0.000
500.431;13253.475;    0.000;    0.000
500.566;13218.475;    0.000;    0.000
500.700;13189.475;    0.000;    0.000
500.835;12866.475;    0.000;    0.000
500.969;12631.475;    0.000;    0.000
501.103;12432.475;    0.000;    0.000
501.238;12015.475;    0.000;    0.000
501.372;11730.475;    0.000;    0.000
501.506;11531.475;    0.000;    0.000
501.641;11429.475;    0.000;    0.000
501.775;11028.475;    0.000;    0.000
501.909;10815.475;    0.000;    0.000
502.043;10629.475;    0.000;    0.000
502.178;10635.475;    0.000;    0.000
502.312;10212.475;    0.000;    0.000
502.446;10090.475;    0.000;    0.000
502.580; 9943.475;    0.000;    0.000
502.715; 9808.475;    0.000;    0.000
502.849; 9729.475;    0.000;    0.000
502.983; 9598.475;    0.000;    0.000
503.117; 9473.475;    0.000;    0.000
503.251; 9393.475;    0.000;    0.000
503.385; 9168.475;    0.000;    0.000
503.520; 9184.475;    0.000;    0.000
503.654; 9065.475;    0.000;    0.000
503.788; 9060.475;    0.000;    0.000
503.922; 8826.475;    0.000;    0.000
504.056; 8830.475;    0.000;    0.000
504.190; 8754.475;    0.000;    0.000
504.324; 8718.475;    0.000;    0.000
504.458; 8568.475;    0.000;    0.000
504.592; 8489.475;    0.000;    0.000
504.726; 8401.475;    0.000;    0.000
504.860; 8343.475;    0.000;    0.000
504.994; 8135.475;    0.000;    0.000
505.128; 8124.475;    0.000;    0.000
505.262; 8116.475;    0.000;    0.000
505.396; 7916.475;    0.000;    0.000
505.530; 7847.475;    0.000;    0.000
505.664; 7795.475;    0.000;    0.000
505.798; 7652.475;    0.000;    0.000
505.932; 7530.475;    0.000;    0.000
506.066; 7690.475;    0.000;    0.000
506.199; 7487.475;    0.000;    0.000
506.333; 7525.475;    0.000;    0.000
506.467; 7518.475;    0.000;    0.000
506.601; 7319.475;    0.000;    0.000
506.735; 7419.475;    0.000;    0.000
506.869; 7245.475;    0.000;    0.000
507.002; 7416.475;    0.000;    0.000
507.136; 7261.475;    0.000;    0.000
507.270; 7151.475;    0.000;    0.000
507.404; 7013.475;    0.000;    0.000
507.537; 7164.475;    0.000;    0.000
507.671; 6960.475;    0.000;    0.000
507.805; 6984.475;    0.000;    0.000
507.939; 6837.475;    0.000;    0.000
508.072; 6886.475;    0.000;    0.000
508.206; 6952.475;    0.000;    0.000
508.340; 6948.475;    0.000;    0.000
508.473; 6816.475;    0.000;    0.000
508.607; 6872.475;    0.000;    0.000
508.740; 6831.475;    0.000;    0.000
508.874; 6742.475;    0.000;    0.000
509.008; 6742.475;    0.000;    0.000
509.141; 6784.475;    0.000;    0.000
509.275; 6708.475;    0.000;    0.000
509.408; 6731.475;    0.000;    0.000
509.542; 6619.475;    0.000;    0.000
509.675; 6761.475;    0.000;    0.000
509.809; 6680.475;    0.000;    0.000
509.942; 6596.475;    0.000;    0.000
510.076; 6629.475;    0.000;    0.000
510.209; 6577.475;    0.000;    0.000
510.343; 6586.475;    0.000;    0.000
510.476; 6602.475;    0.000;    0.000
510.610; 6544.475;    0.000;    0.000
510.743; 6598.475;    0.000;    0.000
510.877; 6414.475;    0.000;    0.000
511.010; 6537.475;    0.000;    0.000
511.143; 6459.475;    0.000;    0.000
511.277; 6442.475;    0.000;    0.000
511.410; 6485.475;    0.000;    0.000
511.543; 6483.475;    0.000;    0.000
511.677; 6432.475;    0.000;    0.000
511.810; 6341.475;    0.000;    0.000
511.943; 6429.475;    0.000;    0.000
512.077; 6376.475;    0.000;    0.000
512.210; 6433.475;    0.000;    0.000
512.343; 6410.475;    0.000;    0.000
512.476; 6468.475;    0.000;    0.000
512.610; 6490.475;    0.000;    0.000
512.743; 6356.475;    0.000;    0.000
512.876; 6508.475;    0.000;    0.000
513.009; 6491.475;    0.000;    0.000
513.142; 6434.475;    0.000;    0.000
513.276; 6337.475;    0.000;    0.000
513.409; 6336.475;    0.000;    0.000
513.542; 6302.475;    0.000;    0.000
513.675; 6423.475;    0.000;    0.000
513.808; 6375.475;    0.000;    0.000
513.941; 6402.475;    0.000;    0.000
514.074; 6422.475;    0.000;    0.000
514.207; 6451.475;    0.000;    0.000
514.340; 6439.475;    0.000;    0.000
514.474; 6563.475;    0.000;    0.000
514.607; 6497.475;    0.000;    0.000
514.740; 6347.475;    0.000;    0.000
514.873; 6441.475;    0.000;    0.000
515.006; 6699.475;    0.000;    0.000
515.139; 6675.475;    0.000;    0.000
515.272; 6648.475;    0.000;    0.000
515.404; 6795.475;    0.000;    0.000
515.537; 6784.475;    0.000;    0.000
515.670; 6673.475;    0.000;    0.000
515.803; 6871.475;    0.000;    0.000
515.936; 6754.475;    0.000;    0.000
516.069; 6825.475;    0.000;    0.000
516.202; 7082.475;    0.000;    0.000
516.335; 6996.475;    0.000;    0.000
516.468; 7439.475;    0.000;    0.000
516.600; 8565.475;    0.000;    0.000
516.733;10296.475;    0.000;    0.000
516.866;10175.475;    0.000;    0.000
516.999; 9526.475;    0.000;    0.000
517.132;11471.475;    0.000;    0.000
517.264;15626.475;    0.000;    0.000
517.397;15254.475;    0.000;    0.000
517.530;12065.475;    0.000;    0.000
517.663;10275.475;    0.000;    0.000
517.795; 9553.475;    0.000;    0.000
517.928; 9193.475;    0.000;    0.000
518.061; 9467.475;    0.000;    0.000
518.193;11822.475;    0.000;    0.000
518.326;17799.475;    0.000;    0.000
518.459;19228.475;    0.000;    0.000
518.591;14874.475;    0.000;    0.000
518.724;11527.475;    0.000;    0.000
518.857;10173.475;    0.000;    0.000
518.989; 9363.475;    0.000;    0.000
519.122; 8914.475;    0.000;    0.000
519.254; 8397.475;    0.000;    0.000
519.387; 7973.475;    0.000;    0.000
519.519; 7656.475;    0.000;    0.000
519.652; 7447.475;    0.000;    0.000
519.784; 7171.475;    0.000;    0.000
519.917; 7088.475;    0.000;    0.000
520.049; 7056.475;    0.000;    0.000
520.182; 7010.475;    0.000;    0.000
520.314; 6823.475;    0.000;    0.000
520.447; 6697.475;    0.000;    0.000
520.579; 6646.475;    0.000;    0.000
520.712; 6564.475;    0.000;    0.000
520.844; 6599.475;    0.000;    0.000
520.976; 6471.475;    0.000;    0.000
521.109; 6328.475;    0.000;    0.000
521.241; 6385.475;    0.000;    0.000
521.373; 6140.475;    0.000;    0.000
521.506; 6135.475;    0.000;    0.000
521.638; 6143.475;    0.000;    0.000
521.770; 6022.475;    0.000;    0.000
521.903; 6198.475;    0.000;    0.000
522.035; 5878.475;    0.000;    0.000
522.167; 5919.475;    0.000;    0.000
522.300; 5961.475;    0.000;    0.000
522.432; 5909.475;    0.000;    0.000
522.564; 5877.475;    0.000;    0.000
522.696; 5885.475;    0.000;    0.000
522.828; 5783.475;    0.000;    0.000
522.961; 5820.475;    0.000;    0.000
523.093; 5846.475;    0.000;    0.000
523.225; 5780.475;    0.000;    0.000
523.357; 5758.475;    0.000;    0.000
523.489; 5771.475;    0.000;    0.000
523.621; 5660.475;    0.000;    0.000
523.753; 5553.475;    0.000;    0.000
523.885; 5614.475;    0.000;    0.000
524.018; 5719.475;    0.000;    0.000
524.150; 5653.475;    0.000;    0.000
524.282; 5644.475;    0.000;    0.000
524.414; 5568.475;    0.000;    0.000
524.546; 5449.475;    0.000;    0.000
524.678; 5457.475;    0.000;    0.000
524.810; 5582.475;    0.000;    0.000
524.942; 5370.475;    0.000;    0.000
525.074; 5426.475;    0.000;    0.000
525.206; 5464.475;    0.000;    0.000
525.338; 5500.475;    0.000;    0.000
525.469; 5493.475;    0.000;    0.000
525.601; 5371.475;    0.000;    0.000
525.733; 5317.475;    0.000;    0.000
525.865; 5314.475;    0.000;    0.000
525.997; 5368.475;    0.000;    0.000
526.129; 5416.475;    0.000;    0.000
526.261; 5329.475;    0.000;    0.000
526.393; 5346.475;    0.000;    0.000
526.524; 5335.475;    0.000;    0.000
526.656; 5208.475;    0.000;    0.000
526.788; 5310.475;    0.000;    0.000
526.920; 5332.475;    0.000;    0.000
527.052; 5183.475;    0.000;    0.000
527.183; 5313.475;    0.000;    0.000
527.315; 5316.475;    0.000;    0.000
527.447; 5175.475;    0.000;    0.000
527.578; 5206.475;    0.000;    0.000
527.710; 5361.475;    0.000;    0.000
527.842; 5216.475;    0.000;    0.000
527.973; 5344.475;    0.000;    0.000
528.105; 5213.475;    0.000;    0.000
528.237; 5213.475;    0.000;    0.000
528.368; 5196.475;    0.000;    0.000
528.500; 5176.475;    0.000;    0.000
528.632; 5010.475;    0.000;    0.000
528.763; 5204.475;    0.000;    0.000
528.895; 5164.475;    0.000;    0.000
529.026; 5094.475;    0.000;    0.000
529.158; 5100.475;    0.000;    0.000
529.289; 5169.475;    0.000;    0.000
529.421; 5232.475;    0.000;    0.000
529.552; 5098.475;    0.000;    0.000
529.684; 5159.475;    0.000;    0.000
529.815; 5112.475;    0.000;    0.000
529.947; 5156.475;    0.000;    0.000
530.078; 5140.475;    0.000;    0.000
530.210; 5119.475;    0.000;    0.000
530.341; 5095.475;    0.000;    0.000
530.472; 5188.475;    0.000;    0.000
530.604; 5054.475;    0.000;    0.000
530.735; 5160.475;    0.000;    0.000
530.867; 5261.475;    0.000;    0.000
530.998; 5095.475;    0.000;    0.000
531.129; 5214.475;    0.000;    0.000
531.260; 5203.475;    0.000;    0.000
531.392; 5314.475;    0.000;    0.000
531.523; 5208.475;    0.000;    0.000
531.654; 5279.475;    0.000;    0.000
531.786; 5263.475;    0.000;    0.000
531.917; 5311.475;    0.000;    0.000
532.048; 5139.475;    0.000;    0.000
532.179; 5210.475;    0.000;    0.000
532.311; 5161.475;    0.000;    0.000
532.442; 5213.475;    0.000;    0.000
532.573; 5233.475;    0.000;    0.000
532.704; 5135.475;    0.000;    0.000
532.835; 5169.475;    0.000;    0.000
532.966; 5104.475;    0.000;    0.000
533.097; 5116.475;    0.000;    0.000
533.229; 5140.475;    0.000;    0.000
533.360; 5175.475;    0.000;    0.000
533.491; 5146.475;    0.000;    0.000
533.622; 5260.475;    0.000;    0.000
533.753; 5218.475;    0.000;    0.000
533.884; 5266.475;    0.000;    0.000
534.015; 5201.475;    0.000;    0.000
534.146; 5225.475;    0.000;    0.000
534.277; 5282.475;    0.000;    0.000
534.408; 5177.475;    0.000;    0.000
534.539; 5231.475;    0.000;    0.000
534.670; 5142.475;    0.000;    0.000
534.801; 5212.475;    0.000;    0.000
534.932; 5151.475;    0.000;    0.000
535.063; 5126.475;    0.000;    0.000
535.194; 5033.475;    0.000;    0.000
535.324; 5017.475;    0.000;    0.000
535.455; 5048.475;    0.000;    0.000
535.586; 5105.475;    0.000;    0.000
535.717; 4983.475;    0.000;    0.000
535.848; 5170.475;    0.000;    0.000
535.979; 5080.475;    0.000;    0.000
536.109; 5082.475;    0.000;    0.000
536.240; 5148.475;    0.000;    0.000
536.371; 4997.475;    0.000;    0.000
536.502; 5103.475;    0.000;    0.000
536.632; 4994.475;    0.000;    0.000
536.763; 5027.475;    0.000;    0.000
536.894; 5026.475;    0.000;    0.000
537.025; 4996.475;    0.000;    0.000
537.155; 4879.475;    0.000;    0.000
537.286; 4963.475;    0.000;    0.000
537.417; 5081.475;    0.000;    0.000
537.547; 4931.475;    0.000;    0.000
537.678; 4978.475;    0.000;    0.000
537.808; 4983.475;    0.000;    0.000
537.939; 4995.475;    0.000;    0.000
538.070; 5094.475;    0.000;    0.000
538.200; 4981.475;    0.000;    0.000
538.331; 4969.475;    0.000;    0.000
538.461; 4979.475;    0.000;    0.000
538.592; 5021.475;    0.000;    0.000
538.722; 5069.475;    0.000;    0.000
538.853; 4986.475;    0.000;    0.000
538.983; 4998.475;    0.000;    0.000
539.114; 4953.475;    0.000;    0.000
539.244; 5102.475;    0.000;    0.000
539.375; 5094.475;    0.000;    0.000
539.505; 5013.475;    0.000;    0.000
539.636; 5057.475;    0.000;    0.000
539.766; 5018.475;    0.000;    0.000
539.896; 4889.475;    0.000;    0.000
540.027; 4955.475;    0.000;    0.000
540.157; 5046.475;    0.000;    0.000
540.287; 5086.475;    0.000;    0.000
540.418; 5135.475;    0.000;    0.000
540.548; 5018.475;    0.000;    0.000
540.678; 5109.475;    0.000;    0.000
540.809; 5031.475;    0.000;    0.000
540.939; 5019.475;    0.000;    0.000
541.069; 5121.475;    0.000;    0.000
541.200; 5081.475;    0.000;    0.000
541.330; 5014.475;    0.000;    0.000
541.460; 5175.475;    0.000;    0.000
541.590; 5131.475;    0.000;    0.000
541.720; 5058.475;    0.000;    0.000
541.851; 5040.475;    0.000;    0.000
541.981; 5043.475;    0.000;    0.000
542.111; 5195.475;    0.000;    0.000
542.241; 5135.475;    0.000;    0.000
542.371; 5283.475;    0.000;    0.000
542.501; 5264.475;    0.000;    0.000
542.631; 5271.475;    0.000;    0.000
542.761; 5331.475;    0.000;    0.000
542.891; 5281.475;    0.000;    0.000
543.021; 5375.475;    0.000;    0.000
543.151; 5292.475;    0.000;    0.000
543.281; 5307.475;    0.000;    0.000
543.411; 5223.475;    0.000;    0.000
543.542; 5232.475;    0.000;    0.000
543.671; 5235.475;    0.000;    0.000
543.801; 5166.475;    0.000;    0.000
543.931; 5339.475;    0.000;    0.000
544.061; 5201.475;    0.000;    0.000
544.191; 5158.475;    0.000;    0.000
544.321; 5329.475;    0.000;    0.000
544.451; 5273.475;    0.000;    0.000
544.581; 5287.475;    0.000;    0.000
544.711; 5312.475;    0.000;    0.000
544.841; 5327.475;    0.000;    0.000
544.970; 5402.475;    0.000;    0.000
545.100; 5456.475;    0.000;    0.000
545.230; 5571.475;    0.000;    0.000
545.360; 5496.475;    0.000;    0.000
545.490; 5483.475;    0.000;    0.000
545.619; 5359.475;    0.000;    0.000
545.749; 5466.475;    0.000;    0.000
545.879; 5307.475;    0.000;    0.000
546.009; 5376.475;    0.000;    0.000
546.138; 5341.475;    0.000;    0.000
546.268; 5367.475;    0.000;    0.000
546.398; 5267.475;    0.000;    0.000
546.527; 5239.475;    0.000;    0.000
546.657; 5326.475;    0.000;    0.000
546.786; 5388.475;    0.000;    0.000
546.916; 5321.475;    0.000;    0.000
547.046; 5243.475;    0.000;    0.000
547.175; 5197.475;    0.000;    0.000
547.305; 5259.475;    0.000;    0.000
547.434; 5262.475;    0.000;    0.000
547.564; 5270.475;    0.000;    0.000
547.693; 5357.475;    0.000;    0.000
547.823; 5274.475;    0.000;    0.000
547.953; 5299.475;    0.000;    0.000
548.082; 5367.475;    0.000;    0.000
548.211; 5089.475;    0.000;    0.000
548.341; 5244.475;    0.000;    0.000
548.470; 5259.475;    0.000;    0.000
548.600; 5373.475;    0.000;    0.000
548.729; 5243.475;    0.000;    0.000
548.859; 5324.475;    0.000;    0.000
548.988; 5340.475;    0.000;    0.000
549.117; 5363.475;    0.000;    0.000
549.247; 5316.475;    0.000;    0.000
549.376; 5289.475;    0.000;    0.000
549.505; 5298.475;    0.000;    0.000
549.635; 5448.475;    0.000;    0.000
549.764; 5369.475;    0.000;    0.000
549.893; 5318.475;    0.000;    0.000
550.023; 5378.475;    0.000;    0.000
550.152; 5389.475;    0.000;    0.000
550.281; 5434.475;    0.000;    0.000
550.410; 5408.475;    0.000;    0.000
550.539; 5369.475;    0.000;    0.000
550.669; 5555.475;    0.000;    0.000
550.798; 5490.475;    0.000;    0.000
550.927; 5405.475;    0.000;    0.000
551.056; 5424.475;    0.000;    0.000
551.185; 5440.475;    0.000;    0.000
551.314; 5363.475;    0.000;    0.000
551.443; 5455.475;    0.000;    0.000
551.573; 5444.475;    0.000;    0.000
551.702; 5488.475;    0.000;    0.000
551.831; 5486.475;    0.000;    0.000
551.960; 5407.475;    0.000;    0.000
552.089; 5579.475;    0.000;    0.000
552.218; 5550.475;    0.000;    0.000
552.347; 5598.475;    0.000;    0.000
552.476; 5619.475;    0.000;    0.000
552.605; 5663.475;    0.000;    0.000
552.734; 5855.475;    0.000;    0.000
552.863; 5877.475;    0.000;    0.000
552.992; 5839.475;    0.000;    0.000
553.121; 5815.475;    0.000;    0.000
553.249; 5777.475;    0.000;    0.000
553.378; 5791.475;    0.000;    0.000
553.507; 5858.475;    0.000;    0.000
553.636; 5653.475;    0.000;    0.000
553.765; 5703.475;    0.000;    0.000
553.894; 5620.475;    0.000;    0.000
554.023; 5617.475;    0.000;    0.000
554.151; 5629.475;    0.000;    0.000
554.280; 5588.475;    0.000;    0.000
554.409; 5531.475;    0.000;    0.000
554.538; 5504.475;    0.000;    0.000
554.666; 5538.475;    0.000;    0.000
554.795; 5420.475;    0.000;    0.000
554.924; 5568.475;    0.000;    0.000
555.052; 5535.475;    0.000;    0.000
555.181; 5622.475;    0.000;    0.000
555.310; 5467.475;    0.000;    0.000
555.439; 5422.475;    0.000;    0.000
555.567; 5398.475;    0.000;    0.000
555.696; 5557.475;    0.000;    0.000
555.824; 5471.475;    0.000;    0.000
555.953; 5455.475;    0.000;    0.000
556.082; 5439.475;    0.000;    0.000
556.210; 5563.475;    0.000;    0.000
556.339; 5438.475;    0.000;    0.000
556.467; 5463.475;    0.000;    0.000
556.596; 5455.475;    0.000;    0.000
556.724; 5385.475;    0.000;    0.000
556.853; 5343.475;    0.000;    0.000
556.981; 5373.475;    0.000;    0.000
557.110; 5443.475;    0.000;    0.000
557.238; 5297.475;    0.000;    0.000
557.367; 5350.475;    0.000;    0.000
557.495; 5441.475;    0.000;    0.000
557.623; 5380.475;    0.000;    0.000
557.752; 5415.475;    0.000;    0.000
557.880; 5390.475;    0.000;    0.000
558.008; 5417.475;    0.000;    0.000
558.137; 5448.475;    0.000;    0.000
558.265; 5498.475;    0.000;    0.000
558.393; 5435.475;    0.000;    0.000
558.522; 5517.475;    0.000;    0.000
558.650; 5458.475;    0.000;    0.000
558.778; 5586.475;    0.000;    0.000
558.906; 5513.475;    0.000;    0.000
559.035; 5631.475;    0.000;    0.000
559.163; 5362.475;    0.000;    0.000
559.291; 5583.475;    0.000;    0.000
559.419; 5567.475;    0.000;    0.000
559.548; 5424.475;    0.000;    0.000
559.676; 5367.475;    0.000;    0.000
559.804; 5573.475;    0.000;    0.000
559.932; 5641.475;    0.000;    0.000
560.060; 5629.475;    0.000;    0.000
560.188; 5556.475;    0.000;    0.000
560.316; 5481.475;    0.000;    0.000
560.444; 5454.475;    0.000;    0.000
560.572; 5654.475;    0.000;    0.000
560.700; 5592.475;    0.000;    0.000
560.828; 5554.475;    0.000;    0.000
560.956; 5644.475;    0.000;    0.000
561.085; 5723.475;    0.000;    0.000
561.212; 5653.475;    0.000;    0.000
561.340; 5638.475;    0.000;    0.000
561.468; 5675.475;    0.000;    0.000
561.596; 5690.475;    0.000;    0.000
561.724; 5747.475;    0.000;    0.000
561.852; 5666.475;    0.000;    0.000
561.980; 5691.475;    0.000;    0.000
562.108; 5805.475;    0.000;    0.000
562.236; 5823.475;    0.000;    0.000
562.364; 5869.475;    0.000;    0.000
562.492; 5875.475;    0.000;    0.000
562.619; 5921.475;    0.000;    0.000
562.747; 5806.475;    0.000;    0.000
562.875; 5925.475;    0.000;    0.000
563.003; 5918.475;    0.000;    0.000
563.130; 6135.475;    0.000;    0.000
563.258; 6056.475;    0.000;    0.000
563.386; 6165.475;    0.000;    0.000
563.514; 6170.475;    0.000;    0.000
563.641; 6227.475;    0.000;    0.000
563.769; 6121.475;    0.000;    0.000
563.897; 6328.475;    0.000;    0.000
564.024; 6428.475;    0.000;    0.000
564.152; 6477.475;    0.000;    0.000
564.280; 6475.475;    0.000;    0.000
564.407; 6512.475;    0.000;    0.000
564.535; 6318.475;    0.000;    0.000
564.662; 6510.475;    0.000;    0.000
564.790; 6518.475;    0.000;    0.000
564.917; 6593.475;    0.000;    0.000
565.045; 6682.475;    0.000;    0.000
565.173; 6725.475;    0.000;    0.000
565.300; 6753.475;    0.000;    0.000
565.428; 6861.475;    0.000;    0.000
565.555; 6896.475;    0.000;    0.000
565.682; 7157.475;    0.000;    0.000
565.810; 7048.475;    0.000;    0.000
565.937; 7234.475;    0.000;    0.000
566.065; 7422.475;    0.000;    0.000
566.192; 7328.475;    0.000;    0.000
566.320; 7646.475;    0.000;    0.000
566.447; 7684.475;    0.000;    0.000
566.574; 7711.475;    0.000;    0.000
566.702; 8001.475;    0.000;    0.000
566.829; 7940.475;    0.000;    0.000
566.956; 8067.475;    0.000;    0.000
567.083; 8108.475;    0.000;    0.000
567.211; 8111.475;    0.000;    0.000
567.338; 8136.475;    0.000;    0.000
567.465; 8134.475;    0.000;    0.000
567.593; 8281.475;    0.000;    0.000
567.720; 8260.475;    0.000;    0.000
567.847; 8247.475;    0.000;    0.000
567.974; 8180.475;    0.000;    0.000
568.101; 8375.475;    0.000;    0.000
568.228; 8972.475;    0.000;    0.000
568.356; 9422.475;    0.000;    0.000
568.483; 9107.475;    0.000;    0.000
568.610; 8978.475;    0.000;    0.000
568.737; 9773.475;    0.000;    0.000
568.864;10672.475;    0.000;    0.000
568.991;10263.475;    0.000;    0.000
569.118; 9419.475;    0.000;    0.000
569.245; 8901.475;    0.000;    0.000
569.372; 8592.475;    0.000;    0.000
569.499; 8088.475;    0.000;    0.000
569.626; 7999.475;    0.000;    0.000
569.753; 7843.475;    0.000;    0.000
569.880; 7678.475;    0.000;    0.000
570.007; 7500.475;    0.000;    0.000
570.134; 7420.475;    0.000;    0.000
570.261; 7321.475;    0.000;    0.000
570.388; 7249.475;    0.000;    0.000
570.515; 7227.475;    0.000;    0.000
570.642; 7038.475;    0.000;    0.000
570.768; 7146.475;    0.000;    0.000
570.895; 7024.475;    0.000;    0.000
571.022; 6948.475;    0.000;    0.000
571.149; 6985.475;    0.000;    0.000
571.276; 6947.475;    0.000;    0.000
571.402; 6913.475;    0.000;    0.000
571.529; 6852.475;    0.000;    0.000
571.656; 6832.475;    0.000;    0.000
571.783; 6638.475;    0.000;    0.000
571.909; 6653.475;    0.000;    0.000
572.036; 6582.475;    0.000;    0.000
572.163; 6552.475;    0.000;    0.000
572.289; 6616.475;    0.000;    0.000
572.416; 6425.475;    0.000;    0.000
572.543; 6592.475;    0.000;    0.000
572.669; 6461.475;    0.000;    0.000
572.796; 6504.475;    0.000;    0.000
572.922; 6424.475;    0.000;    0.000
573.049; 6384.475;    0.000;    0.000
573.176; 6334.475;    0.000;    0.000
573.302; 6392.475;    0.000;    0.000
573.429; 6368.475;    0.000;    0.000
573.555; 6448.475;    0.000;    0.000
573.682; 6304.475;    0.000;    0.000
573.808; 6417.475;    0.000;    0.000
573.935; 6224.475;    0.000;    0.000
574.061; 6224.475;    0.000;    0.000
574.188; 6342.475;    0.000;    0.000
574.314; 6286.475;    0.000;    0.000
574.440; 6232.475;    0.000;    0.000
574.567; 6348.475;    0.000;    0.000
574.693; 6278.475;    0.000;    0.000
574.820; 6241.475;    0.000;    0.000
574.946; 6225.475;    0.000;    0.000
575.072; 6266.475;    0.000;    0.000
575.198; 6272.475;    0.000;    0.000
575.325; 6291.475;    0.000;    0.000
575.451; 6298.475;    0.000;    0.000
575.577; 6206.475;    0.000;    0.000
575.704; 6231.475;    0.000;    0.000
575.830; 6226.475;    0.000;    0.000
575.956; 6177.475;    0.000;    0.000
576.082; 6279.475;    0.000;    0.000
576.208; 6231.475;    0.000;    0.000
576.335; 6333.475;    0.000;    0.000
576.461; 6123.475;    0.000;    0.000
576.587; 6166.475;    0.000;    0.000
576.713; 6195.475;    0.000;    0.000
576.839; 6435.475;    0.000;    0.000
576.965; 6180.475;    0.000;    0.000
577.091; 6205.475;    0.000;    0.000
577.217; 6291.475;    0.000;    0.000
577.343; 6213.475;    0.000;    0.000
577.469; 6295.475;    0.000;    0.000
577.596; 6306.475;    0.000;    0.000
577.722; 6266.475;    0.000;    0.000
577.848; 6295.475;    0.000;    0.000
577.974; 6366.475;    0.000;    0.000
578.099; 6205.475;    0.000;    0.000
578.225; 6287.475;    0.000;    0.000
578.351; 6297.475;    0.000;    0.000
578.477; 6219.475;    0.000;    0.000
578.603; 6239.475;    0.000;    0.000
578.729; 6296.475;    0.000;    0.000
578.855; 6183.475;    0.000;    0.000
578.981; 6354.475;    0.000;    0.000
579.107; 6279.475;    0.000;    0.000
579.232; 6391.475;    0.000;    0.000
579.358; 6350.475;    0.000;    0.000
579.484; 6321.475;    0.000;    0.000
579.610; 6367.475;    0.000;    0.000
579.735; 6325.475;    0.000;    0.000
579.861; 6409.475;    0.000;    0.000
579.987; 6415.475;    0.000;    0.000
580.113; 6434.475;    0.000;    0.000
580.238; 6445.475;    0.000;    0.000
580.364; 6406.475;    0.000;    0.000
580.490; 6508.475;    0.000;    0.000
580.615; 6535.475;    0.000;    0.000
580.741; 6535.475;    0.000;    0.000
580.867; 6548.475;    0.000;    0.000
580.992; 6703.475;    0.000;    0.000
581.118; 6540.475;    0.000;    0.000
581.243; 6709.475;    0.000;    0.000
581.369; 6723.475;    0.000;    0.000
581.494; 6598.475;    0.000;    0.000
581.620; 6771.475;    0.000;    0.000
581.745; 6722.475;    0.000;    0.000
581.871; 6888.475;    0.000;    0.000
581.996; 6899.475;    0.000;    0.000
582.122; 6827.475;    0.000;    0.000
582.247; 6877.475;    0.000;    0.000
582.373; 6995.475;    0.000;    0.000
582.498; 7056.475;    0.000;    0.000
582.624; 7159.475;    0.000;    0.000
582.749; 7299.475;    0.000;    0.000
582.874; 7084.475;    0.000;    0.000
583.000; 7239.475;    0.000;    0.000
583.125; 7186.475;    0.000;    0.000
583.250; 7401.475;    0.000;    0.000
583.376; 7525.475;    0.000;    0.000
583.501; 7330.475;    0.000;    0.000
583.626; 7559.475;    0.000;    0.000
583.751; 7583.475;    0.000;    0.000
583.877; 7744.475;    0.000;    0.000
584.002; 7730.475;    0.000;    0.000
584.127; 7815.475;    0.000;    0.000
584.252; 7773.475;    0.000;    0.000
584.377; 8013.475;    0.000;    0.000
584.503; 8046.475;    0.000;    0.000
584.628; 8157.475;    0.000;    0.000
584.753; 8519.475;    0.000;    0.000
584.878; 8426.475;    0.000;    0.000
585.003; 8558.475;    0.000;    0.000
585.128; 8947.475;    0.000;    0.000
585.253; 9444.475;    0.000;    0.000
585.378; 9233.475;    0.000;    0.000
585.503; 9215.475;    0.000;    0.000
585.628; 9255.475;    0.000;    0.000
585.753; 9387.475;    0.000;    0.000
585.878; 9574.475;    0.000;    0.000
586.003; 9942.475;    0.000;    0.000
586.128;10069.475;    0.000;    0.000
586.253;10467.475;    0.000;    0.000
586.378;10557.475;    0.000;    0.000
586.503;11021.475;    0.000;    0.000
586.628;11209.475;    0.000;    0.000
586.753;11602.475;    0.000;    0.000
586.878;11999.475;    0.000;    0.000
587.003;12774.475;    0.000;    0.000
587.127;13004.475;    0.000;    0.000
587.252;13866.475;    0.000;    0.000
587.377;14287.475;    0.000;    0.000
587.502;15113.475;    0.000;    0.000
587.627;16111.475;    0.000;    0.000
587.751;17216.475;    0.000;    0.000
587.876;18827.475;    0.000;    0.000
588.001;20101.475;    0.000;    0.000
588.125;21908.475;    0.000;    0.000
588.250;24255.475;    0.000;    0.000
588.375;27508.475;    0.000;    0.000
588.499;31461.475;    0.000;    0.000
588.624;37086.477;    0.000;    0.000
588.749;44894.477;    0.000;    0.000
588.873;54025.477;    0.000;    0.000
588.998;61894.477;    0.000;    0.000
589.122;64196.477;    0.000;    0.000
589.247;59643.477;    0.000;    0.000
589.372;54417.477;    0.000;    0.000
589.496;55748.477;    0.000;    0.000
589.621;58941.477;    0.000;    0.000
589.745;57244.477;    0.000;    0.000
589.870;48877.477;    0.000;    0.000
589.994;40326.477;    0.000;    0.000
590.118;34514.477;    0.000;    0.000
590.243;30106.475;    0.000;    0.000
590.367;27018.475;    0.000;    0.000
590.492;24376.475;    0.000;    0.000
590.616;22405.475;    0.000;    0.000
590.740;20801.475;    0.000;    0.000
590.865;19271.475;    0.000;    0.000
590.989;18071.475;    0.000;    0.000
591.114;16926.475;    0.000;    0.000
591.238;16174.475;    0.000;    0.000
591.362;15530.475;    0.000;    0.000
591.486;14937.475;    0.000;    0.000
591.611;14155.475;    0.000;    0.000
591.735;13667.475;    0.000;    0.000
591.859;13009.475;    0.000;    0.000
591.983;12785.475;    0.000;    0.000
592.107;12496.475;    0.000;    0.000
592.232;12095.475;    0.000;    0.000
592.356;11641.475;    0.000;    0.000
592.480;11430.475;    0.000;    0.000
592.604;11346.475;    0.000;    0.000
592.728;10964.475;    0.000;    0.000
592.852;10677.475;    0.000;    0.000
592.976;10460.475;    0.000;    0.000
593.100;10335.475;    0.000;    0.000
593.224;10149.475;    0.000;    0.000
593.349;10224.475;    0.000;    0.000
593.473; 9784.475;    0.000;    0.000
593.597; 9692.475;    0.000;    0.000
593.721; 9549.475;    0.000;    0.000
593.844; 9428.475;    0.000;    0.000
593.968; 9426.475;    0.000;    0.000
594.092; 9078.475;    0.000;    0.000
594.216; 8920.475;    0.000;    0.000
594.340; 9162.475;    0.000;    0.000
594.464; 8910.475;    0.000;    0.000
594.588; 8767.475;    0.000;    0.000
594.712; 8669.475;    0.000;    0.000
594.836; 8480.475;    0.000;    0.000
594.959; 8349.475;    0.000;    0.000
595.083; 8335.475;    0.000;    0.000
595.207; 8225.475;    0.000;    0.000
595.331; 8050.475;    0.000;    0.000
595.455; 7890.475;    0.000;    0.000
595.578; 7836.475;    0.000;    0.000
595.702; 7697.475;    0.000;    0.000
595.826; 7704.475;    0.000;    0.000
595.949; 7639.475;    0.000;    0.000
596.073; 7567.475;    0.000;    0.000
596.197; 7448.475;    0.000;    0.000
596.320; 7454.475;    0.000;    0.000
596.444; 7382.475;    0.000;    0.000
596.568; 7223.475;    0.000;    0.000
596.691; 7321.475;    0.000;    0.000
596.815; 7252.475;    0.000;    0.000
596.938; 7099.475;    0.000;    0.000
597.062; 7059.475;    0.000;    0.000
597.186; 7139.475;    0.000;    0.000
597.309; 6952.475;    0.000;    0.000
597.433; 6980.475;    0.000;    0.000
597.556; 6881.475;    0.000;    0.000
597.680; 7001.475;    0.000;    0.000
597.803; 6837.475;    0.000;    0.000
597.926; 6822.475;    0.000;    0.000
598.050; 6792.475;    0.000;    0.000
598.173; 6766.475;    0.000;    0.000
598.297; 6682.475;    0.000;    0.000
598.420; 6708.475;    0.000;    0.000
598.543; 6649.475;    0.000;    0.000
598.667; 6688.475;    0.000;    0.000
598.790; 6661.475;    0.000;    0.000
598.913; 6527.475;    0.000;    0.000
599.037; 6454.475;    0.000;    0.000
599.160; 6442.475;    0.000;    0.000
599.283; 6332.475;    0.000;    0.000
599.406; 6412.475;    0.000;    0.000
599.530; 6441.475;    0.000;    0.000
599.653; 6411.475;    0.000;    0.000
599.776; 6413.475;    0.000;    0.000
599.899; 6412.475;    0.000;    0.000
600.022; 6320.475;    0.000;    0.000
600.145; 6332.475;    0.000;    0.000
600.269; 6177.475;    0.000;    0.000
600.392; 6306.475;    0.000;    0.000
600.515; 6166.475;    0.000;    0.000
600.638; 6208.475;    0.000;    0.000
600.761; 6258.475;    0.000;    0.000
600.884; 6124.475;    0.000;    0.000
601.007; 6079.475;    0.000;    0.000
601.130; 6131.475;    0.000;    0.000
601.253; 6224.475;    0.000;    0.000
601.376; 6017.475;    0.000;    0.000
601.499; 5998.475;    0.000;    0.000
601.622; 5965.475;    0.000;    0.000
601.745; 6073.475;    0.000;    0.000
601.868; 5992.475;    0.000;    0.000
601.991; 5840.475;    0.000;    0.000
602.113; 5993.475;    0.000;    0.000
602.236; 5960.475;    0.000;    0.000
602.359; 5908.475;    0.000;    0.000
602.482; 5890.475;    0.000;    0.000
602.605; 5914.475;    0.000;    0.000
602.728; 5816.475;    0.000;    0.000
602.850; 5854.475;    0.000;    0.000
602.973; 5910.475;    0.000;    0.000
603.096; 5813.475;    0.000;    0.000
603.219; 5845.475;    0.000;    0.000
603.341; 5834.475;    0.000;    0.000
603.464; 5791.475;    0.000;    0.000
603.587; 5773.475;    0.000;    0.000
603.709; 5716.475;    0.000;    0.000
603.832; 5694.475;    0.000;    0.000
603.955; 5655.475;    0.000;    0.000
604.077; 5729.475;    0.000;    0.000
604.200; 5694.475;    0.000;    0.000
604.323; 5638.475;    0.000;    0.000
604.445; 5683.475;    0.000;    0.000
604.568; 5649.475;    0.000;    0.000
604.690; 5610.475;    0.000;    0.000
604.813; 5583.475;    0.000;    0.000
604.935; 5723.475;    0.000;    0.000
605.058; 5563.475;    0.000;    0.000
605.180; 5616.475;    0.000;    0.000
605.303; 5653.475;    0.000;    0.000
605.425; 5631.475;    0.000;    0.000
605.547; 5603.475;    0.000;    0.000
605.670; 5595.475;    0.000;    0.000
605.792; 5494.475;    0.000;    0.000
605.915; 5616.475;    0.000;    0.000
606.037; 5439.475;    0.000;    0.000
606.159; 5577.475;    0.000;    0.000
606.282; 5403.475;    0.000;    0.000
606.404; 5465.475;    0.000;    0.000
606.526; 5434.475;    0.000;    0.000
606.648; 5513.475;    0.000;    0.000
606.771; 5410.475;    0.000;    0.000
606.893; 5431.475;    0.000;    0.000
607.015; 5406.475;    0.000;    0.000
607.137; 5385.475;    0.000;    0.000
607.260; 5492.475;    0.000;    0.000
607.382; 5523.475;    0.000;    0.000
607.504; 5455.475;    0.000;    0.000
607.626; 5409.475;    0.000;    0.000
607.748; 5406.475;    0.000;    0.000
607.870; 5452.475;    0.000;    0.000
607.992; 5397.475;    0.000;    0.000
608.114; 5547.475;    0.000;    0.000
608.237; 5436.475;    0.000;    0.000
608.359; 5493.475;    0.000;    0.000
608.481; 5394.475;    0.000;    0.000
608.603; 5244.475;    0.000;    0.000
608.725; 5359.475;    0.000;    0.000
608.847; 5368.475;    0.000;    0.000
608.969; 5464.475;    0.000;    0.000
609.090; 5441.475;    0.000;    0.000
609.212; 5344.475;    0.000;    0.000
609.334; 5425.475;    0.000;    0.000
609.456; 5436.475;    0.000;    0.000
609.578; 5302.475;    0.000;    0.000
609.700; 5356.475;    0.000;    0.000
609.822; 5280.475;    0.000;    0.000
609.944; 5384.475;    0.000;    0.000
610.065; 5338.475;    0.000;    0.000
610.187; 5389.475;    0.000;    0.000
610.309; 5350.475;    0.000;    0.000
610.431; 5438.475;    0.000;    0.000
610.552; 5292.475;    0.000;    0.000
610.674; 5471.475;    0.000;    0.000
610.796; 5258.475;    0.000;    0.000
610.918; 5251.475;    0.000;    0.000
611.039; 5235.475;    0.000;    0.000
611.161; 5278.475;    0.000;    0.000
611.282; 5287.475;    0.000;    0.000
611.404; 5165.475;    0.000;    0.000
611.526; 5233.475;    0.000;    0.000
611.647; 5163.475;    0.000;    0.000
611.769; 5289.475;    0.000;    0.000
611.890; 5251.475;    0.000;    0.000
612.012; 5298.475;    0.000;    0.000
612.133; 5290.475;    0.000;    0.000
612.255; 5401.475;    0.000;    0.000
612.377; 5318.475;    0.000;    0.000
612.498; 5143.475;    0.000;    0.000
612.619; 5193.475;    0.000;    0.000
612.741; 5285.475;    0.000;    0.000
612.862; 5258.475;    0.000;    0.000
612.984; 5277.475;    0.000;    0.000
613.105; 5239.475;    0.000;    0.000
613.226; 5226.475;    0.000;    0.000
613.348; 5170.475;    0.000;    0.000
613.469; 5187.475;    0.000;    0.000
613.590; 5140.475;    0.000;    0.000
613.712; 5263.475;    0.000;    0.000
613.833; 5167.475;    0.000;    0.000
613.954; 5247.475;    0.000;    0.000
614.076; 5201.475;    0.000;    0.000
614.197; 5200.475;    0.000;    0.000
614.318; 5291.475;    0.000;    0.000
614.439; 5299.475;    0.000;    0.000
614.560; 5153.475;    0.000;    0.000
614.682; 5194.475;    0.000;    0.000
614.803; 5256.475;    0.000;    0.000
614.924; 5285.475;    0.000;    0.000
615.045; 5227.475;    0.000;    0.000
615.166; 5378.475;    0.000;    0.000
615.287; 5403.475;    0.000;    0.000
615.408; 5724.475;    0.000;    0.000
615.529; 5866.475;    0.000;    0.000
615.650; 5635.475;    0.000;    0.000
615.771; 5669.475;    0.000;    0.000
615.892; 5611.475;    0.000;    0.000
616.013; 6160.475;    0.000;    0.000
616.134; 6439.475;    0.000;    0.000
616.255; 6393.475;    0.000;    0.000
616.376; 5906.475;    0.000;    0.000
616.497; 5679.475;    0.000;    0.000
616.618; 5412.475;    0.000;    0.000
616.739; 5405.475;    0.000;    0.000
616.860; 5516.475;    0.000;    0.000
616.981; 5259.475;    0.000;    0.000
617.102; 5285.475;    0.000;    0.000
617.222; 5194.475;    0.000;    0.000
617.343; 5338.475;    0.000;    0.000
617.464; 5220.475;    0.000;    0.000
617.585; 5251.475;    0.000;    0.000
617.705; 5162.475;    0.000;    0.000
617.826; 5133.475;    0.000;    0.000
617.947; 5169.475;    0.000;    0.000
618.068; 5084.475;    0.000;    0.000
618.188; 5111.475;    0.000;    0.000
618.309; 5151.475;    0.000;    0.000
618.430; 5094.475;    0.000;    0.000
618.550; 5142.475;    0.000;    0.000
618.671; 4996.475;    0.000;    0.000
618.791; 5089.475;    0.000;    0.000
618.912; 5049.475;    0.000;    0.000
619.033; 4973.475;    0.000;    0.000
619.153; 5039.475;    0.000;    0.000
619.274; 5034.475;    0.000;    0.000
619.394; 4976.475;    0.000;    0.000
619.515; 4996.475;    0.000;    0.000
619.635; 4972.475;    0.000;    0.000
619.756; 5023.475;    0.000;    0.000
619.876; 4913.475;    0.000;    0.000
619.996; 5086.475;    0.000;    0.000
620.117; 4974.475;    0.000;    0.000
620.237; 5010.475;    0.000;    0.000
620.358; 5087.475;    0.000;    0.000
620.478; 4970.475;    0.000;    0.000
620.598; 5065.475;    0.000;    0.000
620.719; 4913.475;    0.000;    0.000
620.839; 5005.475;    0.000;    0.000
620.959; 4917.475;    0.000;    0.000
621.079; 4965.475;    0.000;    0.000
621.200; 4834.475;    0.000;    0.000
621.320; 5072.475;    0.000;    0.000
621.440; 4940.475;    0.000;    0.000
621.560; 4864.475;    0.000;    0.000
621.681; 4962.475;    0.000;    0.000
621.801; 4961.475;    0.000;    0.000
621.921; 4976.475;    0.000;    0.000
622.041; 4994.475;    0.000;    0.000
622.161; 4956.475;    0.000;    0.000
622.281; 4929.475;    0.000;    0.000
622.401; 5072.475;    0.000;    0.000
622.521; 5018.475;    0.000;    0.000
622.641; 4925.475;    0.000;    0.000
622.761; 4966.475;    0.000;    0.000
622.882; 4860.475;    0.000;    0.000
623.002; 4818.475;    0.000;    0.000
623.121; 4879.475;    0.000;    0.000
623.241; 4916.475;    0.000;    0.000
623.361; 4917.475;    0.000;    0.000
623.481; 4816.475;    0.000;    0.000
623.601; 4959.475;    0.000;    0.000
623.721; 4911.475;    0.000;    0.000
623.841; 4988.475;    0.000;    0.000
623.961; 4926.475;    0.000;    0.000
624.081; 4786.475;    0.000;    0.000
624.201; 4925.475;    0.000;    0.000
624.320; 4933.475;    0.000;    0.000
624.440; 4850.475;    0.000;    0.000
624.560; 4895.475;    0.000;    0.000
624.680; 4755.475;    0.000;    0.000
624.799; 4826.475;    0.000;    0.000
624.919; 4850.475;    0.000;    0.000
625.039; 4821.475;    0.000;    0.000
625.159; 4849.475;    0.000;    0.000
625.278; 4823.475;    0.000;    0.000
625.398; 4857.475;    0.000;    0.000
625.518; 4809.475;    0.000;    0.000
625.637; 4824.475;    0.000;    0.000
625.757; 4682.475;    0.000;    0.000
625.876; 4723.475;    0.000;    0.000
625.996; 4780.475;    0.000;    0.000
626.115; 4688.475;    0.000;    0.000
626.235; 4728.475;    0.000;    0.000
626.354; 4785.475;    0.000;    0.000
626.474; 4675.475;    0.000;    0.000
626.594; 4714.475;    0.000;    0.000
626.713; 4710.475;    0.000;    0.000
626.832; 4690.475;    0.000;    0.000
626.952; 4692.475;    0.000;    0.000
627.071; 4675.475;    0.000;    0.000
627.191; 4713.475;    0.000;    0.000
627.310; 4629.475;    0.000;    0.000
627.429; 4763.475;    0.000;    0.000
627.549; 4634.475;    0.000;    0.000
627.668; 4541.475;    0.000;    0.000
627.787; 4792.475;    0.000;    0.000
627.907; 4666.475;    0.000;    0.000
628.026; 4603.475;    0.000;    0.000
628.145; 4583.475;    0.000;    0.000
628.264; 4720.475;    0.000;    0.000
628.384; 4656.475;    0.000;    0.000
628.503; 4637.475;    0.000;    0.000
628.622; 4627.475;    0.000;    0.000
628.741; 4621.475;    0.000;    0.000
628.860; 4632.475;    0.000;    0.000
628.980; 4662.475;    0.000;    0.000
629.099; 4644.475;    0.000;    0.000
629.218; 4689.475;    0.000;    0.000
629.337; 4644.475;    0.000;    0.000
629.456; 4642.475;    0.000;    0.000
629.575; 4697.475;    0.000;    0.000
629.694; 4578.475;    0.000;    0.000
629.813; 4624.475;    0.000;    0.000
629.932; 4582.475;    0.000;    0.000
630.051; 4647.475;    0.000;    0.000
630.170; 4708.475;    0.000;    0.000
630.289; 4559.475;    0.000;    0.000
630.408; 4460.475;    0.000;    0.000
630.527; 4631.475;    0.000;    0.000
630.646; 4549.475;    0.000;    0.000
630.764; 4696.475;    0.000;    0.000
630.883; 4605.475;    0.000;    0.000
631.002; 4604.475;    0.000;    0.000
631.121; 4605.475;    0.000;    0.000
631.240; 4544.475;    0.000;    0.000
631.359; 4638.475;    0.000;    0.000
631.477; 4538.475;    0.000;    0.000
631.596; 4610.475;    0.000;    0.000
631.715; 4734.475;    0.000;    0.000
631.834; 4542.475;    0.000;    0.000
631.952; 4581.475;    0.000;    0.000
632.071; 4489.475;    0.000;    0.000
632.190; 4543.475;    0.000;    0.000
632.308; 4617.475;    0.000;    0.000
632.427; 4521.475;    0.000;    0.000
632.546; 4616.475;    0.000;    0.000
632.664; 4566.475;    0.000;    0.000
632.783; 4567.475;    0.000;    0.000
632.901; 4594.475;    0.000;    0.000
633.020; 4484.475;    0.000;    0.000
633.138; 4452.475;    0.000;    0.000
633.257; 4405.475;    0.000;    0.000
633.375; 4547.475;    0.000;    0.000
633.494; 4469.475;    0.000;    0.000
633.612; 4514.475;    0.000;    0.000
633.731; 4554.475;    0.000;    0.000
633.849; 4498.475;    0.000;    0.000
633.968; 4505.475;    0.000;    0.000
634.086; 4556.475;    0.000;    0.000
634.204; 4641.475;    0.000;    0.000
634.323; 4507.475;    0.000;    0.000
634.441; 4547.475;    0.000;    0.000
634.559; 4560.475;    0.000;    0.000
634.678; 4496.475;    0.000;    0.000
634.796; 4534.475;    0.000;    0.000
634.914; 4531.475;    0.000;    0.000
635.032; 4587.475;    0.000;    0.000
635.151; 4376.475;    0.000;    0.000
635.269; 4512.475;    0.000;    0.000
635.387; 4433.475;    0.000;    0.000
635.505; 4453.475;    0.000;    0.000
635.623; 4401.475;    0.000;    0.000
635.742; 4364.475;    0.000;    0.000
635.860; 4476.475;    0.000;    0.000
635.978; 4408.475;    0.000;    0.000
636.096; 4530.475;    0.000;    0.000
636.214; 4356.475;    0.000;    0.000
636.332; 4326.475;    0.000;    0.000
636.450; 4480.475;    0.000;    0.000
636.568; 4388.475;    0.000;    0.000
636.686; 4409.475;    0.000;    0.000
636.804; 4420.475;    0.000;    0.000
636.922; 4457.475;    0.000;    0.000
637.040; 4476.475;    0.000;    0.000
637.158; 4466.475;    0.000;    0.000
637.276; 4524.475;    0.000;    0.000
637.394; 4474.475;    0.000;    0.000
637.512; 4472.475;    0.000;    0.000
637.629; 4452.475;    0.000;    0.000
637.747; 4349.475;    0.000;    0.000
637.865; 4476.475;    0.000;    0.000
637.983; 4389.475;    0.000;    0.000
638.101; 4426.475;    0.000;    0.000
638.218; 4350.475;    0.000;    0.000
638.336; 4442.475;    0.000;    0.000
638.454; 4410.475;    0.000;    0.000
638.572; 4374.475;    0.000;    0.000
638.689; 4317.475;    0.000;    0.000
638.807; 4387.475;    0.000;    0.000
638.925; 4509.475;    0.000;    0.000
639.042; 4437.475;    0.000;    0.000
639.160; 4371.475;    0.000;    0.000
639.278; 4304.475;    0.000;    0.000
639.395; 4367.475;    0.000;    0.000
639.513; 4358.475;    0.000;    0.000
639.630; 4378.475;    0.000;    0.000
639.748; 4385.475;    0.000;    0.000
639.865; 4334.475;    0.000;    0.000
639.983; 4377.475;    0.000;    0.000
640.100; 4329.475;    0.000;    0.000
640.218; 4319.475;    0.000;    0.000
640.335; 4400.475;    0.000;    0.000
640.453; 4383.475;    0.000;    0.000
640.570; 4354.475;    0.000;    0.000
640.688; 4292.475;    0.000;    0.000
640.805; 4349.475;    0.000;    0.000
640.922; 4376.475;    0.000;    0.000
641.040; 4299.475;    0.000;    0.000
641.157; 4391.475;    0.000;    0.000
641.274; 4488.475;    0.000;    0.000
641.391; 4322.475;    0.000;    0.000
641.509; 4244.475;    0.000;    0.000
641.626; 4363.475;    0.000;    0.000
641.743; 4375.475;    0.000;    0.000
641.860; 4346.475;    0.000;    0.000
641.978; 4369.475;    0.000;    0.000
642.095; 4306.475;    0.000;    0.000
642.212; 4469.475;    0.000;    0.000
642.329; 4405.475;    0.000;    0.000
642.446; 4363.475;    0.000;    0.000
642.563; 4300.475;    0.000;    0.000
642.681; 4379.475;    0.000;    0.000
642.798; 4354.475;    0.000;    0.000
642.915; 4378.475;    0.000;    0.000
643.032; 4485.475;    0.000;    0.000
643.149; 4390.475;    0.000;    0.000
643.266; 4279.475;    0.000;    0.000
643.383; 4429.475;    0.000;    0.000
643.500; 4449.475;    0.000;    0.000
643.617; 4404.475;    0.000;    0.000
643.734; 4449.475;    0.000;    0.000
643.850; 4551.475;    0.000;    0.000
643.967; 4570.475;    0.000;    0.000
644.084; 4616.475;    0.000;    0.000
644.201; 4428.475;    0.000;    0.000
644.318; 4514.475;    0.000;    0.000
644.435; 4597.475;    0.000;    0.000
644.552; 4457.475;    0.000;    0.000
644.668; 4442.475;    0.000;    0.000
644.785; 4500.475;    0.000;    0.000
644.902; 4471.475;    0.000;    0.000
645.019; 4482.475;    0.000;    0.000
645.135; 4582.475;    0.000;    0.000
645.252; 4437.475;    0.000;    0.000
645.369; 4534.475;    0.000;    0.000
645.485; 4493.475;    0.000;    0.000
645.602; 4557.475;    0.000;    0.000
645.719; 4507.475;    0.000;    0.000
645.835; 4642.475;    0.000;    0.000
645.952; 4527.475;    0.000;    0.000
646.068; 4628.475;    0.000;    0.000
646.185; 4608.475;    0.000;    0.000
646.302; 4687.475;    0.000;    0.000
646.418; 4609.475;    0.000;    0.000
646.535; 4669.475;    0.000;    0.000
646.651; 4630.475;    0.000;    0.000
646.768; 4688.475;    0.000;    0.000
646.884; 4699.475;    0.000;    0.000
647.000; 4698.475;    0.000;    0.000
647.117; 4622.475;    0.000;    0.000
647.233; 4519.475;    0.000;    0.000
647.350; 4682.475;    0.000;    0.000
647.466; 4757.475;    0.000;    0.000
647.582; 4775.475;    0.000;    0.000
647.699; 4761.475;    0.000;    0.000
647.815; 4729.475;    0.000;    0.000
647.931; 4711.475;    0.000;    0.000
648.047; 4640.475;    0.000;    0.000
648.164; 4835.475;    0.000;    0.000
648.280; 4794.475;    0.000;    0.000
648.396; 4804.475;    0.000;    0.000
648.512; 4845.475;    0.000;    0.000
648.629; 4828.475;    0.000;    0.000
648.745; 4845.475;    0.000;    0.000
648.861; 4783.475;    0.000;    0.000
648.977; 4870.475;    0.000;    0.000
649.093; 4842.475;    0.000;    0.000
649.209; 4862.475;    0.000;    0.000
649.325; 5006.475;    0.000;    0.000
649.441; 4929.475;    0.000;    0.000
649.557; 4975.475;    0.000;    0.000
649.673; 4837.475;    0.000;    0.000
649.789; 5015.475;    0.000;    0.000
649.905; 5067.475;    0.000;    0.000
650.021; 4968.475;    0.000;    0.000
650.137; 4991.475;    0.000;    0.000
650.253; 4976.475;    0.000;    0.000
650.369; 5067.475;    0.000;    0.000
650.485; 5103.475;    0.000;    0.000
650.601; 5030.475;    0.000;    0.000
650.717; 5113.475;    0.000;    0.000
650.833; 5010.475;    0.000;    0.000
650.948; 5135.475;    0.000;    0.000
651.064; 5213.475;    0.000;    0.000
651.180; 5157.475;    0.000;    0.000
651.296; 5190.475;    0.000;    0.000
651.411; 5069.475;    0.000;    0.000
651.527; 5121.475;    0.000;    0.000
651.643; 5292.475;    0.000;    0.000
651.759; 5326.475;    0.000;    0.000
651.874; 5215.475;    0.000;    0.000
651.990; 5360.475;    0.000;    0.000
652.105; 5290.475;    0.000;    0.000
652.221; 5432.475;    0.000;    0.000
652.337; 5425.475;    0.000;    0.000
652.452; 5427.475;    0.000;    0.000
652.568; 5446.475;    0.000;    0.000
652.683; 5415.475;    0.000;    0.000
652.799; 5712.475;    0.000;    0.000
652.914; 5628.475;    0.000;    0.000
653.030; 5651.475;    0.000;    0.000
653.145; 5653.475;    0.000;    0.000
653.261; 5793.475;    0.000;    0.000
653.376; 5914.475;    0.000;    0.000
653.492; 5870.475;    0.000;    0.000
653.607; 5915.475;    0.000;    0.000
653.722; 5956.475;    0.000;    0.000
653.838; 5958.475;    0.000;    0.000
653.953; 6143.475;    0.000;    0.000
654.068; 6223.475;    0.000;    0.000
654.184; 6229.475;    0.000;    0.000
654.299; 6380.475;    0.000;    0.000
654.414; 6581.475;    0.000;    0.000
654.530; 6371.475;    0.000;    0.000
654.645; 6583.475;    0.000;    0.000
654.760; 6736.475;    0.000;    0.000
654.875; 6814.475;    0.000;    0.000
654.990; 6990.475;    0.000;    0.000
655.106; 7193.475;    0.000;    0.000
655.221; 7285.475;    0.000;    0.000
655.336; 7284.475;    0.000;    0.000
655.451; 7477.475;    0.000;    0.000
655.566; 7795.475;    0.000;    0.000
655.681; 7814.475;    0.000;    0.000
655.796; 8046.475;    0.000;    0.000
655.911; 8390.475;    0.000;    0.000
656.026; 8520.475;    0.000;    0.000
656.141; 8649.475;    0.000;    0.000
656.256; 8949.475;    0.000;    0.000
656.371; 9011.475;    0.000;    0.000
656.486; 9087.475;    0.000;    0.000
656.601; 8984.475;    0.000;    0.000
656.716; 8952.475;    0.000;    0.000
656.831; 8840.475;    0.000;    0.000
656.946; 8717.475;    0.000;    0.000
657.060; 8449.475;    0.000;    0.000
657.175; 8268.475;    0.000;    0.000
657.290; 8098.475;    0.000;    0.000
657.405; 8198.475;    0.000;    0.000
657.520; 7894.475;    0.000;    0.000
657.634; 7758.475;    0.000;    0.000
657.749; 7892.475;    0.000;    0.000
657.864; 7573.475;    0.000;    0.000
657.979; 7495.475;    0.000;    0.000
658.093; 7313.475;    0.000;    0.000
658.208; 7277.475;    0.000;    0.000
658.323; 7072.475;    0.000;    0.000
658.437; 7062.475;    0.000;    0.000
658.552; 6985.475;    0.000;    0.000
658.666; 6908.475;    0.000;    0.000
658.781; 6796.475;    0.000;    0.000
658.895; 6552.475;    0.000;    0.000
659.010; 6625.475;    0.000;    0.000
659.125; 6490.475;    0.000;    0.000
659.239; 6476.475;    0.000;    0.000
659.353; 6388.475;    0.000;    0.000
659.468; 6234.475;    0.000;    0.000
659.582; 6318.475;    0.000;    0.000
659.697; 6187.475;    0.000;    0.000
659.811; 6188.475;    0.000;    0.000
659.926; 6136.475;    0.000;    0.000
660.040; 6013.475;    0.000;    0.000
660.154; 6043.475;    0.000;    0.000
660.269; 6017.475;    0.000;    0.000
660.383; 5924.475;    0.000;    0.000
660.497; 5802.475;    0.000;    0.000
660.612; 5854.475;    0.000;    0.000
660.726; 5867.475;    0.000;    0.000
660.840; 5700.475;    0.000;    0.000
660.954; 5656.475;    0.000;    0.000
661.068; 5503.475;    0.000;    0.000
661.183; 5611.475;    0.000;    0.000
661.297; 5557.475;    0.000;    0.000
661.411; 5478.475;    0.000;    0.000
661.525; 5518.475;    0.000;    0.000
661.639; 5385.475;    0.000;    0.000
661.753; 5379.475;    0.000;    0.000
661.867; 5366.475;    0.000;    0.000
661.981; 5283.475;    0.000;    0.000
662.095; 5309.475;    0.000;    0.000
662.209; 5200.475;    0.000;    0.000
662.323; 5149.475;    0.000;    0.000
662.437; 5173.475;    0.000;    0.000
662.551; 5129.475;    0.000;    0.000
662.665; 5084.475;    0.000;    0.000
662.779; 5078.475;    0.000;    0.000
662.893; 4962.475;    0.000;    0.000
663.007; 4854.475;    0.000;    0.000
663.121; 5004.475;    0.000;    0.000
663.235; 4856.475;    0.000;    0.000
663.349; 4821.475;    0.000;    0.000
663.462; 4841.475;    0.000;    0.000
663.576; 4795.475;    0.000;    0.000
663.690; 4760.475;    0.000;    0.000
663.804; 4706.475;    0.000;    0.000
663.917; 4734.475;    0.000;    0.000
664.031; 4710.475;    0.000;    0.000
664.145; 4747.475;    0.000;    0.000
664.258; 4690.475;    0.000;    0.000
664.372; 4615.475;    0.000;    0.000
664.486; 4541.475;    0.000;    0.000
664.599; 4505.475;    0.000;    0.000
664.713; 4617.475;    0.000;    0.000
664.827; 4489.475;    0.000;    0.000
664.940; 4491.475;    0.000;    0.000
665.054; 4522.475;    0.000;    0.000
665.167; 4570.475;    0.000;    0.000
665.281; 4468.475;    0.000;    0.000
665.394; 4396.475;    0.000;    0.000
665.508; 4357.475;    0.000;    0.000
665.621; 4441.475;    0.000;    0.000
665.735; 4425.475;    0.000;    0.000
665.848; 4452.475;    0.000;    0.000
665.961; 4374.475;    0.000;    0.000
666.075; 4392.475;    0.000;    0.000
666.188; 4318.475;    0.000;    0.000
666.301; 4308.475;    0.000;    0.000
666.415; 4314.475;    0.000;    0.000
666.528; 4301.475;    0.000;    0.000
666.641; 4314.475;    0.000;    0.000
666.755; 4203.475;    0.000;    0.000
666.868; 4290.475;    0.000;    0.000
666.981; 4293.475;    0.000;    0.000
667.094; 4268.475;    0.000;    0.000
667.207; 4253.475;    0.000;    0.000
667.321; 4115.475;    0.000;    0.000
667.434; 4225.475;    0.000;    0.000
667.547; 4200.475;    0.000;    0.000
667.660; 4264.475;    0.000;    0.000
667.773; 4032.475;    0.000;    0.000
667.886; 4113.475;    0.000;    0.000
667.999; 4092.475;    0.000;    0.000
668.112; 4106.475;    0.000;    0.000
668.225; 4230.475;    0.000;    0.000
668.338; 4018.475;    0.000;    0.000
668.451; 4096.475;    0.000;    0.000
668.564; 4130.475;    0.000;    0.000
668.677; 4069.475;    0.000;    0.000
668.790; 3973.475;    0.000;    0.000
668.903; 4001.475;    0.000;    0.000
669.016; 3924.475;    0.000;    0.000
669.129; 4025.475;    0.000;    0.000
669.242; 3938.475;    0.000;    0.000
669.354; 3936.475;    0.000;    0.000
669.467; 4008.475;    0.000;    0.000
669.580; 3972.475;    0.000;    0.000
669.693; 3908.475;    0.000;    0.000
669.806; 3909.475;    0.000;    0.000
669.918; 3898.475;    0.000;    0.000
670.031; 4002.475;    0.000;    0.000
670.144; 3856.475;    0.000;    0.000
670.256; 3902.475;    0.000;    0.000
670.369; 3826.475;    0.000;    0.000
670.482; 3843.475;    0.000;    0.000
670.594; 3881.475;    0.000;    0.000
670.707; 3824.475;    0.000;    0.000
670.820; 3901.475;    0.000;    0.000
670.932; 3925.475;    0.000;    0.000
671.045; 3879.475;    0.000;    0.000
671.157; 3768.475;    0.000;    0.000
671.270; 3754.475;    0.000;    0.000
671.382; 3876.475;    0.000;    0.000
671.495; 3794.475;    0.000;    0.000
671.607; 3883.475;    0.000;    0.000
671.720; 3776.475;    0.000;    0.000
671.832; 3747.475;    0.000;    0.000
671.944; 3786.475;    0.000;    0.000
672.057; 3777.475;    0.000;    0.000
672.169; 3787.475;    0.000;    0.000
672.281; 3762.475;    0.000;    0.000
672.394; 3793.475;    0.000;    0.000
672.506; 3793.475;    0.000;    0.000
672.618; 3806.475;    0.000;    0.000
672.731; 3763.475;    0.000;    0.000
672.843; 3791.475;    0.000;    0.000
672.955; 3680.475;    0.000;    0.000
673.067; 3680.475;    0.000;    0.000
673.180; 3705.475;    0.000;    0.000
673.292; 3673.475;    0.000;    0.000
673.404; 3667.475;    0.000;    0.000
673.516; 3708.475;    0.000;    0.000
673.628; 3630.475;    0.000;    0.000
673.740; 3704.475;    0.000;    0.000
673.852; 3768.475;    0.000;    0.000
673.964; 3633.475;    0.000;    0.000
674.076; 3614.475;    0.000;    0.000
674.188; 3595.475;    0.000;    0.000
674.300; 3738.475;    0.000;    0.000
674.412; 3598.475;    0.000;    0.000
674.524; 3594.475;    0.000;    0.000
674.636; 3607.475;    0.000;    0.000
674.748; 3655.475;    0.000;    0.000
674.860; 3611.475;    0.000;    0.000
674.972; 3613.475;    0.000;    0.000
675.084; 3619.475;    0.000;    0.000
675.196; 3641.475;    0.000;    0.000
675.307; 3613.475;    0.000;    0.000
675.419; 3541.475;    0.000;    0.000
675.531; 3604.475;    0.000;    0.000
675.643; 3549.475;    0.000;    0.000
675.755; 3610.475;    0.000;    0.000
675.866; 3560.475;    0.000;    0.000
675.978; 3466.475;    0.000;    0.000
676.090; 3516.475;    0.000;    0.000
676.201; 3472.475;    0.000;    0.000
676.313; 3531.475;    0.000;    0.000
676.425; 3484.475;    0.000;    0.000
676.536; 3465.475;    0.000;    0.000
676.648; 3524.475;    0.000;    0.000
676.759; 3536.475;    0.000;    0.000
676.871; 3511.475;    0.000;    0.000
676.983; 3530.475;    0.000;    0.000
677.094; 3466.475;    0.000;    0.000
677.206; 3518.475;    0.000;    0.000
677.317; 3642.475;    0.000;    0.000
677.429; 3469.475;    0.000;    0.000
677.540; 3531.475;    0.000;    0.000
677.651; 3461.475;    0.000;    0.000
677.763; 3443.475;    0.000;    0.000
677.874; 3573.475;    0.000;    0.000
677.986; 3534.475;    0.000;    0.000
678.097; 3451.475;    0.000;    0.000
678.208; 3508.475;    0.000;    0.000
678.320; 3519.475;    0.000;    0.000
678.431; 3508.475;    0.000;    0.000
678.542; 3477.475;    0.000;    0.000
678.653; 3483.475;    0.000;    0.000
678.765; 3498.475;    0.000;    0.000
678.876; 3451.475;    0.000;    0.000
678.987; 3406.475;    0.000;    0.000
679.098; 3392.475;    0.000;    0.000
679.209; 3439.475;    0.000;    0.000
679.320; 3473.475;    0.000;    0.000
679.432; 3421.475;    0.000;    0.000
679.543; 3385.475;    0.000;    0.000
679.654; 3394.475;    0.000;    0.000
679.765; 3423.475;    0.000;    0.000
679.876; 3412.475;    0.000;    0.000
679.987; 3414.475;    0.000;    0.000
680.098; 3388.475;    0.000;    0.000
680.209; 3377.475;    0.000;    0.000
680.320; 3409.475;    0.000;    0.000
680.431; 3380.475;    0.000;    0.000
680.542; 3339.475;    0.000;    0.000
680.653; 3506.475;    0.000;    0.000
680.763; 3338.475;    0.000;    0.000
680.874; 3452.475;    0.000;    0.000
680.985; 3342.475;    0.000;    0.000
681.096; 3407.475;    0.000;    0.000
681.207; 3345.475;    0.000;    0.000
681.318; 3377.475;    0.000;    0.000
681.428; 3402.475;    0.000;    0.000
681.539; 3321.475;    0.000;    0.000
681.650; 3383.475;    0.000;    0.000
681.760; 3412.475;    0.000;    0.000
681.871; 3322.475;    0.000;    0.000
681.982; 3377.475;    0.000;    0.000
682.093; 3228.475;    0.000;    0.000
682.203; 3261.475;    0.000;    0.000
682.314; 3378.475;    0.000;    0.000
682.424; 3347.475;    0.000;    0.000
682.535; 3224.475;    0.000;    0.000
682.646; 3354.475;    0.000;    0.000
682.756; 3372.475;    0.000;    0.000
682.867; 3427.475;    0.000;    0.000
682.977; 3417.475;    0.000;    0.000
683.088; 3332.475;    0.000;    0.000
683.198; 3273.475;    0.000;    0.000
683.308; 3312.475;    0.000;    0.000
683.419; 3303.475;    0.000;    0.000
683.529; 3250.475;    0.000;    0.000
683.640; 3358.475;    0.000;    0.000
683.750; 3296.475;    0.000;    0.000
683.860; 3322.475;    0.000;    0.000
683.971; 3291.475;    0.000;    0.000
684.081; 3269.475;    0.000;    0.000
684.191; 3253.475;    0.000;    0.000
684.301; 3208.475;    0.000;    0.000
684.412; 3305.475;    0.000;    0.000
684.522; 3371.475;    0.000;    0.000
684.632; 3284.475;    0.000;    0.000
684.742; 3236.475;    0.000;    0.000
684.852; 3208.475;    0.000;    0.000
684.963; 3278.475;    0.000;    0.000
685.073; 3263.475;    0.000;    0.000
685.183; 3284.475;    0.000;    0.000
685.293; 3188.475;    0.000;    0.000
685.403; 3368.475;    0.000;    0.000
685.513; 3379.475;    0.000;    0.000
685.623; 3281.475;    0.000;    0.000
685.733; 3398.475;    0.000;    0.000
685.843; 3336.475;    0.000;    0.000
685.953; 3260.475;    0.000;    0.000
686.063; 3337.475;    0.000;    0.000
686.173; 3232.475;    0.000;    0.000
686.283; 3191.475;    0.000;    0.000
686.393; 3278.475;    0.000;    0.000
686.503; 3282.475;    0.000;    0.000
686.612; 3264.475;    0.000;    0.000
686.722; 3332.475;    0.000;    0.000
686.832; 3375.475;    0.000;    0.000
686.942; 3301.475;    0.000;    0.000
687.052; 3303.475;    0.000;    0.000
687.161; 3314.475;    0.000;    0.000
687.271; 3248.475;    0.000;    0.000
687.381; 3153.475;    0.000;    0.000
687.491; 3220.475;    0.000;    0.000
687.600; 3219.475;    0.000;    0.000
687.710; 3289.475;    0.000;    0.000
687.820; 3264.475;    0.000;    0.000
687.929; 3216.475;    0.000;    0.000
688.039; 3210.475;    0.000;    0.000
688.148; 3337.475;    0.000;    0.000
688.258; 3292.475;    0.000;    0.000
688.367; 3174.475;    0.000;    0.000
688.477; 3120.475;    0.000;    0.000
688.586; 3159.475;    0.000;    0.000
688.696; 3216.475;    0.000;    0.000
688.805; 3284.475;    0.000;    0.000
688.915; 3225.475;    0.000;    0.000
689.024; 3232.475;    0.000;    0.000
689.134; 3149.475;    0.000;    0.000
689.243; 3262.475;    0.000;    0.000
689.352; 3210.475;    0.000;    0.000
689.462; 3228.475;    0.000;    0.000
689.571; 3210.475;    0.000;    0.000
689.680; 3146.475;    0.000;    0.000
689.790; 3169.475;    0.000;    0.000
689.899; 3253.475;    0.000;    0.000
690.008; 3132.475;    0.000;    0.000
690.117; 3215.475;    0.000;    0.000
690.227; 3227.475;    0.000;    0.000
690.336; 3300.475;    0.000;    0.000
690.445; 3104.475;    0.000;    0.000
690.554; 3222.475;    0.000;    0.000
690.663; 3231.475;    0.000;    0.000
690.772; 3155.475;    0.000;    0.000
690.881; 3150.475;    0.000;    0.000
690.990; 3196.475;    0.000;    0.000
691.099; 3189.475;    0.000;    0.000
691.209; 3267.475;    0.000;    0.000
691.318; 3129.475;    0.000;    0.000
691.427; 3159.475;    0.000;    0.000
691.536; 3234.475;    0.000;    0.000
691.644; 3204.475;    0.000;    0.000
691.753; 3149.475;    0.000;    0.000
691.862; 3270.475;    0.000;    0.000
691.971; 3219.475;    0.000;    0.000
692.080; 3159.475;    0.000;    0.000
692.189; 3150.475;    0.000;    0.000
692.298; 3208.475;    0.000;    0.000
692.406; 3297.475;    0.000;    0.000
692.515; 3233.475;    0.000;    0.000
692.624; 3225.475;    0.000;    0.000
692.733; 3259.475;    0.000;    0.000
692.842; 3224.475;    0.000;    0.000
692.950; 3266.475;    0.000;    0.000
693.059; 3240.475;    0.000;    0.000
693.168; 3232.475;    0.000;    0.000
693.276; 3131.475;    0.000;    0.000
693.385; 3308.475;    0.000;    0.000
693.494; 3261.475;    0.000;    0.000
693.602; 3142.475;    0.000;    0.000
693.711; 3250.475;    0.000;    0.000
693.819; 3241.475;    0.000;    0.000
693.928; 3102.475;    0.000;    0.000
694.036; 3174.475;    0.000;    0.000
694.145; 3213.475;    0.000;    0.000
694.253; 3179.475;    0.000;    0.000
694.362; 3272.475;    0.000;    0.000
694.470; 3221.475;    0.000;    0.000
694.579; 3223.475;    0.000;    0.000
694.687; 3312.475;    0.000;    0.000
694.795; 3205.475;    0.000;    0.000
694.904; 3268.475;    0.000;    0.000
695.012; 3234.475;    0.000;    0.000
695.120; 3209.475;    0.000;    0.000
695.229; 3150.475;    0.000;    0.000
695.337; 3100.475;    0.000;    0.000
695.445; 3184.475;    0.000;    0.000
695.553; 3167.475;    0.000;    0.000
695.662; 3230.475;    0.000;    0.000
695.770; 3179.475;    0.000;    0.000
695.878; 3138.475;    0.000;    0.000
695.986; 3322.475;    0.000;    0.000
696.094; 3245.475;    0.000;    0.000
696.202; 3203.475;    0.000;    0.000
696.310; 3151.475;    0.000;    0.000
696.419; 3223.475;    0.000;    0.000
696.527; 3243.475;    0.000;    0.000
696.635; 3238.475;    0.000;    0.000
696.743; 3253.475;    0.000;    0.000
696.851; 3251.475;    0.000;    0.000
696.959; 3171.475;    0.000;    0.000
697.067; 3199.475;    0.000;    0.000
697.174; 3227.475;    0.000;    0.000
697.282; 3256.475;    0.000;    0.000
697.390; 3221.475;    0.000;    0.000
697.498; 3179.475;    0.000;    0.000
697.606; 3197.475;    0.000;    0.000
697.714; 3233.475;    0.000;    0.000
697.822; 3162.475;    0.000;    0.000
697.929; 3186.475;    0.000;    0.000
698.037; 3149.475;    0.000;    0.000
698.145; 3160.475;    0.000;    0.000
698.253; 3222.475;    0.000;    0.000
698.360; 3275.475;    0.000;    0.000
698.468; 3133.475;    0.000;    0.000
698.576; 3326.475;    0.000;    0.000
698.683; 3202.475;    0.000;    0.000
698.791; 3213.475;    0.000;    0.000
698.899; 3311.475;    0.000;    0.000
699.006; 3238.475;    0.000;    0.000
699.114; 3233.475;    0.000;    0.000
699.221; 3159.475;    0.000;    0.000
699.329; 3270.475;    0.000;    0.000
699.436; 3149.475;    0.000;    0.000
699.544; 3347.475;    0.000;    0.000
699.651; 3168.475;    0.000;    0.000
699.759; 3105.475;    0.000;    0.000
699.866; 3279.475;    0.000;    0.000
699.974; 3210.475;    0.000;    0.000
700.081; 3203.475;    0.000;    0.000
700.188; 3210.475;    0.000;    0.000
700.296; 3188.475;    0.000;    0.000
700.403; 3179.475;    0.000;    0.000
700.510; 3205.475;    0.000;    0.000
700.618; 3155.475;    0.000;    0.000
700.725; 3193.475;    0.000;    0.000
700.832; 3254.475;    0.000;    0.000
700.940; 3259.475;    0.000;    0.000
701.047; 3174.475;    0.000;    0.000
701.154; 3203.475;    0.000;    0.000
701.261; 3150.475;    0.000;    0.000
701.368; 3307.475;    0.000;    0.000
701.475; 3167.475;    0.000;    0.000
701.582; 3175.475;    0.000;    0.000
701.690; 3211.475;    0.000;    0.000
701.797; 3319.475;    0.000;    0.000
701.904; 3203.475;    0.000;    0.000
702.011; 3253.475;    0.000;    0.000
702.118; 3167.475;    0.000;    0.000
702.225; 3255.475;    0.000;    0.000
702.332; 3265.475;    0.000;    0.000
702.439; 3197.475;    0.000;    0.000
702.546; 3210.475;    0.000;    0.000
702.652; 3281.475;    0.000;    0.000
702.759; 3267.475;    0.000;    0.000
702.866; 3180.475;    0.000;    0.000
702.973; 3236.475;    0.000;    0.000
703.080; 3241.475;    0.000;    0.000
703.187; 3204.475;    0.000;    0.000
703.294; 3283.475;    0.000;    0.000
703.400; 2952.475;    0.000;    0.000
703.507;  614.475;    0.000;    0.000
703.614;  330.475;    0.000;    0.000
703.720;  338.475;    0.000;    0.000
703.827;  335.475;    0.000;    0.000
703.934;  346.475;    0.000;    0.000
704.040;  299.475;    0.000;    0.000
704.147;  327.475;    0.000;    0.000
704.254;  339.475;    0.000;    0.000
704.360;  333.475;    0.000;    0.000
704.467;  343.475;    0.000;    0.000
704.573;  339.475;    0.000;    0.000
704.680;  339.475;    0.000;    0.000
704.786;  317.475;    0.000;    0.000
704.893;  334.475;    0.000;    0.000
704.999;  291.475;    0.000;    0.000
705.106;  337.475;    0.000;    0.000

