
Integration time [ms]:   1.000
Averaging Nr. [scans]: 1
Smoothing Nr. [pixels]: 0
Data measured with spectrometer [name]: NIR
Wave   ;Sample   ;Dark     ;Reference
[nm]   ;[counts] ;[counts] ;[counts] 

691.496;   64.175;    0.000;    0.000
691.696;   65.175;    0.000;    0.000
691.896;   54.175;    0.000;    0.000
692.096;   77.175;    0.000;    0.000
692.296;    3.175;    0.000;    0.000
692.496;  107.175;    0.000;    0.000
692.695;   41.175;    0.000;    0.000
692.895;   70.175;    0.000;    0.000
693.095;   73.175;    0.000;    0.000
693.295;   90.175;    0.000;    0.000
693.495;   84.175;    0.000;    0.000
693.695;   57.175;    0.000;    0.000
693.894;   60.175;    0.000;    0.000
694.094;   55.175;    0.000;    0.000
694.294;   38.175;    0.000;    0.000
694.494;  239.175;    0.000;    0.000
694.693; 1999.175;    0.000;    0.000
694.893; 2127.175;    0.000;    0.000
695.093; 2158.175;    0.000;    0.000
695.293; 2178.175;    0.000;    0.000
695.492; 2170.175;    0.000;    0.000
695.692; 2284.175;    0.000;    0.000
695.891; 2210.175;    0.000;    0.000
696.091; 2316.175;    0.000;    0.000
696.291; 2254.175;    0.000;    0.000
696.490; 2260.175;    0.000;    0.000
696.690; 2283.175;    0.000;    0.000
696.889; 2176.175;    0.000;    0.000
697.089; 2205.175;    0.000;    0.000
697.288; 2272.175;    0.000;    0.000
697.488; 2299.175;    0.000;    0.000
697.687; 2294.175;    0.000;    0.000
697.887; 2351.175;    0.000;    0.000
698.086; 2353.175;    0.000;    0.000
698.286; 2335.175;    0.000;    0.000
698.485; 2250.175;    0.000;    0.000
698.684; 2350.175;    0.000;    0.000
698.884; 2394.175;    0.000;    0.000
699.083; 2289.175;    0.000;    0.000
699.282; 2364.175;    0.000;    0.000
699.482; 2316.175;    0.000;    0.000
699.681; 2324.175;    0.000;    0.000
699.880; 2296.175;    0.000;    0.000
700.080; 2283.175;    0.000;    0.000
700.279; 2373.175;    0.000;    0.000
700.478; 2383.175;    0.000;    0.000
700.677; 2359.175;    0.000;    0.000
700.877; 2355.175;    0.000;    0.000
701.076; 2378.175;    0.000;    0.000
701.275; 2455.175;    0.000;    0.000
701.474; 2384.175;    0.000;    0.000
701.673; 2366.175;    0.000;    0.000
701.872; 2422.175;    0.000;    0.000
702.071; 2434.175;    0.000;    0.000
702.271; 2314.175;    0.000;    0.000
702.470; 2467.175;    0.000;    0.000
702.669; 2416.175;    0.000;    0.000
702.868; 2472.175;    0.000;    0.000
703.067; 2498.175;    0.000;    0.000
703.266; 2352.175;    0.000;    0.000
703.465; 2518.175;    0.000;    0.000
703.664; 2435.175;    0.000;    0.000
703.863; 2495.175;    0.000;    0.000
704.062; 2432.175;    0.000;    0.000
704.260; 2501.175;    0.000;    0.000
704.459; 2462.175;    0.000;    0.000
704.658; 2460.175;    0.000;    0.000
704.857; 2562.175;    0.000;    0.000
705.056; 2481.175;    0.000;    0.000
705.255; 2515.175;    0.000;    0.000
705.454; 2380.175;    0.000;    0.000
705.652; 2449.175;    0.000;    0.000
705.851; 2522.175;    0.000;    0.000
706.050; 2557.175;    0.000;    0.000
706.249; 2512.175;    0.000;    0.000
706.447; 2551.175;    0.000;    0.000
706.646; 2477.175;    0.000;    0.000
706.845; 2576.175;    0.000;    0.000
707.043; 2531.175;    0.000;    0.000
707.242; 2615.175;    0.000;    0.000
707.441; 2540.175;    0.000;    0.000
707.639; 2573.175;    0.000;    0.000
707.838; 2503.175;    0.000;    0.000
708.037; 2620.175;    0.000;    0.000
708.235; 2546.175;    0.000;    0.000
708.434; 2579.175;    0.000;    0.000
708.632; 2571.175;    0.000;    0.000
708.831; 2572.175;    0.000;    0.000
709.029; 2613.175;    0.000;    0.000
709.228; 2650.175;    0.000;    0.000
709.426; 2686.175;    0.000;    0.000
709.625; 2606.175;    0.000;    0.000
709.823; 2663.175;    0.000;    0.000
710.022; 2725.175;    0.000;    0.000
710.220; 2664.175;    0.000;    0.000
710.418; 2720.175;    0.000;    0.000
710.617; 2660.175;    0.000;    0.000
710.815; 2636.175;    0.000;    0.000
711.013; 2689.175;    0.000;    0.000
711.212; 2689.175;    0.000;    0.000
711.410; 2669.175;    0.000;    0.000
711.608; 2779.175;    0.000;    0.000
711.807; 2813.175;    0.000;    0.000
712.005; 2883.175;    0.000;    0.000
712.203; 2729.175;    0.000;    0.000
712.401; 2741.175;    0.000;    0.000
712.599; 2698.175;    0.000;    0.000
712.798; 2829.175;    0.000;    0.000
712.996; 2794.175;    0.000;    0.000
713.194; 2839.175;    0.000;    0.000
713.392; 2847.175;    0.000;    0.000
713.590; 2840.175;    0.000;    0.000
713.788; 2867.175;    0.000;    0.000
713.986; 2898.175;    0.000;    0.000
714.184; 2904.175;    0.000;    0.000
714.382; 2950.175;    0.000;    0.000
714.580; 2919.175;    0.000;    0.000
714.778; 2998.175;    0.000;    0.000
714.976; 2976.175;    0.000;    0.000
715.174; 3149.175;    0.000;    0.000
715.372; 3152.175;    0.000;    0.000
715.570; 3312.175;    0.000;    0.000
715.768; 3436.175;    0.000;    0.000
715.966; 3463.175;    0.000;    0.000
716.164; 3545.175;    0.000;    0.000
716.362; 3399.175;    0.000;    0.000
716.560; 3299.175;    0.000;    0.000
716.758; 3325.175;    0.000;    0.000
716.955; 3312.175;    0.000;    0.000
717.153; 3189.175;    0.000;    0.000
717.351; 3166.175;    0.000;    0.000
717.549; 3228.175;    0.000;    0.000
717.746; 3179.175;    0.000;    0.000
717.944; 3195.175;    0.000;    0.000
718.142; 3185.175;    0.000;    0.000
718.340; 3092.175;    0.000;    0.000
718.537; 3117.175;    0.000;    0.000
718.735; 3152.175;    0.000;    0.000
718.933; 3184.175;    0.000;    0.000
719.130; 3119.175;    0.000;    0.000
719.328; 3071.175;    0.000;    0.000
719.525; 3159.175;    0.000;    0.000
719.723; 3139.175;    0.000;    0.000
719.920; 3085.175;    0.000;    0.000
720.118; 3108.175;    0.000;    0.000
720.316; 3146.175;    0.000;    0.000
720.513; 3088.175;    0.000;    0.000
720.711; 3174.175;    0.000;    0.000
720.908; 3185.175;    0.000;    0.000
721.105; 3125.175;    0.000;    0.000
721.303; 3178.175;    0.000;    0.000
721.500; 3183.175;    0.000;    0.000
721.698; 3142.175;    0.000;    0.000
721.895; 3173.175;    0.000;    0.000
722.092; 3055.175;    0.000;    0.000
722.290; 3144.175;    0.000;    0.000
722.487; 3160.175;    0.000;    0.000
722.684; 3154.175;    0.000;    0.000
722.882; 3187.175;    0.000;    0.000
723.079; 3224.175;    0.000;    0.000
723.276; 3217.175;    0.000;    0.000
723.473; 3099.175;    0.000;    0.000
723.671; 3146.175;    0.000;    0.000
723.868; 3114.175;    0.000;    0.000
724.065; 3225.175;    0.000;    0.000
724.262; 3215.175;    0.000;    0.000
724.459; 3198.175;    0.000;    0.000
724.656; 3316.175;    0.000;    0.000
724.854; 3292.175;    0.000;    0.000
725.051; 3311.175;    0.000;    0.000
725.248; 3222.175;    0.000;    0.000
725.445; 3280.175;    0.000;    0.000
725.642; 3245.175;    0.000;    0.000
725.839; 3291.175;    0.000;    0.000
726.036; 3314.175;    0.000;    0.000
726.233; 3258.175;    0.000;    0.000
726.430; 3245.175;    0.000;    0.000
726.627; 3419.175;    0.000;    0.000
726.824; 3204.175;    0.000;    0.000
727.021; 3364.175;    0.000;    0.000
727.218; 3358.175;    0.000;    0.000
727.414; 3333.175;    0.000;    0.000
727.611; 3286.175;    0.000;    0.000
727.808; 3321.175;    0.000;    0.000
728.005; 3395.175;    0.000;    0.000
728.202; 3310.175;    0.000;    0.000
728.399; 3355.175;    0.000;    0.000
728.595; 3312.175;    0.000;    0.000
728.792; 3401.175;    0.000;    0.000
728.989; 3404.175;    0.000;    0.000
729.186; 3414.175;    0.000;    0.000
729.382; 3404.175;    0.000;    0.000
729.579; 3375.175;    0.000;    0.000
729.776; 3441.175;    0.000;    0.000
729.972; 3443.175;    0.000;    0.000
730.169; 3536.175;    0.000;    0.000
730.366; 3295.175;    0.000;    0.000
730.562; 3522.175;    0.000;    0.000
730.759; 3499.175;    0.000;    0.000
730.955; 3512.175;    0.000;    0.000
731.152; 3367.175;    0.000;    0.000
731.348; 3440.175;    0.000;    0.000
731.545; 3396.175;    0.000;    0.000
731.741; 3452.175;    0.000;    0.000
731.938; 3631.175;    0.000;    0.000
732.134; 3502.175;    0.000;    0.000
732.331; 3551.175;    0.000;    0.000
732.527; 3425.175;    0.000;    0.000
732.724; 3499.175;    0.000;    0.000
732.920; 3550.175;    0.000;    0.000
733.116; 3530.175;    0.000;    0.000
733.313; 3478.175;    0.000;    0.000
733.509; 3675.175;    0.000;    0.000
733.705; 3584.175;    0.000;    0.000
733.902; 3610.175;    0.000;    0.000
734.098; 3626.175;    0.000;    0.000
734.294; 3554.175;    0.000;    0.000
734.490; 3514.175;    0.000;    0.000
734.687; 3623.175;    0.000;    0.000
734.883; 3628.175;    0.000;    0.000
735.079; 3570.175;    0.000;    0.000
735.275; 3666.175;    0.000;    0.000
735.471; 3748.175;    0.000;    0.000
735.667; 3738.175;    0.000;    0.000
735.863; 3701.175;    0.000;    0.000
736.060; 3702.175;    0.000;    0.000
736.256; 3662.175;    0.000;    0.000
736.452; 3691.175;    0.000;    0.000
736.648; 3806.175;    0.000;    0.000
736.844; 3771.175;    0.000;    0.000
737.040; 3956.175;    0.000;    0.000
737.236; 3656.175;    0.000;    0.000
737.432; 3726.175;    0.000;    0.000
737.628; 3968.175;    0.000;    0.000
737.824; 3824.175;    0.000;    0.000
738.019; 3811.175;    0.000;    0.000
738.215; 3925.175;    0.000;    0.000
738.411; 3936.175;    0.000;    0.000
738.607; 3939.175;    0.000;    0.000
738.803; 3829.175;    0.000;    0.000
738.999; 3980.175;    0.000;    0.000
739.195; 3863.175;    0.000;    0.000
739.390; 4001.175;    0.000;    0.000
739.586; 3952.175;    0.000;    0.000
739.782; 3925.175;    0.000;    0.000
739.978; 4021.175;    0.000;    0.000
740.173; 4086.175;    0.000;    0.000
740.369; 4115.175;    0.000;    0.000
740.565; 4061.175;    0.000;    0.000
740.760; 4107.175;    0.000;    0.000
740.956; 4137.175;    0.000;    0.000
741.152; 4268.175;    0.000;    0.000
741.347; 4314.175;    0.000;    0.000
741.543; 4255.175;    0.000;    0.000
741.738; 4424.175;    0.000;    0.000
741.934; 4529.175;    0.000;    0.000
742.129; 4805.175;    0.000;    0.000
742.325; 5416.175;    0.000;    0.000
742.520; 5660.175;    0.000;    0.000
742.716; 5493.175;    0.000;    0.000
742.911; 5245.175;    0.000;    0.000
743.107; 5205.175;    0.000;    0.000
743.302; 5073.175;    0.000;    0.000
743.498; 5193.175;    0.000;    0.000
743.693; 5401.175;    0.000;    0.000
743.888; 5341.175;    0.000;    0.000
744.084; 6331.175;    0.000;    0.000
744.279; 7389.175;    0.000;    0.000
744.474; 7375.175;    0.000;    0.000
744.670; 6819.175;    0.000;    0.000
744.865; 6261.175;    0.000;    0.000
745.060; 5904.175;    0.000;    0.000
745.255; 5879.175;    0.000;    0.000
745.451; 5596.175;    0.000;    0.000
745.646; 5552.175;    0.000;    0.000
745.841; 5567.175;    0.000;    0.000
746.036; 5629.175;    0.000;    0.000
746.231; 5758.175;    0.000;    0.000
746.426; 6091.175;    0.000;    0.000
746.622; 7121.175;    0.000;    0.000
746.817; 8976.175;    0.000;    0.000
747.012; 9721.175;    0.000;    0.000
747.207; 8952.175;    0.000;    0.000
747.402; 7896.175;    0.000;    0.000
747.597; 7301.175;    0.000;    0.000
747.792; 7033.175;    0.000;    0.000
747.987; 6681.175;    0.000;    0.000
748.182; 6693.175;    0.000;    0.000
748.377; 6235.175;    0.000;    0.000
748.572; 6077.175;    0.000;    0.000
748.767; 5811.175;    0.000;    0.000
748.961; 5721.175;    0.000;    0.000
749.156; 5665.175;    0.000;    0.000
749.351; 5482.175;    0.000;    0.000
749.546; 5409.175;    0.000;    0.000
749.741; 5252.175;    0.000;    0.000
749.936; 5265.175;    0.000;    0.000
750.130; 5149.175;    0.000;    0.000
750.325; 5148.175;    0.000;    0.000
750.520; 5135.175;    0.000;    0.000
750.715; 5129.175;    0.000;    0.000
750.909; 5121.175;    0.000;    0.000
751.104; 4959.175;    0.000;    0.000
751.299; 5047.175;    0.000;    0.000
751.493; 5088.175;    0.000;    0.000
751.688; 4973.175;    0.000;    0.000
751.882; 4933.175;    0.000;    0.000
752.077; 4860.175;    0.000;    0.000
752.272; 4832.175;    0.000;    0.000
752.466; 4913.175;    0.000;    0.000
752.661; 4971.175;    0.000;    0.000
752.855; 4849.175;    0.000;    0.000
753.050; 4795.175;    0.000;    0.000
753.244; 4851.175;    0.000;    0.000
753.439; 4825.175;    0.000;    0.000
753.633; 4844.175;    0.000;    0.000
753.828; 4681.175;    0.000;    0.000
754.022; 4764.175;    0.000;    0.000
754.216; 4758.175;    0.000;    0.000
754.411; 4857.175;    0.000;    0.000
754.605; 4781.175;    0.000;    0.000
754.799; 4719.175;    0.000;    0.000
754.994; 4737.175;    0.000;    0.000
755.188; 4704.175;    0.000;    0.000
755.382; 4669.175;    0.000;    0.000
755.576; 4751.175;    0.000;    0.000
755.771; 4644.175;    0.000;    0.000
755.965; 4615.175;    0.000;    0.000
756.159; 4743.175;    0.000;    0.000
756.353; 4789.175;    0.000;    0.000
756.547; 4776.175;    0.000;    0.000
756.742; 4665.175;    0.000;    0.000
756.936; 4710.175;    0.000;    0.000
757.130; 4744.175;    0.000;    0.000
757.324; 4683.175;    0.000;    0.000
757.518; 4837.175;    0.000;    0.000
757.712; 4801.175;    0.000;    0.000
757.906; 4642.175;    0.000;    0.000
758.100; 4835.175;    0.000;    0.000
758.294; 4824.175;    0.000;    0.000
758.488; 4787.175;    0.000;    0.000
758.682; 4829.175;    0.000;    0.000
758.876; 4828.175;    0.000;    0.000
759.070; 4804.175;    0.000;    0.000
759.264; 4757.175;    0.000;    0.000
759.458; 4756.175;    0.000;    0.000
759.651; 4735.175;    0.000;    0.000
759.845; 4727.175;    0.000;    0.000
760.039; 4765.175;    0.000;    0.000
760.233; 4727.175;    0.000;    0.000
760.427; 4737.175;    0.000;    0.000
760.620; 4832.175;    0.000;    0.000
760.814; 4798.175;    0.000;    0.000
761.008; 4799.175;    0.000;    0.000
761.202; 4910.175;    0.000;    0.000
761.395; 4749.175;    0.000;    0.000
761.589; 4919.175;    0.000;    0.000
761.783; 4866.175;    0.000;    0.000
761.976; 4884.175;    0.000;    0.000
762.170; 4916.175;    0.000;    0.000
762.363; 4827.175;    0.000;    0.000
762.557; 4816.175;    0.000;    0.000
762.750; 4940.175;    0.000;    0.000
762.944; 4919.175;    0.000;    0.000
763.138; 4937.175;    0.000;    0.000
763.331; 4922.175;    0.000;    0.000
763.524; 5085.175;    0.000;    0.000
763.718; 5117.175;    0.000;    0.000
763.911; 5070.175;    0.000;    0.000
764.105; 4991.175;    0.000;    0.000
764.298; 5012.175;    0.000;    0.000
764.492; 5037.175;    0.000;    0.000
764.685; 5087.175;    0.000;    0.000
764.878; 5072.175;    0.000;    0.000
765.072; 5036.175;    0.000;    0.000
765.265; 5135.175;    0.000;    0.000
765.458; 5147.175;    0.000;    0.000
765.651; 5218.175;    0.000;    0.000
765.845; 5305.175;    0.000;    0.000
766.038; 5569.175;    0.000;    0.000
766.231; 7420.175;    0.000;    0.000
766.424;11078.175;    0.000;    0.000
766.617;10236.175;    0.000;    0.000
766.811; 6425.175;    0.000;    0.000
767.004; 5545.175;    0.000;    0.000
767.197; 5301.175;    0.000;    0.000
767.390; 5196.175;    0.000;    0.000
767.583; 5319.175;    0.000;    0.000
767.776; 5275.175;    0.000;    0.000
767.969; 5265.175;    0.000;    0.000
768.162; 5201.175;    0.000;    0.000
768.355; 5219.175;    0.000;    0.000
768.548; 5336.175;    0.000;    0.000
768.741; 5390.175;    0.000;    0.000
768.934; 5501.175;    0.000;    0.000
769.127; 5561.175;    0.000;    0.000
769.320; 5476.175;    0.000;    0.000
769.513; 5829.175;    0.000;    0.000
769.706; 8038.175;    0.000;    0.000
769.898; 9819.175;    0.000;    0.000
770.091; 8043.175;    0.000;    0.000
770.284; 5875.175;    0.000;    0.000
770.477; 5707.175;    0.000;    0.000
770.670; 5698.175;    0.000;    0.000
770.862; 5656.175;    0.000;    0.000
771.055; 5848.175;    0.000;    0.000
771.248; 5810.175;    0.000;    0.000
771.441; 5884.175;    0.000;    0.000
771.633; 5800.175;    0.000;    0.000
771.826; 5915.175;    0.000;    0.000
772.018; 5971.175;    0.000;    0.000
772.211; 5944.175;    0.000;    0.000
772.404; 6071.175;    0.000;    0.000
772.596; 6125.175;    0.000;    0.000
772.789; 6232.175;    0.000;    0.000
772.981; 6266.175;    0.000;    0.000
773.174; 6315.175;    0.000;    0.000
773.366; 6496.175;    0.000;    0.000
773.559; 6567.175;    0.000;    0.000
773.751; 6565.175;    0.000;    0.000
773.944; 6802.175;    0.000;    0.000
774.136; 6842.175;    0.000;    0.000
774.329; 6947.175;    0.000;    0.000
774.521; 7184.175;    0.000;    0.000
774.713; 7533.175;    0.000;    0.000
774.906; 7664.175;    0.000;    0.000
775.098; 7894.175;    0.000;    0.000
775.290; 8270.175;    0.000;    0.000
775.483; 8781.175;    0.000;    0.000
775.675; 9265.175;    0.000;    0.000
775.867; 9877.175;    0.000;    0.000
776.059;10628.175;    0.000;    0.000
776.251;11998.175;    0.000;    0.000
776.444;13541.175;    0.000;    0.000
776.636;16029.175;    0.000;    0.000
776.828;20755.176;    0.000;    0.000
777.020;30313.176;    0.000;    0.000
777.212;41396.176;    0.000;    0.000
777.404;45219.176;    0.000;    0.000
777.596;40037.176;    0.000;    0.000
777.788;30708.176;    0.000;    0.000
777.980;23119.176;    0.000;    0.000
778.172;19011.176;    0.000;    0.000
778.364;16248.175;    0.000;    0.000
778.556;14283.175;    0.000;    0.000
778.748;12879.175;    0.000;    0.000
778.940;11890.175;    0.000;    0.000
779.132;11098.175;    0.000;    0.000
779.324;10239.175;    0.000;    0.000
779.516; 9730.175;    0.000;    0.000
779.708; 9172.175;    0.000;    0.000
779.900; 8602.175;    0.000;    0.000
780.091; 8338.175;    0.000;    0.000
780.283; 7968.175;    0.000;    0.000
780.475; 7838.175;    0.000;    0.000
780.667; 7645.175;    0.000;    0.000
780.859; 7268.175;    0.000;    0.000
781.050; 7284.175;    0.000;    0.000
781.242; 7005.175;    0.000;    0.000
781.434; 6848.175;    0.000;    0.000
781.625; 6585.175;    0.000;    0.000
781.817; 6541.175;    0.000;    0.000
782.008; 6529.175;    0.000;    0.000
782.200; 6401.175;    0.000;    0.000
782.392; 6419.175;    0.000;    0.000
782.583; 6165.175;    0.000;    0.000
782.775; 6153.175;    0.000;    0.000
782.966; 6109.175;    0.000;    0.000
783.158; 6079.175;    0.000;    0.000
783.349; 5964.175;    0.000;    0.000
783.541; 5909.175;    0.000;    0.000
783.732; 5797.175;    0.000;    0.000
783.924; 5847.175;    0.000;    0.000
784.115; 5764.175;    0.000;    0.000
784.306; 5661.175;    0.000;    0.000
784.498; 5809.175;    0.000;    0.000
784.689; 5773.175;    0.000;    0.000
784.880; 5670.175;    0.000;    0.000
785.072; 5657.175;    0.000;    0.000
785.263; 5691.175;    0.000;    0.000
785.454; 5633.175;    0.000;    0.000
785.645; 5661.175;    0.000;    0.000
785.837; 5572.175;    0.000;    0.000
786.028; 5625.175;    0.000;    0.000
786.219; 5632.175;    0.000;    0.000
786.410; 5529.175;    0.000;    0.000
786.601; 5575.175;    0.000;    0.000
786.792; 5565.175;    0.000;    0.000
786.984; 5549.175;    0.000;    0.000
787.175; 5499.175;    0.000;    0.000
787.366; 5591.175;    0.000;    0.000
787.557; 5576.175;    0.000;    0.000
787.748; 5569.175;    0.000;    0.000
787.939; 5679.175;    0.000;    0.000
788.130; 5642.175;    0.000;    0.000
788.321; 5616.175;    0.000;    0.000
788.512; 5741.175;    0.000;    0.000
788.703; 5675.175;    0.000;    0.000
788.894; 5624.175;    0.000;    0.000
789.084; 5682.175;    0.000;    0.000
789.275; 5765.175;    0.000;    0.000
789.466; 5771.175;    0.000;    0.000
789.657; 5850.175;    0.000;    0.000
789.848; 5785.175;    0.000;    0.000
790.039; 5818.175;    0.000;    0.000
790.229; 5933.175;    0.000;    0.000
790.420; 5808.175;    0.000;    0.000
790.611; 5864.175;    0.000;    0.000
790.801; 5907.175;    0.000;    0.000
790.992; 5876.175;    0.000;    0.000
791.183; 5829.175;    0.000;    0.000
791.373; 5845.175;    0.000;    0.000
791.564; 5699.175;    0.000;    0.000
791.755; 5688.175;    0.000;    0.000
791.945; 5623.175;    0.000;    0.000
792.136; 5685.175;    0.000;    0.000
792.326; 5723.175;    0.000;    0.000
792.517; 5752.175;    0.000;    0.000
792.707; 5811.175;    0.000;    0.000
792.898; 5700.175;    0.000;    0.000
793.088; 5861.175;    0.000;    0.000
793.279; 5814.175;    0.000;    0.000
793.469; 5915.175;    0.000;    0.000
793.660; 6058.175;    0.000;    0.000
793.850; 6229.175;    0.000;    0.000
794.040; 6397.175;    0.000;    0.000
794.231; 6724.175;    0.000;    0.000
794.421; 7174.175;    0.000;    0.000
794.611; 8176.175;    0.000;    0.000
794.802; 9103.175;    0.000;    0.000
794.992; 9639.175;    0.000;    0.000
795.182; 9557.175;    0.000;    0.000
795.372; 9068.175;    0.000;    0.000
795.563; 8123.175;    0.000;    0.000
795.753; 7534.175;    0.000;    0.000
795.943; 7004.175;    0.000;    0.000
796.133; 6739.175;    0.000;    0.000
796.323; 6611.175;    0.000;    0.000
796.513; 6418.175;    0.000;    0.000
796.703; 5974.175;    0.000;    0.000
796.893; 6027.175;    0.000;    0.000
797.083; 5854.175;    0.000;    0.000
797.273; 5904.175;    0.000;    0.000
797.463; 5724.175;    0.000;    0.000
797.653; 5522.175;    0.000;    0.000
797.843; 5706.175;    0.000;    0.000
798.033; 5370.175;    0.000;    0.000
798.223; 5407.175;    0.000;    0.000
798.413; 5427.175;    0.000;    0.000
798.603; 5162.175;    0.000;    0.000
798.793; 5128.175;    0.000;    0.000
798.983; 5118.175;    0.000;    0.000
799.172; 5068.175;    0.000;    0.000
799.362; 5108.175;    0.000;    0.000
799.552; 5026.175;    0.000;    0.000
799.742; 5005.175;    0.000;    0.000
799.932; 4922.175;    0.000;    0.000
800.121; 4901.175;    0.000;    0.000
800.311; 4809.175;    0.000;    0.000
800.501; 4808.175;    0.000;    0.000
800.690; 4895.175;    0.000;    0.000
800.880; 4912.175;    0.000;    0.000
801.070; 4901.175;    0.000;    0.000
801.259; 4829.175;    0.000;    0.000
801.449; 4863.175;    0.000;    0.000
801.638; 4854.175;    0.000;    0.000
801.828; 4845.175;    0.000;    0.000
802.017; 4727.175;    0.000;    0.000
802.207; 4715.175;    0.000;    0.000
802.396; 4748.175;    0.000;    0.000
802.586; 4776.175;    0.000;    0.000
802.775; 4761.175;    0.000;    0.000
802.965; 4710.175;    0.000;    0.000
803.154; 4760.175;    0.000;    0.000
803.343; 4691.175;    0.000;    0.000
803.533; 4657.175;    0.000;    0.000
803.722; 4525.175;    0.000;    0.000
803.911; 4700.175;    0.000;    0.000
804.101; 4467.175;    0.000;    0.000
804.290; 4466.175;    0.000;    0.000
804.479; 4617.175;    0.000;    0.000
804.668; 4611.175;    0.000;    0.000
804.857; 4603.175;    0.000;    0.000
805.047; 4636.175;    0.000;    0.000
805.236; 4652.175;    0.000;    0.000
805.425; 4663.175;    0.000;    0.000
805.614; 4430.175;    0.000;    0.000
805.803; 4538.175;    0.000;    0.000
805.992; 4561.175;    0.000;    0.000
806.181; 4537.175;    0.000;    0.000
806.370; 4520.175;    0.000;    0.000
806.559; 4600.175;    0.000;    0.000
806.748; 4574.175;    0.000;    0.000
806.937; 4507.175;    0.000;    0.000
807.126; 4519.175;    0.000;    0.000
807.315; 4457.175;    0.000;    0.000
807.504; 4447.175;    0.000;    0.000
807.693; 4518.175;    0.000;    0.000
807.882; 4460.175;    0.000;    0.000
808.071; 4622.175;    0.000;    0.000
808.260; 4487.175;    0.000;    0.000
808.448; 4562.175;    0.000;    0.000
808.637; 4584.175;    0.000;    0.000
808.826; 4533.175;    0.000;    0.000
809.015; 4652.175;    0.000;    0.000
809.203; 4600.175;    0.000;    0.000
809.392; 4694.175;    0.000;    0.000
809.581; 4677.175;    0.000;    0.000
809.770; 4699.175;    0.000;    0.000
809.958; 4643.175;    0.000;    0.000
810.147; 4739.175;    0.000;    0.000
810.335; 4650.175;    0.000;    0.000
810.524; 4751.175;    0.000;    0.000
810.713; 4776.175;    0.000;    0.000
810.901; 4782.175;    0.000;    0.000
811.090; 4906.175;    0.000;    0.000
811.278; 4830.175;    0.000;    0.000
811.467; 4886.175;    0.000;    0.000
811.655; 4945.175;    0.000;    0.000
811.844; 5008.175;    0.000;    0.000
812.032; 4988.175;    0.000;    0.000
812.220; 4948.175;    0.000;    0.000
812.409; 4956.175;    0.000;    0.000
812.597; 5035.175;    0.000;    0.000
812.785; 5079.175;    0.000;    0.000
812.974; 5103.175;    0.000;    0.000
813.162; 5063.175;    0.000;    0.000
813.350; 5177.175;    0.000;    0.000
813.539; 5126.175;    0.000;    0.000
813.727; 5132.175;    0.000;    0.000
813.915; 5302.175;    0.000;    0.000
814.103; 5240.175;    0.000;    0.000
814.291; 5327.175;    0.000;    0.000
814.479; 5308.175;    0.000;    0.000
814.668; 5521.175;    0.000;    0.000
814.856; 5578.175;    0.000;    0.000
815.044; 5681.175;    0.000;    0.000
815.232; 5756.175;    0.000;    0.000
815.420; 5847.175;    0.000;    0.000
815.608; 5857.175;    0.000;    0.000
815.796; 6066.175;    0.000;    0.000
815.984; 6219.175;    0.000;    0.000
816.172; 6227.175;    0.000;    0.000
816.360; 6568.175;    0.000;    0.000
816.548; 6669.175;    0.000;    0.000
816.736; 7018.175;    0.000;    0.000
816.924; 7458.175;    0.000;    0.000
817.111; 7742.175;    0.000;    0.000
817.299; 8161.175;    0.000;    0.000
817.487; 8911.175;    0.000;    0.000
817.675; 9904.175;    0.000;    0.000
817.863;11986.175;    0.000;    0.000
818.050;17670.176;    0.000;    0.000
818.238;29879.176;    0.000;    0.000
818.426;34790.176;    0.000;    0.000
818.613;27699.176;    0.000;    0.000
818.801;23080.176;    0.000;    0.000
818.989;22228.176;    0.000;    0.000
819.176;25780.176;    0.000;    0.000
819.364;37576.176;    0.000;    0.000
819.552;43012.176;    0.000;    0.000
819.739;34409.176;    0.000;    0.000
819.927;25339.176;    0.000;    0.000
820.114;21081.176;    0.000;    0.000
820.302;18443.176;    0.000;    0.000
820.489;16799.176;    0.000;    0.000
820.677;15667.175;    0.000;    0.000
820.864;14996.175;    0.000;    0.000
821.052;14987.175;    0.000;    0.000
821.239;15102.175;    0.000;    0.000
821.426;16146.175;    0.000;    0.000
821.614;18248.176;    0.000;    0.000
821.801;18483.176;    0.000;    0.000
821.988;16910.176;    0.000;    0.000
822.176;16092.175;    0.000;    0.000
822.363;16034.175;    0.000;    0.000
822.550;14717.175;    0.000;    0.000
822.737;13052.175;    0.000;    0.000
822.924;12318.175;    0.000;    0.000
823.112;11583.175;    0.000;    0.000
823.299;10898.175;    0.000;    0.000
823.486;10633.175;    0.000;    0.000
823.673;10001.175;    0.000;    0.000
823.860; 9656.175;    0.000;    0.000
824.047;10194.175;    0.000;    0.000
824.234;10736.175;    0.000;    0.000
824.421;10439.175;    0.000;    0.000
824.608; 9597.175;    0.000;    0.000
824.795; 8783.175;    0.000;    0.000
824.982; 8326.175;    0.000;    0.000
825.169; 7917.175;    0.000;    0.000
825.356; 7444.175;    0.000;    0.000
825.543; 7155.175;    0.000;    0.000
825.730; 6794.175;    0.000;    0.000
825.917; 6636.175;    0.000;    0.000
826.104; 6509.175;    0.000;    0.000
826.290; 6385.175;    0.000;    0.000
826.477; 6124.175;    0.000;    0.000
826.664; 5914.175;    0.000;    0.000
826.851; 5873.175;    0.000;    0.000
827.038; 5809.175;    0.000;    0.000
827.224; 5723.175;    0.000;    0.000
827.411; 5655.175;    0.000;    0.000
827.598; 5518.175;    0.000;    0.000
827.784; 5419.175;    0.000;    0.000
827.971; 5343.175;    0.000;    0.000
828.157; 5258.175;    0.000;    0.000
828.344; 5128.175;    0.000;    0.000
828.531; 5098.175;    0.000;    0.000
828.717; 4994.175;    0.000;    0.000
828.904; 4922.175;    0.000;    0.000
829.090; 4828.175;    0.000;    0.000
829.277; 4905.175;    0.000;    0.000
829.463; 4726.175;    0.000;    0.000
829.650; 4852.175;    0.000;    0.000
829.836; 4642.175;    0.000;    0.000
830.022; 4737.175;    0.000;    0.000
830.209; 4731.175;    0.000;    0.000
830.395; 4498.175;    0.000;    0.000
830.581; 4333.175;    0.000;    0.000
830.768; 4470.175;    0.000;    0.000
830.954; 4533.175;    0.000;    0.000
831.140; 4460.175;    0.000;    0.000
831.327; 4396.175;    0.000;    0.000
831.513; 4287.175;    0.000;    0.000
831.699; 4326.175;    0.000;    0.000
831.885; 4333.175;    0.000;    0.000
832.071; 4205.175;    0.000;    0.000
832.257; 4093.175;    0.000;    0.000
832.444; 4266.175;    0.000;    0.000
832.630; 4204.175;    0.000;    0.000
832.816; 4161.175;    0.000;    0.000
833.002; 4111.175;    0.000;    0.000
833.188; 4127.175;    0.000;    0.000
833.374; 4018.175;    0.000;    0.000
833.560; 4041.175;    0.000;    0.000
833.746; 4005.175;    0.000;    0.000
833.932; 3930.175;    0.000;    0.000
834.118; 3886.175;    0.000;    0.000
834.303; 3842.175;    0.000;    0.000
834.489; 3933.175;    0.000;    0.000
834.675; 3945.175;    0.000;    0.000
834.861; 3820.175;    0.000;    0.000
835.047; 3862.175;    0.000;    0.000
835.233; 3748.175;    0.000;    0.000
835.418; 3859.175;    0.000;    0.000
835.604; 3727.175;    0.000;    0.000
835.790; 3891.175;    0.000;    0.000
835.976; 3780.175;    0.000;    0.000
836.161; 3795.175;    0.000;    0.000
836.347; 3654.175;    0.000;    0.000
836.533; 3722.175;    0.000;    0.000
836.718; 3736.175;    0.000;    0.000
836.904; 3721.175;    0.000;    0.000
837.089; 3728.175;    0.000;    0.000
837.275; 3798.175;    0.000;    0.000
837.460; 3606.175;    0.000;    0.000
837.646; 3803.175;    0.000;    0.000
837.831; 3683.175;    0.000;    0.000
838.017; 3593.175;    0.000;    0.000
838.202; 3722.175;    0.000;    0.000
838.388; 3626.175;    0.000;    0.000
838.573; 3678.175;    0.000;    0.000
838.759; 3654.175;    0.000;    0.000
838.944; 3675.175;    0.000;    0.000
839.129; 3666.175;    0.000;    0.000
839.315; 3712.175;    0.000;    0.000
839.500; 3718.175;    0.000;    0.000
839.685; 3744.175;    0.000;    0.000
839.870; 3610.175;    0.000;    0.000
840.056; 3682.175;    0.000;    0.000
840.241; 3745.175;    0.000;    0.000
840.426; 3796.175;    0.000;    0.000
840.611; 3863.175;    0.000;    0.000
840.796; 3826.175;    0.000;    0.000
840.981; 3778.175;    0.000;    0.000
841.166; 3731.175;    0.000;    0.000
841.352; 3907.175;    0.000;    0.000
841.537; 3866.175;    0.000;    0.000
841.722; 3870.175;    0.000;    0.000
841.907; 3872.175;    0.000;    0.000
842.092; 4046.175;    0.000;    0.000
842.277; 4096.175;    0.000;    0.000
842.461; 4072.175;    0.000;    0.000
842.646; 4278.175;    0.000;    0.000
842.831; 4341.175;    0.000;    0.000
843.016; 4384.175;    0.000;    0.000
843.201; 4541.175;    0.000;    0.000
843.386; 4691.175;    0.000;    0.000
843.571; 4904.175;    0.000;    0.000
843.755; 5339.175;    0.000;    0.000
843.940; 5719.175;    0.000;    0.000
844.125; 6585.175;    0.000;    0.000
844.310; 7920.175;    0.000;    0.000
844.494;10647.175;    0.000;    0.000
844.679;13356.175;    0.000;    0.000
844.864;12566.175;    0.000;    0.000
845.048;10331.175;    0.000;    0.000
845.233; 8665.175;    0.000;    0.000
845.418; 7564.175;    0.000;    0.000
845.602; 6665.175;    0.000;    0.000
845.787; 6116.175;    0.000;    0.000
845.971; 5758.175;    0.000;    0.000
846.156; 5449.175;    0.000;    0.000
846.340; 5207.175;    0.000;    0.000
846.525; 4877.175;    0.000;    0.000
846.709; 4661.175;    0.000;    0.000
846.893; 4492.175;    0.000;    0.000
847.078; 4457.175;    0.000;    0.000
847.262; 4222.175;    0.000;    0.000
847.447; 4059.175;    0.000;    0.000
847.631; 4137.175;    0.000;    0.000
847.815; 3927.175;    0.000;    0.000
848.000; 3909.175;    0.000;    0.000
848.184; 3812.175;    0.000;    0.000
848.368; 3694.175;    0.000;    0.000
848.552; 3785.175;    0.000;    0.000
848.736; 3688.175;    0.000;    0.000
848.921; 3563.175;    0.000;    0.000
849.105; 3493.175;    0.000;    0.000
849.289; 3520.175;    0.000;    0.000
849.473; 3511.175;    0.000;    0.000
849.657; 3355.175;    0.000;    0.000
849.841; 3336.175;    0.000;    0.000
850.025; 3571.175;    0.000;    0.000
850.209; 3405.175;    0.000;    0.000
850.393; 3302.175;    0.000;    0.000
850.577; 3346.175;    0.000;    0.000
850.761; 3317.175;    0.000;    0.000
850.945; 3246.175;    0.000;    0.000
851.129; 3345.175;    0.000;    0.000
851.313; 3298.175;    0.000;    0.000
851.497; 3306.175;    0.000;    0.000
851.680; 3317.175;    0.000;    0.000
851.864; 3252.175;    0.000;    0.000
852.048; 3263.175;    0.000;    0.000
852.232; 3244.175;    0.000;    0.000
852.416; 3252.175;    0.000;    0.000
852.599; 3189.175;    0.000;    0.000
852.783; 3201.175;    0.000;    0.000
852.967; 3264.175;    0.000;    0.000
853.150; 3129.175;    0.000;    0.000
853.334; 3177.175;    0.000;    0.000
853.518; 3173.175;    0.000;    0.000
853.701; 3115.175;    0.000;    0.000
853.885; 3117.175;    0.000;    0.000
854.068; 3161.175;    0.000;    0.000
854.252; 3199.175;    0.000;    0.000
854.435; 3123.175;    0.000;    0.000
854.619; 3232.175;    0.000;    0.000
854.802; 3185.175;    0.000;    0.000
854.986; 3177.175;    0.000;    0.000
855.169; 3094.175;    0.000;    0.000
855.353; 3186.175;    0.000;    0.000
855.536; 3157.175;    0.000;    0.000
855.719; 3233.175;    0.000;    0.000
855.903; 3263.175;    0.000;    0.000
856.086; 3144.175;    0.000;    0.000
856.269; 3224.175;    0.000;    0.000
856.452; 3341.175;    0.000;    0.000
856.636; 3419.175;    0.000;    0.000
856.819; 3764.175;    0.000;    0.000
857.002; 3717.175;    0.000;    0.000
857.185; 3629.175;    0.000;    0.000
857.368; 3497.175;    0.000;    0.000
857.552; 3384.175;    0.000;    0.000
857.735; 3519.175;    0.000;    0.000
857.918; 3441.175;    0.000;    0.000
858.101; 3381.175;    0.000;    0.000
858.284; 3477.175;    0.000;    0.000
858.467; 3523.175;    0.000;    0.000
858.650; 3524.175;    0.000;    0.000
858.833; 3607.175;    0.000;    0.000
859.016; 3619.175;    0.000;    0.000
859.199; 3815.175;    0.000;    0.000
859.382; 4126.175;    0.000;    0.000
859.564; 4261.175;    0.000;    0.000
859.747; 4154.175;    0.000;    0.000
859.930; 3984.175;    0.000;    0.000
860.113; 3836.175;    0.000;    0.000
860.296; 3948.175;    0.000;    0.000
860.478; 3723.175;    0.000;    0.000
860.661; 3618.175;    0.000;    0.000
860.844; 3617.175;    0.000;    0.000
861.027; 3549.175;    0.000;    0.000
861.209; 3611.175;    0.000;    0.000
861.392; 3548.175;    0.000;    0.000
861.575; 3648.175;    0.000;    0.000
861.757; 3667.175;    0.000;    0.000
861.940; 3781.175;    0.000;    0.000
862.122; 3792.175;    0.000;    0.000
862.305; 3903.175;    0.000;    0.000
862.487; 4067.175;    0.000;    0.000
862.670; 4452.175;    0.000;    0.000
862.852; 5259.175;    0.000;    0.000
863.035; 5909.175;    0.000;    0.000
863.217; 5906.175;    0.000;    0.000
863.400; 5232.175;    0.000;    0.000
863.582; 4959.175;    0.000;    0.000
863.764; 4732.175;    0.000;    0.000
863.947; 4671.175;    0.000;    0.000
864.129; 4480.175;    0.000;    0.000
864.311; 4367.175;    0.000;    0.000
864.493; 4266.175;    0.000;    0.000
864.676; 4239.175;    0.000;    0.000
864.858; 4204.175;    0.000;    0.000
865.040; 4235.175;    0.000;    0.000
865.222; 4256.175;    0.000;    0.000
865.404; 4296.175;    0.000;    0.000
865.587; 4552.175;    0.000;    0.000
865.769; 4677.175;    0.000;    0.000
865.951; 4664.175;    0.000;    0.000
866.133; 4741.175;    0.000;    0.000
866.315; 4665.175;    0.000;    0.000
866.497; 4667.175;    0.000;    0.000
866.679; 4697.175;    0.000;    0.000
866.861; 4953.175;    0.000;    0.000
867.043; 5307.175;    0.000;    0.000
867.225; 5615.175;    0.000;    0.000
867.407; 6110.175;    0.000;    0.000
867.589; 7035.175;    0.000;    0.000
867.770; 8591.175;    0.000;    0.000
867.952;11710.175;    0.000;    0.000
868.134;14058.175;    0.000;    0.000
868.316;14258.175;    0.000;    0.000
868.498;13580.175;    0.000;    0.000
868.679;11642.175;    0.000;    0.000
868.861; 9654.175;    0.000;    0.000
869.043; 8280.175;    0.000;    0.000
869.224; 7422.175;    0.000;    0.000
869.406; 6797.175;    0.000;    0.000
869.588; 6338.175;    0.000;    0.000
869.769; 6032.175;    0.000;    0.000
869.951; 5977.175;    0.000;    0.000
870.132; 6160.175;    0.000;    0.000
870.314; 6689.175;    0.000;    0.000
870.495; 6626.175;    0.000;    0.000
870.677; 6197.175;    0.000;    0.000
870.858; 6101.175;    0.000;    0.000
871.040; 6445.175;    0.000;    0.000
871.221; 6751.175;    0.000;    0.000
871.403; 6382.175;    0.000;    0.000
871.584; 6125.175;    0.000;    0.000
871.765; 6253.175;    0.000;    0.000
871.947; 6389.175;    0.000;    0.000
872.128; 5872.175;    0.000;    0.000
872.309; 5220.175;    0.000;    0.000
872.491; 4787.175;    0.000;    0.000
872.672; 4633.175;    0.000;    0.000
872.853; 4621.175;    0.000;    0.000
873.034; 4297.175;    0.000;    0.000
873.215; 4233.175;    0.000;    0.000
873.396; 3930.175;    0.000;    0.000
873.578; 3811.175;    0.000;    0.000
873.759; 3791.175;    0.000;    0.000
873.940; 3629.175;    0.000;    0.000
874.121; 3563.175;    0.000;    0.000
874.302; 3516.175;    0.000;    0.000
874.483; 3462.175;    0.000;    0.000
874.664; 3412.175;    0.000;    0.000
874.845; 3489.175;    0.000;    0.000
875.026; 3358.175;    0.000;    0.000
875.207; 3335.175;    0.000;    0.000
875.388; 3298.175;    0.000;    0.000
875.568; 3101.175;    0.000;    0.000
875.749; 3115.175;    0.000;    0.000
875.930; 3102.175;    0.000;    0.000
876.111; 3036.175;    0.000;    0.000
876.292; 3000.175;    0.000;    0.000
876.472; 2999.175;    0.000;    0.000
876.653; 2984.175;    0.000;    0.000
876.834; 2920.175;    0.000;    0.000
877.015; 2963.175;    0.000;    0.000
877.195; 2941.175;    0.000;    0.000
877.376; 2898.175;    0.000;    0.000
877.556; 2875.175;    0.000;    0.000
877.737; 2899.175;    0.000;    0.000
877.918; 2962.175;    0.000;    0.000
878.098; 2801.175;    0.000;    0.000
878.279; 2862.175;    0.000;    0.000
878.459; 2778.175;    0.000;    0.000
878.640; 2842.175;    0.000;    0.000
878.820; 2784.175;    0.000;    0.000
879.000; 2761.175;    0.000;    0.000
879.181; 2738.175;    0.000;    0.000
879.361; 2854.175;    0.000;    0.000
879.542; 2742.175;    0.000;    0.000
879.722; 2829.175;    0.000;    0.000
879.902; 2881.175;    0.000;    0.000
880.083; 2892.175;    0.000;    0.000
880.263; 2898.175;    0.000;    0.000
880.443; 3208.175;    0.000;    0.000
880.623; 4057.175;    0.000;    0.000
880.803; 4089.175;    0.000;    0.000
880.984; 3501.175;    0.000;    0.000
881.164; 3196.175;    0.000;    0.000
881.344; 3075.175;    0.000;    0.000
881.524; 3101.175;    0.000;    0.000
881.704; 3115.175;    0.000;    0.000
881.884; 3189.175;    0.000;    0.000
882.064; 3231.175;    0.000;    0.000
882.244; 3228.175;    0.000;    0.000
882.424; 3109.175;    0.000;    0.000
882.604; 3026.175;    0.000;    0.000
882.784; 2947.175;    0.000;    0.000
882.964; 2854.175;    0.000;    0.000
883.144; 2845.175;    0.000;    0.000
883.324; 2863.175;    0.000;    0.000
883.504; 2802.175;    0.000;    0.000
883.683; 2702.175;    0.000;    0.000
883.863; 2682.175;    0.000;    0.000
884.043; 2715.175;    0.000;    0.000
884.223; 2738.175;    0.000;    0.000
884.402; 2772.175;    0.000;    0.000
884.582; 2608.175;    0.000;    0.000
884.762; 2682.175;    0.000;    0.000
884.941; 2700.175;    0.000;    0.000
885.121; 2584.175;    0.000;    0.000
885.301; 2619.175;    0.000;    0.000
885.480; 2569.175;    0.000;    0.000
885.660; 2638.175;    0.000;    0.000
885.839; 2579.175;    0.000;    0.000
886.019; 2603.175;    0.000;    0.000
886.198; 2546.175;    0.000;    0.000
886.378; 2557.175;    0.000;    0.000
886.557; 2576.175;    0.000;    0.000
886.737; 2510.175;    0.000;    0.000
886.916; 2562.175;    0.000;    0.000
887.095; 2482.175;    0.000;    0.000
887.275; 2497.175;    0.000;    0.000
887.454; 2509.175;    0.000;    0.000
887.633; 2538.175;    0.000;    0.000
887.813; 2460.175;    0.000;    0.000
887.992; 2472.175;    0.000;    0.000
888.171; 2377.175;    0.000;    0.000
888.350; 2491.175;    0.000;    0.000
888.530; 2458.175;    0.000;    0.000
888.709; 2557.175;    0.000;    0.000
888.888; 2513.175;    0.000;    0.000
889.067; 2477.175;    0.000;    0.000
889.246; 2576.175;    0.000;    0.000
889.425; 2428.175;    0.000;    0.000
889.604; 2479.175;    0.000;    0.000
889.783; 2481.175;    0.000;    0.000
889.962; 2411.175;    0.000;    0.000
890.141; 2425.175;    0.000;    0.000
890.320; 2411.175;    0.000;    0.000
890.499; 2410.175;    0.000;    0.000
890.678; 2461.175;    0.000;    0.000
890.857; 2454.175;    0.000;    0.000
891.036; 2335.175;    0.000;    0.000
891.214; 2438.175;    0.000;    0.000
891.393; 2450.175;    0.000;    0.000
891.572; 2441.175;    0.000;    0.000
891.751; 2468.175;    0.000;    0.000
891.930; 2452.175;    0.000;    0.000
892.108; 2490.175;    0.000;    0.000
892.287; 2334.175;    0.000;    0.000
892.466; 2431.175;    0.000;    0.000
892.644; 2433.175;    0.000;    0.000
892.823; 2347.175;    0.000;    0.000
893.001; 2462.175;    0.000;    0.000
893.180; 2436.175;    0.000;    0.000
893.359; 2456.175;    0.000;    0.000
893.537; 2435.175;    0.000;    0.000
893.716; 2356.175;    0.000;    0.000
893.894; 2430.175;    0.000;    0.000
894.073; 2423.175;    0.000;    0.000
894.251; 2435.175;    0.000;    0.000
894.429; 2444.175;    0.000;    0.000
894.608; 2421.175;    0.000;    0.000
894.786; 2432.175;    0.000;    0.000
894.964; 2444.175;    0.000;    0.000
895.143; 2398.175;    0.000;    0.000
895.321; 2429.175;    0.000;    0.000
895.499; 2395.175;    0.000;    0.000
895.677; 2455.175;    0.000;    0.000
895.856; 2431.175;    0.000;    0.000
896.034; 2442.175;    0.000;    0.000
896.212; 2467.175;    0.000;    0.000
896.390; 2430.175;    0.000;    0.000
896.568; 2414.175;    0.000;    0.000
896.746; 2348.175;    0.000;    0.000
896.924; 2500.175;    0.000;    0.000
897.102; 2456.175;    0.000;    0.000
897.280; 2354.175;    0.000;    0.000
897.458; 2424.175;    0.000;    0.000
897.636; 2465.175;    0.000;    0.000
897.814; 2503.175;    0.000;    0.000
897.992; 2525.175;    0.000;    0.000
898.170; 2494.175;    0.000;    0.000
898.348; 2479.175;    0.000;    0.000
898.526; 2451.175;    0.000;    0.000
898.704; 2522.175;    0.000;    0.000
898.882; 2461.175;    0.000;    0.000
899.059; 2486.175;    0.000;    0.000
899.237; 2544.175;    0.000;    0.000
899.415; 2542.175;    0.000;    0.000
899.593; 2516.175;    0.000;    0.000
899.770; 2451.175;    0.000;    0.000
899.948; 2588.175;    0.000;    0.000
900.125; 2557.175;    0.000;    0.000
900.303; 2496.175;    0.000;    0.000
900.481; 2509.175;    0.000;    0.000
900.658; 2634.175;    0.000;    0.000
900.836; 2499.175;    0.000;    0.000
901.013; 2683.175;    0.000;    0.000
901.191; 2631.175;    0.000;    0.000
901.368; 2633.175;    0.000;    0.000
901.546; 2692.175;    0.000;    0.000
901.723; 2780.175;    0.000;    0.000
901.901; 2764.175;    0.000;    0.000
902.078; 2802.175;    0.000;    0.000
902.255; 2913.175;    0.000;    0.000
902.433; 2807.175;    0.000;    0.000
902.610; 2909.175;    0.000;    0.000
902.787; 2955.175;    0.000;    0.000
902.964; 3016.175;    0.000;    0.000
903.142; 2847.175;    0.000;    0.000
903.319; 3074.175;    0.000;    0.000
903.496; 3079.175;    0.000;    0.000
903.673; 3190.175;    0.000;    0.000
903.850; 3187.175;    0.000;    0.000
904.027; 3300.175;    0.000;    0.000
904.204; 3406.175;    0.000;    0.000
904.381; 3844.175;    0.000;    0.000
904.558; 4258.175;    0.000;    0.000
904.735; 4618.175;    0.000;    0.000
904.912; 4667.175;    0.000;    0.000
905.089; 4540.175;    0.000;    0.000
905.266; 4267.175;    0.000;    0.000
905.443; 3962.175;    0.000;    0.000
905.620; 3830.175;    0.000;    0.000
905.797; 3644.175;    0.000;    0.000
905.974; 3531.175;    0.000;    0.000
906.151; 3464.175;    0.000;    0.000
906.327; 3486.175;    0.000;    0.000
906.504; 3502.175;    0.000;    0.000
906.681; 3315.175;    0.000;    0.000
906.858; 3238.175;    0.000;    0.000
907.034; 3215.175;    0.000;    0.000
907.211; 3052.175;    0.000;    0.000
907.388; 3038.175;    0.000;    0.000
907.564; 3028.175;    0.000;    0.000
907.741; 2988.175;    0.000;    0.000
907.917; 2962.175;    0.000;    0.000
908.094; 2973.175;    0.000;    0.000
908.271; 2838.175;    0.000;    0.000
908.447; 2811.175;    0.000;    0.000
908.623; 2833.175;    0.000;    0.000
908.800; 2762.175;    0.000;    0.000
908.976; 2831.175;    0.000;    0.000
909.153; 2784.175;    0.000;    0.000
909.329; 2808.175;    0.000;    0.000
909.505; 2807.175;    0.000;    0.000
909.682; 2778.175;    0.000;    0.000
909.858; 2748.175;    0.000;    0.000
910.034; 2691.175;    0.000;    0.000
910.211; 2771.175;    0.000;    0.000
910.387; 2712.175;    0.000;    0.000
910.563; 2730.175;    0.000;    0.000
910.739; 2689.175;    0.000;    0.000
910.915; 2724.175;    0.000;    0.000
911.091; 2662.175;    0.000;    0.000
911.268; 2741.175;    0.000;    0.000
911.444; 2682.175;    0.000;    0.000
911.620; 2589.175;    0.000;    0.000
911.796; 2609.175;    0.000;    0.000
911.972; 2544.175;    0.000;    0.000
912.148; 2671.175;    0.000;    0.000
912.324; 2616.175;    0.000;    0.000
912.500; 2645.175;    0.000;    0.000
912.676; 2553.175;    0.000;    0.000
912.851; 2541.175;    0.000;    0.000
913.027; 2680.175;    0.000;    0.000
913.203; 2591.175;    0.000;    0.000
913.379; 2573.175;    0.000;    0.000
913.555; 2607.175;    0.000;    0.000
913.730; 2617.175;    0.000;    0.000
913.906; 2601.175;    0.000;    0.000
914.082; 2620.175;    0.000;    0.000
914.258; 2585.175;    0.000;    0.000
914.433; 2548.175;    0.000;    0.000
914.609; 2667.175;    0.000;    0.000
914.784; 2573.175;    0.000;    0.000
914.960; 2641.175;    0.000;    0.000
915.136; 2497.175;    0.000;    0.000
915.311; 2691.175;    0.000;    0.000
915.487; 2586.175;    0.000;    0.000
915.662; 2577.175;    0.000;    0.000
915.838; 2599.175;    0.000;    0.000
916.013; 2603.175;    0.000;    0.000
916.189; 2696.175;    0.000;    0.000
916.364; 2620.175;    0.000;    0.000
916.539; 2699.175;    0.000;    0.000
916.715; 2612.175;    0.000;    0.000
916.890; 2656.175;    0.000;    0.000
917.065; 2667.175;    0.000;    0.000
917.240; 2625.175;    0.000;    0.000
917.416; 2594.175;    0.000;    0.000
917.591; 2655.175;    0.000;    0.000
917.766; 2713.175;    0.000;    0.000
917.941; 2650.175;    0.000;    0.000
918.116; 2629.175;    0.000;    0.000
918.292; 2656.175;    0.000;    0.000
918.467; 2742.175;    0.000;    0.000
918.642; 2633.175;    0.000;    0.000
918.817; 2688.175;    0.000;    0.000
918.992; 2623.175;    0.000;    0.000
919.167; 2695.175;    0.000;    0.000
919.342; 2750.175;    0.000;    0.000
919.517; 2801.175;    0.000;    0.000
919.692; 2761.175;    0.000;    0.000
919.867; 2824.175;    0.000;    0.000
920.041; 2884.175;    0.000;    0.000
920.216; 2906.175;    0.000;    0.000
920.391; 2893.175;    0.000;    0.000
920.566; 2973.175;    0.000;    0.000
920.741; 2985.175;    0.000;    0.000
920.915; 3181.175;    0.000;    0.000
921.090; 3592.175;    0.000;    0.000
921.265; 4279.175;    0.000;    0.000
921.439; 4513.175;    0.000;    0.000
921.614; 4033.175;    0.000;    0.000
921.789; 3705.175;    0.000;    0.000
921.963; 3659.175;    0.000;    0.000
922.138; 3392.175;    0.000;    0.000
922.312; 3301.175;    0.000;    0.000
922.487; 3409.175;    0.000;    0.000
922.661; 3573.175;    0.000;    0.000
922.836; 3920.175;    0.000;    0.000
923.010; 3859.175;    0.000;    0.000
923.185; 3527.175;    0.000;    0.000
923.359; 3395.175;    0.000;    0.000
923.534; 3551.175;    0.000;    0.000
923.708; 3651.175;    0.000;    0.000
923.882; 3648.175;    0.000;    0.000
924.057; 3638.175;    0.000;    0.000
924.231; 3392.175;    0.000;    0.000
924.405; 3332.175;    0.000;    0.000
924.579; 3326.175;    0.000;    0.000
924.753; 3261.175;    0.000;    0.000
924.928; 3224.175;    0.000;    0.000
925.102; 3247.175;    0.000;    0.000
925.276; 3257.175;    0.000;    0.000
925.450; 3212.175;    0.000;    0.000
925.624; 3203.175;    0.000;    0.000
925.798; 3331.175;    0.000;    0.000
925.972; 3484.175;    0.000;    0.000
926.146; 3749.175;    0.000;    0.000
926.320; 3915.175;    0.000;    0.000
926.494; 4164.175;    0.000;    0.000
926.668; 4472.175;    0.000;    0.000
926.842; 4575.175;    0.000;    0.000
927.016; 4495.175;    0.000;    0.000
927.190; 4390.175;    0.000;    0.000
927.363; 4241.175;    0.000;    0.000
927.537; 4237.175;    0.000;    0.000
927.711; 4010.175;    0.000;    0.000
927.885; 3964.175;    0.000;    0.000
928.058; 3854.175;    0.000;    0.000
928.232; 3745.175;    0.000;    0.000
928.406; 3645.175;    0.000;    0.000
928.579; 3644.175;    0.000;    0.000
928.753; 3553.175;    0.000;    0.000
928.927; 3516.175;    0.000;    0.000
929.100; 3469.175;    0.000;    0.000
929.274; 3333.175;    0.000;    0.000
929.447; 3325.175;    0.000;    0.000
929.621; 3339.175;    0.000;    0.000
929.794; 3149.175;    0.000;    0.000
929.968; 3151.175;    0.000;    0.000
930.141; 3061.175;    0.000;    0.000
930.315; 3077.175;    0.000;    0.000
930.488; 2980.175;    0.000;    0.000
930.661; 2989.175;    0.000;    0.000
930.835; 3022.175;    0.000;    0.000
931.008; 2991.175;    0.000;    0.000
931.181; 2931.175;    0.000;    0.000
931.354; 2911.175;    0.000;    0.000
931.528; 2825.175;    0.000;    0.000
931.701; 2900.175;    0.000;    0.000
931.874; 2782.175;    0.000;    0.000
932.047; 2730.175;    0.000;    0.000
932.220; 2796.175;    0.000;    0.000
932.393; 2759.175;    0.000;    0.000
932.566; 2661.175;    0.000;    0.000
932.739; 2680.175;    0.000;    0.000
932.912; 2720.175;    0.000;    0.000
933.085; 2697.175;    0.000;    0.000
933.258; 2644.175;    0.000;    0.000
933.431; 2619.175;    0.000;    0.000
933.604; 2681.175;    0.000;    0.000
933.777; 2579.175;    0.000;    0.000
933.950; 2543.175;    0.000;    0.000
934.123; 2629.175;    0.000;    0.000
934.296; 2566.175;    0.000;    0.000
934.468; 2549.175;    0.000;    0.000
934.641; 2478.175;    0.000;    0.000
934.814; 2478.175;    0.000;    0.000
934.987; 2423.175;    0.000;    0.000
935.159; 2460.175;    0.000;    0.000
935.332; 2495.175;    0.000;    0.000
935.505; 2482.175;    0.000;    0.000
935.677; 2436.175;    0.000;    0.000
935.850; 2438.175;    0.000;    0.000
936.022; 2433.175;    0.000;    0.000
936.195; 2468.175;    0.000;    0.000
936.367; 2422.175;    0.000;    0.000
936.540; 2481.175;    0.000;    0.000
936.712; 2510.175;    0.000;    0.000
936.885; 2549.175;    0.000;    0.000
937.057; 2485.175;    0.000;    0.000
937.229; 2514.175;    0.000;    0.000
937.402; 2557.175;    0.000;    0.000
937.574; 2566.175;    0.000;    0.000
937.746; 2589.175;    0.000;    0.000
937.919; 2653.175;    0.000;    0.000
938.091; 2784.175;    0.000;    0.000
938.263; 2923.175;    0.000;    0.000
938.435; 3174.175;    0.000;    0.000
938.608; 3549.175;    0.000;    0.000
938.780; 3807.175;    0.000;    0.000
938.952; 3935.175;    0.000;    0.000
939.124; 4148.175;    0.000;    0.000
939.296; 4508.175;    0.000;    0.000
939.468; 4473.175;    0.000;    0.000
939.640; 4048.175;    0.000;    0.000
939.812; 3566.175;    0.000;    0.000
939.984; 3317.175;    0.000;    0.000
940.156; 3197.175;    0.000;    0.000
940.328; 3001.175;    0.000;    0.000
940.500; 2819.175;    0.000;    0.000
940.672; 2790.175;    0.000;    0.000
940.843; 2717.175;    0.000;    0.000
941.015; 2609.175;    0.000;    0.000
941.187; 2565.175;    0.000;    0.000
941.359; 2538.175;    0.000;    0.000
941.531; 2542.175;    0.000;    0.000
941.702; 2413.175;    0.000;    0.000
941.874; 2503.175;    0.000;    0.000
942.046; 2471.175;    0.000;    0.000
942.217; 2410.175;    0.000;    0.000
942.389; 2424.175;    0.000;    0.000
942.560; 2381.175;    0.000;    0.000
942.732; 2412.175;    0.000;    0.000
942.904; 2252.175;    0.000;    0.000
943.075; 2190.175;    0.000;    0.000
943.247; 2239.175;    0.000;    0.000
943.418; 2209.175;    0.000;    0.000
943.589; 2279.175;    0.000;    0.000
943.761; 2189.175;    0.000;    0.000
943.932; 2216.175;    0.000;    0.000
944.104; 2170.175;    0.000;    0.000
944.275; 2191.175;    0.000;    0.000
944.446; 2194.175;    0.000;    0.000
944.617; 2141.175;    0.000;    0.000
944.789; 2143.175;    0.000;    0.000
944.960; 2134.175;    0.000;    0.000
945.131; 2134.175;    0.000;    0.000
945.302; 2178.175;    0.000;    0.000
945.473; 2133.175;    0.000;    0.000
945.645; 2228.175;    0.000;    0.000
945.816; 2232.175;    0.000;    0.000
945.987; 2330.175;    0.000;    0.000
946.158; 2298.175;    0.000;    0.000
946.329; 2311.175;    0.000;    0.000
946.500; 2243.175;    0.000;    0.000
946.671; 2145.175;    0.000;    0.000
946.842; 2202.175;    0.000;    0.000
947.013; 2262.175;    0.000;    0.000
947.183; 2096.175;    0.000;    0.000
947.354; 2192.175;    0.000;    0.000
947.525; 2123.175;    0.000;    0.000
947.696; 2056.175;    0.000;    0.000
947.867; 2216.175;    0.000;    0.000
948.037; 2091.175;    0.000;    0.000
948.208; 2163.175;    0.000;    0.000
948.379; 2166.175;    0.000;    0.000
948.550; 2133.175;    0.000;    0.000
948.720; 2117.175;    0.000;    0.000
948.891; 2110.175;    0.000;    0.000
949.061; 2080.175;    0.000;    0.000
949.232; 2050.175;    0.000;    0.000
949.403; 2083.175;    0.000;    0.000
949.573; 1999.175;    0.000;    0.000
949.744; 2026.175;    0.000;    0.000
949.914; 2019.175;    0.000;    0.000
950.085; 2070.175;    0.000;    0.000
950.255; 2076.175;    0.000;    0.000
950.425; 2070.175;    0.000;    0.000
950.596; 2108.175;    0.000;    0.000
950.766; 2120.175;    0.000;    0.000
950.936; 2124.175;    0.000;    0.000
951.107; 2055.175;    0.000;    0.000
951.277; 2092.175;    0.000;    0.000
951.447; 2153.175;    0.000;    0.000
951.617; 2041.175;    0.000;    0.000
951.788; 2041.175;    0.000;    0.000
951.958; 2078.175;    0.000;    0.000
952.128; 2055.175;    0.000;    0.000
952.298; 2007.175;    0.000;    0.000
952.468; 2051.175;    0.000;    0.000
952.638; 2017.175;    0.000;    0.000
952.808; 2080.175;    0.000;    0.000
952.978; 2010.175;    0.000;    0.000
953.148; 2000.175;    0.000;    0.000
953.318; 2006.175;    0.000;    0.000
953.488; 2049.175;    0.000;    0.000
953.658; 2005.175;    0.000;    0.000
953.828; 2032.175;    0.000;    0.000
953.998; 2075.175;    0.000;    0.000
954.167; 2032.175;    0.000;    0.000
954.337; 1959.175;    0.000;    0.000
954.507; 2113.175;    0.000;    0.000
954.677; 1975.175;    0.000;    0.000
954.846; 2030.175;    0.000;    0.000
955.016; 2033.175;    0.000;    0.000
955.186; 1980.175;    0.000;    0.000
955.355; 2075.175;    0.000;    0.000
955.525; 2088.175;    0.000;    0.000
955.695; 2042.175;    0.000;    0.000
955.864; 2047.175;    0.000;    0.000
956.034; 1987.175;    0.000;    0.000
956.203; 2048.175;    0.000;    0.000
956.373; 1987.175;    0.000;    0.000
956.542; 2006.175;    0.000;    0.000
956.711; 2012.175;    0.000;    0.000
956.881; 1964.175;    0.000;    0.000
957.050; 2055.175;    0.000;    0.000
957.220; 1942.175;    0.000;    0.000
957.389; 2096.175;    0.000;    0.000
957.558; 1983.175;    0.000;    0.000
957.727; 2071.175;    0.000;    0.000
957.897; 1980.175;    0.000;    0.000
958.066; 1998.175;    0.000;    0.000
958.235; 1963.175;    0.000;    0.000
958.404; 2118.175;    0.000;    0.000
958.573; 2044.175;    0.000;    0.000
958.743; 1981.175;    0.000;    0.000
958.912; 1998.175;    0.000;    0.000
959.081; 1964.175;    0.000;    0.000
959.250; 1992.175;    0.000;    0.000
959.419; 2003.175;    0.000;    0.000
959.588; 2025.175;    0.000;    0.000
959.757; 2002.175;    0.000;    0.000
959.926; 1951.175;    0.000;    0.000
960.094; 2013.175;    0.000;    0.000
960.263; 1952.175;    0.000;    0.000
960.432; 1953.175;    0.000;    0.000
960.601; 1978.175;    0.000;    0.000
960.770; 1928.175;    0.000;    0.000
960.939; 1995.175;    0.000;    0.000
961.107; 1917.175;    0.000;    0.000
961.276; 1933.175;    0.000;    0.000
961.445; 1964.175;    0.000;    0.000
961.613; 1993.175;    0.000;    0.000
961.782; 1988.175;    0.000;    0.000
961.951; 1921.175;    0.000;    0.000
962.119; 1939.175;    0.000;    0.000
962.288; 1891.175;    0.000;    0.000
962.456; 1851.175;    0.000;    0.000
962.625; 1973.175;    0.000;    0.000
962.793; 1901.175;    0.000;    0.000
962.962; 1968.175;    0.000;    0.000
963.130; 1984.175;    0.000;    0.000
963.298; 1896.175;    0.000;    0.000
963.467; 1967.175;    0.000;    0.000
963.635; 1897.175;    0.000;    0.000
963.803; 1989.175;    0.000;    0.000
963.972; 1999.175;    0.000;    0.000
964.140; 1923.175;    0.000;    0.000
964.308; 1930.175;    0.000;    0.000
964.477; 1949.175;    0.000;    0.000
964.645; 2027.175;    0.000;    0.000
964.813; 2014.175;    0.000;    0.000
964.981; 2000.175;    0.000;    0.000
965.149; 1978.175;    0.000;    0.000
965.317; 2025.175;    0.000;    0.000
965.485; 2048.175;    0.000;    0.000
965.653; 1976.175;    0.000;    0.000
965.821; 1995.175;    0.000;    0.000
965.989; 1950.175;    0.000;    0.000
966.157; 1991.175;    0.000;    0.000
966.325; 1999.175;    0.000;    0.000
966.493; 1951.175;    0.000;    0.000
966.661; 1922.175;    0.000;    0.000
966.829; 1928.175;    0.000;    0.000
966.996; 2016.175;    0.000;    0.000
967.164; 1950.175;    0.000;    0.000
967.332; 2020.175;    0.000;    0.000
967.500; 1928.175;    0.000;    0.000
967.667; 1993.175;    0.000;    0.000
967.835; 1951.175;    0.000;    0.000
968.003; 2038.175;    0.000;    0.000
968.170; 1959.175;    0.000;    0.000
968.338; 1993.175;    0.000;    0.000
968.505; 1933.175;    0.000;    0.000
968.673; 1980.175;    0.000;    0.000
968.841; 1836.175;    0.000;    0.000
969.008; 2006.175;    0.000;    0.000
969.175; 1873.175;    0.000;    0.000
969.343; 1951.175;    0.000;    0.000
969.510; 1943.175;    0.000;    0.000
969.678; 1939.175;    0.000;    0.000
969.845; 1926.175;    0.000;    0.000
970.012; 1937.175;    0.000;    0.000
970.180; 1948.175;    0.000;    0.000
970.347; 2008.175;    0.000;    0.000
970.514; 1946.175;    0.000;    0.000
970.681; 1906.175;    0.000;    0.000
970.849; 1841.175;    0.000;    0.000
971.016; 1921.175;    0.000;    0.000
971.183; 1921.175;    0.000;    0.000
971.350; 2010.175;    0.000;    0.000
971.517; 1926.175;    0.000;    0.000
971.684; 1951.175;    0.000;    0.000
971.851; 2007.175;    0.000;    0.000
972.018; 1947.175;    0.000;    0.000
972.185; 1962.175;    0.000;    0.000
972.352; 2022.175;    0.000;    0.000
972.519; 1988.175;    0.000;    0.000
972.686; 1930.175;    0.000;    0.000
972.853; 1864.175;    0.000;    0.000
973.020; 1946.175;    0.000;    0.000
973.186; 1908.175;    0.000;    0.000
973.353; 1959.175;    0.000;    0.000
973.520; 1996.175;    0.000;    0.000
973.687; 1995.175;    0.000;    0.000
973.853; 1942.175;    0.000;    0.000
974.020; 1943.175;    0.000;    0.000
974.187; 1974.175;    0.000;    0.000
974.353; 1915.175;    0.000;    0.000
974.520; 1936.175;    0.000;    0.000
974.687; 1946.175;    0.000;    0.000
974.853; 1978.175;    0.000;    0.000
975.020; 1918.175;    0.000;    0.000
975.186; 1990.175;    0.000;    0.000
975.353; 1975.175;    0.000;    0.000
975.519; 1956.175;    0.000;    0.000
975.685; 1920.175;    0.000;    0.000
975.852; 1980.175;    0.000;    0.000
976.018; 1856.175;    0.000;    0.000
976.184; 1930.175;    0.000;    0.000
976.351; 2005.175;    0.000;    0.000
976.517; 1923.175;    0.000;    0.000
976.683; 1867.175;    0.000;    0.000
976.849; 1903.175;    0.000;    0.000
977.016; 1862.175;    0.000;    0.000
977.182; 1903.175;    0.000;    0.000
977.348; 1942.175;    0.000;    0.000
977.514; 1916.175;    0.000;    0.000
977.680; 1934.175;    0.000;    0.000
977.846; 1908.175;    0.000;    0.000
978.012; 1892.175;    0.000;    0.000
978.178; 1930.175;    0.000;    0.000
978.344; 1857.175;    0.000;    0.000
978.510; 1928.175;    0.000;    0.000
978.676; 1875.175;    0.000;    0.000
978.842; 1885.175;    0.000;    0.000
979.008; 1900.175;    0.000;    0.000
979.174; 1927.175;    0.000;    0.000
979.340; 1923.175;    0.000;    0.000
979.505; 1838.175;    0.000;    0.000
979.671; 1885.175;    0.000;    0.000
979.837; 1947.175;    0.000;    0.000
980.003; 1884.175;    0.000;    0.000
980.168; 1886.175;    0.000;    0.000
980.334; 1928.175;    0.000;    0.000
980.499; 1967.175;    0.000;    0.000
980.665; 1884.175;    0.000;    0.000
980.831; 2001.175;    0.000;    0.000
980.996; 1920.175;    0.000;    0.000
981.162; 1991.175;    0.000;    0.000
981.327; 1944.175;    0.000;    0.000
981.493; 1899.175;    0.000;    0.000
981.658; 1929.175;    0.000;    0.000
981.823; 1969.175;    0.000;    0.000
981.989; 1992.175;    0.000;    0.000
982.154; 1957.175;    0.000;    0.000
982.319; 1980.175;    0.000;    0.000
982.485; 1981.175;    0.000;    0.000
982.650; 1925.175;    0.000;    0.000
982.815; 2021.175;    0.000;    0.000
982.980; 2035.175;    0.000;    0.000
983.146; 2007.175;    0.000;    0.000
983.311; 1983.175;    0.000;    0.000
983.476; 1921.175;    0.000;    0.000
983.641; 1899.175;    0.000;    0.000
983.806; 1966.175;    0.000;    0.000
983.971; 1974.175;    0.000;    0.000
984.136; 1962.175;    0.000;    0.000
984.301; 1899.175;    0.000;    0.000
984.466; 2004.175;    0.000;    0.000
984.631; 1986.175;    0.000;    0.000
984.796; 1946.175;    0.000;    0.000
984.961; 1944.175;    0.000;    0.000
985.126; 1966.175;    0.000;    0.000
985.291; 2003.175;    0.000;    0.000
985.455; 1924.175;    0.000;    0.000
985.620; 1906.175;    0.000;    0.000
985.785; 1885.175;    0.000;    0.000
985.950; 1904.175;    0.000;    0.000
986.114; 1940.175;    0.000;    0.000
986.279; 1877.175;    0.000;    0.000
986.444; 1948.175;    0.000;    0.000
986.608; 1991.175;    0.000;    0.000
986.773; 2023.175;    0.000;    0.000
986.937; 2031.175;    0.000;    0.000
987.102; 2023.175;    0.000;    0.000
987.266; 2025.175;    0.000;    0.000
987.431; 2060.175;    0.000;    0.000
987.595; 2014.175;    0.000;    0.000
987.760; 2044.175;    0.000;    0.000
987.924; 1952.175;    0.000;    0.000
988.088; 1979.175;    0.000;    0.000
988.253; 1917.175;    0.000;    0.000
988.417; 2008.175;    0.000;    0.000
988.581; 1929.175;    0.000;    0.000
988.746; 1949.175;    0.000;    0.000
988.910; 1980.175;    0.000;    0.000
989.074; 2021.175;    0.000;    0.000
989.238; 2021.175;    0.000;    0.000
989.402; 1987.175;    0.000;    0.000
989.566; 1901.175;    0.000;    0.000
989.731; 1947.175;    0.000;    0.000
989.895; 1945.175;    0.000;    0.000
990.059; 1905.175;    0.000;    0.000
990.223; 1922.175;    0.000;    0.000
990.387; 1975.175;    0.000;    0.000
990.551; 1986.175;    0.000;    0.000
990.714; 1861.175;    0.000;    0.000
990.878; 1855.175;    0.000;    0.000
991.042; 2006.175;    0.000;    0.000
991.206; 1960.175;    0.000;    0.000
991.370; 1972.175;    0.000;    0.000
991.534; 1921.175;    0.000;    0.000
991.697; 1980.175;    0.000;    0.000
991.861; 1928.175;    0.000;    0.000
992.025; 1957.175;    0.000;    0.000
992.188; 1931.175;    0.000;    0.000
992.352; 1933.175;    0.000;    0.000
992.516; 1925.175;    0.000;    0.000
992.679; 1849.175;    0.000;    0.000
992.843; 1849.175;    0.000;    0.000
993.006; 1850.175;    0.000;    0.000
993.170; 2053.175;    0.000;    0.000
993.333; 1883.175;    0.000;    0.000
993.497; 1847.175;    0.000;    0.000
993.660; 1897.175;    0.000;    0.000
993.824; 1868.175;    0.000;    0.000
993.987; 1863.175;    0.000;    0.000
994.150; 1838.175;    0.000;    0.000
994.314; 1958.175;    0.000;    0.000
994.477; 1909.175;    0.000;    0.000
994.640; 1941.175;    0.000;    0.000
994.803; 1840.175;    0.000;    0.000
994.967; 1918.175;    0.000;    0.000
995.130; 1898.175;    0.000;    0.000
995.293; 1881.175;    0.000;    0.000
995.456; 1917.175;    0.000;    0.000
995.619; 1897.175;    0.000;    0.000
995.782; 1894.175;    0.000;    0.000
995.945; 1884.175;    0.000;    0.000
996.108; 1885.175;    0.000;    0.000
996.271; 1899.175;    0.000;    0.000
996.434; 1913.175;    0.000;    0.000
996.597; 1830.175;    0.000;    0.000
996.760; 1901.175;    0.000;    0.000
996.923; 1895.175;    0.000;    0.000
997.086; 1876.175;    0.000;    0.000
997.248; 1853.175;    0.000;    0.000
997.411; 1862.175;    0.000;    0.000
997.574; 1909.175;    0.000;    0.000
997.737; 1930.175;    0.000;    0.000
997.899; 1787.175;    0.000;    0.000
998.062; 1783.175;    0.000;    0.000
998.225; 1906.175;    0.000;    0.000
998.387; 1863.175;    0.000;    0.000
998.550; 1954.175;    0.000;    0.000
998.712; 1942.175;    0.000;    0.000
998.875; 1836.175;    0.000;    0.000
999.037; 1870.175;    0.000;    0.000
999.200; 1930.175;    0.000;    0.000
999.362; 1918.175;    0.000;    0.000
999.525; 1844.175;    0.000;    0.000
999.687; 1833.175;    0.000;    0.000
999.849; 1884.175;    0.000;    0.000
1000.012; 1888.175;    0.000;    0.000
1000.174; 1870.175;    0.000;    0.000
1000.336; 1939.175;    0.000;    0.000
1000.499; 1939.175;    0.000;    0.000
1000.661; 1967.175;    0.000;    0.000
1000.823; 1885.175;    0.000;    0.000
1000.985; 1968.175;    0.000;    0.000
1001.147; 2020.175;    0.000;    0.000
1001.309; 2002.175;    0.000;    0.000
1001.471; 1936.175;    0.000;    0.000
1001.633; 1971.175;    0.000;    0.000
1001.796; 1969.175;    0.000;    0.000
1001.958; 1957.175;    0.000;    0.000
1002.119; 2000.175;    0.000;    0.000
1002.281; 1981.175;    0.000;    0.000
1002.443; 2126.175;    0.000;    0.000
1002.605; 2053.175;    0.000;    0.000
1002.767; 2069.175;    0.000;    0.000
1002.929; 2091.175;    0.000;    0.000
1003.091; 2179.175;    0.000;    0.000
1003.252; 2218.175;    0.000;    0.000
1003.414; 2299.175;    0.000;    0.000
1003.576; 2301.175;    0.000;    0.000
1003.738; 2246.175;    0.000;    0.000
1003.899; 2514.175;    0.000;    0.000
1004.061; 2402.175;    0.000;    0.000
1004.222; 2564.175;    0.000;    0.000
1004.384; 2555.175;    0.000;    0.000
1004.546; 2570.175;    0.000;    0.000
1004.707; 2626.175;    0.000;    0.000
1004.869; 2630.175;    0.000;    0.000
1005.030; 2513.175;    0.000;    0.000
1005.191; 2506.175;    0.000;    0.000
1005.353; 2526.175;    0.000;    0.000
1005.514; 2420.175;    0.000;    0.000
1005.675; 2438.175;    0.000;    0.000
1005.837; 2369.175;    0.000;    0.000
1005.998; 2374.175;    0.000;    0.000
1006.159; 2352.175;    0.000;    0.000
1006.321; 2409.175;    0.000;    0.000
1006.482; 2460.175;    0.000;    0.000
1006.643; 2443.175;    0.000;    0.000
1006.804; 2494.175;    0.000;    0.000
1006.965; 2577.175;    0.000;    0.000
1007.126; 2603.175;    0.000;    0.000
1007.287; 2521.175;    0.000;    0.000
1007.448; 2592.175;    0.000;    0.000
1007.609; 2494.175;    0.000;    0.000
1007.770; 2539.175;    0.000;    0.000
1007.931; 2584.175;    0.000;    0.000
1008.092; 2481.175;    0.000;    0.000
1008.253; 2491.175;    0.000;    0.000
1008.414; 2712.175;    0.000;    0.000
1008.575; 2682.175;    0.000;    0.000
1008.736; 2661.175;    0.000;    0.000
1008.896; 2753.175;    0.000;    0.000
1009.057; 2648.175;    0.000;    0.000
1009.218; 2561.175;    0.000;    0.000
1009.379; 2546.175;    0.000;    0.000
1009.539; 2707.175;    0.000;    0.000
1009.700; 2655.175;    0.000;    0.000
1009.860; 2705.175;    0.000;    0.000
1010.021; 2703.175;    0.000;    0.000
1010.182; 2722.175;    0.000;    0.000
1010.342; 2698.175;    0.000;    0.000
1010.503; 2812.175;    0.000;    0.000
1010.663; 2941.175;    0.000;    0.000
1010.823; 2930.175;    0.000;    0.000
1010.984; 3072.175;    0.000;    0.000
1011.144; 3076.175;    0.000;    0.000
1011.305; 3083.175;    0.000;    0.000
1011.465; 3281.175;    0.000;    0.000
1011.625; 3306.175;    0.000;    0.000
1011.785; 3393.175;    0.000;    0.000
1011.946; 3217.175;    0.000;    0.000
1012.106; 3130.175;    0.000;    0.000
1012.266; 3139.175;    0.000;    0.000
1012.426; 3028.175;    0.000;    0.000
1012.586; 3163.175;    0.000;    0.000
1012.746; 3145.175;    0.000;    0.000
1012.906; 3050.175;    0.000;    0.000
1013.066; 3206.175;    0.000;    0.000
1013.226; 3095.175;    0.000;    0.000
1013.386; 2994.175;    0.000;    0.000
1013.546; 3045.175;    0.000;    0.000
1013.706; 2924.175;    0.000;    0.000
1013.866; 2978.175;    0.000;    0.000
1014.026; 3014.175;    0.000;    0.000
1014.186; 3050.175;    0.000;    0.000
1014.346; 2929.175;    0.000;    0.000
1014.505; 3045.175;    0.000;    0.000
1014.665; 3088.175;    0.000;    0.000
1014.825; 2984.175;    0.000;    0.000
1014.985; 2852.175;    0.000;    0.000
1015.144; 2979.175;    0.000;    0.000
1015.304; 3095.175;    0.000;    0.000
1015.464; 3073.175;    0.000;    0.000
1015.623; 2989.175;    0.000;    0.000
1015.783; 3079.175;    0.000;    0.000
1015.942; 3296.175;    0.000;    0.000
1016.102; 3300.175;    0.000;    0.000
1016.261; 3163.175;    0.000;    0.000
1016.420; 3219.175;    0.000;    0.000
1016.580; 3520.175;    0.000;    0.000
1016.739; 3511.175;    0.000;    0.000
1016.899; 3377.175;    0.000;    0.000
1017.058; 3234.175;    0.000;    0.000
1017.217; 3766.175;    0.000;    0.000
1017.376; 3749.175;    0.000;    0.000
1017.536; 3254.175;    0.000;    0.000
1017.695; 3183.175;    0.000;    0.000
1017.854; 3382.175;    0.000;    0.000
1018.013; 3466.175;    0.000;    0.000
1018.172; 3171.175;    0.000;    0.000
1018.331; 3016.175;    0.000;    0.000
1018.490; 3280.175;    0.000;    0.000
1018.649; 3386.175;    0.000;    0.000
1018.808; 3374.175;    0.000;    0.000
1018.967; 3304.175;    0.000;    0.000
1019.126; 3291.175;    0.000;    0.000
1019.285; 3453.175;    0.000;    0.000
1019.444; 3600.175;    0.000;    0.000
1019.603; 3380.175;    0.000;    0.000
1019.762; 3249.175;    0.000;    0.000
1019.921; 3310.175;    0.000;    0.000
1020.079; 3537.175;    0.000;    0.000
1020.238; 3557.175;    0.000;    0.000
1020.397; 3467.175;    0.000;    0.000
1020.555; 3299.175;    0.000;    0.000
1020.714; 3460.175;    0.000;    0.000
1020.873; 3569.175;    0.000;    0.000
1021.031; 3465.175;    0.000;    0.000
1021.190; 3284.175;    0.000;    0.000
1021.348; 3238.175;    0.000;    0.000
1021.507; 3537.175;    0.000;    0.000
1021.665; 3729.175;    0.000;    0.000
1021.824; 3699.175;    0.000;    0.000
1021.982; 3307.175;    0.000;    0.000
1022.141; 3336.175;    0.000;    0.000
1022.299; 3559.175;    0.000;    0.000
1022.457; 3833.175;    0.000;    0.000
1022.616; 3736.175;    0.000;    0.000
1022.774; 3362.175;    0.000;    0.000
1022.932; 3237.175;    0.000;    0.000
1023.090; 3702.175;    0.000;    0.000
1023.249; 3893.175;    0.000;    0.000
1023.407; 3779.175;    0.000;    0.000
1023.565; 3324.175;    0.000;    0.000
1023.723; 3289.175;    0.000;    0.000
1023.881; 3772.175;    0.000;    0.000
1024.039; 3931.175;    0.000;    0.000
1024.197; 3784.175;    0.000;    0.000
1024.355; 3471.175;    0.000;    0.000
1024.513; 3479.175;    0.000;    0.000
1024.671; 3709.175;    0.000;    0.000
1024.829; 4022.175;    0.000;    0.000
1024.987; 3725.175;    0.000;    0.000
1025.145; 3380.175;    0.000;    0.000
1025.302; 3420.175;    0.000;    0.000
1025.460; 3599.175;    0.000;    0.000
1025.618; 3792.175;    0.000;    0.000
1025.776; 3897.175;    0.000;    0.000
1025.933; 3635.175;    0.000;    0.000
1026.091; 3517.175;    0.000;    0.000
1026.249; 3612.175;    0.000;    0.000
1026.406; 3953.175;    0.000;    0.000
1026.564; 3943.175;    0.000;    0.000
1026.721; 3778.175;    0.000;    0.000
1026.879; 3563.175;    0.000;    0.000
1027.036; 3707.175;    0.000;    0.000
1027.194; 3805.175;    0.000;    0.000
1027.351; 4006.175;    0.000;    0.000
1027.509; 4006.175;    0.000;    0.000
1027.666; 3748.175;    0.000;    0.000
1027.823; 3638.175;    0.000;    0.000
1027.981; 3749.175;    0.000;    0.000
1028.138; 3960.175;    0.000;    0.000
1028.295; 3856.175;    0.000;    0.000
1028.452; 3715.175;    0.000;    0.000
1028.609; 3664.175;    0.000;    0.000
1028.767; 3675.175;    0.000;    0.000
1028.924; 3867.175;    0.000;    0.000
1029.081; 3681.175;    0.000;    0.000
1029.238; 3844.175;    0.000;    0.000
1029.395; 3773.175;    0.000;    0.000
1029.552; 3748.175;    0.000;    0.000
1029.709; 3856.175;    0.000;    0.000
1029.866; 3975.175;    0.000;    0.000
1030.023; 3891.175;    0.000;    0.000
1030.180; 3819.175;    0.000;    0.000
1030.337; 3955.175;    0.000;    0.000
1030.494; 4037.175;    0.000;    0.000
1030.650; 4086.175;    0.000;    0.000
1030.807; 4060.175;    0.000;    0.000
1030.964; 3968.175;    0.000;    0.000
1031.121; 3980.175;    0.000;    0.000
1031.277; 3801.175;    0.000;    0.000
1031.434; 4022.175;    0.000;    0.000
1031.591; 4213.175;    0.000;    0.000
1031.747; 4291.175;    0.000;    0.000
1031.904; 4167.175;    0.000;    0.000
1032.060; 3973.175;    0.000;    0.000
1032.217; 3886.175;    0.000;    0.000
1032.373; 4249.175;    0.000;    0.000
1032.530; 4352.175;    0.000;    0.000
1032.686; 4698.175;    0.000;    0.000
1032.843; 4843.175;    0.000;    0.000
1032.999; 4332.175;    0.000;    0.000
1033.155; 4549.175;    0.000;    0.000
1033.312; 4451.175;    0.000;    0.000
1033.468; 4534.175;    0.000;    0.000
1033.624; 5578.175;    0.000;    0.000
1033.780; 5037.175;    0.000;    0.000
1033.937; 5643.175;    0.000;    0.000
1034.093; 4916.175;    0.000;    0.000
1034.249; 5090.175;    0.000;    0.000
1034.405; 5076.175;    0.000;    0.000
1034.561; 5143.175;    0.000;    0.000
1034.717; 5508.175;    0.000;    0.000
1034.873; 5635.175;    0.000;    0.000
1035.029; 5560.175;    0.000;    0.000
1035.185; 5579.175;    0.000;    0.000
1035.341; 5268.175;    0.000;    0.000
1035.497; 5353.175;    0.000;    0.000
1035.653; 5676.175;    0.000;    0.000
1035.809; 5631.175;    0.000;    0.000
1035.964; 6416.175;    0.000;    0.000
1036.120; 6089.175;    0.000;    0.000
1036.276; 6075.175;    0.000;    0.000
1036.432; 6317.175;    0.000;    0.000
1036.587; 5686.175;    0.000;    0.000
1036.743; 5897.175;    0.000;    0.000
1036.899; 6527.175;    0.000;    0.000
1037.054; 6290.175;    0.000;    0.000
1037.210; 6771.175;    0.000;    0.000
1037.365; 7388.175;    0.000;    0.000
1037.521; 6839.175;    0.000;    0.000
1037.676; 6882.175;    0.000;    0.000
1037.832; 6666.175;    0.000;    0.000
1037.987; 6334.175;    0.000;    0.000
1038.143; 6059.175;    0.000;    0.000
1038.298; 7394.175;    0.000;    0.000
1038.453; 7206.175;    0.000;    0.000
1038.609; 7198.175;    0.000;    0.000
1038.764; 8306.175;    0.000;    0.000
1038.919; 7344.175;    0.000;    0.000
1039.074; 7226.175;    0.000;    0.000
1039.229; 7078.175;    0.000;    0.000
1039.385; 6436.175;    0.000;    0.000
1039.540; 6720.175;    0.000;    0.000
1039.695; 6769.175;    0.000;    0.000
1039.850; 7556.175;    0.000;    0.000
1040.005; 7714.175;    0.000;    0.000
1040.160; 8471.175;    0.000;    0.000
1040.315; 8723.175;    0.000;    0.000
1040.470; 8129.175;    0.000;    0.000
1040.625; 8095.175;    0.000;    0.000
1040.780; 7726.175;    0.000;    0.000
1040.935; 7320.175;    0.000;    0.000
1041.089; 7484.175;    0.000;    0.000
1041.244; 8107.175;    0.000;    0.000
1041.399; 9012.175;    0.000;    0.000
1041.554; 8780.175;    0.000;    0.000
1041.708; 9821.175;    0.000;    0.000
1041.863;11201.175;    0.000;    0.000
1042.018; 9508.175;    0.000;    0.000
1042.172; 9205.175;    0.000;    0.000
1042.327; 9503.175;    0.000;    0.000
1042.481; 8829.175;    0.000;    0.000
1042.636; 9001.175;    0.000;    0.000
1042.791; 8685.175;    0.000;    0.000
1042.945; 9067.175;    0.000;    0.000
1043.099;11646.175;    0.000;    0.000
1043.254;11001.175;    0.000;    0.000
1043.408;10903.175;    0.000;    0.000
1043.563;13003.175;    0.000;    0.000
1043.717;12250.175;    0.000;    0.000
1043.871;10542.175;    0.000;    0.000
1044.025;11393.175;    0.000;    0.000
1044.180;10872.175;    0.000;    0.000
1044.334;10148.175;    0.000;    0.000
1044.488;10894.175;    0.000;    0.000
1044.642;11024.175;    0.000;    0.000
1044.796;11517.175;    0.000;    0.000
1044.950;13961.175;    0.000;    0.000
1045.104;14531.175;    0.000;    0.000
1045.258;14316.175;    0.000;    0.000
1045.412;14473.175;    0.000;    0.000
1045.566;15317.175;    0.000;    0.000
1045.720;14211.175;    0.000;    0.000
1045.874;13668.175;    0.000;    0.000
1046.028;13453.175;    0.000;    0.000
1046.182;11919.175;    0.000;    0.000
1046.336;12483.175;    0.000;    0.000
1046.489;12866.175;    0.000;    0.000
1046.643;13533.175;    0.000;    0.000
1046.797;13333.175;    0.000;    0.000
1046.951;14612.175;    0.000;    0.000
1047.104;15542.175;    0.000;    0.000
1047.258;15760.175;    0.000;    0.000
1047.411;16051.175;    0.000;    0.000
1047.565;16651.176;    0.000;    0.000
1047.719;17719.176;    0.000;    0.000
1047.872;17178.176;    0.000;    0.000
1048.026;15197.175;    0.000;    0.000
1048.179;15432.175;    0.000;    0.000
1048.332;15862.175;    0.000;    0.000
1048.486;15194.175;    0.000;    0.000
1048.639;14384.175;    0.000;    0.000
1048.792;14921.175;    0.000;    0.000
1048.946;16271.175;    0.000;    0.000
1049.099;17326.176;    0.000;    0.000
1049.252;17296.176;    0.000;    0.000
1049.406;16817.176;    0.000;    0.000
1049.559;17881.176;    0.000;    0.000
1049.712;20150.176;    0.000;    0.000
1049.865;21102.176;    0.000;    0.000
1050.018;20751.176;    0.000;    0.000
1050.171;18495.176;    0.000;    0.000
1050.324;18655.176;    0.000;    0.000
1050.477;19926.176;    0.000;    0.000
1050.630;21328.176;    0.000;    0.000
1050.783;22894.176;    0.000;    0.000
1050.936;22128.176;    0.000;    0.000
1051.089;20010.176;    0.000;    0.000
1051.242;19624.176;    0.000;    0.000
1051.394;20983.176;    0.000;    0.000
1051.547;23730.176;    0.000;    0.000
1051.700;23761.176;    0.000;    0.000
1051.853;22378.176;    0.000;    0.000
1052.005;21781.176;    0.000;    0.000
1052.158;22326.176;    0.000;    0.000
1052.311;24136.176;    0.000;    0.000
1052.463;24803.176;    0.000;    0.000
1052.616;23120.176;    0.000;    0.000
1052.768;21355.176;    0.000;    0.000
1052.921;20974.176;    0.000;    0.000
1053.073;21919.176;    0.000;    0.000
1053.226;24102.176;    0.000;    0.000
1053.378;27659.176;    0.000;    0.000
1053.531;29756.176;    0.000;    0.000
1053.683;31532.176;    0.000;    0.000
1053.835;27644.176;    0.000;    0.000
1053.988;21674.176;    0.000;    0.000
1054.140; 3772.175;    0.000;    0.000
1054.292;  915.175;    0.000;    0.000
1054.444;  795.175;    0.000;    0.000
1054.596;  747.175;    0.000;    0.000
1054.749;  710.175;    0.000;    0.000
1054.901;  585.175;    0.000;    0.000
1055.053;  652.175;    0.000;    0.000
1055.205;  620.175;    0.000;    0.000
1055.357;  662.175;    0.000;    0.000
1055.509;  578.175;    0.000;    0.000
1055.661;  611.175;    0.000;    0.000
1055.813;  563.175;    0.000;    0.000
1055.965;  551.175;    0.000;    0.000
1056.116;  590.175;    0.000;    0.000
1056.268;  556.175;    0.000;    0.000
1056.420;  566.175;    0.000;    0.000

