
Integration time [ms]:   0.300
Averaging Nr. [scans]: 1
Smoothing Nr. [pixels]: 0
Data measured with spectrometer [name]: NIR
Wave   ;Sample   ;Dark     ;Reference
[nm]   ;[counts] ;[counts] ;[counts] 

691.496;  -13.500;  102.875;    0.000
691.696;   51.500;  181.875;    0.000
691.896;   -5.500;  138.875;    0.000
692.096;   20.500;  182.875;    0.000
692.296;  -24.500;  145.875;    0.000
692.496;   46.500;  154.875;    0.000
692.695;  -16.500;  108.875;    0.000
692.895;   40.500;  176.875;    0.000
693.095;  -12.500;  138.875;    0.000
693.295;   37.500;  192.875;    0.000
693.495;   46.500;  170.875;    0.000
693.695;  -14.500;  147.875;    0.000
693.894;   33.500;  191.875;    0.000
694.094;   -4.500;  148.875;    0.000
694.294;   -3.500;  147.875;    0.000
694.494;  390.500;  140.875;    0.000
694.693; 3876.500;  137.875;    0.000
694.893; 4164.500;  141.875;    0.000
695.093; 4171.500;  105.875;    0.000
695.293; 4309.500;  115.875;    0.000
695.492; 4414.500;   81.875;    0.000
695.692; 4397.500;  162.875;    0.000
695.891; 4357.500;  162.875;    0.000
696.091; 4367.500;  166.875;    0.000
696.291; 4500.500;  143.875;    0.000
696.490; 4352.500;  170.875;    0.000
696.690; 4470.500;  142.875;    0.000
696.889; 4530.500;  186.875;    0.000
697.089; 4477.500;  120.875;    0.000
697.288; 4581.500;  215.875;    0.000
697.488; 4479.500;  178.875;    0.000
697.687; 4416.500;  170.875;    0.000
697.887; 4500.500;  140.875;    0.000
698.086; 4464.500;  131.875;    0.000
698.286; 4578.500;  117.875;    0.000
698.485; 4567.500;  136.875;    0.000
698.684; 4543.500;  126.875;    0.000
698.884; 4537.500;  161.875;    0.000
699.083; 4561.500;   95.875;    0.000
699.282; 4442.500;  120.875;    0.000
699.482; 4567.500;  131.875;    0.000
699.681; 4583.500;  168.875;    0.000
699.880; 4616.500;  154.875;    0.000
700.080; 4756.500;  149.875;    0.000
700.279; 4682.500;   99.875;    0.000
700.478; 4679.500;  157.875;    0.000
700.677; 4679.500;  111.875;    0.000
700.877; 4663.500;  126.875;    0.000
701.076; 4643.500;  142.875;    0.000
701.275; 4592.500;  107.875;    0.000
701.474; 4627.500;   72.875;    0.000
701.673; 4677.500;   87.875;    0.000
701.872; 4583.500;  170.875;    0.000
702.071; 4671.500;  136.875;    0.000
702.271; 4783.500;  121.875;    0.000
702.470; 4813.500;  139.875;    0.000
702.669; 4648.500;  121.875;    0.000
702.868; 4821.500;  146.875;    0.000
703.067; 4865.500;  159.875;    0.000
703.266; 4805.500;  122.875;    0.000
703.465; 4820.500;  121.875;    0.000
703.664; 4739.500;  144.875;    0.000
703.863; 4796.500;  140.875;    0.000
704.062; 4788.500;  109.875;    0.000
704.260; 4888.500;  164.875;    0.000
704.459; 4857.500;  124.875;    0.000
704.658; 4851.500;  109.875;    0.000
704.857; 4789.500;  149.875;    0.000
705.056; 4785.500;  112.875;    0.000
705.255; 4903.500;   95.875;    0.000
705.454; 4850.500;  105.875;    0.000
705.652; 4881.500;  134.875;    0.000
705.851; 4850.500;   92.875;    0.000
706.050; 4948.500;  127.875;    0.000
706.249; 4821.500;  111.875;    0.000
706.447; 4954.500;   98.875;    0.000
706.646; 4984.500;  108.875;    0.000
706.845; 4904.500;   95.875;    0.000
707.043; 5017.500;   95.875;    0.000
707.242; 4884.500;   97.875;    0.000
707.441; 4914.500;  142.875;    0.000
707.639; 5087.500;  121.875;    0.000
707.838; 5091.500;  141.875;    0.000
708.037; 5028.500;  125.875;    0.000
708.235; 4931.500;  100.875;    0.000
708.434; 5030.500;  106.875;    0.000
708.632; 5025.500;   86.875;    0.000
708.831; 5087.500;  138.875;    0.000
709.029; 5077.500;   86.875;    0.000
709.228; 5095.500;  103.875;    0.000
709.426; 5046.500;  146.875;    0.000
709.625; 5170.500;  136.875;    0.000
709.823; 5041.500;  114.875;    0.000
710.022; 5134.500;  144.875;    0.000
710.220; 5271.500;  109.875;    0.000
710.418; 5208.500;  116.875;    0.000
710.617; 5118.500;   67.875;    0.000
710.815; 5258.500;  104.875;    0.000
711.013; 5106.500;  109.875;    0.000
711.212; 5255.500;  106.875;    0.000
711.410; 5309.500;   95.875;    0.000
711.608; 5246.500;  155.875;    0.000
711.807; 5128.500;  103.875;    0.000
712.005; 5372.500;  104.875;    0.000
712.203; 5197.500;   94.875;    0.000
712.401; 5236.500;  125.875;    0.000
712.599; 5378.500;  127.875;    0.000
712.798; 5299.500;  141.875;    0.000
712.996; 5283.500;   85.875;    0.000
713.194; 5406.500;   96.875;    0.000
713.392; 5297.500;   54.875;    0.000
713.590; 5308.500;  123.875;    0.000
713.788; 5491.500;  130.875;    0.000
713.986; 5573.500;  104.875;    0.000
714.184; 5488.500;   91.875;    0.000
714.382; 5518.500;  120.875;    0.000
714.580; 5419.500;   71.875;    0.000
714.778; 5475.500;   92.875;    0.000
714.976; 5546.500;  129.875;    0.000
715.174; 5579.500;   99.875;    0.000
715.372; 5820.500;  119.875;    0.000
715.570; 5719.500;   95.875;    0.000
715.768; 6045.500;  113.875;    0.000
715.966; 6102.500;   64.875;    0.000
716.164; 6133.500;  135.875;    0.000
716.362; 6059.500;  125.875;    0.000
716.560; 5961.500;  135.875;    0.000
716.758; 5830.500;   84.875;    0.000
716.955; 5968.500;  109.875;    0.000
717.153; 5888.500;   73.875;    0.000
717.351; 5845.500;  110.875;    0.000
717.549; 5870.500;  149.875;    0.000
717.746; 5932.500;  121.875;    0.000
717.944; 5861.500;  128.875;    0.000
718.142; 5887.500;  124.875;    0.000
718.340; 5782.500;   96.875;    0.000
718.537; 5730.500;  138.875;    0.000
718.735; 5931.500;  144.875;    0.000
718.933; 5772.500;   97.875;    0.000
719.130; 5841.500;  109.875;    0.000
719.328; 5838.500;  123.875;    0.000
719.525; 5806.500;  118.875;    0.000
719.723; 5865.500;  117.875;    0.000
719.920; 5803.500;   72.875;    0.000
720.118; 5812.500;   92.875;    0.000
720.316; 5824.500;  141.875;    0.000
720.513; 5772.500;   98.875;    0.000
720.711; 5904.500;  146.875;    0.000
720.908; 5873.500;  113.875;    0.000
721.105; 5873.500;  157.875;    0.000
721.303; 5741.500;  106.875;    0.000
721.500; 5867.500;   88.875;    0.000
721.698; 5957.500;   88.875;    0.000
721.895; 5920.500;   94.875;    0.000
722.092; 5902.500;   82.875;    0.000
722.290; 5930.500;  136.875;    0.000
722.487; 5855.500;   67.875;    0.000
722.684; 5996.500;  115.875;    0.000
722.882; 5933.500;  104.875;    0.000
723.079; 5946.500;  122.875;    0.000
723.276; 5880.500;   91.875;    0.000
723.473; 5885.500;   89.875;    0.000
723.671; 5975.500;   97.875;    0.000
723.868; 6060.500;  117.875;    0.000
724.065; 5978.500;  102.875;    0.000
724.262; 5935.500;  137.875;    0.000
724.459; 5972.500;   48.875;    0.000
724.656; 5991.500;  122.875;    0.000
724.854; 6009.500;   96.875;    0.000
725.051; 5978.500;  120.875;    0.000
725.248; 6003.500;  146.875;    0.000
725.445; 5967.500;  117.875;    0.000
725.642; 6043.500;  106.875;    0.000
725.839; 5952.500;  143.875;    0.000
726.036; 5958.500;   79.875;    0.000
726.233; 5939.500;   90.875;    0.000
726.430; 5999.500;  124.875;    0.000
726.627; 6161.500;   98.875;    0.000
726.824; 6113.500;   91.875;    0.000
727.021; 6140.500;  131.875;    0.000
727.218; 6157.500;  110.875;    0.000
727.414; 6167.500;   83.875;    0.000
727.611; 6134.500;   86.875;    0.000
727.808; 6250.500;  131.875;    0.000
728.005; 6163.500;  105.875;    0.000
728.202; 6138.500;  128.875;    0.000
728.399; 6073.500;  113.875;    0.000
728.595; 6114.500;  102.875;    0.000
728.792; 6174.500;   91.875;    0.000
728.989; 6115.500;  122.875;    0.000
729.186; 6296.500;  103.875;    0.000
729.382; 5980.500;  106.875;    0.000
729.579; 6270.500;  114.875;    0.000
729.776; 6300.500;  115.875;    0.000
729.972; 6339.500;  108.875;    0.000
730.169; 6377.500;  111.875;    0.000
730.366; 6287.500;  100.875;    0.000
730.562; 6194.500;   86.875;    0.000
730.759; 6193.500;   93.875;    0.000
730.955; 6269.500;  127.875;    0.000
731.152; 6192.500;   99.875;    0.000
731.348; 6257.500;   97.875;    0.000
731.545; 6170.500;   98.875;    0.000
731.741; 6276.500;  130.875;    0.000
731.938; 6364.500;  115.875;    0.000
732.134; 6301.500;  107.875;    0.000
732.331; 6282.500;   80.875;    0.000
732.527; 6186.500;  108.875;    0.000
732.724; 6365.500;  104.875;    0.000
732.920; 6351.500;  109.875;    0.000
733.116; 6366.500;  117.875;    0.000
733.313; 6200.500;   81.875;    0.000
733.509; 6320.500;   87.875;    0.000
733.705; 6456.500;  143.875;    0.000
733.902; 6391.500;   74.875;    0.000
734.098; 6226.500;   90.875;    0.000
734.294; 6441.500;  104.875;    0.000
734.490; 6457.500;  139.875;    0.000
734.687; 6441.500;  113.875;    0.000
734.883; 6423.500;   72.875;    0.000
735.079; 6338.500;  100.875;    0.000
735.275; 6456.500;  113.875;    0.000
735.471; 6296.500;   55.875;    0.000
735.667; 6442.500;  106.875;    0.000
735.863; 6521.500;  131.875;    0.000
736.060; 6530.500;  127.875;    0.000
736.256; 6295.500;   76.875;    0.000
736.452; 6549.500;  127.875;    0.000
736.648; 6460.500;  136.875;    0.000
736.844; 6588.500;  113.875;    0.000
737.040; 6422.500;  125.875;    0.000
737.236; 6619.500;   99.875;    0.000
737.432; 6614.500;   75.875;    0.000
737.628; 6571.500;  155.875;    0.000
737.824; 6585.500;  116.875;    0.000
738.019; 6596.500;   92.875;    0.000
738.215; 6629.500;  113.875;    0.000
738.411; 6596.500;  135.875;    0.000
738.607; 6519.500;   53.875;    0.000
738.803; 6748.500;   79.875;    0.000
738.999; 6761.500;  117.875;    0.000
739.195; 6788.500;  106.875;    0.000
739.390; 6745.500;  125.875;    0.000
739.586; 6715.500;  102.875;    0.000
739.782; 6849.500;  125.875;    0.000
739.978; 6878.500;  124.875;    0.000
740.173; 6667.500;   96.875;    0.000
740.369; 6788.500;  118.875;    0.000
740.565; 6831.500;  128.875;    0.000
740.760; 6834.500;  118.875;    0.000
740.956; 6816.500;  109.875;    0.000
741.152; 6821.500;  151.875;    0.000
741.347; 6937.500;  112.875;    0.000
741.543; 6913.500;  113.875;    0.000
741.738; 7044.500;  128.875;    0.000
741.934; 7099.500;  144.875;    0.000
742.129; 7184.500;  105.875;    0.000
742.325; 7640.500;  137.875;    0.000
742.520; 7988.500;  128.875;    0.000
742.716; 7871.500;  121.875;    0.000
742.911; 7897.500;   75.875;    0.000
743.107; 7559.500;  100.875;    0.000
743.302; 7547.500;   72.875;    0.000
743.498; 7657.500;  137.875;    0.000
743.693; 7743.500;  124.875;    0.000
743.888; 7864.500;  121.875;    0.000
744.084; 8311.500;   93.875;    0.000
744.279; 9105.500;   75.875;    0.000
744.474; 9258.500;  136.875;    0.000
744.670; 8935.500;  109.875;    0.000
744.865; 8591.500;  142.875;    0.000
745.060; 8271.500;   84.875;    0.000
745.255; 8338.500;  149.875;    0.000
745.451; 8320.500;  101.875;    0.000
745.646; 8101.500;  132.875;    0.000
745.841; 7931.500;  126.875;    0.000
746.036; 8103.500;  125.875;    0.000
746.231; 8212.500;  150.875;    0.000
746.426; 8327.500;  118.875;    0.000
746.622; 8926.500;  135.875;    0.000
746.817;10305.500;  122.875;    0.000
747.012;11101.500;  134.875;    0.000
747.207;10603.500;  124.875;    0.000
747.402;10021.500;  122.875;    0.000
747.597; 9486.500;   95.875;    0.000
747.792; 9138.500;  168.875;    0.000
747.987; 8994.500;  110.875;    0.000
748.182; 8825.500;  119.875;    0.000
748.377; 8772.500;   70.875;    0.000
748.572; 8616.500;  113.875;    0.000
748.767; 8360.500;  123.875;    0.000
748.961; 8242.500;  110.875;    0.000
749.156; 8176.500;  135.875;    0.000
749.351; 8051.500;   98.875;    0.000
749.546; 7947.500;  126.875;    0.000
749.741; 7861.500;  129.875;    0.000
749.936; 7768.500;   86.875;    0.000
750.130; 7767.500;   97.875;    0.000
750.325; 7649.500;  110.875;    0.000
750.520; 7767.500;  120.875;    0.000
750.715; 7674.500;  122.875;    0.000
750.909; 7563.500;  120.875;    0.000
751.104; 7727.500;  118.875;    0.000
751.299; 7692.500;  122.875;    0.000
751.493; 7627.500;  129.875;    0.000
751.688; 7614.500;  138.875;    0.000
751.882; 7577.500;   87.875;    0.000
752.077; 7563.500;  142.875;    0.000
752.272; 7629.500;  110.875;    0.000
752.466; 7509.500;  154.875;    0.000
752.661; 7496.500;   96.875;    0.000
752.855; 7320.500;   93.875;    0.000
753.050; 7467.500;  122.875;    0.000
753.244; 7388.500;  110.875;    0.000
753.439; 7282.500;  116.875;    0.000
753.633; 7281.500;  131.875;    0.000
753.828; 7343.500;  130.875;    0.000
754.022; 7403.500;   96.875;    0.000
754.216; 7441.500;  114.875;    0.000
754.411; 7334.500;  145.875;    0.000
754.605; 7102.500;   65.875;    0.000
754.799; 7317.500;  116.875;    0.000
754.994; 7227.500;  117.875;    0.000
755.188; 7208.500;  124.875;    0.000
755.382; 7274.500;   80.875;    0.000
755.576; 7220.500;   90.875;    0.000
755.771; 7222.500;  115.875;    0.000
755.965; 7287.500;  106.875;    0.000
756.159; 7203.500;   87.875;    0.000
756.353; 7218.500;  125.875;    0.000
756.547; 7149.500;  146.875;    0.000
756.742; 7110.500;  111.875;    0.000
756.936; 7121.500;  108.875;    0.000
757.130; 7159.500;  101.875;    0.000
757.324; 7276.500;  114.875;    0.000
757.518; 7434.500;  136.875;    0.000
757.712; 7192.500;  123.875;    0.000
757.906; 7212.500;  115.875;    0.000
758.100; 7217.500;  186.875;    0.000
758.294; 7235.500;  118.875;    0.000
758.488; 7206.500;  167.875;    0.000
758.682; 7179.500;  137.875;    0.000
758.876; 7199.500;  135.875;    0.000
759.070; 7270.500;  132.875;    0.000
759.264; 7211.500;  118.875;    0.000
759.458; 6952.500;  111.875;    0.000
759.651; 7101.500;  142.875;    0.000
759.845; 7185.500;  105.875;    0.000
760.039; 7160.500;   73.875;    0.000
760.233; 7095.500;  156.875;    0.000
760.427; 7097.500;  119.875;    0.000
760.620; 7270.500;  136.875;    0.000
760.814; 7300.500;  126.875;    0.000
761.008; 7179.500;  126.875;    0.000
761.202; 7165.500;  123.875;    0.000
761.395; 7236.500;  141.875;    0.000
761.589; 7152.500;  107.875;    0.000
761.783; 7241.500;  122.875;    0.000
761.976; 7185.500;  120.875;    0.000
762.170; 7190.500;  147.875;    0.000
762.363; 7309.500;  144.875;    0.000
762.557; 7233.500;  119.875;    0.000
762.750; 7204.500;  118.875;    0.000
762.944; 7116.500;  145.875;    0.000
763.138; 7314.500;  123.875;    0.000
763.331; 7130.500;  129.875;    0.000
763.524; 7194.500;  109.875;    0.000
763.718; 7229.500;  150.875;    0.000
763.911; 7393.500;  140.875;    0.000
764.105; 7196.500;   97.875;    0.000
764.298; 7258.500;  128.875;    0.000
764.492; 7320.500;  132.875;    0.000
764.685; 7270.500;   92.875;    0.000
764.878; 7476.500;  111.875;    0.000
765.072; 7325.500;  116.875;    0.000
765.265; 7352.500;  135.875;    0.000
765.458; 7309.500;   69.875;    0.000
765.651; 7410.500;  145.875;    0.000
765.845; 7577.500;   95.875;    0.000
766.038; 7410.500;  147.875;    0.000
766.231; 8303.500;  119.875;    0.000
766.424;12380.500;  126.875;    0.000
766.617;12782.500;   92.875;    0.000
766.811; 8294.500;  109.875;    0.000
767.004; 7604.500;  107.875;    0.000
767.197; 7659.500;  171.875;    0.000
767.390; 7613.500;  114.875;    0.000
767.583; 7444.500;  109.875;    0.000
767.776; 7376.500;  130.875;    0.000
767.969; 7541.500;  103.875;    0.000
768.162; 7513.500;  139.875;    0.000
768.355; 7388.500;  142.875;    0.000
768.548; 7469.500;  140.875;    0.000
768.741; 7527.500;   82.875;    0.000
768.934; 7580.500;  107.875;    0.000
769.127; 7620.500;  121.875;    0.000
769.320; 7643.500;  106.875;    0.000
769.513; 7752.500;  145.875;    0.000
769.706; 8655.500;  120.875;    0.000
769.898;12081.500;  135.875;    0.000
770.091; 9783.500;  146.875;    0.000
770.284; 7857.500;  108.875;    0.000
770.477; 7823.500;  148.875;    0.000
770.670; 7763.500;  163.875;    0.000
770.862; 7738.500;   97.875;    0.000
771.055; 7807.500;  116.875;    0.000
771.248; 7806.500;  143.875;    0.000
771.441; 7811.500;  125.875;    0.000
771.633; 7821.500;  125.875;    0.000
771.826; 7974.500;  132.875;    0.000
772.018; 7945.500;  123.875;    0.000
772.211; 8114.500;  143.875;    0.000
772.404; 8147.500;  144.875;    0.000
772.596; 8090.500;  130.875;    0.000
772.789; 8222.500;  109.875;    0.000
772.981; 8284.500;  151.875;    0.000
773.174; 8454.500;  119.875;    0.000
773.366; 8443.500;  179.875;    0.000
773.559; 8298.500;  106.875;    0.000
773.751; 8470.500;  120.875;    0.000
773.944; 8533.500;  159.875;    0.000
774.136; 8756.500;  131.875;    0.000
774.329; 8933.500;  141.875;    0.000
774.521; 8892.500;  114.875;    0.000
774.713; 9236.500;  169.875;    0.000
774.906; 9206.500;  151.875;    0.000
775.098; 9625.500;   99.875;    0.000
775.290; 9794.500;  166.875;    0.000
775.483;10327.500;  146.875;    0.000
775.675;10571.500;  106.875;    0.000
775.867;11080.500;   91.875;    0.000
776.059;11766.500;  137.875;    0.000
776.251;12520.500;  124.875;    0.000
776.444;13769.500;  168.875;    0.000
776.636;15267.500;  138.875;    0.000
776.828;18005.500;  155.875;    0.000
777.020;22806.500;  160.875;    0.000
777.212;30401.500;  153.875;    0.000
777.404;33738.500;  135.875;    0.000
777.596;32023.500;  144.875;    0.000
777.788;25892.500;  127.875;    0.000
777.980;21066.500;  141.875;    0.000
778.172;18224.500;  138.875;    0.000
778.364;16432.500;  143.875;    0.000
778.556;14857.500;  123.875;    0.000
778.748;13759.500;  103.875;    0.000
778.940;12962.500;  176.875;    0.000
779.132;12133.500;  144.875;    0.000
779.324;11339.500;   75.875;    0.000
779.516;11036.500;  117.875;    0.000
779.708;10639.500;  151.875;    0.000
779.900;10028.500;  127.875;    0.000
780.091; 9808.500;  155.875;    0.000
780.283; 9635.500;  157.875;    0.000
780.475; 9533.500;  140.875;    0.000
780.667; 9159.500;  141.875;    0.000
780.859; 9031.500;  113.875;    0.000
781.050; 8747.500;  153.875;    0.000
781.242; 8601.500;  118.875;    0.000
781.434; 8628.500;  121.875;    0.000
781.625; 8465.500;  146.875;    0.000
781.817; 8331.500;  154.875;    0.000
782.008; 8287.500;  144.875;    0.000
782.200; 8082.500;  152.875;    0.000
782.392; 8257.500;  160.875;    0.000
782.583; 8018.500;  122.875;    0.000
782.775; 8009.500;  144.875;    0.000
782.966; 7833.500;  143.875;    0.000
783.158; 7784.500;  125.875;    0.000
783.349; 7706.500;  173.875;    0.000
783.541; 7806.500;  166.875;    0.000
783.732; 7720.500;  163.875;    0.000
783.924; 7644.500;  157.875;    0.000
784.115; 7473.500;  158.875;    0.000
784.306; 7502.500;  160.875;    0.000
784.498; 7602.500;  132.875;    0.000
784.689; 7467.500;  181.875;    0.000
784.880; 7477.500;  156.875;    0.000
785.072; 7466.500;  134.875;    0.000
785.263; 7356.500;  155.875;    0.000
785.454; 7388.500;  141.875;    0.000
785.645; 7345.500;  114.875;    0.000
785.837; 7224.500;  137.875;    0.000
786.028; 7440.500;  158.875;    0.000
786.219; 7385.500;  135.875;    0.000
786.410; 7265.500;  152.875;    0.000
786.601; 7168.500;  132.875;    0.000
786.792; 7323.500;  152.875;    0.000
786.984; 7253.500;  162.875;    0.000
787.175; 7214.500;   97.875;    0.000
787.366; 7216.500;  129.875;    0.000
787.557; 7241.500;  135.875;    0.000
787.748; 7309.500;  127.875;    0.000
787.939; 7202.500;  152.875;    0.000
788.130; 7172.500;  182.875;    0.000
788.321; 7253.500;  130.875;    0.000
788.512; 7240.500;  161.875;    0.000
788.703; 7396.500;  127.875;    0.000
788.894; 7356.500;  121.875;    0.000
789.084; 7229.500;  134.875;    0.000
789.275; 7310.500;  108.875;    0.000
789.466; 7361.500;  152.875;    0.000
789.657; 7419.500;  115.875;    0.000
789.848; 7365.500;  150.875;    0.000
790.039; 7346.500;  132.875;    0.000
790.229; 7386.500;  169.875;    0.000
790.420; 7258.500;  159.875;    0.000
790.611; 7347.500;  123.875;    0.000
790.801; 7370.500;  144.875;    0.000
790.992; 7284.500;  177.875;    0.000
791.183; 7286.500;  128.875;    0.000
791.373; 7356.500;  123.875;    0.000
791.564; 7229.500;  131.875;    0.000
791.755; 7454.500;  103.875;    0.000
791.945; 7217.500;  104.875;    0.000
792.136; 7212.500;  115.875;    0.000
792.326; 7247.500;   99.875;    0.000
792.517; 7218.500;  139.875;    0.000
792.707; 7212.500;  155.875;    0.000
792.898; 7354.500;  139.875;    0.000
793.088; 7243.500;  153.875;    0.000
793.279; 7319.500;  137.875;    0.000
793.469; 7464.500;  109.875;    0.000
793.660; 7375.500;  119.875;    0.000
793.850; 7528.500;  119.875;    0.000
794.040; 7709.500;  132.875;    0.000
794.231; 7893.500;  122.875;    0.000
794.421; 8187.500;  124.875;    0.000
794.611; 8593.500;  151.875;    0.000
794.802; 9375.500;  121.875;    0.000
794.992; 9894.500;  139.875;    0.000
795.182; 9740.500;  132.875;    0.000
795.372; 9655.500;  149.875;    0.000
795.563; 9124.500;  153.875;    0.000
795.753; 8535.500;  120.875;    0.000
795.943; 8394.500;  121.875;    0.000
796.133; 7999.500;   97.875;    0.000
796.323; 7919.500;  122.875;    0.000
796.513; 7615.500;  142.875;    0.000
796.703; 7377.500;  125.875;    0.000
796.893; 7422.500;  126.875;    0.000
797.083; 7427.500;  150.875;    0.000
797.273; 7211.500;  108.875;    0.000
797.463; 7185.500;  156.875;    0.000
797.653; 7096.500;   80.875;    0.000
797.843; 7138.500;   88.875;    0.000
798.033; 7089.500;   96.875;    0.000
798.223; 6903.500;  159.875;    0.000
798.413; 6920.500;  155.875;    0.000
798.603; 6965.500;  125.875;    0.000
798.793; 6738.500;  141.875;    0.000
798.983; 6668.500;  113.875;    0.000
799.172; 6723.500;   85.875;    0.000
799.362; 6571.500;  141.875;    0.000
799.552; 6542.500;  122.875;    0.000
799.742; 6696.500;  124.875;    0.000
799.932; 6405.500;  102.875;    0.000
800.121; 6507.500;  146.875;    0.000
800.311; 6481.500;  122.875;    0.000
800.501; 6426.500;  120.875;    0.000
800.690; 6511.500;  141.875;    0.000
800.880; 6448.500;  146.875;    0.000
801.070; 6447.500;  122.875;    0.000
801.259; 6318.500;  138.875;    0.000
801.449; 6376.500;  115.875;    0.000
801.638; 6385.500;  132.875;    0.000
801.828; 6325.500;   92.875;    0.000
802.017; 6379.500;  150.875;    0.000
802.207; 6278.500;  134.875;    0.000
802.396; 6265.500;  133.875;    0.000
802.586; 6180.500;  117.875;    0.000
802.775; 6286.500;  155.875;    0.000
802.965; 6291.500;  132.875;    0.000
803.154; 6262.500;  176.875;    0.000
803.343; 6160.500;  106.875;    0.000
803.533; 6131.500;  154.875;    0.000
803.722; 6136.500;   97.875;    0.000
803.911; 6165.500;  107.875;    0.000
804.101; 6140.500;  145.875;    0.000
804.290; 6207.500;  130.875;    0.000
804.479; 6227.500;  152.875;    0.000
804.668; 6093.500;  160.875;    0.000
804.857; 6114.500;  161.875;    0.000
805.047; 6071.500;  126.875;    0.000
805.236; 6095.500;  136.875;    0.000
805.425; 6191.500;  153.875;    0.000
805.614; 6062.500;  139.875;    0.000
805.803; 6252.500;  144.875;    0.000
805.992; 6117.500;  160.875;    0.000
806.181; 6013.500;  139.875;    0.000
806.370; 6129.500;  104.875;    0.000
806.559; 6018.500;  103.875;    0.000
806.748; 6241.500;  145.875;    0.000
806.937; 6226.500;  151.875;    0.000
807.126; 6092.500;  119.875;    0.000
807.315; 6156.500;  139.875;    0.000
807.504; 6092.500;  143.875;    0.000
807.693; 6114.500;  164.875;    0.000
807.882; 6076.500;  135.875;    0.000
808.071; 6183.500;  131.875;    0.000
808.260; 6069.500;  113.875;    0.000
808.448; 6081.500;  161.875;    0.000
808.637; 6292.500;  125.875;    0.000
808.826; 6183.500;  155.875;    0.000
809.015; 6079.500;  113.875;    0.000
809.203; 6214.500;  152.875;    0.000
809.392; 6204.500;   90.875;    0.000
809.581; 6271.500;  186.875;    0.000
809.770; 6123.500;   99.875;    0.000
809.958; 6109.500;  146.875;    0.000
810.147; 6232.500;  115.875;    0.000
810.335; 6309.500;  122.875;    0.000
810.524; 6215.500;  150.875;    0.000
810.713; 6377.500;  121.875;    0.000
810.901; 6394.500;  156.875;    0.000
811.090; 6425.500;  161.875;    0.000
811.278; 6372.500;  138.875;    0.000
811.467; 6555.500;  184.875;    0.000
811.655; 6672.500;  150.875;    0.000
811.844; 6708.500;  137.875;    0.000
812.032; 6666.500;  142.875;    0.000
812.220; 6637.500;  134.875;    0.000
812.409; 6633.500;  143.875;    0.000
812.597; 6707.500;  164.875;    0.000
812.785; 6869.500;  188.875;    0.000
812.974; 6908.500;  156.875;    0.000
813.162; 6820.500;  166.875;    0.000
813.350; 6944.500;  115.875;    0.000
813.539; 6785.500;  167.875;    0.000
813.727; 6954.500;  165.875;    0.000
813.915; 6975.500;  137.875;    0.000
814.103; 7023.500;  166.875;    0.000
814.291; 7125.500;  151.875;    0.000
814.479; 7176.500;  147.875;    0.000
814.668; 7184.500;  166.875;    0.000
814.856; 7419.500;  160.875;    0.000
815.044; 7489.500;  172.875;    0.000
815.232; 7604.500;  193.875;    0.000
815.420; 7839.500;  173.875;    0.000
815.608; 7859.500;  134.875;    0.000
815.796; 7951.500;  105.875;    0.000
815.984; 8006.500;  125.875;    0.000
816.172; 8383.500;  160.875;    0.000
816.360; 8563.500;  162.875;    0.000
816.548; 8759.500;  160.875;    0.000
816.736; 9051.500;  132.875;    0.000
816.924; 9486.500;  184.875;    0.000
817.111; 9855.500;  145.875;    0.000
817.299;10649.500;  132.875;    0.000
817.487;11339.500;  193.875;    0.000
817.675;12599.500;  153.875;    0.000
817.863;14448.500;  153.875;    0.000
818.050;18525.500;  172.875;    0.000
818.238;28264.500;  131.875;    0.000
818.426;37029.500;  160.875;    0.000
818.613;29241.500;  136.875;    0.000
818.801;24457.500;  162.875;    0.000
818.989;23568.500;  153.875;    0.000
819.176;25483.500;  181.875;    0.000
819.364;33698.500;  165.875;    0.000
819.552;43406.500;  111.875;    0.000
819.739;35324.500;  192.875;    0.000
819.927;27505.500;  146.875;    0.000
820.114;23679.500;  154.875;    0.000
820.302;21042.500;  144.875;    0.000
820.489;19370.500;  133.875;    0.000
820.677;17683.500;  135.875;    0.000
820.864;16642.500;  130.875;    0.000
821.052;16119.500;   88.875;    0.000
821.239;16010.500;  143.875;    0.000
821.426;15728.500;  186.875;    0.000
821.614;16591.500;  171.875;    0.000
821.801;16838.500;   90.875;    0.000
821.988;15471.500;  143.875;    0.000
822.176;15020.500;   95.875;    0.000
822.363;14957.500;  148.875;    0.000
822.550;14215.500;  139.875;    0.000
822.737;13442.500;  122.875;    0.000
822.924;12731.500;  171.875;    0.000
823.112;12171.500;  147.875;    0.000
823.299;11624.500;  111.875;    0.000
823.486;11173.500;  161.875;    0.000
823.673;10620.500;  124.875;    0.000
823.860;10409.500;  151.875;    0.000
824.047;10329.500;  145.875;    0.000
824.234;10751.500;  139.875;    0.000
824.421;10672.500;  110.875;    0.000
824.608;10085.500;  145.875;    0.000
824.795; 9462.500;  115.875;    0.000
824.982; 9086.500;  148.875;    0.000
825.169; 8647.500;  135.875;    0.000
825.356; 8499.500;  122.875;    0.000
825.543; 8280.500;  142.875;    0.000
825.730; 7950.500;   89.875;    0.000
825.917; 7850.500;  127.875;    0.000
826.104; 7661.500;  187.875;    0.000
826.290; 7557.500;  138.875;    0.000
826.477; 7225.500;  140.875;    0.000
826.664; 7230.500;  106.875;    0.000
826.851; 7124.500;  155.875;    0.000
827.038; 6956.500;  125.875;    0.000
827.224; 6790.500;  126.875;    0.000
827.411; 6592.500;  163.875;    0.000
827.598; 6716.500;  140.875;    0.000
827.784; 6561.500;  117.875;    0.000
827.971; 6555.500;  114.875;    0.000
828.157; 6282.500;  146.875;    0.000
828.344; 6249.500;  161.875;    0.000
828.531; 6195.500;  155.875;    0.000
828.717; 6006.500;  130.875;    0.000
828.904; 6047.500;  138.875;    0.000
829.090; 6112.500;  176.875;    0.000
829.277; 5932.500;  152.875;    0.000
829.463; 5831.500;  139.875;    0.000
829.650; 5928.500;  168.875;    0.000
829.836; 5759.500;  176.875;    0.000
830.022; 5787.500;  159.875;    0.000
830.209; 5655.500;  135.875;    0.000
830.395; 5505.500;  177.875;    0.000
830.581; 5541.500;  125.875;    0.000
830.768; 5469.500;  155.875;    0.000
830.954; 5475.500;  187.875;    0.000
831.140; 5451.500;  135.875;    0.000
831.327; 5446.500;  158.875;    0.000
831.513; 5274.500;  126.875;    0.000
831.699; 5270.500;  167.875;    0.000
831.885; 5289.500;  165.875;    0.000
832.071; 5145.500;  167.875;    0.000
832.257; 5128.500;  144.875;    0.000
832.444; 5122.500;  158.875;    0.000
832.630; 5146.500;  167.875;    0.000
832.816; 5310.500;  150.875;    0.000
833.002; 5000.500;  157.875;    0.000
833.188; 5005.500;  169.875;    0.000
833.374; 5008.500;  144.875;    0.000
833.560; 5002.500;  179.875;    0.000
833.746; 4934.500;  134.875;    0.000
833.932; 4853.500;  150.875;    0.000
834.118; 4958.500;   98.875;    0.000
834.303; 4881.500;  121.875;    0.000
834.489; 4940.500;  179.875;    0.000
834.675; 4784.500;  136.875;    0.000
834.861; 4764.500;  130.875;    0.000
835.047; 4788.500;  132.875;    0.000
835.233; 4728.500;  104.875;    0.000
835.418; 4841.500;  143.875;    0.000
835.604; 4751.500;  127.875;    0.000
835.790; 4739.500;  138.875;    0.000
835.976; 4805.500;  137.875;    0.000
836.161; 4645.500;  155.875;    0.000
836.347; 4476.500;  101.875;    0.000
836.533; 4673.500;  121.875;    0.000
836.718; 4733.500;  150.875;    0.000
836.904; 4688.500;  168.875;    0.000
837.089; 4560.500;  169.875;    0.000
837.275; 4657.500;  172.875;    0.000
837.460; 4512.500;  140.875;    0.000
837.646; 4632.500;  144.875;    0.000
837.831; 4673.500;  137.875;    0.000
838.017; 4667.500;  176.875;    0.000
838.202; 4514.500;  107.875;    0.000
838.388; 4609.500;  181.875;    0.000
838.573; 4543.500;  151.875;    0.000
838.759; 4692.500;  160.875;    0.000
838.944; 4491.500;  121.875;    0.000
839.129; 4514.500;  145.875;    0.000
839.315; 4454.500;  166.875;    0.000
839.500; 4455.500;  143.875;    0.000
839.685; 4593.500;   93.875;    0.000
839.870; 4613.500;  160.875;    0.000
840.056; 4486.500;  132.875;    0.000
840.241; 4384.500;  154.875;    0.000
840.426; 4529.500;  161.875;    0.000
840.611; 4582.500;  186.875;    0.000
840.796; 4390.500;  135.875;    0.000
840.981; 4526.500;  147.875;    0.000
841.166; 4551.500;  138.875;    0.000
841.352; 4590.500;  156.875;    0.000
841.537; 4610.500;  170.875;    0.000
841.722; 4718.500;  143.875;    0.000
841.907; 4602.500;  143.875;    0.000
842.092; 4777.500;  166.875;    0.000
842.277; 4592.500;  113.875;    0.000
842.461; 4710.500;  126.875;    0.000
842.646; 4814.500;  145.875;    0.000
842.831; 4944.500;  193.875;    0.000
843.016; 5064.500;  162.875;    0.000
843.201; 4959.500;  144.875;    0.000
843.386; 5084.500;  160.875;    0.000
843.571; 5258.500;  136.875;    0.000
843.755; 5461.500;  134.875;    0.000
843.940; 5849.500;  136.875;    0.000
844.125; 6139.500;  169.875;    0.000
844.310; 6803.500;  189.875;    0.000
844.494; 8114.500;  167.875;    0.000
844.679; 9942.500;  184.875;    0.000
844.864;10236.500;  147.875;    0.000
845.048; 8865.500;  140.875;    0.000
845.233; 7823.500;  178.875;    0.000
845.418; 7138.500;  145.875;    0.000
845.602; 6530.500;  147.875;    0.000
845.787; 6143.500;  147.875;    0.000
845.971; 5914.500;  165.875;    0.000
846.156; 5577.500;  106.875;    0.000
846.340; 5396.500;  168.875;    0.000
846.525; 5154.500;  155.875;    0.000
846.709; 5089.500;  157.875;    0.000
846.893; 4962.500;  166.875;    0.000
847.078; 4864.500;  138.875;    0.000
847.262; 4775.500;  171.875;    0.000
847.447; 4538.500;  135.875;    0.000
847.631; 4556.500;  136.875;    0.000
847.815; 4480.500;  136.875;    0.000
848.000; 4351.500;  126.875;    0.000
848.184; 4419.500;  131.875;    0.000
848.368; 4344.500;  153.875;    0.000
848.552; 4369.500;  137.875;    0.000
848.736; 4315.500;  151.875;    0.000
848.921; 4137.500;  156.875;    0.000
849.105; 4109.500;  153.875;    0.000
849.289; 4235.500;  180.875;    0.000
849.473; 4196.500;  156.875;    0.000
849.657; 4089.500;  157.875;    0.000
849.841; 4018.500;  147.875;    0.000
850.025; 4142.500;  194.875;    0.000
850.209; 3941.500;  147.875;    0.000
850.393; 4013.500;  141.875;    0.000
850.577; 3874.500;  156.875;    0.000
850.761; 3990.500;  157.875;    0.000
850.945; 3944.500;  128.875;    0.000
851.129; 3824.500;  151.875;    0.000
851.313; 3920.500;  180.875;    0.000
851.497; 3874.500;  123.875;    0.000
851.680; 3966.500;  188.875;    0.000
851.864; 3821.500;  177.875;    0.000
852.048; 3779.500;  163.875;    0.000
852.232; 3761.500;  149.875;    0.000
852.416; 3818.500;  187.875;    0.000
852.599; 3808.500;  169.875;    0.000
852.783; 3766.500;  154.875;    0.000
852.967; 3831.500;  191.875;    0.000
853.150; 3858.500;  170.875;    0.000
853.334; 3882.500;  173.875;    0.000
853.518; 3775.500;  186.875;    0.000
853.701; 3798.500;  142.875;    0.000
853.885; 3823.500;  153.875;    0.000
854.068; 3624.500;  132.875;    0.000
854.252; 3726.500;  184.875;    0.000
854.435; 3817.500;  152.875;    0.000
854.619; 3630.500;  152.875;    0.000
854.802; 3749.500;  164.875;    0.000
854.986; 3663.500;  151.875;    0.000
855.169; 3688.500;  153.875;    0.000
855.353; 3704.500;  183.875;    0.000
855.536; 3776.500;  113.875;    0.000
855.719; 3744.500;  181.875;    0.000
855.903; 3819.500;  159.875;    0.000
856.086; 3759.500;  142.875;    0.000
856.269; 3729.500;  171.875;    0.000
856.452; 3701.500;  132.875;    0.000
856.636; 3721.500;  140.875;    0.000
856.819; 3901.500;  165.875;    0.000
857.002; 3975.500;  170.875;    0.000
857.185; 3856.500;  173.875;    0.000
857.368; 3794.500;  129.875;    0.000
857.552; 3854.500;  151.875;    0.000
857.735; 3754.500;  146.875;    0.000
857.918; 3783.500;  114.875;    0.000
858.101; 3781.500;  152.875;    0.000
858.284; 3734.500;  164.875;    0.000
858.467; 3820.500;  147.875;    0.000
858.650; 3948.500;  146.875;    0.000
858.833; 3909.500;  118.875;    0.000
859.016; 3940.500;  161.875;    0.000
859.199; 3988.500;  135.875;    0.000
859.382; 4187.500;  157.875;    0.000
859.564; 4381.500;  124.875;    0.000
859.747; 4290.500;  154.875;    0.000
859.930; 4173.500;  138.875;    0.000
860.113; 4105.500;  153.875;    0.000
860.296; 4079.500;  180.875;    0.000
860.478; 4024.500;  145.875;    0.000
860.661; 3928.500;  160.875;    0.000
860.844; 3974.500;   96.875;    0.000
861.027; 4012.500;  128.875;    0.000
861.209; 3915.500;  127.875;    0.000
861.392; 3945.500;  126.875;    0.000
861.575; 3991.500;  155.875;    0.000
861.757; 4016.500;  141.875;    0.000
861.940; 3983.500;  181.875;    0.000
862.122; 4049.500;  145.875;    0.000
862.305; 4066.500;  124.875;    0.000
862.487; 4253.500;  151.875;    0.000
862.670; 4343.500;  132.875;    0.000
862.852; 4697.500;  112.875;    0.000
863.035; 5258.500;  116.875;    0.000
863.217; 5146.500;  131.875;    0.000
863.400; 4952.500;  145.875;    0.000
863.582; 4803.500;  147.875;    0.000
863.764; 4560.500;  163.875;    0.000
863.947; 4472.500;  129.875;    0.000
864.129; 4302.500;  159.875;    0.000
864.311; 4351.500;  144.875;    0.000
864.493; 4335.500;  141.875;    0.000
864.676; 4279.500;  159.875;    0.000
864.858; 4219.500;  146.875;    0.000
865.040; 4242.500;  163.875;    0.000
865.222; 4301.500;  133.875;    0.000
865.404; 4289.500;  148.875;    0.000
865.587; 4333.500;  177.875;    0.000
865.769; 4553.500;  172.875;    0.000
865.951; 4536.500;  145.875;    0.000
866.133; 4568.500;  168.875;    0.000
866.315; 4468.500;  147.875;    0.000
866.497; 4508.500;  164.875;    0.000
866.679; 4576.500;  143.875;    0.000
866.861; 4569.500;  170.875;    0.000
867.043; 5033.500;  185.875;    0.000
867.225; 5079.500;  149.875;    0.000
867.407; 5411.500;  143.875;    0.000
867.589; 5843.500;  169.875;    0.000
867.770; 6628.500;  166.875;    0.000
867.952; 8410.500;  158.875;    0.000
868.134;10027.500;  170.875;    0.000
868.316;10277.500;  157.875;    0.000
868.498; 9981.500;  186.875;    0.000
868.679; 9043.500;  158.875;    0.000
868.861; 7962.500;  180.875;    0.000
869.043; 7035.500;  164.875;    0.000
869.224; 6512.500;  156.875;    0.000
869.406; 6072.500;  176.875;    0.000
869.588; 5761.500;  152.875;    0.000
869.769; 5422.500;  131.875;    0.000
869.951; 5419.500;  203.875;    0.000
870.132; 5363.500;  143.875;    0.000
870.314; 5583.500;  129.875;    0.000
870.495; 5834.500;  175.875;    0.000
870.677; 5514.500;  165.875;    0.000
870.858; 5319.500;  151.875;    0.000
871.040; 5443.500;  155.875;    0.000
871.221; 5897.500;  144.875;    0.000
871.403; 5752.500;  131.875;    0.000
871.584; 5436.500;  174.875;    0.000
871.765; 5389.500;  169.875;    0.000
871.947; 5667.500;  187.875;    0.000
872.128; 5278.500;  181.875;    0.000
872.309; 4887.500;  129.875;    0.000
872.491; 4609.500;  142.875;    0.000
872.672; 4434.500;  158.875;    0.000
872.853; 4297.500;  179.875;    0.000
873.034; 4252.500;  164.875;    0.000
873.215; 4161.500;  168.875;    0.000
873.396; 3988.500;  114.875;    0.000
873.578; 3896.500;  126.875;    0.000
873.759; 3768.500;  177.875;    0.000
873.940; 3737.500;  169.875;    0.000
874.121; 3548.500;  133.875;    0.000
874.302; 3659.500;  164.875;    0.000
874.483; 3635.500;  162.875;    0.000
874.664; 3595.500;  140.875;    0.000
874.845; 3446.500;  124.875;    0.000
875.026; 3471.500;  146.875;    0.000
875.207; 3429.500;  147.875;    0.000
875.388; 3405.500;  174.875;    0.000
875.568; 3409.500;  179.875;    0.000
875.749; 3318.500;  155.875;    0.000
875.930; 3393.500;  166.875;    0.000
876.111; 3296.500;  153.875;    0.000
876.292; 3224.500;  146.875;    0.000
876.472; 3428.500;  167.875;    0.000
876.653; 3322.500;  145.875;    0.000
876.834; 3192.500;  172.875;    0.000
877.015; 3191.500;  184.875;    0.000
877.195; 3193.500;  160.875;    0.000
877.376; 3259.500;  163.875;    0.000
877.556; 3166.500;  164.875;    0.000
877.737; 3175.500;  179.875;    0.000
877.918; 3151.500;  137.875;    0.000
878.098; 3202.500;  117.875;    0.000
878.279; 3097.500;  135.875;    0.000
878.459; 3148.500;  149.875;    0.000
878.640; 3153.500;  171.875;    0.000
878.820; 3155.500;  142.875;    0.000
879.000; 3122.500;  166.875;    0.000
879.181; 3136.500;  177.875;    0.000
879.361; 3097.500;  176.875;    0.000
879.542; 3084.500;  159.875;    0.000
879.722; 3069.500;  122.875;    0.000
879.902; 3202.500;  166.875;    0.000
880.083; 3187.500;  164.875;    0.000
880.263; 3272.500;  139.875;    0.000
880.443; 3647.500;  179.875;    0.000
880.623; 4340.500;  154.875;    0.000
880.803; 5310.500;  160.875;    0.000
880.984; 4429.500;  181.875;    0.000
881.164; 3857.500;  167.875;    0.000
881.344; 3669.500;  141.875;    0.000
881.524; 3547.500;  190.875;    0.000
881.704; 3452.500;  165.875;    0.000
881.884; 3458.500;  144.875;    0.000
882.064; 3510.500;  135.875;    0.000
882.244; 3444.500;  186.875;    0.000
882.424; 3385.500;  150.875;    0.000
882.604; 3281.500;  168.875;    0.000
882.784; 3224.500;  155.875;    0.000
882.964; 3192.500;  137.875;    0.000
883.144; 3159.500;  136.875;    0.000
883.324; 3192.500;  200.875;    0.000
883.504; 3092.500;  203.875;    0.000
883.683; 3063.500;  149.875;    0.000
883.863; 3053.500;  160.875;    0.000
884.043; 2953.500;  161.875;    0.000
884.223; 2971.500;  147.875;    0.000
884.402; 2923.500;  175.875;    0.000
884.582; 2809.500;  188.875;    0.000
884.762; 2904.500;  173.875;    0.000
884.941; 2920.500;  164.875;    0.000
885.121; 2927.500;  147.875;    0.000
885.301; 2989.500;  135.875;    0.000
885.480; 2924.500;  145.875;    0.000
885.660; 2903.500;  144.875;    0.000
885.839; 2933.500;  155.875;    0.000
886.019; 2931.500;  207.875;    0.000
886.198; 2834.500;  165.875;    0.000
886.378; 2853.500;  120.875;    0.000
886.557; 2829.500;  133.875;    0.000
886.737; 2750.500;  119.875;    0.000
886.916; 2731.500;  129.875;    0.000
887.095; 2756.500;  158.875;    0.000
887.275; 2686.500;  169.875;    0.000
887.454; 2758.500;  184.875;    0.000
887.633; 2750.500;  143.875;    0.000
887.813; 2731.500;  154.875;    0.000
887.992; 2755.500;  188.875;    0.000
888.171; 2730.500;  176.875;    0.000
888.350; 2712.500;  161.875;    0.000
888.530; 2686.500;  163.875;    0.000
888.709; 2697.500;  136.875;    0.000
888.888; 2745.500;  177.875;    0.000
889.067; 2724.500;  169.875;    0.000
889.246; 2775.500;  188.875;    0.000
889.425; 2754.500;  187.875;    0.000
889.604; 2730.500;  169.875;    0.000
889.783; 2698.500;  182.875;    0.000
889.962; 2637.500;  112.875;    0.000
890.141; 2787.500;  231.875;    0.000
890.320; 2654.500;  161.875;    0.000
890.499; 2740.500;  164.875;    0.000
890.678; 2658.500;  176.875;    0.000
890.857; 2608.500;  163.875;    0.000
891.036; 2647.500;  161.875;    0.000
891.214; 2666.500;  156.875;    0.000
891.393; 2723.500;  167.875;    0.000
891.572; 2604.500;  163.875;    0.000
891.751; 2715.500;  205.875;    0.000
891.930; 2671.500;  162.875;    0.000
892.108; 2602.500;  153.875;    0.000
892.287; 2745.500;  153.875;    0.000
892.466; 2735.500;  201.875;    0.000
892.644; 2605.500;  158.875;    0.000
892.823; 2671.500;  122.875;    0.000
893.001; 2692.500;  148.875;    0.000
893.180; 2536.500;  142.875;    0.000
893.359; 2597.500;  192.875;    0.000
893.537; 2628.500;  166.875;    0.000
893.716; 2699.500;  144.875;    0.000
893.894; 2573.500;  145.875;    0.000
894.073; 2627.500;  180.875;    0.000
894.251; 2618.500;  165.875;    0.000
894.429; 2587.500;  182.875;    0.000
894.608; 2631.500;  181.875;    0.000
894.786; 2600.500;  180.875;    0.000
894.964; 2673.500;  207.875;    0.000
895.143; 2626.500;  190.875;    0.000
895.321; 2577.500;  206.875;    0.000
895.499; 2557.500;  164.875;    0.000
895.677; 2551.500;  199.875;    0.000
895.856; 2534.500;  203.875;    0.000
896.034; 2620.500;  200.875;    0.000
896.212; 2708.500;  198.875;    0.000
896.390; 2698.500;  161.875;    0.000
896.568; 2597.500;  205.875;    0.000
896.746; 2608.500;  185.875;    0.000
896.924; 2633.500;  179.875;    0.000
897.102; 2675.500;  190.875;    0.000
897.280; 2548.500;  160.875;    0.000
897.458; 2594.500;  196.875;    0.000
897.636; 2565.500;  168.875;    0.000
897.814; 2614.500;  159.875;    0.000
897.992; 2633.500;  216.875;    0.000
898.170; 2595.500;  195.875;    0.000
898.348; 2592.500;  185.875;    0.000
898.526; 2594.500;  199.875;    0.000
898.704; 2564.500;  215.875;    0.000
898.882; 2588.500;  195.875;    0.000
899.059; 2599.500;  197.875;    0.000
899.237; 2607.500;  168.875;    0.000
899.415; 2662.500;  221.875;    0.000
899.593; 2575.500;  171.875;    0.000
899.770; 2673.500;  191.875;    0.000
899.948; 2703.500;  206.875;    0.000
900.125; 2641.500;  175.875;    0.000
900.303; 2638.500;  176.875;    0.000
900.481; 2659.500;  199.875;    0.000
900.658; 2666.500;  217.875;    0.000
900.836; 2625.500;  192.875;    0.000
901.013; 2668.500;  221.875;    0.000
901.191; 2682.500;  203.875;    0.000
901.368; 2701.500;  189.875;    0.000
901.546; 2808.500;  212.875;    0.000
901.723; 2704.500;  189.875;    0.000
901.901; 2845.500;  198.875;    0.000
902.078; 2796.500;  193.875;    0.000
902.255; 2892.500;  176.875;    0.000
902.433; 2913.500;  201.875;    0.000
902.610; 2873.500;  170.875;    0.000
902.787; 2770.500;  164.875;    0.000
902.964; 2875.500;  216.875;    0.000
903.142; 2917.500;  153.875;    0.000
903.319; 2972.500;  204.875;    0.000
903.496; 2986.500;  188.875;    0.000
903.673; 3052.500;  209.875;    0.000
903.850; 2991.500;  173.875;    0.000
904.027; 3108.500;  186.875;    0.000
904.204; 3177.500;  241.875;    0.000
904.381; 3334.500;  187.875;    0.000
904.558; 3541.500;  196.875;    0.000
904.735; 3785.500;  206.875;    0.000
904.912; 3941.500;  228.875;    0.000
905.089; 3842.500;  172.875;    0.000
905.266; 3738.500;  175.875;    0.000
905.443; 3542.500;  239.875;    0.000
905.620; 3448.500;  176.875;    0.000
905.797; 3298.500;  205.875;    0.000
905.974; 3178.500;  187.875;    0.000
906.151; 3182.500;  135.875;    0.000
906.327; 3226.500;  209.875;    0.000
906.504; 3183.500;  145.875;    0.000
906.681; 3164.500;  178.875;    0.000
906.858; 3148.500;  179.875;    0.000
907.034; 3042.500;  221.875;    0.000
907.211; 2908.500;  166.875;    0.000
907.388; 2919.500;  206.875;    0.000
907.564; 2963.500;  150.875;    0.000
907.741; 2869.500;  187.875;    0.000
907.917; 2844.500;  180.875;    0.000
908.094; 2859.500;  206.875;    0.000
908.271; 2863.500;  184.875;    0.000
908.447; 2847.500;  212.875;    0.000
908.623; 2778.500;  193.875;    0.000
908.800; 2725.500;  185.875;    0.000
908.976; 2725.500;  202.875;    0.000
909.153; 2749.500;  175.875;    0.000
909.329; 2805.500;  193.875;    0.000
909.505; 2728.500;  154.875;    0.000
909.682; 2662.500;  188.875;    0.000
909.858; 2630.500;  162.875;    0.000
910.034; 2624.500;  181.875;    0.000
910.211; 2590.500;  142.875;    0.000
910.387; 2667.500;  200.875;    0.000
910.563; 2696.500;  163.875;    0.000
910.739; 2684.500;  156.875;    0.000
910.915; 2607.500;  202.875;    0.000
911.091; 2654.500;  186.875;    0.000
911.268; 2609.500;  167.875;    0.000
911.444; 2535.500;  193.875;    0.000
911.620; 2623.500;  175.875;    0.000
911.796; 2533.500;  168.875;    0.000
911.972; 2542.500;  154.875;    0.000
912.148; 2608.500;  201.875;    0.000
912.324; 2617.500;  146.875;    0.000
912.500; 2603.500;  185.875;    0.000
912.676; 2644.500;  183.875;    0.000
912.851; 2636.500;  204.875;    0.000
913.027; 2609.500;  196.875;    0.000
913.203; 2646.500;  174.875;    0.000
913.379; 2599.500;  210.875;    0.000
913.555; 2633.500;  197.875;    0.000
913.730; 2561.500;  209.875;    0.000
913.906; 2594.500;  169.875;    0.000
914.082; 2674.500;  236.875;    0.000
914.258; 2675.500;  216.875;    0.000
914.433; 2618.500;  212.875;    0.000
914.609; 2644.500;  180.875;    0.000
914.784; 2614.500;  176.875;    0.000
914.960; 2604.500;  227.875;    0.000
915.136; 2599.500;  149.875;    0.000
915.311; 2650.500;  165.875;    0.000
915.487; 2563.500;  167.875;    0.000
915.662; 2630.500;  225.875;    0.000
915.838; 2627.500;  165.875;    0.000
916.013; 2581.500;  188.875;    0.000
916.189; 2598.500;  200.875;    0.000
916.364; 2527.500;  201.875;    0.000
916.539; 2626.500;  240.875;    0.000
916.715; 2583.500;  180.875;    0.000
916.890; 2652.500;  191.875;    0.000
917.065; 2596.500;  211.875;    0.000
917.240; 2601.500;  212.875;    0.000
917.416; 2638.500;  207.875;    0.000
917.591; 2605.500;  189.875;    0.000
917.766; 2627.500;  205.875;    0.000
917.941; 2673.500;  191.875;    0.000
918.116; 2608.500;  195.875;    0.000
918.292; 2674.500;  183.875;    0.000
918.467; 2664.500;  206.875;    0.000
918.642; 2707.500;  190.875;    0.000
918.817; 2704.500;  193.875;    0.000
918.992; 2541.500;  171.875;    0.000
919.167; 2698.500;  191.875;    0.000
919.342; 2717.500;  202.875;    0.000
919.517; 2731.500;  182.875;    0.000
919.692; 2807.500;  190.875;    0.000
919.867; 2852.500;  221.875;    0.000
920.041; 2870.500;  195.875;    0.000
920.216; 2766.500;  226.875;    0.000
920.391; 2981.500;  230.875;    0.000
920.566; 2951.500;  210.875;    0.000
920.741; 2961.500;  204.875;    0.000
920.915; 3060.500;  213.875;    0.000
921.090; 3140.500;  194.875;    0.000
921.265; 3620.500;  234.875;    0.000
921.439; 4047.500;  228.875;    0.000
921.614; 3724.500;  199.875;    0.000
921.789; 3513.500;  194.875;    0.000
921.963; 3411.500;  236.875;    0.000
922.138; 3327.500;  192.875;    0.000
922.312; 3179.500;  203.875;    0.000
922.487; 3229.500;  207.875;    0.000
922.661; 3296.500;  216.875;    0.000
922.836; 3543.500;  199.875;    0.000
923.010; 3659.500;  179.875;    0.000
923.185; 3399.500;  241.875;    0.000
923.359; 3404.500;  199.875;    0.000
923.534; 3319.500;  227.875;    0.000
923.708; 3375.500;  213.875;    0.000
923.882; 3571.500;  203.875;    0.000
924.057; 3391.500;  194.875;    0.000
924.231; 3243.500;  185.875;    0.000
924.405; 3211.500;  223.875;    0.000
924.579; 3221.500;  196.875;    0.000
924.753; 3079.500;  209.875;    0.000
924.928; 3013.500;  202.875;    0.000
925.102; 3067.500;  184.875;    0.000
925.276; 3033.500;  191.875;    0.000
925.450; 2982.500;  199.875;    0.000
925.624; 2975.500;  190.875;    0.000
925.798; 3142.500;  214.875;    0.000
925.972; 3053.500;  193.875;    0.000
926.146; 3168.500;  191.875;    0.000
926.320; 3280.500;  177.875;    0.000
926.494; 3341.500;  190.875;    0.000
926.668; 3482.500;  182.875;    0.000
926.842; 3644.500;  182.875;    0.000
927.016; 3681.500;  235.875;    0.000
927.190; 3621.500;  234.875;    0.000
927.363; 3514.500;  214.875;    0.000
927.537; 3566.500;  198.875;    0.000
927.711; 3361.500;  154.875;    0.000
927.885; 3414.500;  167.875;    0.000
928.058; 3394.500;  210.875;    0.000
928.232; 3382.500;  206.875;    0.000
928.406; 3268.500;  176.875;    0.000
928.579; 3222.500;  182.875;    0.000
928.753; 3160.500;  179.875;    0.000
928.927; 3028.500;  186.875;    0.000
929.100; 3176.500;  188.875;    0.000
929.274; 3025.500;  167.875;    0.000
929.447; 2918.500;  152.875;    0.000
929.621; 2957.500;  195.875;    0.000
929.794; 2985.500;  200.875;    0.000
929.968; 2893.500;  203.875;    0.000
930.141; 2920.500;  237.875;    0.000
930.315; 2886.500;  165.875;    0.000
930.488; 2768.500;  175.875;    0.000
930.661; 2834.500;  173.875;    0.000
930.835; 2846.500;  171.875;    0.000
931.008; 2809.500;  210.875;    0.000
931.181; 2736.500;  206.875;    0.000
931.354; 2729.500;  195.875;    0.000
931.528; 2614.500;  178.875;    0.000
931.701; 2678.500;  179.875;    0.000
931.874; 2530.500;  150.875;    0.000
932.047; 2705.500;  154.875;    0.000
932.220; 2548.500;  185.875;    0.000
932.393; 2506.500;  166.875;    0.000
932.566; 2560.500;  171.875;    0.000
932.739; 2510.500;  196.875;    0.000
932.912; 2580.500;  212.875;    0.000
933.085; 2515.500;  234.875;    0.000
933.258; 2552.500;  212.875;    0.000
933.431; 2571.500;  181.875;    0.000
933.604; 2498.500;  201.875;    0.000
933.777; 2525.500;  201.875;    0.000
933.950; 2499.500;  176.875;    0.000
934.123; 2481.500;  175.875;    0.000
934.296; 2547.500;  174.875;    0.000
934.468; 2472.500;  186.875;    0.000
934.641; 2466.500;  192.875;    0.000
934.814; 2507.500;  187.875;    0.000
934.987; 2540.500;  165.875;    0.000
935.159; 2585.500;  162.875;    0.000
935.332; 2489.500;  210.875;    0.000
935.505; 2460.500;  191.875;    0.000
935.677; 2505.500;  159.875;    0.000
935.850; 2445.500;  170.875;    0.000
936.022; 2452.500;  172.875;    0.000
936.195; 2498.500;  202.875;    0.000
936.367; 2479.500;  179.875;    0.000
936.540; 2504.500;  207.875;    0.000
936.712; 2452.500;  200.875;    0.000
936.885; 2437.500;  219.875;    0.000
937.057; 2536.500;  150.875;    0.000
937.229; 2497.500;  187.875;    0.000
937.402; 2567.500;  169.875;    0.000
937.574; 2559.500;  127.875;    0.000
937.746; 2534.500;  171.875;    0.000
937.919; 2649.500;  176.875;    0.000
938.091; 2708.500;  193.875;    0.000
938.263; 2741.500;  200.875;    0.000
938.435; 2997.500;  181.875;    0.000
938.608; 3074.500;  191.875;    0.000
938.780; 3398.500;  173.875;    0.000
938.952; 3493.500;  184.875;    0.000
939.124; 3668.500;  171.875;    0.000
939.296; 3962.500;  156.875;    0.000
939.468; 4030.500;  147.875;    0.000
939.640; 3754.500;  186.875;    0.000
939.812; 3490.500;  217.875;    0.000
939.984; 3241.500;  155.875;    0.000
940.156; 3124.500;  191.875;    0.000
940.328; 3074.500;  201.875;    0.000
940.500; 2812.500;  176.875;    0.000
940.672; 2788.500;  190.875;    0.000
940.843; 2714.500;  143.875;    0.000
941.015; 2787.500;  189.875;    0.000
941.187; 2720.500;  172.875;    0.000
941.359; 2773.500;  175.875;    0.000
941.531; 2585.500;  154.875;    0.000
941.702; 2688.500;  183.875;    0.000
941.874; 2621.500;  140.875;    0.000
942.046; 2613.500;  177.875;    0.000
942.217; 2550.500;  147.875;    0.000
942.389; 2480.500;  196.875;    0.000
942.560; 2461.500;  163.875;    0.000
942.732; 2458.500;  187.875;    0.000
942.904; 2492.500;  226.875;    0.000
943.075; 2350.500;  159.875;    0.000
943.247; 2265.500;  209.875;    0.000
943.418; 2344.500;  167.875;    0.000
943.589; 2410.500;  195.875;    0.000
943.761; 2397.500;  190.875;    0.000
943.932; 2412.500;  187.875;    0.000
944.104; 2338.500;  194.875;    0.000
944.275; 2291.500;  177.875;    0.000
944.446; 2282.500;  155.875;    0.000
944.617; 2254.500;  176.875;    0.000
944.789; 2305.500;  171.875;    0.000
944.960; 2178.500;  172.875;    0.000
945.131; 2205.500;  158.875;    0.000
945.302; 2264.500;  201.875;    0.000
945.473; 2158.500;  141.875;    0.000
945.645; 2286.500;  197.875;    0.000
945.816; 2258.500;  165.875;    0.000
945.987; 2180.500;  190.875;    0.000
946.158; 2259.500;  158.875;    0.000
946.329; 2266.500;  160.875;    0.000
946.500; 2222.500;  190.875;    0.000
946.671; 2210.500;  152.875;    0.000
946.842; 2177.500;  182.875;    0.000
947.013; 2145.500;  160.875;    0.000
947.183; 2242.500;  203.875;    0.000
947.354; 2170.500;  174.875;    0.000
947.525; 2178.500;  173.875;    0.000
947.696; 2118.500;  170.875;    0.000
947.867; 2138.500;  187.875;    0.000
948.037; 2112.500;  165.875;    0.000
948.208; 2064.500;  154.875;    0.000
948.379; 2174.500;  176.875;    0.000
948.550; 2116.500;  176.875;    0.000
948.720; 2106.500;  169.875;    0.000
948.891; 2185.500;  216.875;    0.000
949.061; 2147.500;  200.875;    0.000
949.232; 2070.500;  163.875;    0.000
949.403; 2041.500;  157.875;    0.000
949.573; 1972.500;  158.875;    0.000
949.744; 2096.500;  213.875;    0.000
949.914; 2027.500;  177.875;    0.000
950.085; 2082.500;  195.875;    0.000
950.255; 2044.500;  166.875;    0.000
950.425; 2099.500;  196.875;    0.000
950.596; 2001.500;  176.875;    0.000
950.766; 2081.500;  228.875;    0.000
950.936; 2018.500;  185.875;    0.000
951.107; 1977.500;  178.875;    0.000
951.277; 2021.500;  227.875;    0.000
951.447; 2030.500;  219.875;    0.000
951.617; 1986.500;  219.875;    0.000
951.788; 1976.500;  198.875;    0.000
951.958; 2008.500;  202.875;    0.000
952.128; 2030.500;  197.875;    0.000
952.298; 2054.500;  211.875;    0.000
952.468; 1916.500;  233.875;    0.000
952.638; 2033.500;  222.875;    0.000
952.808; 1977.500;  210.875;    0.000
952.978; 1890.500;  216.875;    0.000
953.148; 2026.500;  203.875;    0.000
953.318; 2129.500;  212.875;    0.000
953.488; 1920.500;  156.875;    0.000
953.658; 2000.500;  226.875;    0.000
953.828; 1960.500;  223.875;    0.000
953.998; 1938.500;  209.875;    0.000
954.167; 1990.500;  203.875;    0.000
954.337; 1901.500;  209.875;    0.000
954.507; 1983.500;  252.875;    0.000
954.677; 1927.500;  207.875;    0.000
954.846; 1934.500;  240.875;    0.000
955.016; 1914.500;  197.875;    0.000
955.186; 1966.500;  208.875;    0.000
955.355; 1977.500;  243.875;    0.000
955.525; 1899.500;  211.875;    0.000
955.695; 1944.500;  187.875;    0.000
955.864; 1890.500;  204.875;    0.000
956.034; 1880.500;  199.875;    0.000
956.203; 1974.500;  257.875;    0.000
956.373; 1781.500;  193.875;    0.000
956.542; 1837.500;  187.875;    0.000
956.711; 1912.500;  259.875;    0.000
956.881; 1901.500;  227.875;    0.000
957.050; 1918.500;  260.875;    0.000
957.220; 1848.500;  246.875;    0.000
957.389; 1884.500;  211.875;    0.000
957.558; 1887.500;  197.875;    0.000
957.727; 1748.500;  227.875;    0.000
957.897; 1756.500;  219.875;    0.000
958.066; 1803.500;  180.875;    0.000
958.235; 1843.500;  179.875;    0.000
958.404; 1799.500;  194.875;    0.000
958.573; 1757.500;  235.875;    0.000
958.743; 1807.500;  191.875;    0.000
958.912; 1839.500;  181.875;    0.000
959.081; 1773.500;  193.875;    0.000
959.250; 1791.500;  180.875;    0.000
959.419; 1844.500;  205.875;    0.000
959.588; 1821.500;  241.875;    0.000
959.757; 1833.500;  202.875;    0.000
959.926; 1736.500;  212.875;    0.000
960.094; 1769.500;  199.875;    0.000
960.263; 1851.500;  226.875;    0.000
960.432; 1784.500;  188.875;    0.000
960.601; 1714.500;  200.875;    0.000
960.770; 1689.500;  197.875;    0.000
960.939; 1786.500;  195.875;    0.000
961.107; 1755.500;  198.875;    0.000
961.276; 1735.500;  151.875;    0.000
961.445; 1734.500;  227.875;    0.000
961.613; 1710.500;  186.875;    0.000
961.782; 1710.500;  187.875;    0.000
961.951; 1745.500;  194.875;    0.000
962.119; 1781.500;  227.875;    0.000
962.288; 1744.500;  181.875;    0.000
962.456; 1714.500;  206.875;    0.000
962.625; 1778.500;  181.875;    0.000
962.793; 1742.500;  216.875;    0.000
962.962; 1742.500;  237.875;    0.000
963.130; 1761.500;  194.875;    0.000
963.298; 1770.500;  190.875;    0.000
963.467; 1728.500;  204.875;    0.000
963.635; 1754.500;  159.875;    0.000
963.803; 1754.500;  208.875;    0.000
963.972; 1716.500;  206.875;    0.000
964.140; 1802.500;  178.875;    0.000
964.308; 1753.500;  185.875;    0.000
964.477; 1704.500;  189.875;    0.000
964.645; 1812.500;  201.875;    0.000
964.813; 1739.500;  200.875;    0.000
964.981; 1684.500;  160.875;    0.000
965.149; 1786.500;  230.875;    0.000
965.317; 1747.500;  214.875;    0.000
965.485; 1767.500;  190.875;    0.000
965.653; 1781.500;  239.875;    0.000
965.821; 1793.500;  211.875;    0.000
965.989; 1684.500;  216.875;    0.000
966.157; 1717.500;  198.875;    0.000
966.325; 1685.500;  200.875;    0.000
966.493; 1736.500;  187.875;    0.000
966.661; 1742.500;  181.875;    0.000
966.829; 1761.500;  181.875;    0.000
966.996; 1750.500;  220.875;    0.000
967.164; 1736.500;  179.875;    0.000
967.332; 1773.500;  203.875;    0.000
967.500; 1778.500;  200.875;    0.000
967.667; 1774.500;  196.875;    0.000
967.835; 1722.500;  199.875;    0.000
968.003; 1741.500;  191.875;    0.000
968.170; 1758.500;  141.875;    0.000
968.338; 1744.500;  185.875;    0.000
968.505; 1692.500;  199.875;    0.000
968.673; 1698.500;  191.875;    0.000
968.841; 1732.500;  165.875;    0.000
969.008; 1674.500;  192.875;    0.000
969.175; 1681.500;  172.875;    0.000
969.343; 1669.500;  191.875;    0.000
969.510; 1704.500;  199.875;    0.000
969.678; 1741.500;  156.875;    0.000
969.845; 1714.500;  191.875;    0.000
970.012; 1714.500;  205.875;    0.000
970.180; 1694.500;  201.875;    0.000
970.347; 1733.500;  229.875;    0.000
970.514; 1710.500;  207.875;    0.000
970.681; 1652.500;  169.875;    0.000
970.849; 1664.500;  196.875;    0.000
971.016; 1742.500;  212.875;    0.000
971.183; 1706.500;  178.875;    0.000
971.350; 1676.500;  193.875;    0.000
971.517; 1657.500;  190.875;    0.000
971.684; 1689.500;  261.875;    0.000
971.851; 1670.500;  203.875;    0.000
972.018; 1684.500;  184.875;    0.000
972.185; 1659.500;  226.875;    0.000
972.352; 1738.500;  180.875;    0.000
972.519; 1718.500;  226.875;    0.000
972.686; 1684.500;  233.875;    0.000
972.853; 1637.500;  173.875;    0.000
973.020; 1691.500;  208.875;    0.000
973.186; 1704.500;  173.875;    0.000
973.353; 1618.500;  218.875;    0.000
973.520; 1697.500;  218.875;    0.000
973.687; 1664.500;  176.875;    0.000
973.853; 1661.500;  203.875;    0.000
974.020; 1681.500;  196.875;    0.000
974.187; 1690.500;  188.875;    0.000
974.353; 1612.500;  230.875;    0.000
974.520; 1611.500;  195.875;    0.000
974.687; 1642.500;  209.875;    0.000
974.853; 1660.500;  189.875;    0.000
975.020; 1662.500;  179.875;    0.000
975.186; 1629.500;  204.875;    0.000
975.353; 1553.500;  201.875;    0.000
975.519; 1632.500;  200.875;    0.000
975.685; 1583.500;  176.875;    0.000
975.852; 1600.500;  197.875;    0.000
976.018; 1646.500;  201.875;    0.000
976.184; 1596.500;  176.875;    0.000
976.351; 1633.500;  221.875;    0.000
976.517; 1713.500;  203.875;    0.000
976.683; 1659.500;  236.875;    0.000
976.849; 1574.500;  190.875;    0.000
977.016; 1577.500;  173.875;    0.000
977.182; 1592.500;  200.875;    0.000
977.348; 1578.500;  179.875;    0.000
977.514; 1569.500;  159.875;    0.000
977.680; 1590.500;  200.875;    0.000
977.846; 1588.500;  206.875;    0.000
978.012; 1555.500;  219.875;    0.000
978.178; 1500.500;  229.875;    0.000
978.344; 1518.500;  195.875;    0.000
978.510; 1590.500;  209.875;    0.000
978.676; 1487.500;  190.875;    0.000
978.842; 1565.500;  195.875;    0.000
979.008; 1559.500;  186.875;    0.000
979.174; 1548.500;  185.875;    0.000
979.340; 1544.500;  198.875;    0.000
979.505; 1591.500;  214.875;    0.000
979.671; 1588.500;  159.875;    0.000
979.837; 1537.500;  202.875;    0.000
980.003; 1571.500;  190.875;    0.000
980.168; 1565.500;  216.875;    0.000
980.334; 1569.500;  194.875;    0.000
980.499; 1601.500;  229.875;    0.000
980.665; 1626.500;  240.875;    0.000
980.831; 1641.500;  202.875;    0.000
980.996; 1562.500;  179.875;    0.000
981.162; 1610.500;  212.875;    0.000
981.327; 1532.500;  202.875;    0.000
981.493; 1620.500;  219.875;    0.000
981.658; 1608.500;  218.875;    0.000
981.823; 1604.500;  207.875;    0.000
981.989; 1656.500;  207.875;    0.000
982.154; 1559.500;  224.875;    0.000
982.319; 1625.500;  217.875;    0.000
982.485; 1629.500;  266.875;    0.000
982.650; 1675.500;  245.875;    0.000
982.815; 1585.500;  229.875;    0.000
982.980; 1599.500;  203.875;    0.000
983.146; 1518.500;  242.875;    0.000
983.311; 1526.500;  144.875;    0.000
983.476; 1511.500;  222.875;    0.000
983.641; 1566.500;  206.875;    0.000
983.806; 1603.500;  217.875;    0.000
983.971; 1554.500;  254.875;    0.000
984.136; 1632.500;  217.875;    0.000
984.301; 1569.500;  202.875;    0.000
984.466; 1606.500;  206.875;    0.000
984.631; 1541.500;  224.875;    0.000
984.796; 1502.500;  218.875;    0.000
984.961; 1595.500;  202.875;    0.000
985.126; 1588.500;  238.875;    0.000
985.291; 1608.500;  220.875;    0.000
985.455; 1530.500;  223.875;    0.000
985.620; 1554.500;  218.875;    0.000
985.785; 1533.500;  228.875;    0.000
985.950; 1543.500;  212.875;    0.000
986.114; 1495.500;  215.875;    0.000
986.279; 1534.500;  243.875;    0.000
986.444; 1454.500;  222.875;    0.000
986.608; 1592.500;  243.875;    0.000
986.773; 1587.500;  213.875;    0.000
986.937; 1665.500;  267.875;    0.000
987.102; 1610.500;  235.875;    0.000
987.266; 1510.500;  210.875;    0.000
987.431; 1567.500;  239.875;    0.000
987.595; 1607.500;  230.875;    0.000
987.760; 1492.500;  229.875;    0.000
987.924; 1512.500;  217.875;    0.000
988.088; 1526.500;  210.875;    0.000
988.253; 1551.500;  215.875;    0.000
988.417; 1549.500;  186.875;    0.000
988.581; 1491.500;  214.875;    0.000
988.746; 1467.500;  212.875;    0.000
988.910; 1532.500;  192.875;    0.000
989.074; 1523.500;  195.875;    0.000
989.238; 1576.500;  226.875;    0.000
989.402; 1571.500;  214.875;    0.000
989.566; 1563.500;  201.875;    0.000
989.731; 1475.500;  199.875;    0.000
989.895; 1469.500;  205.875;    0.000
990.059; 1471.500;  204.875;    0.000
990.223; 1465.500;  182.875;    0.000
990.387; 1491.500;  220.875;    0.000
990.551; 1517.500;  199.875;    0.000
990.714; 1472.500;  202.875;    0.000
990.878; 1511.500;  201.875;    0.000
991.042; 1488.500;  202.875;    0.000
991.206; 1503.500;  215.875;    0.000
991.370; 1516.500;  217.875;    0.000
991.534; 1529.500;  152.875;    0.000
991.697; 1491.500;  194.875;    0.000
991.861; 1477.500;  208.875;    0.000
992.025; 1515.500;  209.875;    0.000
992.188; 1479.500;  182.875;    0.000
992.352; 1470.500;  181.875;    0.000
992.516; 1507.500;  192.875;    0.000
992.679; 1442.500;  183.875;    0.000
992.843; 1541.500;  156.875;    0.000
993.006; 1513.500;  192.875;    0.000
993.170; 1498.500;  172.875;    0.000
993.333; 1489.500;  195.875;    0.000
993.497; 1548.500;  185.875;    0.000
993.660; 1470.500;  155.875;    0.000
993.824; 1540.500;  199.875;    0.000
993.987; 1536.500;  211.875;    0.000
994.150; 1448.500;  173.875;    0.000
994.314; 1499.500;  202.875;    0.000
994.477; 1486.500;  171.875;    0.000
994.640; 1519.500;  191.875;    0.000
994.803; 1557.500;  203.875;    0.000
994.967; 1537.500;  198.875;    0.000
995.130; 1463.500;  192.875;    0.000
995.293; 1442.500;  211.875;    0.000
995.456; 1483.500;  207.875;    0.000
995.619; 1464.500;  207.875;    0.000
995.782; 1478.500;  186.875;    0.000
995.945; 1441.500;  203.875;    0.000
996.108; 1486.500;  195.875;    0.000
996.271; 1499.500;  195.875;    0.000
996.434; 1477.500;  179.875;    0.000
996.597; 1504.500;  170.875;    0.000
996.760; 1450.500;  161.875;    0.000
996.923; 1410.500;  177.875;    0.000
997.086; 1431.500;  199.875;    0.000
997.248; 1506.500;  225.875;    0.000
997.411; 1483.500;  194.875;    0.000
997.574; 1494.500;  204.875;    0.000
997.737; 1464.500;  236.875;    0.000
997.899; 1513.500;  191.875;    0.000
998.062; 1400.500;  178.875;    0.000
998.225; 1441.500;  176.875;    0.000
998.387; 1412.500;  203.875;    0.000
998.550; 1445.500;  155.875;    0.000
998.712; 1458.500;  169.875;    0.000
998.875; 1425.500;  234.875;    0.000
999.037; 1416.500;  211.875;    0.000
999.200; 1429.500;  185.875;    0.000
999.362; 1474.500;  199.875;    0.000
999.525; 1488.500;  234.875;    0.000
999.687; 1468.500;  194.875;    0.000
999.849; 1407.500;  223.875;    0.000
1000.012; 1418.500;  222.875;    0.000
1000.174; 1392.500;  187.875;    0.000
1000.336; 1471.500;  204.875;    0.000
1000.499; 1473.500;  240.875;    0.000
1000.661; 1493.500;  215.875;    0.000
1000.823; 1470.500;  206.875;    0.000
1000.985; 1443.500;  197.875;    0.000
1001.147; 1611.500;  221.875;    0.000
1001.309; 1484.500;  207.875;    0.000
1001.471; 1484.500;  227.875;    0.000
1001.633; 1484.500;  208.875;    0.000
1001.796; 1463.500;  158.875;    0.000
1001.958; 1575.500;  210.875;    0.000
1002.119; 1555.500;  223.875;    0.000
1002.281; 1565.500;  211.875;    0.000
1002.443; 1647.500;  227.875;    0.000
1002.605; 1647.500;  186.875;    0.000
1002.767; 1741.500;  242.875;    0.000
1002.929; 1801.500;  219.875;    0.000
1003.091; 1830.500;  191.875;    0.000
1003.252; 1935.500;  233.875;    0.000
1003.414; 1979.500;  214.875;    0.000
1003.576; 1928.500;  186.875;    0.000
1003.738; 2062.500;  175.875;    0.000
1003.899; 2234.500;  237.875;    0.000
1004.061; 2237.500;  220.875;    0.000
1004.222; 2307.500;  186.875;    0.000
1004.384; 2407.500;  216.875;    0.000
1004.546; 2452.500;  203.875;    0.000
1004.707; 2516.500;  216.875;    0.000
1004.869; 2512.500;  219.875;    0.000
1005.030; 2529.500;  188.875;    0.000
1005.191; 2489.500;  223.875;    0.000
1005.353; 2481.500;  227.875;    0.000
1005.514; 2345.500;  235.875;    0.000
1005.675; 2245.500;  201.875;    0.000
1005.837; 2132.500;  199.875;    0.000
1005.998; 2054.500;  219.875;    0.000
1006.159; 2022.500;  235.875;    0.000
1006.321; 2150.500;  199.875;    0.000
1006.482; 2112.500;  222.875;    0.000
1006.643; 2287.500;  195.875;    0.000
1006.804; 2188.500;  205.875;    0.000
1006.965; 2380.500;  199.875;    0.000
1007.126; 2296.500;  231.875;    0.000
1007.287; 2399.500;  208.875;    0.000
1007.448; 2319.500;  205.875;    0.000
1007.609; 2359.500;  256.875;    0.000
1007.770; 2251.500;  231.875;    0.000
1007.931; 2315.500;  223.875;    0.000
1008.092; 2195.500;  217.875;    0.000
1008.253; 2317.500;  236.875;    0.000
1008.414; 2241.500;  197.875;    0.000
1008.575; 2459.500;  233.875;    0.000
1008.736; 2423.500;  193.875;    0.000
1008.896; 2367.500;  238.875;    0.000
1009.057; 2398.500;  245.875;    0.000
1009.218; 2298.500;  240.875;    0.000
1009.379; 2299.500;  210.875;    0.000
1009.539; 2329.500;  234.875;    0.000
1009.700; 2409.500;  228.875;    0.000
1009.860; 2412.500;  238.875;    0.000
1010.021; 2476.500;  199.875;    0.000
1010.182; 2295.500;  214.875;    0.000
1010.342; 2376.500;  216.875;    0.000
1010.503; 2406.500;  207.875;    0.000
1010.663; 2461.500;  258.875;    0.000
1010.823; 2521.500;  243.875;    0.000
1010.984; 2625.500;  268.875;    0.000
1011.144; 2593.500;  217.875;    0.000
1011.305; 2642.500;  237.875;    0.000
1011.465; 2770.500;  216.875;    0.000
1011.625; 2730.500;  195.875;    0.000
1011.785; 2836.500;  201.875;    0.000
1011.946; 2828.500;  200.875;    0.000
1012.106; 2758.500;  206.875;    0.000
1012.266; 2716.500;  227.875;    0.000
1012.426; 2748.500;  221.875;    0.000
1012.586; 2743.500;  198.875;    0.000
1012.746; 2819.500;  215.875;    0.000
1012.906; 2722.500;  226.875;    0.000
1013.066; 2761.500;  221.875;    0.000
1013.226; 2705.500;  202.875;    0.000
1013.386; 2729.500;  210.875;    0.000
1013.546; 2639.500;  243.875;    0.000
1013.706; 2528.500;  200.875;    0.000
1013.866; 2654.500;  232.875;    0.000
1014.026; 2704.500;  206.875;    0.000
1014.186; 2744.500;  222.875;    0.000
1014.346; 2711.500;  233.875;    0.000
1014.505; 2837.500;  241.875;    0.000
1014.665; 2850.500;  225.875;    0.000
1014.825; 2637.500;  196.875;    0.000
1014.985; 2693.500;  234.875;    0.000
1015.144; 2901.500;  232.875;    0.000
1015.304; 3020.500;  214.875;    0.000
1015.464; 2876.500;  210.875;    0.000
1015.623; 2878.500;  219.875;    0.000
1015.783; 3118.500;  216.875;    0.000
1015.942; 3406.500;  267.875;    0.000
1016.102; 3171.500;  234.875;    0.000
1016.261; 3209.500;  230.875;    0.000
1016.420; 3600.500;  225.875;    0.000
1016.580; 3856.500;  205.875;    0.000
1016.739; 3644.500;  199.875;    0.000
1016.899; 3593.500;  218.875;    0.000
1017.058; 3964.500;  204.875;    0.000
1017.217; 3963.500;  196.875;    0.000
1017.376; 3841.500;  204.875;    0.000
1017.536; 3533.500;  195.875;    0.000
1017.695; 3630.500;  216.875;    0.000
1017.854; 3635.500;  235.875;    0.000
1018.013; 3451.500;  189.875;    0.000
1018.172; 3384.500;  217.875;    0.000
1018.331; 3324.500;  215.875;    0.000
1018.490; 3474.500;  233.875;    0.000
1018.649; 3689.500;  211.875;    0.000
1018.808; 3807.500;  196.875;    0.000
1018.967; 3863.500;  222.875;    0.000
1019.126; 3837.500;  221.875;    0.000
1019.285; 3868.500;  212.875;    0.000
1019.444; 3904.500;  231.875;    0.000
1019.603; 3767.500;  227.875;    0.000
1019.762; 3545.500;  192.875;    0.000
1019.921; 3604.500;  240.875;    0.000
1020.079; 3857.500;  209.875;    0.000
1020.238; 4123.500;  211.875;    0.000
1020.397; 3943.500;  253.875;    0.000
1020.555; 3654.500;  179.875;    0.000
1020.714; 3649.500;  225.875;    0.000
1020.873; 4198.500;  232.875;    0.000
1021.031; 4119.500;  245.875;    0.000
1021.190; 3807.500;  230.875;    0.000
1021.348; 3704.500;  221.875;    0.000
1021.507; 4056.500;  212.875;    0.000
1021.665; 4480.500;  211.875;    0.000
1021.824; 4297.500;  206.875;    0.000
1021.982; 3843.500;  218.875;    0.000
1022.141; 3811.500;  232.875;    0.000
1022.299; 4237.500;  193.875;    0.000
1022.457; 4555.500;  217.875;    0.000
1022.616; 4250.500;  248.875;    0.000
1022.774; 3669.500;  222.875;    0.000
1022.932; 3957.500;  211.875;    0.000
1023.090; 4312.500;  288.875;    0.000
1023.249; 4619.500;  214.875;    0.000
1023.407; 4314.500;  233.875;    0.000
1023.565; 3736.500;  208.875;    0.000
1023.723; 3988.500;  217.875;    0.000
1023.881; 4537.500;  235.875;    0.000
1024.039; 4549.500;  228.875;    0.000
1024.197; 4204.500;  216.875;    0.000
1024.355; 3843.500;  251.875;    0.000
1024.513; 4175.500;  232.875;    0.000
1024.671; 4552.500;  217.875;    0.000
1024.829; 4728.500;  255.875;    0.000
1024.987; 4409.500;  203.875;    0.000
1025.145; 3945.500;  239.875;    0.000
1025.302; 4127.500;  209.875;    0.000
1025.460; 4605.500;  224.875;    0.000
1025.618; 4745.500;  193.875;    0.000
1025.776; 4302.500;  209.875;    0.000
1025.933; 3934.500;  229.875;    0.000
1026.091; 4207.500;  218.875;    0.000
1026.249; 4662.500;  269.875;    0.000
1026.406; 4928.500;  264.875;    0.000
1026.564; 4552.500;  230.875;    0.000
1026.721; 4224.500;  198.875;    0.000
1026.879; 4101.500;  216.875;    0.000
1027.036; 4594.500;  226.875;    0.000
1027.194; 4905.500;  245.875;    0.000
1027.351; 4793.500;  236.875;    0.000
1027.509; 4447.500;  262.875;    0.000
1027.666; 4074.500;  227.875;    0.000
1027.823; 4596.500;  214.875;    0.000
1027.981; 4800.500;  258.875;    0.000
1028.138; 5010.500;  239.875;    0.000
1028.295; 4657.500;  226.875;    0.000
1028.452; 4252.500;  225.875;    0.000
1028.609; 4315.500;  276.875;    0.000
1028.767; 4849.500;  228.875;    0.000
1028.924; 5054.500;  213.875;    0.000
1029.081; 4682.500;  232.875;    0.000
1029.238; 4707.500;  250.875;    0.000
1029.395; 4381.500;  255.875;    0.000
1029.552; 4664.500;  217.875;    0.000
1029.709; 5214.500;  210.875;    0.000
1029.866; 5216.500;  243.875;    0.000
1030.023; 4905.500;  202.875;    0.000
1030.180; 4256.500;  233.875;    0.000
1030.337; 4375.500;  234.875;    0.000
1030.494; 4952.500;  222.875;    0.000
1030.650; 5063.500;  241.875;    0.000
1030.807; 5434.500;  206.875;    0.000
1030.964; 4799.500;  206.875;    0.000
1031.121; 4569.500;  228.875;    0.000
1031.277; 4491.500;  228.875;    0.000
1031.434; 4865.500;  234.875;    0.000
1031.591; 5366.500;  250.875;    0.000
1031.747; 5323.500;  246.875;    0.000
1031.904; 5150.500;  201.875;    0.000
1032.060; 4763.500;  237.875;    0.000
1032.217; 4742.500;  232.875;    0.000
1032.373; 5264.500;  210.875;    0.000
1032.530; 5471.500;  246.875;    0.000
1032.686; 5868.500;  196.875;    0.000
1032.843; 5997.500;  212.875;    0.000
1032.999; 5468.500;  243.875;    0.000
1033.155; 5495.500;  234.875;    0.000
1033.312; 5575.500;  246.875;    0.000
1033.468; 6543.500;  233.875;    0.000
1033.624; 7252.500;  237.875;    0.000
1033.780; 7449.500;  263.875;    0.000
1033.937; 7503.500;  214.875;    0.000
1034.093; 6769.500;  230.875;    0.000
1034.249; 6867.500;  206.875;    0.000
1034.405; 6849.500;  238.875;    0.000
1034.561; 7584.500;  231.875;    0.000
1034.717; 8107.500;  228.875;    0.000
1034.873; 7848.500;  262.875;    0.000
1035.029; 7813.500;  252.875;    0.000
1035.185; 7370.500;  232.875;    0.000
1035.341; 6969.500;  245.875;    0.000
1035.497; 7767.500;  253.875;    0.000
1035.653; 8067.500;  252.875;    0.000
1035.809; 8792.500;  245.875;    0.000
1035.964; 9286.500;  229.875;    0.000
1036.120; 8828.500;  226.875;    0.000
1036.276; 8763.500;  236.875;    0.000
1036.432; 8537.500;  203.875;    0.000
1036.587; 7669.500;  228.875;    0.000
1036.743; 8496.500;  240.875;    0.000
1036.899; 9181.500;  220.875;    0.000
1037.054; 9509.500;  153.875;    0.000
1037.210;10336.500;  219.875;    0.000
1037.365;10490.500;  229.875;    0.000
1037.521; 9531.500;  257.875;    0.000
1037.676; 9476.500;  211.875;    0.000
1037.832; 8948.500;  234.875;    0.000
1037.987; 8807.500;  235.875;    0.000
1038.143; 9358.500;  176.875;    0.000
1038.298;10487.500;  262.875;    0.000
1038.453;10867.500;  209.875;    0.000
1038.609;11411.500;  230.875;    0.000
1038.764;11927.500;  253.875;    0.000
1038.919;10244.500;  195.875;    0.000
1039.074;10419.500;  234.875;    0.000
1039.229; 9807.500;  234.875;    0.000
1039.385; 9799.500;  266.875;    0.000
1039.540;10305.500;  252.875;    0.000
1039.695;11197.500;  231.875;    0.000
1039.850;12237.500;  208.875;    0.000
1040.005;13099.500;  232.875;    0.000
1040.160;13597.500;  214.875;    0.000
1040.315;13070.500;  221.875;    0.000
1040.470;11998.500;  207.875;    0.000
1040.625;11478.500;  249.875;    0.000
1040.780;11729.500;  251.875;    0.000
1040.935;11472.500;  254.875;    0.000
1041.089;12290.500;  210.875;    0.000
1041.244;13712.500;  225.875;    0.000
1041.399;14342.500;  208.875;    0.000
1041.554;14780.500;  249.875;    0.000
1041.708;16273.500;  254.875;    0.000
1041.863;15834.500;  248.875;    0.000
1042.018;14923.500;  280.875;    0.000
1042.172;14926.500;  233.875;    0.000
1042.327;14317.500;  256.875;    0.000
1042.481;14034.500;  210.875;    0.000
1042.636;14734.500;  229.875;    0.000
1042.791;15153.500;  215.875;    0.000
1042.945;17712.500;  256.875;    0.000
1043.099;19244.500;  251.875;    0.000
1043.254;18716.500;  204.875;    0.000
1043.408;19156.500;  278.875;    0.000
1043.563;20366.500;  211.875;    0.000
1043.717;19053.500;  259.875;    0.000
1043.871;17891.500;  233.875;    0.000
1044.025;18061.500;  221.875;    0.000
1044.180;17701.500;  208.875;    0.000
1044.334;17820.500;  255.875;    0.000
1044.488;18670.500;  269.875;    0.000
1044.642;19663.500;  228.875;    0.000
1044.796;21976.500;  232.875;    0.000
1044.950;24520.500;  249.875;    0.000
1045.104;26363.500;  205.875;    0.000
1045.258;26582.500;  206.875;    0.000
1045.412;25777.500;  251.875;    0.000
1045.566;25097.500;  249.875;    0.000
1045.720;24153.500;  206.875;    0.000
1045.874;22859.500;  232.875;    0.000
1046.028;21106.500;  266.875;    0.000
1046.182;21042.500;  217.875;    0.000
1046.336;21224.500;  216.875;    0.000
1046.489;21304.500;  236.875;    0.000
1046.643;22371.500;  253.875;    0.000
1046.797;24954.500;  244.875;    0.000
1046.951;25812.500;  234.875;    0.000
1047.104;26371.500;  281.875;    0.000
1047.258;27937.500;  253.875;    0.000
1047.411;29425.500;  228.875;    0.000
1047.565;28850.500;  273.875;    0.000
1047.719;27453.500;  232.875;    0.000
1047.872;27025.500;  230.875;    0.000
1048.026;26316.500;  282.875;    0.000
1048.179;25030.500;  225.875;    0.000
1048.332;23940.500;  234.875;    0.000
1048.486;24466.500;  223.875;    0.000
1048.639;25516.500;  248.875;    0.000
1048.792;25015.500;  244.875;    0.000
1048.946;27340.500;  210.875;    0.000
1049.099;29553.500;  242.875;    0.000
1049.252;31472.500;  269.875;    0.000
1049.406;29513.500;  285.875;    0.000
1049.559;30489.500;  277.875;    0.000
1049.712;33513.500;  254.875;    0.000
1049.865;36848.500;  252.875;    0.000
1050.018;34515.500;  270.875;    0.000
1050.171;30848.500;  230.875;    0.000
1050.324;28998.500;  268.875;    0.000
1050.477;29494.500;  262.875;    0.000
1050.630;33197.500;  243.875;    0.000
1050.783;34727.500;  216.875;    0.000
1050.936;31971.500;  250.875;    0.000
1051.089;30034.500;  247.875;    0.000
1051.242;31614.500;  300.875;    0.000
1051.394;35828.500;  233.875;    0.000
1051.547;37461.500;  263.875;    0.000
1051.700;34359.500;  238.875;    0.000
1051.853;33784.500;  299.875;    0.000
1052.005;35348.500;  275.875;    0.000
1052.158;39229.500;  304.875;    0.000
1052.311;43676.500;  251.875;    0.000
1052.463;42619.500;  276.875;    0.000
1052.616;38217.500;  271.875;    0.000
1052.768;33495.500;  285.875;    0.000
1052.921;32810.500;  261.875;    0.000
1053.073;36067.500;  333.875;    0.000
1053.226;40267.500;  271.875;    0.000
1053.378;46476.500;  309.875;    0.000
1053.531;48495.500;  266.875;    0.000
1053.683;46148.500;  278.875;    0.000
1053.835;41179.500;  274.875;    0.000
1053.988;30231.500;  287.875;    0.000
1054.140; 5395.500;  350.875;    0.000
1054.292; 1399.500;  338.875;    0.000
1054.444; 1073.500;  270.875;    0.000
1054.596;  983.500;  294.875;    0.000
1054.749;  933.500;  285.875;    0.000
1054.901;  857.500;  254.875;    0.000
1055.053;  819.500;  320.875;    0.000
1055.205;  750.500;  284.875;    0.000
1055.357;  799.500;  298.875;    0.000
1055.509;  692.500;  304.875;    0.000
1055.661;  778.500;  350.875;    0.000
1055.813;  665.500;  289.875;    0.000
1055.965;  686.500;  277.875;    0.000
1056.116;  657.500;  288.875;    0.000
1056.268;  679.500;  311.875;    0.000
1056.420;  636.500;  308.875;    0.000

