
Integration time [ms]:   0.300
Averaging Nr. [scans]: 1
Smoothing Nr. [pixels]: 0
Data measured with spectrometer [name]: NIR
Wave   ;Sample   ;Dark     ;Reference
[nm]   ;[counts] ;[counts] ;[counts] 

691.496;  -50.625;  155.525;    0.000
691.696;  -43.625;  186.525;    0.000
691.896;  -53.625;  113.525;    0.000
692.096;  -20.625;  169.525;    0.000
692.296; -130.625;  119.525;    0.000
692.496;    2.375;  182.525;    0.000
692.695;  -65.625;  119.525;    0.000
692.895;  -14.625;  183.525;    0.000
693.095;  -58.625;  119.525;    0.000
693.295;  -13.625;  156.525;    0.000
693.495;  -30.625;  145.525;    0.000
693.695;  -40.625;  144.525;    0.000
693.894;  -23.625;  174.525;    0.000
694.094;  -47.625;  148.525;    0.000
694.294;  -74.625;  114.525;    0.000
694.494;  200.375;  137.525;    0.000
694.693; 2427.375;  112.525;    0.000
694.893; 2728.375;   85.525;    0.000
695.093; 2614.375;  152.525;    0.000
695.293; 2666.375;  159.525;    0.000
695.492; 2710.375;  131.525;    0.000
695.692; 2701.375;  134.525;    0.000
695.891; 2746.375;  161.525;    0.000
696.091; 2825.375;  180.525;    0.000
696.291; 2755.375;  120.525;    0.000
696.490; 2701.375;  146.525;    0.000
696.690; 2782.375;  145.525;    0.000
696.889; 2791.375;  171.525;    0.000
697.089; 2814.375;   98.525;    0.000
697.288; 2823.375;  172.525;    0.000
697.488; 2872.375;  137.525;    0.000
697.687; 2763.375;  171.525;    0.000
697.887; 2759.375;  142.525;    0.000
698.086; 2885.375;  159.525;    0.000
698.286; 2845.375;  122.525;    0.000
698.485; 2794.375;  121.525;    0.000
698.684; 2873.375;   94.525;    0.000
698.884; 2815.375;  131.525;    0.000
699.083; 2708.375;  112.525;    0.000
699.282; 2822.375;  119.525;    0.000
699.482; 2749.375;  117.525;    0.000
699.681; 2870.375;  115.525;    0.000
699.880; 2897.375;  166.525;    0.000
700.080; 2932.375;  194.525;    0.000
700.279; 2855.375;   98.525;    0.000
700.478; 2928.375;  159.525;    0.000
700.677; 2877.375;  134.525;    0.000
700.877; 2936.375;  171.525;    0.000
701.076; 2928.375;  141.525;    0.000
701.275; 2887.375;  119.525;    0.000
701.474; 2936.375;  132.525;    0.000
701.673; 2826.375;  141.525;    0.000
701.872; 2860.375;  158.525;    0.000
702.071; 2774.375;  129.525;    0.000
702.271; 2987.375;  122.525;    0.000
702.470; 2898.375;  158.525;    0.000
702.669; 2901.375;  145.525;    0.000
702.868; 2902.375;  135.525;    0.000
703.067; 2891.375;  169.525;    0.000
703.266; 2997.375;  125.525;    0.000
703.465; 2997.375;  153.525;    0.000
703.664; 2912.375;  113.525;    0.000
703.863; 2969.375;  170.525;    0.000
704.062; 2945.375;  115.525;    0.000
704.260; 2928.375;  133.525;    0.000
704.459; 2930.375;  123.525;    0.000
704.658; 2962.375;  105.525;    0.000
704.857; 2926.375;  125.525;    0.000
705.056; 3010.375;  108.525;    0.000
705.255; 3044.375;  117.525;    0.000
705.454; 2979.375;  126.525;    0.000
705.652; 2957.375;  137.525;    0.000
705.851; 2931.375;   95.525;    0.000
706.050; 2997.375;  120.525;    0.000
706.249; 2948.375;   81.525;    0.000
706.447; 2981.375;  105.525;    0.000
706.646; 2994.375;  107.525;    0.000
706.845; 2965.375;  104.525;    0.000
707.043; 3032.375;  136.525;    0.000
707.242; 3018.375;   89.525;    0.000
707.441; 3090.375;  147.525;    0.000
707.639; 3031.375;  156.525;    0.000
707.838; 3088.375;  114.525;    0.000
708.037; 3016.375;  100.525;    0.000
708.235; 2991.375;  103.525;    0.000
708.434; 3059.375;  102.525;    0.000
708.632; 3027.375;  100.525;    0.000
708.831; 3112.375;  121.525;    0.000
709.029; 3004.375;  102.525;    0.000
709.228; 3017.375;   88.525;    0.000
709.426; 3111.375;  135.525;    0.000
709.625; 3149.375;  128.525;    0.000
709.823; 3090.375;  123.525;    0.000
710.022; 3172.375;  137.525;    0.000
710.220; 3152.375;  134.525;    0.000
710.418; 3129.375;  122.525;    0.000
710.617; 3062.375;   64.525;    0.000
710.815; 3237.375;   94.525;    0.000
711.013; 3240.375;  127.525;    0.000
711.212; 3170.375;  105.525;    0.000
711.410; 3246.375;  117.525;    0.000
711.608; 3223.375;  114.525;    0.000
711.807; 3096.375;  119.525;    0.000
712.005; 3288.375;   92.525;    0.000
712.203; 3153.375;   95.525;    0.000
712.401; 3209.375;  107.525;    0.000
712.599; 3175.375;  127.525;    0.000
712.798; 3192.375;  120.525;    0.000
712.996; 3248.375;   76.525;    0.000
713.194; 3304.375;  118.525;    0.000
713.392; 3272.375;   60.525;    0.000
713.590; 3285.375;   92.525;    0.000
713.788; 3332.375;  110.525;    0.000
713.986; 3346.375;  130.525;    0.000
714.184; 3352.375;   71.525;    0.000
714.382; 3316.375;   86.525;    0.000
714.580; 3338.375;   74.525;    0.000
714.778; 3452.375;  133.525;    0.000
714.976; 3453.375;   81.525;    0.000
715.174; 3586.375;  100.525;    0.000
715.372; 3634.375;  141.525;    0.000
715.570; 3847.375;   73.525;    0.000
715.768; 4004.375;  119.525;    0.000
715.966; 3972.375;   81.525;    0.000
716.164; 3893.375;  130.525;    0.000
716.362; 3885.375;  125.525;    0.000
716.560; 3837.375;  109.525;    0.000
716.758; 3834.375;   96.525;    0.000
716.955; 3740.375;   83.525;    0.000
717.153; 3698.375;   87.525;    0.000
717.351; 3658.375;  123.525;    0.000
717.549; 3628.375;  121.525;    0.000
717.746; 3711.375;  128.525;    0.000
717.944; 3622.375;  132.525;    0.000
718.142; 3599.375;  120.525;    0.000
718.340; 3673.375;   94.525;    0.000
718.537; 3638.375;   95.525;    0.000
718.735; 3659.375;  152.525;    0.000
718.933; 3591.375;  124.525;    0.000
719.130; 3591.375;  114.525;    0.000
719.328; 3550.375;   63.525;    0.000
719.525; 3599.375;  146.525;    0.000
719.723; 3597.375;   96.525;    0.000
719.920; 3681.375;  120.525;    0.000
720.118; 3505.375;   59.525;    0.000
720.316; 3561.375;  116.525;    0.000
720.513; 3601.375;  127.525;    0.000
720.711; 3538.375;  110.525;    0.000
720.908; 3574.375;   92.525;    0.000
721.105; 3664.375;  138.525;    0.000
721.303; 3558.375;   90.525;    0.000
721.500; 3604.375;  126.525;    0.000
721.698; 3563.375;  103.525;    0.000
721.895; 3483.375;  206.525;    0.000
722.092; 3546.375;   63.525;    0.000
722.290; 3743.375;  123.525;    0.000
722.487; 3632.375;  137.525;    0.000
722.684; 3485.375;  126.525;    0.000
722.882; 3631.375;  119.525;    0.000
723.079; 3535.375;  132.525;    0.000
723.276; 3569.375;   98.525;    0.000
723.473; 3522.375;   97.525;    0.000
723.671; 3558.375;   43.525;    0.000
723.868; 3647.375;  142.525;    0.000
724.065; 3669.375;  102.525;    0.000
724.262; 3640.375;  119.525;    0.000
724.459; 3605.375;   73.525;    0.000
724.656; 3639.375;  128.525;    0.000
724.854; 3615.375;  135.525;    0.000
725.051; 3692.375;   81.525;    0.000
725.248; 3688.375;   88.525;    0.000
725.445; 3690.375;  129.525;    0.000
725.642; 3715.375;   76.525;    0.000
725.839; 3677.375;  134.525;    0.000
726.036; 3588.375;  101.525;    0.000
726.233; 3746.375;   68.525;    0.000
726.430; 3693.375;  121.525;    0.000
726.627; 3651.375;  136.525;    0.000
726.824; 3616.375;   87.525;    0.000
727.021; 3756.375;  141.525;    0.000
727.218; 3675.375;   92.525;    0.000
727.414; 3664.375;  121.525;    0.000
727.611; 3683.375;  100.525;    0.000
727.808; 3714.375;  130.525;    0.000
728.005; 3574.375;   83.525;    0.000
728.202; 3729.375;  120.525;    0.000
728.399; 3728.375;   75.525;    0.000
728.595; 3837.375;  148.525;    0.000
728.792; 3729.375;   79.525;    0.000
728.989; 3801.375;   86.525;    0.000
729.186; 3784.375;   80.525;    0.000
729.382; 3614.375;   72.525;    0.000
729.579; 3744.375;  112.525;    0.000
729.776; 3702.375;  106.525;    0.000
729.972; 3816.375;   77.525;    0.000
730.169; 3762.375;  118.525;    0.000
730.366; 3741.375;   92.525;    0.000
730.562; 3742.375;  104.525;    0.000
730.759; 3783.375;   95.525;    0.000
730.955; 3780.375;   85.525;    0.000
731.152; 3733.375;   79.525;    0.000
731.348; 3766.375;   72.525;    0.000
731.545; 3847.375;   56.525;    0.000
731.741; 3847.375;  106.525;    0.000
731.938; 3816.375;  113.525;    0.000
732.134; 3810.375;  106.525;    0.000
732.331; 3789.375;   82.525;    0.000
732.527; 3785.375;   80.525;    0.000
732.724; 3757.375;   97.525;    0.000
732.920; 3880.375;  127.525;    0.000
733.116; 3803.375;  115.525;    0.000
733.313; 3846.375;  153.525;    0.000
733.509; 3882.375;   76.525;    0.000
733.705; 3924.375;  159.525;    0.000
733.902; 3918.375;   82.525;    0.000
734.098; 3769.375;   70.525;    0.000
734.294; 3857.375;  105.525;    0.000
734.490; 3881.375;  110.525;    0.000
734.687; 3900.375;  102.525;    0.000
734.883; 3885.375;   77.525;    0.000
735.079; 3922.375;   93.525;    0.000
735.275; 3822.375;  109.525;    0.000
735.471; 3876.375;   99.525;    0.000
735.667; 3890.375;  107.525;    0.000
735.863; 3888.375;   89.525;    0.000
736.060; 4001.375;  105.525;    0.000
736.256; 3889.375;  113.525;    0.000
736.452; 3866.375;   90.525;    0.000
736.648; 3861.375;   88.525;    0.000
736.844; 4010.375;  129.525;    0.000
737.040; 4056.375;  139.525;    0.000
737.236; 3958.375;  129.525;    0.000
737.432; 3953.375;   67.525;    0.000
737.628; 4024.375;  104.525;    0.000
737.824; 4021.375;  111.525;    0.000
738.019; 4052.375;  116.525;    0.000
738.215; 4063.375;  135.525;    0.000
738.411; 3876.375;  118.525;    0.000
738.607; 3982.375;   58.525;    0.000
738.803; 4004.375;   32.525;    0.000
738.999; 4138.375;  120.525;    0.000
739.195; 4159.375;   76.525;    0.000
739.390; 4092.375;  119.525;    0.000
739.586; 4025.375;   83.525;    0.000
739.782; 4110.375;  134.525;    0.000
739.978; 4163.375;  122.525;    0.000
740.173; 4217.375;   96.525;    0.000
740.369; 4198.375;   86.525;    0.000
740.565; 4260.375;  122.525;    0.000
740.760; 4217.375;   99.525;    0.000
740.956; 4223.375;  137.525;    0.000
741.152; 4176.375;  108.525;    0.000
741.347; 4285.375;   65.525;    0.000
741.543; 4368.375;   73.525;    0.000
741.738; 4420.375;  142.525;    0.000
741.934; 4575.375;  131.525;    0.000
742.129; 4820.375;   66.525;    0.000
742.325; 5238.375;  143.525;    0.000
742.520; 5756.375;  119.525;    0.000
742.716; 5422.375;  109.525;    0.000
742.911; 5193.375;   62.525;    0.000
743.107; 5156.375;  119.525;    0.000
743.302; 5125.375;   78.525;    0.000
743.498; 5154.375;  130.525;    0.000
743.693; 5187.375;   75.525;    0.000
743.888; 5412.375;  135.525;    0.000
744.084; 6158.375;  106.525;    0.000
744.279; 7444.375;  101.525;    0.000
744.474; 7479.375;   91.525;    0.000
744.670; 6735.375;  144.525;    0.000
744.865; 6144.375;  128.525;    0.000
745.060; 5951.375;   63.525;    0.000
745.255; 5790.375;  155.525;    0.000
745.451; 5503.375;  110.525;    0.000
745.646; 5543.375;  150.525;    0.000
745.841; 5432.375;  128.525;    0.000
746.036; 5487.375;  110.525;    0.000
746.231; 5573.375;  126.525;    0.000
746.426; 5923.375;   83.525;    0.000
746.622; 6789.375;  157.525;    0.000
746.817; 8628.375;  112.525;    0.000
747.012; 9649.375;  115.525;    0.000
747.207; 8600.375;  161.525;    0.000
747.402; 7703.375;   88.525;    0.000
747.597; 7100.375;  103.525;    0.000
747.792; 6848.375;  152.525;    0.000
747.987; 6580.375;   80.525;    0.000
748.182; 6318.375;   89.525;    0.000
748.377; 6023.375;  104.525;    0.000
748.572; 5932.375;  138.525;    0.000
748.767; 5712.375;  100.525;    0.000
748.961; 5486.375;  106.525;    0.000
749.156; 5439.375;  113.525;    0.000
749.351; 5351.375;  116.525;    0.000
749.546; 5254.375;  107.525;    0.000
749.741; 5208.375;  102.525;    0.000
749.936; 5131.375;  105.525;    0.000
750.130; 5025.375;  111.525;    0.000
750.325; 5039.375;   72.525;    0.000
750.520; 4969.375;   96.525;    0.000
750.715; 4948.375;  135.525;    0.000
750.909; 4789.375;  107.525;    0.000
751.104; 4854.375;  106.525;    0.000
751.299; 4909.375;  144.525;    0.000
751.493; 4774.375;  116.525;    0.000
751.688; 4776.375;   96.525;    0.000
751.882; 4702.375;   92.525;    0.000
752.077; 4755.375;  109.525;    0.000
752.272; 4688.375;   96.525;    0.000
752.466; 4633.375;  110.525;    0.000
752.661; 4732.375;  120.525;    0.000
752.855; 4503.375;   70.525;    0.000
753.050; 4653.375;  129.525;    0.000
753.244; 4466.375;  126.525;    0.000
753.439; 4576.375;  115.525;    0.000
753.633; 4556.375;  120.525;    0.000
753.828; 4531.375;  129.525;    0.000
754.022; 4464.375;  139.525;    0.000
754.216; 4423.375;  121.525;    0.000
754.411; 4504.375;  108.525;    0.000
754.605; 4520.375;   94.525;    0.000
754.799; 4453.375;  125.525;    0.000
754.994; 4466.375;  160.525;    0.000
755.188; 4517.375;  151.525;    0.000
755.382; 4392.375;  102.525;    0.000
755.576; 4378.375;  103.525;    0.000
755.771; 4416.375;   99.525;    0.000
755.965; 4473.375;  158.525;    0.000
756.159; 4452.375;   96.525;    0.000
756.353; 4462.375;  157.525;    0.000
756.547; 4459.375;  132.525;    0.000
756.742; 4324.375;  106.525;    0.000
756.936; 4392.375;  113.525;    0.000
757.130; 4492.375;  114.525;    0.000
757.324; 4523.375;  111.525;    0.000
757.518; 4457.375;  142.525;    0.000
757.712; 4424.375;  137.525;    0.000
757.906; 4386.375;   93.525;    0.000
758.100; 4338.375;  119.525;    0.000
758.294; 4451.375;  132.525;    0.000
758.488; 4404.375;  153.525;    0.000
758.682; 4356.375;  101.525;    0.000
758.876; 4307.375;  129.525;    0.000
759.070; 4321.375;  168.525;    0.000
759.264; 4237.375;   96.525;    0.000
759.458; 4274.375;  117.525;    0.000
759.651; 4246.375;  135.525;    0.000
759.845; 4395.375;  127.525;    0.000
760.039; 4402.375;  120.525;    0.000
760.233; 4334.375;  124.525;    0.000
760.427; 4369.375;  115.525;    0.000
760.620; 4553.375;  130.525;    0.000
760.814; 4377.375;  102.525;    0.000
761.008; 4355.375;  174.525;    0.000
761.202; 4341.375;  132.525;    0.000
761.395; 4352.375;  126.525;    0.000
761.589; 4272.375;  133.525;    0.000
761.783; 4298.375;  147.525;    0.000
761.976; 4343.375;  147.525;    0.000
762.170; 4414.375;  174.525;    0.000
762.363; 4412.375;   97.525;    0.000
762.557; 4312.375;  141.525;    0.000
762.750; 4377.375;  112.525;    0.000
762.944; 4525.375;  110.525;    0.000
763.138; 4403.375;  125.525;    0.000
763.331; 4382.375;  101.525;    0.000
763.524; 4490.375;  101.525;    0.000
763.718; 4574.375;  156.525;    0.000
763.911; 4544.375;  143.525;    0.000
764.105; 4481.375;  139.525;    0.000
764.298; 4431.375;   89.525;    0.000
764.492; 4455.375;  111.525;    0.000
764.685; 4369.375;  136.525;    0.000
764.878; 4488.375;  146.525;    0.000
765.072; 4428.375;  110.525;    0.000
765.265; 4489.375;  141.525;    0.000
765.458; 4495.375;   82.525;    0.000
765.651; 4442.375;  144.525;    0.000
765.845; 4428.375;   79.525;    0.000
766.038; 4528.375;  123.525;    0.000
766.231; 4816.375;  125.525;    0.000
766.424; 6477.375;  131.525;    0.000
766.617; 6621.375;   62.525;    0.000
766.811; 4892.375;  142.525;    0.000
767.004; 4588.375;  134.525;    0.000
767.197; 4662.375;  147.525;    0.000
767.390; 4496.375;  100.525;    0.000
767.583; 4584.375;  121.525;    0.000
767.776; 4440.375;   91.525;    0.000
767.969; 4674.375;  113.525;    0.000
768.162; 4725.375;  170.525;    0.000
768.355; 4572.375;  134.525;    0.000
768.548; 4642.375;  177.525;    0.000
768.741; 4536.375;   96.525;    0.000
768.934; 4763.375;  143.525;    0.000
769.127; 4684.375;  147.525;    0.000
769.320; 4700.375;   93.525;    0.000
769.513; 4727.375;  137.525;    0.000
769.706; 5092.375;   96.525;    0.000
769.898; 6401.375;  118.525;    0.000
770.091; 5578.375;  138.525;    0.000
770.284; 4816.375;  133.525;    0.000
770.477; 4837.375;  137.525;    0.000
770.670; 4922.375;  124.525;    0.000
770.862; 4838.375;  125.525;    0.000
771.055; 5007.375;  135.525;    0.000
771.248; 4942.375;  109.525;    0.000
771.441; 5012.375;  141.525;    0.000
771.633; 4915.375;  142.525;    0.000
771.826; 4935.375;  123.525;    0.000
772.018; 5073.375;  136.525;    0.000
772.211; 5057.375;  145.525;    0.000
772.404; 5090.375;  127.525;    0.000
772.596; 5167.375;  193.525;    0.000
772.789; 5347.375;   64.525;    0.000
772.981; 5414.375;  142.525;    0.000
773.174; 5468.375;  105.525;    0.000
773.366; 5465.375;  166.525;    0.000
773.559; 5351.375;  125.525;    0.000
773.751; 5471.375;  126.525;    0.000
773.944; 5631.375;  147.525;    0.000
774.136; 5742.375;  155.525;    0.000
774.329; 5898.375;  127.525;    0.000
774.521; 5987.375;  133.525;    0.000
774.713; 6183.375;  139.525;    0.000
774.906; 6411.375;  170.525;    0.000
775.098; 6657.375;  144.525;    0.000
775.290; 6933.375;  162.525;    0.000
775.483; 7299.375;  137.525;    0.000
775.675; 7537.375;  148.525;    0.000
775.867; 8103.375;   81.525;    0.000
776.059; 8866.375;  134.525;    0.000
776.251; 9534.375;  137.525;    0.000
776.444;10917.375;  155.525;    0.000
776.636;12906.375;  148.525;    0.000
776.828;15829.375;  129.525;    0.000
777.020;22041.375;  133.525;    0.000
777.212;33099.375;  137.525;    0.000
777.404;37088.375;  124.525;    0.000
777.596;34453.375;  142.525;    0.000
777.788;25518.375;  155.525;    0.000
777.980;19416.375;  119.525;    0.000
778.172;15981.375;  129.525;    0.000
778.364;13502.375;  122.525;    0.000
778.556;11974.375;  129.525;    0.000
778.748;10799.375;  178.525;    0.000
778.940; 9986.375;  128.525;    0.000
779.132; 9170.375;  145.525;    0.000
779.324; 8321.375;   89.525;    0.000
779.516; 7957.375;  161.525;    0.000
779.708; 7519.375;  183.525;    0.000
779.900; 7091.375;  124.525;    0.000
780.091; 6849.375;  143.525;    0.000
780.283; 6522.375;  135.525;    0.000
780.475; 6252.375;  129.525;    0.000
780.667; 6125.375;  178.525;    0.000
780.859; 6043.375;  146.525;    0.000
781.050; 5984.375;  156.525;    0.000
781.242; 5763.375;  138.525;    0.000
781.434; 5634.375;  117.525;    0.000
781.625; 5566.375;  161.525;    0.000
781.817; 5471.375;  127.525;    0.000
782.008; 5294.375;  138.525;    0.000
782.200; 5387.375;  139.525;    0.000
782.392; 5263.375;  179.525;    0.000
782.583; 5119.375;  137.525;    0.000
782.775; 5085.375;  162.525;    0.000
782.966; 4993.375;  159.525;    0.000
783.158; 4875.375;  118.525;    0.000
783.349; 4915.375;  160.525;    0.000
783.541; 4909.375;  139.525;    0.000
783.732; 4704.375;  145.525;    0.000
783.924; 4854.375;  146.525;    0.000
784.115; 4857.375;  125.525;    0.000
784.306; 4703.375;  118.525;    0.000
784.498; 4682.375;  144.525;    0.000
784.689; 4728.375;  145.525;    0.000
784.880; 4711.375;  137.525;    0.000
785.072; 4590.375;  157.525;    0.000
785.263; 4563.375;  149.525;    0.000
785.454; 4565.375;  128.525;    0.000
785.645; 4606.375;  131.525;    0.000
785.837; 4513.375;  137.525;    0.000
786.028; 4623.375;  161.525;    0.000
786.219; 4619.375;  155.525;    0.000
786.410; 4462.375;  146.525;    0.000
786.601; 4523.375;  120.525;    0.000
786.792; 4586.375;  179.525;    0.000
786.984; 4501.375;  113.525;    0.000
787.175; 4517.375;  156.525;    0.000
787.366; 4367.375;  131.525;    0.000
787.557; 4469.375;  138.525;    0.000
787.748; 4419.375;  112.525;    0.000
787.939; 4600.375;  115.525;    0.000
788.130; 4530.375;  150.525;    0.000
788.321; 4471.375;  122.525;    0.000
788.512; 4540.375;  147.525;    0.000
788.703; 4551.375;  126.525;    0.000
788.894; 4470.375;   80.525;    0.000
789.084; 4375.375;  127.525;    0.000
789.275; 4395.375;  141.525;    0.000
789.466; 4672.375;  108.525;    0.000
789.657; 4605.375;  137.525;    0.000
789.848; 4511.375;  126.525;    0.000
790.039; 4557.375;  144.525;    0.000
790.229; 4649.375;  105.525;    0.000
790.420; 4538.375;   96.525;    0.000
790.611; 4536.375;  171.525;    0.000
790.801; 4583.375;   89.525;    0.000
790.992; 4542.375;  140.525;    0.000
791.183; 4560.375;  143.525;    0.000
791.373; 4581.375;  128.525;    0.000
791.564; 4478.375;   96.525;    0.000
791.755; 4563.375;  111.525;    0.000
791.945; 4509.375;  112.525;    0.000
792.136; 4540.375;  124.525;    0.000
792.326; 4392.375;   88.525;    0.000
792.517; 4499.375;  130.525;    0.000
792.707; 4507.375;  144.525;    0.000
792.898; 4650.375;  120.525;    0.000
793.088; 4678.375;  106.525;    0.000
793.279; 4652.375;  104.525;    0.000
793.469; 4703.375;  103.525;    0.000
793.660; 4805.375;  120.525;    0.000
793.850; 4933.375;  106.525;    0.000
794.040; 4975.375;  135.525;    0.000
794.231; 5294.375;   80.525;    0.000
794.421; 5603.375;  120.525;    0.000
794.611; 6366.375;  154.525;    0.000
794.802; 7126.375;  103.525;    0.000
794.992; 7557.375;  120.525;    0.000
795.182; 7771.375;  156.525;    0.000
795.372; 7283.375;  104.525;    0.000
795.563; 6733.375;  153.525;    0.000
795.753; 6067.375;  112.525;    0.000
795.943; 5788.375;  128.525;    0.000
796.133; 5419.375;  128.525;    0.000
796.323; 5309.375;  152.525;    0.000
796.513; 5144.375;  123.525;    0.000
796.703; 5001.375;  134.525;    0.000
796.893; 4836.375;  120.525;    0.000
797.083; 4829.375;  136.525;    0.000
797.273; 4646.375;  128.525;    0.000
797.463; 4700.375;  140.525;    0.000
797.653; 4534.375;   75.525;    0.000
797.843; 4460.375;  114.525;    0.000
798.033; 4414.375;   90.525;    0.000
798.223; 4387.375;  136.525;    0.000
798.413; 4308.375;  164.525;    0.000
798.603; 4245.375;  150.525;    0.000
798.793; 4214.375;  137.525;    0.000
798.983; 4183.375;  119.525;    0.000
799.172; 4245.375;  136.525;    0.000
799.362; 4106.375;  138.525;    0.000
799.552; 4182.375;  123.525;    0.000
799.742; 4007.375;  117.525;    0.000
799.932; 4079.375;  108.525;    0.000
800.121; 4160.375;  152.525;    0.000
800.311; 4053.375;  117.525;    0.000
800.501; 4109.375;  100.525;    0.000
800.690; 3983.375;  139.525;    0.000
800.880; 3989.375;  138.525;    0.000
801.070; 3966.375;  120.525;    0.000
801.259; 4094.375;  143.525;    0.000
801.449; 3940.375;  110.525;    0.000
801.638; 3959.375;  140.525;    0.000
801.828; 3956.375;  103.525;    0.000
802.017; 4057.375;   78.525;    0.000
802.207; 3833.375;  126.525;    0.000
802.396; 3958.375;  151.525;    0.000
802.586; 3807.375;  106.525;    0.000
802.775; 3988.375;  152.525;    0.000
802.965; 3798.375;  117.525;    0.000
803.154; 3872.375;  171.525;    0.000
803.343; 3867.375;  126.525;    0.000
803.533; 3863.375;  135.525;    0.000
803.722; 3734.375;  144.525;    0.000
803.911; 3821.375;  109.525;    0.000
804.101; 3826.375;  146.525;    0.000
804.290; 3765.375;  115.525;    0.000
804.479; 3805.375;  128.525;    0.000
804.668; 3853.375;  156.525;    0.000
804.857; 3836.375;  151.525;    0.000
805.047; 3895.375;  131.525;    0.000
805.236; 3872.375;  144.525;    0.000
805.425; 3846.375;  160.525;    0.000
805.614; 3870.375;  112.525;    0.000
805.803; 3882.375;  120.525;    0.000
805.992; 3917.375;  148.525;    0.000
806.181; 3746.375;  108.525;    0.000
806.370; 3849.375;  142.525;    0.000
806.559; 3809.375;  116.525;    0.000
806.748; 3965.375;  108.525;    0.000
806.937; 3774.375;  110.525;    0.000
807.126; 4011.375;  126.525;    0.000
807.315; 3808.375;  121.525;    0.000
807.504; 3796.375;  102.525;    0.000
807.693; 3902.375;  134.525;    0.000
807.882; 3817.375;  135.525;    0.000
808.071; 3757.375;  135.525;    0.000
808.260; 3858.375;   93.525;    0.000
808.448; 3984.375;  151.525;    0.000
808.637; 3999.375;  105.525;    0.000
808.826; 3844.375;  178.525;    0.000
809.015; 3838.375;  152.525;    0.000
809.203; 3953.375;  147.525;    0.000
809.392; 3810.375;  144.525;    0.000
809.581; 3965.375;  167.525;    0.000
809.770; 3870.375;  151.525;    0.000
809.958; 4037.375;  128.525;    0.000
810.147; 4024.375;  152.525;    0.000
810.335; 4027.375;  160.525;    0.000
810.524; 4100.375;  130.525;    0.000
810.713; 4095.375;  128.525;    0.000
810.901; 4116.375;  140.525;    0.000
811.090; 4148.375;  152.525;    0.000
811.278; 4161.375;  126.525;    0.000
811.467; 4206.375;  161.525;    0.000
811.655; 4321.375;  184.525;    0.000
811.844; 4434.375;  148.525;    0.000
812.032; 4174.375;  138.525;    0.000
812.220; 4326.375;  157.525;    0.000
812.409; 4307.375;  143.525;    0.000
812.597; 4310.375;  124.525;    0.000
812.785; 4365.375;  170.525;    0.000
812.974; 4453.375;  135.525;    0.000
813.162; 4509.375;  135.525;    0.000
813.350; 4393.375;  182.525;    0.000
813.539; 4469.375;  126.525;    0.000
813.727; 4504.375;  127.525;    0.000
813.915; 4480.375;  140.525;    0.000
814.103; 4708.375;  176.525;    0.000
814.291; 4434.375;  115.525;    0.000
814.479; 4606.375;  119.525;    0.000
814.668; 4762.375;  134.525;    0.000
814.856; 4852.375;  120.525;    0.000
815.044; 4960.375;  164.525;    0.000
815.232; 5007.375;  146.525;    0.000
815.420; 5109.375;  154.525;    0.000
815.608; 5121.375;  137.525;    0.000
815.796; 5210.375;  108.525;    0.000
815.984; 5324.375;  134.525;    0.000
816.172; 5495.375;  123.525;    0.000
816.360; 5720.375;  181.525;    0.000
816.548; 5870.375;  139.525;    0.000
816.736; 6039.375;  138.525;    0.000
816.924; 6388.375;  151.525;    0.000
817.111; 6493.375;  156.525;    0.000
817.299; 7100.375;  147.525;    0.000
817.487; 7571.375;  188.525;    0.000
817.675; 8327.375;  129.525;    0.000
817.863; 9514.375;  128.525;    0.000
818.050;12606.375;  110.525;    0.000
818.238;21610.375;  166.525;    0.000
818.426;30133.375;  136.525;    0.000
818.613;22457.375;  143.525;    0.000
818.801;18913.375;  150.525;    0.000
818.989;18053.375;  179.525;    0.000
819.176;18953.375;  123.525;    0.000
819.364;26850.375;  148.525;    0.000
819.552;37310.375;   86.525;    0.000
819.739;28438.375;  169.525;    0.000
819.927;20930.375;  130.525;    0.000
820.114;17654.375;  144.525;    0.000
820.302;15577.375;  166.525;    0.000
820.489;13977.375;  145.525;    0.000
820.677;13109.375;  101.525;    0.000
820.864;12483.375;  149.525;    0.000
821.052;12371.375;  130.525;    0.000
821.239;12688.375;  147.525;    0.000
821.426;12728.375;  121.525;    0.000
821.614;14820.375;  187.525;    0.000
821.801;15441.375;  105.525;    0.000
821.988;13685.375;  167.525;    0.000
822.176;13054.375;  130.525;    0.000
822.363;13406.375;  143.525;    0.000
822.550;12228.375;  108.525;    0.000
822.737;11080.375;  109.525;    0.000
822.924;10484.375;  156.525;    0.000
823.112; 9747.375;  123.525;    0.000
823.299; 9383.375;  128.525;    0.000
823.486; 8948.375;  138.525;    0.000
823.673; 8464.375;  125.525;    0.000
823.860; 8304.375;  138.525;    0.000
824.047; 8155.375;  122.525;    0.000
824.234; 8867.375;  134.525;    0.000
824.421; 8852.375;   95.525;    0.000
824.608; 8096.375;  151.525;    0.000
824.795; 7380.375;  117.525;    0.000
824.982; 7061.375;  143.525;    0.000
825.169; 6625.375;   83.525;    0.000
825.356; 6414.375;  126.525;    0.000
825.543; 6020.375;   92.525;    0.000
825.730; 5844.375;  113.525;    0.000
825.917; 5518.375;  142.525;    0.000
826.104; 5550.375;  182.525;    0.000
826.290; 5289.375;  137.525;    0.000
826.477; 5240.375;  126.525;    0.000
826.664; 5106.375;  135.525;    0.000
826.851; 4965.375;  139.525;    0.000
827.038; 4845.375;  135.525;    0.000
827.224; 4768.375;  143.525;    0.000
827.411; 4732.375;  153.525;    0.000
827.598; 4539.375;  122.525;    0.000
827.784; 4632.375;  138.525;    0.000
827.971; 4420.375;  134.525;    0.000
828.157; 4420.375;  152.525;    0.000
828.344; 4276.375;  135.525;    0.000
828.531; 4235.375;  137.525;    0.000
828.717; 4172.375;  117.525;    0.000
828.904; 4192.375;  127.525;    0.000
829.090; 4054.375;  172.525;    0.000
829.277; 4010.375;  144.525;    0.000
829.463; 3989.375;  159.525;    0.000
829.650; 4026.375;  187.525;    0.000
829.836; 3958.375;  138.525;    0.000
830.022; 3911.375;  196.525;    0.000
830.209; 3877.375;  118.525;    0.000
830.395; 3766.375;  148.525;    0.000
830.581; 3761.375;  108.525;    0.000
830.768; 3743.375;  137.525;    0.000
830.954; 3703.375;  162.525;    0.000
831.140; 3618.375;  117.525;    0.000
831.327; 3525.375;  176.525;    0.000
831.513; 3646.375;  162.525;    0.000
831.699; 3541.375;  157.525;    0.000
831.885; 3611.375;  153.525;    0.000
832.071; 3427.375;  123.525;    0.000
832.257; 3428.375;  142.525;    0.000
832.444; 3431.375;  165.525;    0.000
832.630; 3380.375;  159.525;    0.000
832.816; 3355.375;  145.525;    0.000
833.002; 3339.375;  120.525;    0.000
833.188; 3310.375;  145.525;    0.000
833.374; 3353.375;  137.525;    0.000
833.560; 3358.375;  152.525;    0.000
833.746; 3291.375;  139.525;    0.000
833.932; 3203.375;  170.525;    0.000
834.118; 3237.375;  111.525;    0.000
834.303; 3256.375;  141.525;    0.000
834.489; 3235.375;  146.525;    0.000
834.675; 3237.375;  156.525;    0.000
834.861; 3273.375;   87.525;    0.000
835.047; 3282.375;  134.525;    0.000
835.233; 3188.375;   89.525;    0.000
835.418; 3197.375;  145.525;    0.000
835.604; 3066.375;  136.525;    0.000
835.790; 3136.375;  132.525;    0.000
835.976; 3105.375;  161.525;    0.000
836.161; 3114.375;  157.525;    0.000
836.347; 3098.375;  147.525;    0.000
836.533; 3063.375;  116.525;    0.000
836.718; 3052.375;  168.525;    0.000
836.904; 3128.375;  199.525;    0.000
837.089; 3083.375;  165.525;    0.000
837.275; 3101.375;  166.525;    0.000
837.460; 3113.375;  144.525;    0.000
837.646; 3074.375;  164.525;    0.000
837.831; 3162.375;  122.525;    0.000
838.017; 3041.375;  163.525;    0.000
838.202; 3092.375;  139.525;    0.000
838.388; 3032.375;  174.525;    0.000
838.573; 2947.375;  140.525;    0.000
838.759; 3127.375;  167.525;    0.000
838.944; 3006.375;  142.525;    0.000
839.129; 3042.375;  164.525;    0.000
839.315; 3058.375;  129.525;    0.000
839.500; 3163.375;  150.525;    0.000
839.685; 3031.375;  118.525;    0.000
839.870; 2987.375;  177.525;    0.000
840.056; 3007.375;  144.525;    0.000
840.241; 3043.375;  121.525;    0.000
840.426; 3045.375;  131.525;    0.000
840.611; 3057.375;  177.525;    0.000
840.796; 3113.375;  173.525;    0.000
840.981; 3045.375;  156.525;    0.000
841.166; 3051.375;  145.525;    0.000
841.352; 3142.375;  150.525;    0.000
841.537; 3122.375;  143.525;    0.000
841.722; 3094.375;  165.525;    0.000
841.907; 3256.375;  184.525;    0.000
842.092; 3231.375;  171.525;    0.000
842.277; 3213.375;  155.525;    0.000
842.461; 3405.375;  152.525;    0.000
842.646; 3437.375;  107.525;    0.000
842.831; 3552.375;  160.525;    0.000
843.016; 3505.375;  160.525;    0.000
843.201; 3650.375;  164.525;    0.000
843.386; 3770.375;  134.525;    0.000
843.571; 3906.375;  132.525;    0.000
843.755; 4122.375;  158.525;    0.000
843.940; 4482.375;  152.525;    0.000
844.125; 4995.375;  154.525;    0.000
844.310; 5759.375;  147.525;    0.000
844.494; 7489.375;  158.525;    0.000
844.679;10513.375;  173.525;    0.000
844.864;10165.375;  152.525;    0.000
845.048; 8283.375;  139.525;    0.000
845.233; 6937.375;  200.525;    0.000
845.418; 6076.375;  139.525;    0.000
845.602; 5480.375;  147.525;    0.000
845.787; 5014.375;  148.525;    0.000
845.971; 4593.375;  170.525;    0.000
846.156; 4286.375;  136.525;    0.000
846.340; 4076.375;  146.525;    0.000
846.525; 3846.375;  188.525;    0.000
846.709; 3789.375;  128.525;    0.000
846.893; 3634.375;  151.525;    0.000
847.078; 3439.375;  164.525;    0.000
847.262; 3500.375;  155.525;    0.000
847.447; 3273.375;  114.525;    0.000
847.631; 3280.375;  148.525;    0.000
847.815; 3091.375;  114.525;    0.000
848.000; 3171.375;  134.525;    0.000
848.184; 3126.375;  154.525;    0.000
848.368; 2994.375;  145.525;    0.000
848.552; 2968.375;  122.525;    0.000
848.736; 2929.375;  139.525;    0.000
848.921; 2889.375;  143.525;    0.000
849.105; 2929.375;  145.525;    0.000
849.289; 2947.375;  173.525;    0.000
849.473; 2842.375;  147.525;    0.000
849.657; 2784.375;  144.525;    0.000
849.841; 2776.375;  168.525;    0.000
850.025; 2866.375;  205.525;    0.000
850.209; 2753.375;  171.525;    0.000
850.393; 2681.375;  130.525;    0.000
850.577; 2728.375;  146.525;    0.000
850.761; 2640.375;  188.525;    0.000
850.945; 2617.375;  137.525;    0.000
851.129; 2658.375;  192.525;    0.000
851.313; 2714.375;  199.525;    0.000
851.497; 2648.375;  165.525;    0.000
851.680; 2588.375;  196.525;    0.000
851.864; 2528.375;  169.525;    0.000
852.048; 2689.375;  156.525;    0.000
852.232; 2697.375;  150.525;    0.000
852.416; 2670.375;  219.525;    0.000
852.599; 2536.375;  168.525;    0.000
852.783; 2648.375;  165.525;    0.000
852.967; 2616.375;  166.525;    0.000
853.150; 2590.375;  191.525;    0.000
853.334; 2541.375;  158.525;    0.000
853.518; 2596.375;  168.525;    0.000
853.701; 2470.375;  125.525;    0.000
853.885; 2536.375;  165.525;    0.000
854.068; 2503.375;  142.525;    0.000
854.252; 2566.375;  167.525;    0.000
854.435; 2554.375;  146.525;    0.000
854.619; 2521.375;  163.525;    0.000
854.802; 2546.375;  167.525;    0.000
854.986; 2503.375;  163.525;    0.000
855.169; 2525.375;  146.525;    0.000
855.353; 2513.375;  183.525;    0.000
855.536; 2506.375;  140.525;    0.000
855.719; 2461.375;  168.525;    0.000
855.903; 2589.375;  170.525;    0.000
856.086; 2510.375;  145.525;    0.000
856.269; 2598.375;  126.525;    0.000
856.452; 2661.375;  142.525;    0.000
856.636; 2782.375;  140.525;    0.000
856.819; 2850.375;  127.525;    0.000
857.002; 2921.375;  165.525;    0.000
857.185; 2929.375;  111.525;    0.000
857.368; 2758.375;  143.525;    0.000
857.552; 2867.375;  174.525;    0.000
857.735; 2691.375;  194.525;    0.000
857.918; 2722.375;  171.525;    0.000
858.101; 2596.375;  142.525;    0.000
858.284; 2671.375;  118.525;    0.000
858.467; 2809.375;  163.525;    0.000
858.650; 2785.375;  149.525;    0.000
858.833; 2787.375;  120.525;    0.000
859.016; 3006.375;  169.525;    0.000
859.199; 3019.375;  121.525;    0.000
859.382; 3260.375;  184.525;    0.000
859.564; 3522.375;  139.525;    0.000
859.747; 3391.375;  126.525;    0.000
859.930; 3271.375;  109.525;    0.000
860.113; 3235.375;  137.525;    0.000
860.296; 3192.375;  182.525;    0.000
860.478; 3039.375;  136.525;    0.000
860.661; 3043.375;  157.525;    0.000
860.844; 2991.375;  129.525;    0.000
861.027; 2943.375;  163.525;    0.000
861.209; 2912.375;  151.525;    0.000
861.392; 2907.375;  124.525;    0.000
861.575; 3017.375;  163.525;    0.000
861.757; 2965.375;  205.525;    0.000
861.940; 3067.375;  180.525;    0.000
862.122; 3044.375;  148.525;    0.000
862.305; 3195.375;  128.525;    0.000
862.487; 3256.375;  172.525;    0.000
862.670; 3430.375;  123.525;    0.000
862.852; 4115.375;  126.525;    0.000
863.035; 4792.375;  174.525;    0.000
863.217; 4749.375;  160.525;    0.000
863.400; 4256.375;  164.525;    0.000
863.582; 4027.375;  118.525;    0.000
863.764; 3855.375;  143.525;    0.000
863.947; 3796.375;  137.525;    0.000
864.129; 3654.375;  166.525;    0.000
864.311; 3476.375;  128.525;    0.000
864.493; 3387.375;  153.525;    0.000
864.676; 3507.375;  156.525;    0.000
864.858; 3332.375;  159.525;    0.000
865.040; 3287.375;  163.525;    0.000
865.222; 3400.375;  138.525;    0.000
865.404; 3427.375;  157.525;    0.000
865.587; 3681.375;  184.525;    0.000
865.769; 3806.375;  178.525;    0.000
865.951; 3747.375;  104.525;    0.000
866.133; 3602.375;  147.525;    0.000
866.315; 3625.375;  141.525;    0.000
866.497; 3660.375;  132.525;    0.000
866.679; 3801.375;  139.525;    0.000
866.861; 3931.375;  118.525;    0.000
867.043; 4119.375;  154.525;    0.000
867.225; 4372.375;  147.525;    0.000
867.407; 4644.375;  158.525;    0.000
867.589; 5324.375;  172.525;    0.000
867.770; 6417.375;  159.525;    0.000
867.952; 8687.375;  149.525;    0.000
868.134;11374.375;  156.525;    0.000
868.316;11520.375;  171.525;    0.000
868.498;11000.375;  200.525;    0.000
868.679; 9542.375;  174.525;    0.000
868.861; 8127.375;  175.525;    0.000
869.043; 6779.375;  174.525;    0.000
869.224; 5968.375;  122.525;    0.000
869.406; 5504.375;  166.525;    0.000
869.588; 5205.375;  143.525;    0.000
869.769; 4985.375;  152.525;    0.000
869.951; 4683.375;  165.525;    0.000
870.132; 4848.375;  115.525;    0.000
870.314; 5148.375;  139.525;    0.000
870.495; 5392.375;  168.525;    0.000
870.677; 4944.375;  188.525;    0.000
870.858; 4753.375;  123.525;    0.000
871.040; 4940.375;  170.525;    0.000
871.221; 5534.375;  148.525;    0.000
871.403; 5256.375;  140.525;    0.000
871.584; 4928.375;  174.525;    0.000
871.765; 5066.375;  168.525;    0.000
871.947; 5288.375;  191.525;    0.000
872.128; 4749.375;  132.525;    0.000
872.309; 4194.375;  140.525;    0.000
872.491; 3832.375;  157.525;    0.000
872.672; 3707.375;  130.525;    0.000
872.853; 3452.375;  148.525;    0.000
873.034; 3424.375;  138.525;    0.000
873.215; 3369.375;  152.525;    0.000
873.396; 3176.375;  149.525;    0.000
873.578; 3013.375;  173.525;    0.000
873.759; 3046.375;  158.525;    0.000
873.940; 2828.375;  147.525;    0.000
874.121; 2846.375;  136.525;    0.000
874.302; 2838.375;  151.525;    0.000
874.483; 2756.375;  137.525;    0.000
874.664; 2695.375;  163.525;    0.000
874.845; 2766.375;  124.525;    0.000
875.026; 2627.375;  134.525;    0.000
875.207; 2573.375;  164.525;    0.000
875.388; 2598.375;  163.525;    0.000
875.568; 2539.375;  176.525;    0.000
875.749; 2511.375;  108.525;    0.000
875.930; 2451.375;  191.525;    0.000
876.111; 2454.375;  170.525;    0.000
876.292; 2383.375;  180.525;    0.000
876.472; 2495.375;  150.525;    0.000
876.653; 2329.375;  162.525;    0.000
876.834; 2261.375;  176.525;    0.000
877.015; 2375.375;  203.525;    0.000
877.195; 2337.375;  178.525;    0.000
877.376; 2339.375;  141.525;    0.000
877.556; 2298.375;  135.525;    0.000
877.737; 2364.375;  174.525;    0.000
877.918; 2183.375;  150.525;    0.000
878.098; 2212.375;  133.525;    0.000
878.279; 2223.375;  129.525;    0.000
878.459; 2247.375;  162.525;    0.000
878.640; 2250.375;  187.525;    0.000
878.820; 2231.375;  151.525;    0.000
879.000; 2204.375;  159.525;    0.000
879.181; 2281.375;  171.525;    0.000
879.361; 2207.375;  167.525;    0.000
879.542; 2199.375;  126.525;    0.000
879.722; 2233.375;  152.525;    0.000
879.902; 2214.375;  144.525;    0.000
880.083; 2226.375;  154.525;    0.000
880.263; 2291.375;  148.525;    0.000
880.443; 2299.375;  185.525;    0.000
880.623; 2680.375;  172.525;    0.000
880.803; 2841.375;  152.525;    0.000
880.984; 2563.375;  165.525;    0.000
881.164; 2451.375;  164.525;    0.000
881.344; 2285.375;  141.525;    0.000
881.524; 2346.375;  160.525;    0.000
881.704; 2390.375;  164.525;    0.000
881.884; 2411.375;  159.525;    0.000
882.064; 2637.375;  158.525;    0.000
882.244; 2588.375;  147.525;    0.000
882.424; 2503.375;  160.525;    0.000
882.604; 2441.375;  150.525;    0.000
882.784; 2411.375;  138.525;    0.000
882.964; 2276.375;  157.525;    0.000
883.144; 2268.375;  128.525;    0.000
883.324; 2251.375;  220.525;    0.000
883.504; 2188.375;  177.525;    0.000
883.683; 2123.375;  159.525;    0.000
883.863; 2066.375;  143.525;    0.000
884.043; 2162.375;  156.525;    0.000
884.223; 2141.375;  152.525;    0.000
884.402; 2122.375;  169.525;    0.000
884.582; 2097.375;  162.525;    0.000
884.762; 2077.375;  172.525;    0.000
884.941; 2107.375;  220.525;    0.000
885.121; 2064.375;  128.525;    0.000
885.301; 2087.375;  141.525;    0.000
885.480; 2014.375;  141.525;    0.000
885.660; 2070.375;  132.525;    0.000
885.839; 2053.375;  146.525;    0.000
886.019; 2060.375;  170.525;    0.000
886.198; 2029.375;  143.525;    0.000
886.378; 2007.375;  159.525;    0.000
886.557; 1971.375;  148.525;    0.000
886.737; 1976.375;  125.525;    0.000
886.916; 2096.375;  177.525;    0.000
887.095; 1998.375;  186.525;    0.000
887.275; 1979.375;  134.525;    0.000
887.454; 1987.375;  148.525;    0.000
887.633; 2080.375;  171.525;    0.000
887.813; 1954.375;  187.525;    0.000
887.992; 2053.375;  157.525;    0.000
888.171; 1921.375;  143.525;    0.000
888.350; 2023.375;  182.525;    0.000
888.530; 1956.375;  142.525;    0.000
888.709; 1971.375;  160.525;    0.000
888.888; 1938.375;  197.525;    0.000
889.067; 2002.375;  126.525;    0.000
889.246; 1981.375;  197.525;    0.000
889.425; 1966.375;  161.525;    0.000
889.604; 2013.375;  180.525;    0.000
889.783; 1945.375;  135.525;    0.000
889.962; 1985.375;  107.525;    0.000
890.141; 1972.375;  167.525;    0.000
890.320; 1869.375;  149.525;    0.000
890.499; 2020.375;  194.525;    0.000
890.678; 1922.375;  138.525;    0.000
890.857; 1948.375;  146.525;    0.000
891.036; 1902.375;  178.525;    0.000
891.214; 1984.375;  151.525;    0.000
891.393; 1896.375;  137.525;    0.000
891.572; 1921.375;  177.525;    0.000
891.751; 1934.375;  149.525;    0.000
891.930; 1949.375;  189.525;    0.000
892.108; 1930.375;  136.525;    0.000
892.287; 1918.375;  129.525;    0.000
892.466; 1926.375;  163.525;    0.000
892.644; 1957.375;  147.525;    0.000
892.823; 1934.375;  127.525;    0.000
893.001; 1913.375;  192.525;    0.000
893.180; 1993.375;  157.525;    0.000
893.359; 1955.375;  176.525;    0.000
893.537; 1932.375;  146.525;    0.000
893.716; 1947.375;  154.525;    0.000
893.894; 1844.375;  166.525;    0.000
894.073; 1926.375;  163.525;    0.000
894.251; 1939.375;  166.525;    0.000
894.429; 1882.375;  149.525;    0.000
894.608; 1921.375;  141.525;    0.000
894.786; 1934.375;  139.525;    0.000
894.964; 1877.375;  180.525;    0.000
895.143; 1913.375;  193.525;    0.000
895.321; 1935.375;  163.525;    0.000
895.499; 2012.375;  163.525;    0.000
895.677; 1925.375;  194.525;    0.000
895.856; 1978.375;  176.525;    0.000
896.034; 2100.375;  173.525;    0.000
896.212; 1947.375;  180.525;    0.000
896.390; 1996.375;  146.525;    0.000
896.568; 1924.375;  167.525;    0.000
896.746; 1999.375;  158.525;    0.000
896.924; 1968.375;  163.525;    0.000
897.102; 1999.375;  170.525;    0.000
897.280; 1974.375;  159.525;    0.000
897.458; 1894.375;  182.525;    0.000
897.636; 2001.375;  151.525;    0.000
897.814; 2048.375;  130.525;    0.000
897.992; 2053.375;  213.525;    0.000
898.170; 1939.375;  164.525;    0.000
898.348; 2045.375;  159.525;    0.000
898.526; 2016.375;  182.525;    0.000
898.704; 2038.375;  209.525;    0.000
898.882; 2052.375;  145.525;    0.000
899.059; 1995.375;  172.525;    0.000
899.237; 2062.375;  172.525;    0.000
899.415; 1978.375;  211.525;    0.000
899.593; 2007.375;  151.525;    0.000
899.770; 2030.375;  147.525;    0.000
899.948; 2135.375;  218.525;    0.000
900.125; 2053.375;  166.525;    0.000
900.303; 2013.375;  146.525;    0.000
900.481; 2067.375;  174.525;    0.000
900.658; 2115.375;  198.525;    0.000
900.836; 2091.375;  125.525;    0.000
901.013; 2044.375;  197.525;    0.000
901.191; 2070.375;  181.525;    0.000
901.368; 2057.375;  185.525;    0.000
901.546; 2157.375;  197.525;    0.000
901.723; 2189.375;  205.525;    0.000
901.901; 2260.375;  187.525;    0.000
902.078; 2249.375;  163.525;    0.000
902.255; 2250.375;  141.525;    0.000
902.433; 2202.375;  183.525;    0.000
902.610; 2302.375;  181.525;    0.000
902.787; 2290.375;  174.525;    0.000
902.964; 2332.375;  174.525;    0.000
903.142; 2331.375;  141.525;    0.000
903.319; 2429.375;  214.525;    0.000
903.496; 2463.375;  187.525;    0.000
903.673; 2487.375;  183.525;    0.000
903.850; 2534.375;  125.525;    0.000
904.027; 2617.375;  197.525;    0.000
904.204; 2784.375;  197.525;    0.000
904.381; 2955.375;  196.525;    0.000
904.558; 3181.375;  176.525;    0.000
904.735; 3805.375;  179.525;    0.000
904.912; 3640.375;  203.525;    0.000
905.089; 3738.375;  159.525;    0.000
905.266; 3421.375;  176.525;    0.000
905.443; 3154.375;  184.525;    0.000
905.620; 3028.375;  168.525;    0.000
905.797; 2914.375;  214.525;    0.000
905.974; 2727.375;  154.525;    0.000
906.151; 2816.375;  132.525;    0.000
906.327; 2741.375;  192.525;    0.000
906.504; 2868.375;  186.525;    0.000
906.681; 2691.375;  171.525;    0.000
906.858; 2557.375;  181.525;    0.000
907.034; 2554.375;  164.525;    0.000
907.211; 2488.375;  184.525;    0.000
907.388; 2416.375;  177.525;    0.000
907.564; 2395.375;  150.525;    0.000
907.741; 2332.375;  195.525;    0.000
907.917; 2341.375;  190.525;    0.000
908.094; 2320.375;  214.525;    0.000
908.271; 2238.375;  173.525;    0.000
908.447; 2267.375;  229.525;    0.000
908.623; 2230.375;  162.525;    0.000
908.800; 2244.375;  195.525;    0.000
908.976; 2176.375;  171.525;    0.000
909.153; 2243.375;  167.525;    0.000
909.329; 2201.375;  227.525;    0.000
909.505; 2177.375;  167.525;    0.000
909.682; 2152.375;  174.525;    0.000
909.858; 2122.375;  158.525;    0.000
910.034; 2191.375;  188.525;    0.000
910.211; 2100.375;  158.525;    0.000
910.387; 2076.375;  208.525;    0.000
910.563; 2080.375;  203.525;    0.000
910.739; 2111.375;  201.525;    0.000
910.915; 2049.375;  170.525;    0.000
911.091; 2144.375;  171.525;    0.000
911.268; 2098.375;  220.525;    0.000
911.444; 2082.375;  202.525;    0.000
911.620; 2027.375;  175.525;    0.000
911.796; 1994.375;  175.525;    0.000
911.972; 2080.375;  164.525;    0.000
912.148; 2077.375;  174.525;    0.000
912.324; 2141.375;  155.525;    0.000
912.500; 2085.375;  156.525;    0.000
912.676; 2001.375;  138.525;    0.000
912.851; 2016.375;  158.525;    0.000
913.027; 2114.375;  161.525;    0.000
913.203; 1994.375;  168.525;    0.000
913.379; 2074.375;  172.525;    0.000
913.555; 2064.375;  193.525;    0.000
913.730; 2052.375;  149.525;    0.000
913.906; 2013.375;  159.525;    0.000
914.082; 2067.375;  184.525;    0.000
914.258; 2045.375;  194.525;    0.000
914.433; 2024.375;  175.525;    0.000
914.609; 2108.375;  175.525;    0.000
914.784; 1938.375;  170.525;    0.000
914.960; 2107.375;  212.525;    0.000
915.136; 1970.375;  157.525;    0.000
915.311; 2136.375;  204.525;    0.000
915.487; 2032.375;  180.525;    0.000
915.662; 2103.375;  203.525;    0.000
915.838; 1985.375;  194.525;    0.000
916.013; 2077.375;  217.525;    0.000
916.189; 2048.375;  196.525;    0.000
916.364; 2062.375;  236.525;    0.000
916.539; 2087.375;  192.525;    0.000
916.715; 2106.375;  181.525;    0.000
916.890; 2060.375;  185.525;    0.000
917.065; 2028.375;  166.525;    0.000
917.240; 1973.375;  182.525;    0.000
917.416; 2057.375;  188.525;    0.000
917.591; 2049.375;  185.525;    0.000
917.766; 2100.375;  187.525;    0.000
917.941; 2072.375;  181.525;    0.000
918.116; 2082.375;  207.525;    0.000
918.292; 2134.375;  140.525;    0.000
918.467; 2056.375;  187.525;    0.000
918.642; 2028.375;  208.525;    0.000
918.817; 2048.375;  203.525;    0.000
918.992; 2125.375;  162.525;    0.000
919.167; 2117.375;  206.525;    0.000
919.342; 2116.375;  188.525;    0.000
919.517; 2110.375;  190.525;    0.000
919.692; 2110.375;  174.525;    0.000
919.867; 2114.375;  181.525;    0.000
920.041; 2124.375;  179.525;    0.000
920.216; 2256.375;  186.525;    0.000
920.391; 2265.375;  209.525;    0.000
920.566; 2281.375;  205.525;    0.000
920.741; 2325.375;  205.525;    0.000
920.915; 2340.375;  206.525;    0.000
921.090; 2536.375;  219.525;    0.000
921.265; 2926.375;  185.525;    0.000
921.439; 3346.375;  171.525;    0.000
921.614; 3046.375;  197.525;    0.000
921.789; 2698.375;  189.525;    0.000
921.963; 2588.375;  210.525;    0.000
922.138; 2589.375;  171.525;    0.000
922.312; 2479.375;  194.525;    0.000
922.487; 2533.375;  231.525;    0.000
922.661; 2617.375;  179.525;    0.000
922.836; 2926.375;  213.525;    0.000
923.010; 3014.375;  182.525;    0.000
923.185; 2739.375;  239.525;    0.000
923.359; 2684.375;  200.525;    0.000
923.534; 2580.375;  232.525;    0.000
923.708; 2689.375;  221.525;    0.000
923.882; 2837.375;  193.525;    0.000
924.057; 2701.375;  204.525;    0.000
924.231; 2624.375;  172.525;    0.000
924.405; 2574.375;  202.525;    0.000
924.579; 2518.375;  207.525;    0.000
924.753; 2510.375;  167.525;    0.000
924.928; 2474.375;  202.525;    0.000
925.102; 2416.375;  200.525;    0.000
925.276; 2445.375;  185.525;    0.000
925.450; 2517.375;  170.525;    0.000
925.624; 2427.375;  176.525;    0.000
925.798; 2589.375;  221.525;    0.000
925.972; 2712.375;  162.525;    0.000
926.146; 2778.375;  207.525;    0.000
926.320; 2986.375;  185.525;    0.000
926.494; 3247.375;  192.525;    0.000
926.668; 3390.375;  179.525;    0.000
926.842; 3428.375;  181.525;    0.000
927.016; 3497.375;  224.525;    0.000
927.190; 3349.375;  193.525;    0.000
927.363; 3261.375;  194.525;    0.000
927.537; 3213.375;  210.525;    0.000
927.711; 3098.375;  153.525;    0.000
927.885; 3030.375;  184.525;    0.000
928.058; 2950.375;  197.525;    0.000
928.232; 2936.375;  219.525;    0.000
928.406; 2880.375;  175.525;    0.000
928.579; 2785.375;  179.525;    0.000
928.753; 2859.375;  208.525;    0.000
928.927; 2749.375;  163.525;    0.000
929.100; 2756.375;  138.525;    0.000
929.274; 2648.375;  160.525;    0.000
929.447; 2540.375;  152.525;    0.000
929.621; 2587.375;  168.525;    0.000
929.794; 2614.375;  152.525;    0.000
929.968; 2542.375;  163.525;    0.000
930.141; 2544.375;  164.525;    0.000
930.315; 2424.375;  170.525;    0.000
930.488; 2451.375;  216.525;    0.000
930.661; 2401.375;  184.525;    0.000
930.835; 2357.375;  156.525;    0.000
931.008; 2372.375;  206.525;    0.000
931.181; 2298.375;  163.525;    0.000
931.354; 2351.375;  198.525;    0.000
931.528; 2316.375;  156.525;    0.000
931.701; 2300.375;  170.525;    0.000
931.874; 2320.375;  167.525;    0.000
932.047; 2257.375;  146.525;    0.000
932.220; 2141.375;  159.525;    0.000
932.393; 2196.375;  186.525;    0.000
932.566; 2144.375;  147.525;    0.000
932.739; 2154.375;  192.525;    0.000
932.912; 2158.375;  197.525;    0.000
933.085; 2180.375;  176.525;    0.000
933.258; 2142.375;  171.525;    0.000
933.431; 2208.375;  150.525;    0.000
933.604; 2157.375;  176.525;    0.000
933.777; 2173.375;  215.525;    0.000
933.950; 2172.375;  164.525;    0.000
934.123; 2049.375;  174.525;    0.000
934.296; 2130.375;  203.525;    0.000
934.468; 2086.375;  208.525;    0.000
934.641; 2090.375;  182.525;    0.000
934.814; 2136.375;  170.525;    0.000
934.987; 2088.375;  183.525;    0.000
935.159; 2129.375;  154.525;    0.000
935.332; 2111.375;  178.525;    0.000
935.505; 2141.375;  213.525;    0.000
935.677; 2016.375;  173.525;    0.000
935.850; 2074.375;  190.525;    0.000
936.022; 2142.375;  205.525;    0.000
936.195; 2027.375;  201.525;    0.000
936.367; 2130.375;  189.525;    0.000
936.540; 2080.375;  179.525;    0.000
936.712; 2053.375;  195.525;    0.000
936.885; 2155.375;  207.525;    0.000
937.057; 2107.375;  163.525;    0.000
937.229; 2073.375;  175.525;    0.000
937.402; 2130.375;  168.525;    0.000
937.574; 2180.375;  136.525;    0.000
937.746; 2255.375;  166.525;    0.000
937.919; 2343.375;  178.525;    0.000
938.091; 2412.375;  192.525;    0.000
938.263; 2553.375;  164.525;    0.000
938.435; 2716.375;  204.525;    0.000
938.608; 3065.375;  153.525;    0.000
938.780; 3397.375;  159.525;    0.000
938.952; 3636.375;  160.525;    0.000
939.124; 3576.375;  156.525;    0.000
939.296; 4158.375;  110.525;    0.000
939.468; 4274.375;  135.525;    0.000
939.640; 3734.375;  144.525;    0.000
939.812; 3472.375;  232.525;    0.000
939.984; 3092.375;  128.525;    0.000
940.156; 2967.375;  195.525;    0.000
940.328; 2797.375;  226.525;    0.000
940.500; 2697.375;  146.525;    0.000
940.672; 2654.375;  190.525;    0.000
940.843; 2576.375;  156.525;    0.000
941.015; 2463.375;  200.525;    0.000
941.187; 2458.375;  159.525;    0.000
941.359; 2368.375;  183.525;    0.000
941.531; 2309.375;  137.525;    0.000
941.702; 2282.375;  186.525;    0.000
941.874; 2163.375;  164.525;    0.000
942.046; 2189.375;  202.525;    0.000
942.217; 2232.375;  146.525;    0.000
942.389; 2122.375;  165.525;    0.000
942.560; 2063.375;  191.525;    0.000
942.732; 2159.375;  240.525;    0.000
942.904; 2126.375;  173.525;    0.000
943.075; 2076.375;  157.525;    0.000
943.247; 2037.375;  155.525;    0.000
943.418; 2061.375;  164.525;    0.000
943.589; 2037.375;  150.525;    0.000
943.761; 2005.375;  143.525;    0.000
943.932; 2078.375;  151.525;    0.000
944.104; 1998.375;  194.525;    0.000
944.275; 2114.375;  154.525;    0.000
944.446; 1962.375;  169.525;    0.000
944.617; 1970.375;  138.525;    0.000
944.789; 1925.375;  158.525;    0.000
944.960; 1911.375;  197.525;    0.000
945.131; 1895.375;  139.525;    0.000
945.302; 1965.375;  169.525;    0.000
945.473; 1911.375;  149.525;    0.000
945.645; 1992.375;  171.525;    0.000
945.816; 1947.375;  167.525;    0.000
945.987; 2025.375;  156.525;    0.000
946.158; 1958.375;  185.525;    0.000
946.329; 1965.375;  201.525;    0.000
946.500; 2004.375;  182.525;    0.000
946.671; 1927.375;  156.525;    0.000
946.842; 1936.375;  190.525;    0.000
947.013; 1905.375;  159.525;    0.000
947.183; 1916.375;  209.525;    0.000
947.354; 1886.375;  171.525;    0.000
947.525; 1899.375;  180.525;    0.000
947.696; 1844.375;  163.525;    0.000
947.867; 1908.375;  168.525;    0.000
948.037; 1848.375;  153.525;    0.000
948.208; 1919.375;  178.525;    0.000
948.379; 1851.375;  192.525;    0.000
948.550; 1900.375;  180.525;    0.000
948.720; 1834.375;  196.525;    0.000
948.891; 1802.375;  173.525;    0.000
949.061; 1799.375;  207.525;    0.000
949.232; 1823.375;  176.525;    0.000
949.403; 1808.375;  152.525;    0.000
949.573; 1837.375;  186.525;    0.000
949.744; 1825.375;  181.525;    0.000
949.914; 1829.375;  174.525;    0.000
950.085; 1785.375;  146.525;    0.000
950.255; 1834.375;  162.525;    0.000
950.425; 1782.375;  189.525;    0.000
950.596; 1762.375;  175.525;    0.000
950.766; 1870.375;  209.525;    0.000
950.936; 1800.375;  201.525;    0.000
951.107; 1773.375;  141.525;    0.000
951.277; 1821.375;  211.525;    0.000
951.447; 1799.375;  218.525;    0.000
951.617; 1789.375;  191.525;    0.000
951.788; 1776.375;  193.525;    0.000
951.958; 1800.375;  217.525;    0.000
952.128; 1836.375;  192.525;    0.000
952.298; 1811.375;  237.525;    0.000
952.468; 1854.375;  194.525;    0.000
952.638; 1794.375;  201.525;    0.000
952.808; 1760.375;  203.525;    0.000
952.978; 1778.375;  216.525;    0.000
953.148; 1737.375;  209.525;    0.000
953.318; 1753.375;  213.525;    0.000
953.488; 1641.375;  161.525;    0.000
953.658; 1762.375;  222.525;    0.000
953.828; 1779.375;  196.525;    0.000
953.998; 1720.375;  227.525;    0.000
954.167; 1656.375;  163.525;    0.000
954.337; 1708.375;  201.525;    0.000
954.507; 1739.375;  227.525;    0.000
954.677; 1645.375;  204.525;    0.000
954.846; 1748.375;  210.525;    0.000
955.016; 1636.375;  198.525;    0.000
955.186; 1628.375;  203.525;    0.000
955.355; 1743.375;  198.525;    0.000
955.525; 1674.375;  198.525;    0.000
955.695; 1712.375;  187.525;    0.000
955.864; 1702.375;  243.525;    0.000
956.034; 1684.375;  192.525;    0.000
956.203; 1709.375;  259.525;    0.000
956.373; 1613.375;  185.525;    0.000
956.542; 1756.375;  230.525;    0.000
956.711; 1719.375;  218.525;    0.000
956.881; 1708.375;  232.525;    0.000
957.050; 1698.375;  246.525;    0.000
957.220; 1684.375;  229.525;    0.000
957.389; 1680.375;  211.525;    0.000
957.558; 1661.375;  173.525;    0.000
957.727; 1682.375;  226.525;    0.000
957.897; 1633.375;  209.525;    0.000
958.066; 1680.375;  217.525;    0.000
958.235; 1628.375;  160.525;    0.000
958.404; 1598.375;  199.525;    0.000
958.573; 1647.375;  223.525;    0.000
958.743; 1604.375;  189.525;    0.000
958.912; 1570.375;  199.525;    0.000
959.081; 1616.375;  216.525;    0.000
959.250; 1613.375;  192.525;    0.000
959.419; 1683.375;  216.525;    0.000
959.588; 1630.375;  209.525;    0.000
959.757; 1621.375;  194.525;    0.000
959.926; 1558.375;  200.525;    0.000
960.094; 1640.375;  174.525;    0.000
960.263; 1559.375;  218.525;    0.000
960.432; 1533.375;  173.525;    0.000
960.601; 1570.375;  177.525;    0.000
960.770; 1601.375;  188.525;    0.000
960.939; 1552.375;  167.525;    0.000
961.107; 1587.375;  195.525;    0.000
961.276; 1564.375;  183.525;    0.000
961.445; 1577.375;  195.525;    0.000
961.613; 1590.375;  198.525;    0.000
961.782; 1534.375;  224.525;    0.000
961.951; 1601.375;  178.525;    0.000
962.119; 1588.375;  214.525;    0.000
962.288; 1572.375;  174.525;    0.000
962.456; 1499.375;  197.525;    0.000
962.625; 1571.375;  212.525;    0.000
962.793; 1580.375;  183.525;    0.000
962.962; 1586.375;  189.525;    0.000
963.130; 1518.375;  151.525;    0.000
963.298; 1597.375;  197.525;    0.000
963.467; 1627.375;  202.525;    0.000
963.635; 1674.375;  172.525;    0.000
963.803; 1569.375;  203.525;    0.000
963.972; 1605.375;  204.525;    0.000
964.140; 1528.375;  193.525;    0.000
964.308; 1501.375;  159.525;    0.000
964.477; 1525.375;  142.525;    0.000
964.645; 1626.375;  202.525;    0.000
964.813; 1618.375;  158.525;    0.000
964.981; 1650.375;  179.525;    0.000
965.149; 1650.375;  176.525;    0.000
965.317; 1606.375;  229.525;    0.000
965.485; 1621.375;  179.525;    0.000
965.653; 1487.375;  205.525;    0.000
965.821; 1609.375;  196.525;    0.000
965.989; 1545.375;  202.525;    0.000
966.157; 1561.375;  199.525;    0.000
966.325; 1548.375;  178.525;    0.000
966.493; 1575.375;  177.525;    0.000
966.661; 1506.375;  172.525;    0.000
966.829; 1482.375;  167.525;    0.000
966.996; 1594.375;  202.525;    0.000
967.164; 1566.375;  175.525;    0.000
967.332; 1595.375;  207.525;    0.000
967.500; 1607.375;  170.525;    0.000
967.667; 1581.375;  222.525;    0.000
967.835; 1549.375;  245.525;    0.000
968.003; 1563.375;  180.525;    0.000
968.170; 1595.375;  222.525;    0.000
968.338; 1597.375;  183.525;    0.000
968.505; 1576.375;  197.525;    0.000
968.673; 1588.375;  209.525;    0.000
968.841; 1523.375;  162.525;    0.000
969.008; 1547.375;  187.525;    0.000
969.175; 1452.375;  204.525;    0.000
969.343; 1598.375;  157.525;    0.000
969.510; 1568.375;  189.525;    0.000
969.678; 1539.375;  153.525;    0.000
969.845; 1589.375;  190.525;    0.000
970.012; 1574.375;  162.525;    0.000
970.180; 1561.375;  223.525;    0.000
970.347; 1600.375;  195.525;    0.000
970.514; 1581.375;  185.525;    0.000
970.681; 1586.375;  187.525;    0.000
970.849; 1539.375;  183.525;    0.000
971.016; 1530.375;  168.525;    0.000
971.183; 1562.375;  160.525;    0.000
971.350; 1580.375;  193.525;    0.000
971.517; 1593.375;  202.525;    0.000
971.684; 1579.375;  242.525;    0.000
971.851; 1533.375;  192.525;    0.000
972.018; 1647.375;  194.525;    0.000
972.185; 1656.375;  193.525;    0.000
972.352; 1612.375;  187.525;    0.000
972.519; 1613.375;  233.525;    0.000
972.686; 1584.375;  186.525;    0.000
972.853; 1615.375;  165.525;    0.000
973.020; 1522.375;  183.525;    0.000
973.186; 1596.375;  186.525;    0.000
973.353; 1568.375;  177.525;    0.000
973.520; 1516.375;  203.525;    0.000
973.687; 1517.375;  211.525;    0.000
973.853; 1561.375;  194.525;    0.000
974.020; 1570.375;  201.525;    0.000
974.187; 1508.375;  187.525;    0.000
974.353; 1620.375;  188.525;    0.000
974.520; 1536.375;  136.525;    0.000
974.687; 1604.375;  169.525;    0.000
974.853; 1563.375;  207.525;    0.000
975.020; 1568.375;  190.525;    0.000
975.186; 1540.375;  182.525;    0.000
975.353; 1598.375;  202.525;    0.000
975.519; 1570.375;  189.525;    0.000
975.685; 1581.375;  176.525;    0.000
975.852; 1476.375;  175.525;    0.000
976.018; 1582.375;  155.525;    0.000
976.184; 1561.375;  179.525;    0.000
976.351; 1563.375;  191.525;    0.000
976.517; 1524.375;  246.525;    0.000
976.683; 1564.375;  222.525;    0.000
976.849; 1543.375;  216.525;    0.000
977.016; 1512.375;  212.525;    0.000
977.182; 1513.375;  192.525;    0.000
977.348; 1578.375;  145.525;    0.000
977.514; 1482.375;  195.525;    0.000
977.680; 1441.375;  210.525;    0.000
977.846; 1506.375;  172.525;    0.000
978.012; 1522.375;  190.525;    0.000
978.178; 1493.375;  201.525;    0.000
978.344; 1495.375;  190.525;    0.000
978.510; 1484.375;  199.525;    0.000
978.676; 1459.375;  174.525;    0.000
978.842; 1459.375;  195.525;    0.000
979.008; 1494.375;  205.525;    0.000
979.174; 1525.375;  187.525;    0.000
979.340; 1486.375;  194.525;    0.000
979.505; 1529.375;  221.525;    0.000
979.671; 1539.375;  178.525;    0.000
979.837; 1503.375;  215.525;    0.000
980.003; 1492.375;  176.525;    0.000
980.168; 1589.375;  185.525;    0.000
980.334; 1542.375;  165.525;    0.000
980.499; 1555.375;  231.525;    0.000
980.665; 1543.375;  238.525;    0.000
980.831; 1522.375;  194.525;    0.000
980.996; 1546.375;  169.525;    0.000
981.162; 1581.375;  199.525;    0.000
981.327; 1515.375;  158.525;    0.000
981.493; 1523.375;  193.525;    0.000
981.658; 1555.375;  181.525;    0.000
981.823; 1539.375;  199.525;    0.000
981.989; 1538.375;  186.525;    0.000
982.154; 1597.375;  225.525;    0.000
982.319; 1569.375;  191.525;    0.000
982.485; 1635.375;  205.525;    0.000
982.650; 1637.375;  234.525;    0.000
982.815; 1565.375;  193.525;    0.000
982.980; 1602.375;  177.525;    0.000
983.146; 1504.375;  212.525;    0.000
983.311; 1481.375;  177.525;    0.000
983.476; 1558.375;  185.525;    0.000
983.641; 1534.375;  149.525;    0.000
983.806; 1521.375;  175.525;    0.000
983.971; 1622.375;  234.525;    0.000
984.136; 1512.375;  191.525;    0.000
984.301; 1577.375;  215.525;    0.000
984.466; 1563.375;  207.525;    0.000
984.631; 1538.375;  206.525;    0.000
984.796; 1585.375;  229.525;    0.000
984.961; 1506.375;  220.525;    0.000
985.126; 1582.375;  204.525;    0.000
985.291; 1557.375;  210.525;    0.000
985.455; 1519.375;  193.525;    0.000
985.620; 1494.375;  207.525;    0.000
985.785; 1525.375;  188.525;    0.000
985.950; 1505.375;  168.525;    0.000
986.114; 1510.375;  239.525;    0.000
986.279; 1571.375;  223.525;    0.000
986.444; 1571.375;  154.525;    0.000
986.608; 1606.375;  232.525;    0.000
986.773; 1606.375;  214.525;    0.000
986.937; 1651.375;  220.525;    0.000
987.102; 1615.375;  224.525;    0.000
987.266; 1505.375;  157.525;    0.000
987.431; 1559.375;  246.525;    0.000
987.595; 1623.375;  203.525;    0.000
987.760; 1589.375;  202.525;    0.000
987.924; 1611.375;  208.525;    0.000
988.088; 1566.375;  169.525;    0.000
988.253; 1525.375;  237.525;    0.000
988.417; 1531.375;  202.525;    0.000
988.581; 1610.375;  215.525;    0.000
988.746; 1523.375;  210.525;    0.000
988.910; 1543.375;  191.525;    0.000
989.074; 1546.375;  197.525;    0.000
989.238; 1511.375;  191.525;    0.000
989.402; 1583.375;  222.525;    0.000
989.566; 1593.375;  221.525;    0.000
989.731; 1511.375;  216.525;    0.000
989.895; 1489.375;  183.525;    0.000
990.059; 1549.375;  150.525;    0.000
990.223; 1471.375;  183.525;    0.000
990.387; 1558.375;  241.525;    0.000
990.551; 1503.375;  198.525;    0.000
990.714; 1462.375;  176.525;    0.000
990.878; 1512.375;  203.525;    0.000
991.042; 1495.375;  146.525;    0.000
991.206; 1539.375;  199.525;    0.000
991.370; 1571.375;  223.525;    0.000
991.534; 1535.375;  158.525;    0.000
991.697; 1494.375;  182.525;    0.000
991.861; 1551.375;  195.525;    0.000
992.025; 1535.375;  206.525;    0.000
992.188; 1611.375;  174.525;    0.000
992.352; 1473.375;  183.525;    0.000
992.516; 1535.375;  181.525;    0.000
992.679; 1507.375;  162.525;    0.000
992.843; 1531.375;  173.525;    0.000
993.006; 1527.375;  189.525;    0.000
993.170; 1548.375;  200.525;    0.000
993.333; 1459.375;  167.525;    0.000
993.497; 1545.375;  217.525;    0.000
993.660; 1523.375;  179.525;    0.000
993.824; 1531.375;  195.525;    0.000
993.987; 1492.375;  186.525;    0.000
994.150; 1473.375;  164.525;    0.000
994.314; 1446.375;  215.525;    0.000
994.477; 1489.375;  186.525;    0.000
994.640; 1511.375;  192.525;    0.000
994.803; 1602.375;  215.525;    0.000
994.967; 1508.375;  208.525;    0.000
995.130; 1543.375;  196.525;    0.000
995.293; 1538.375;  221.525;    0.000
995.456; 1563.375;  164.525;    0.000
995.619; 1467.375;  224.525;    0.000
995.782; 1434.375;  184.525;    0.000
995.945; 1573.375;  220.525;    0.000
996.108; 1543.375;  187.525;    0.000
996.271; 1475.375;  192.525;    0.000
996.434; 1561.375;  162.525;    0.000
996.597; 1495.375;  148.525;    0.000
996.760; 1496.375;  186.525;    0.000
996.923; 1487.375;  154.525;    0.000
997.086; 1449.375;  156.525;    0.000
997.248; 1560.375;  215.525;    0.000
997.411; 1439.375;  160.525;    0.000
997.574; 1458.375;  159.525;    0.000
997.737; 1469.375;  179.525;    0.000
997.899; 1462.375;  184.525;    0.000
998.062; 1482.375;  180.525;    0.000
998.225; 1521.375;  168.525;    0.000
998.387; 1427.375;  192.525;    0.000
998.550; 1502.375;  178.525;    0.000
998.712; 1491.375;  192.525;    0.000
998.875; 1523.375;  230.525;    0.000
999.037; 1544.375;  200.525;    0.000
999.200; 1435.375;  196.525;    0.000
999.362; 1471.375;  173.525;    0.000
999.525; 1513.375;  196.525;    0.000
999.687; 1483.375;  159.525;    0.000
999.849; 1470.375;  180.525;    0.000
1000.012; 1475.375;  210.525;    0.000
1000.174; 1523.375;  175.525;    0.000
1000.336; 1528.375;  174.525;    0.000
1000.499; 1489.375;  180.525;    0.000
1000.661; 1489.375;  204.525;    0.000
1000.823; 1531.375;  181.525;    0.000
1000.985; 1511.375;  178.525;    0.000
1001.147; 1564.375;  215.525;    0.000
1001.309; 1482.375;  212.525;    0.000
1001.471; 1614.375;  192.525;    0.000
1001.633; 1551.375;  207.525;    0.000
1001.796; 1587.375;  211.525;    0.000
1001.958; 1562.375;  200.525;    0.000
1002.119; 1647.375;  210.525;    0.000
1002.281; 1733.375;  204.525;    0.000
1002.443; 1883.375;  230.525;    0.000
1002.605; 1869.375;  178.525;    0.000
1002.767; 1935.375;  228.525;    0.000
1002.929; 2079.375;  199.525;    0.000
1003.091; 2114.375;  220.525;    0.000
1003.252; 2187.375;  219.525;    0.000
1003.414; 2342.375;  213.525;    0.000
1003.576; 2413.375;  202.525;    0.000
1003.738; 2535.375;  184.525;    0.000
1003.899; 2621.375;  218.525;    0.000
1004.061; 2833.375;  210.525;    0.000
1004.222; 2773.375;  179.525;    0.000
1004.384; 2980.375;  183.525;    0.000
1004.546; 3065.375;  206.525;    0.000
1004.707; 3182.375;  191.525;    0.000
1004.869; 3162.375;  197.525;    0.000
1005.030; 3066.375;  186.525;    0.000
1005.191; 2992.375;  188.525;    0.000
1005.353; 2918.375;  215.525;    0.000
1005.514; 2755.375;  184.525;    0.000
1005.675; 2655.375;  209.525;    0.000
1005.837; 2537.375;  239.525;    0.000
1005.998; 2454.375;  218.525;    0.000
1006.159; 2473.375;  212.525;    0.000
1006.321; 2509.375;  220.525;    0.000
1006.482; 2671.375;  201.525;    0.000
1006.643; 2748.375;  222.525;    0.000
1006.804; 2815.375;  191.525;    0.000
1006.965; 2914.375;  214.525;    0.000
1007.126; 2956.375;  214.525;    0.000
1007.287; 2911.375;  243.525;    0.000
1007.448; 2944.375;  251.525;    0.000
1007.609; 2767.375;  244.525;    0.000
1007.770; 2741.375;  211.525;    0.000
1007.931; 2814.375;  225.525;    0.000
1008.092; 2767.375;  188.525;    0.000
1008.253; 2900.375;  224.525;    0.000
1008.414; 2937.375;  198.525;    0.000
1008.575; 3084.375;  244.525;    0.000
1008.736; 2977.375;  219.525;    0.000
1008.896; 2911.375;  206.525;    0.000
1009.057; 2894.375;  258.525;    0.000
1009.218; 2816.375;  209.525;    0.000
1009.379; 3020.375;  204.525;    0.000
1009.539; 3122.375;  242.525;    0.000
1009.700; 3149.375;  205.525;    0.000
1009.860; 3071.375;  211.525;    0.000
1010.021; 2998.375;  219.525;    0.000
1010.182; 3118.375;  206.525;    0.000
1010.342; 3101.375;  219.525;    0.000
1010.503; 3222.375;  231.525;    0.000
1010.663; 3215.375;  260.525;    0.000
1010.823; 3283.375;  200.525;    0.000
1010.984; 3153.375;  189.525;    0.000
1011.144; 3288.375;  234.525;    0.000
1011.305; 3417.375;  212.525;    0.000
1011.465; 3581.375;  202.525;    0.000
1011.625; 3603.375;  236.525;    0.000
1011.785; 3598.375;  203.525;    0.000
1011.946; 3544.375;  195.525;    0.000
1012.106; 3564.375;  176.525;    0.000
1012.266; 3530.375;  211.525;    0.000
1012.426; 3577.375;  244.525;    0.000
1012.586; 3589.375;  202.525;    0.000
1012.746; 3514.375;  234.525;    0.000
1012.906; 3420.375;  246.525;    0.000
1013.066; 3483.375;  232.525;    0.000
1013.226; 3502.375;  248.525;    0.000
1013.386; 3512.375;  231.525;    0.000
1013.546; 3419.375;  233.525;    0.000
1013.706; 3328.375;  211.525;    0.000
1013.866; 3425.375;  240.525;    0.000
1014.026; 3527.375;  188.525;    0.000
1014.186; 3418.375;  186.525;    0.000
1014.346; 3397.375;  203.525;    0.000
1014.505; 3492.375;  238.525;    0.000
1014.665; 3548.375;  206.525;    0.000
1014.825; 3529.375;  200.525;    0.000
1014.985; 3451.375;  215.525;    0.000
1015.144; 3680.375;  250.525;    0.000
1015.304; 3952.375;  195.525;    0.000
1015.464; 3702.375;  237.525;    0.000
1015.623; 3616.375;  232.525;    0.000
1015.783; 3983.375;  220.525;    0.000
1015.942; 4310.375;  219.525;    0.000
1016.102; 4254.375;  202.525;    0.000
1016.261; 4055.375;  225.525;    0.000
1016.420; 4518.375;  246.525;    0.000
1016.580; 5033.375;  226.525;    0.000
1016.739; 4987.375;  214.525;    0.000
1016.899; 4699.375;  205.525;    0.000
1017.058; 4823.375;  217.525;    0.000
1017.217; 5313.375;  199.525;    0.000
1017.376; 4958.375;  219.525;    0.000
1017.536; 4431.375;  209.525;    0.000
1017.695; 4437.375;  213.525;    0.000
1017.854; 4587.375;  187.525;    0.000
1018.013; 4456.375;  222.525;    0.000
1018.172; 4205.375;  204.525;    0.000
1018.331; 4123.375;  195.525;    0.000
1018.490; 4564.375;  213.525;    0.000
1018.649; 4863.375;  216.525;    0.000
1018.808; 4962.375;  227.525;    0.000
1018.967; 4998.375;  206.525;    0.000
1019.126; 4871.375;  206.525;    0.000
1019.285; 5004.375;  219.525;    0.000
1019.444; 4991.375;  218.525;    0.000
1019.603; 4773.375;  206.525;    0.000
1019.762; 4455.375;  189.525;    0.000
1019.921; 4563.375;  217.525;    0.000
1020.079; 5024.375;  200.525;    0.000
1020.238; 5523.375;  219.525;    0.000
1020.397; 5174.375;  227.525;    0.000
1020.555; 4677.375;  207.525;    0.000
1020.714; 4821.375;  253.525;    0.000
1020.873; 5266.375;  230.525;    0.000
1021.031; 5303.375;  232.525;    0.000
1021.190; 4903.375;  226.525;    0.000
1021.348; 4746.375;  224.525;    0.000
1021.507; 5320.375;  215.525;    0.000
1021.665; 5827.375;  233.525;    0.000
1021.824; 5227.375;  196.525;    0.000
1021.982; 4851.375;  215.525;    0.000
1022.141; 4865.375;  200.525;    0.000
1022.299; 5730.375;  200.525;    0.000
1022.457; 5913.375;  179.525;    0.000
1022.616; 5519.375;  226.525;    0.000
1022.774; 4737.375;  216.525;    0.000
1022.932; 5078.375;  212.525;    0.000
1023.090; 6073.375;  220.525;    0.000
1023.249; 6116.375;  194.525;    0.000
1023.407; 5447.375;  227.525;    0.000
1023.565; 4734.375;  190.525;    0.000
1023.723; 5235.375;  190.525;    0.000
1023.881; 6238.375;  214.525;    0.000
1024.039; 6122.375;  179.525;    0.000
1024.197; 5461.375;  274.525;    0.000
1024.355; 5071.375;  269.525;    0.000
1024.513; 5397.375;  259.525;    0.000
1024.671; 6285.375;  211.525;    0.000
1024.829; 6267.375;  230.525;    0.000
1024.987; 5636.375;  239.525;    0.000
1025.145; 5115.375;  231.525;    0.000
1025.302; 5434.375;  212.525;    0.000
1025.460; 6048.375;  224.525;    0.000
1025.618; 6461.375;  217.525;    0.000
1025.776; 6042.375;  232.525;    0.000
1025.933; 5125.375;  212.525;    0.000
1026.091; 5329.375;  214.525;    0.000
1026.249; 6072.375;  224.525;    0.000
1026.406; 6740.375;  219.525;    0.000
1026.564; 6381.375;  262.525;    0.000
1026.721; 5746.375;  206.525;    0.000
1026.879; 5358.375;  227.525;    0.000
1027.036; 5868.375;  234.525;    0.000
1027.194; 6500.375;  256.525;    0.000
1027.351; 6702.375;  229.525;    0.000
1027.509; 6095.375;  253.525;    0.000
1027.666; 5541.375;  248.525;    0.000
1027.823; 5790.375;  215.525;    0.000
1027.981; 6316.375;  248.525;    0.000
1028.138; 6931.375;  257.525;    0.000
1028.295; 6519.375;  215.525;    0.000
1028.452; 5870.375;  236.525;    0.000
1028.609; 5649.375;  240.525;    0.000
1028.767; 6150.375;  258.525;    0.000
1028.924; 6627.375;  211.525;    0.000
1029.081; 6557.375;  226.525;    0.000
1029.238; 6631.375;  228.525;    0.000
1029.395; 6030.375;  264.525;    0.000
1029.552; 6167.375;  227.525;    0.000
1029.709; 6537.375;  232.525;    0.000
1029.866; 6782.375;  223.525;    0.000
1030.023; 6823.375;  220.525;    0.000
1030.180; 6325.375;  222.525;    0.000
1030.337; 6209.375;  224.525;    0.000
1030.494; 6430.375;  228.525;    0.000
1030.650; 6633.375;  242.525;    0.000
1030.807; 6843.375;  214.525;    0.000
1030.964; 6532.375;  207.525;    0.000
1031.121; 6490.375;  236.525;    0.000
1031.277; 6347.375;  206.525;    0.000
1031.434; 6660.375;  249.525;    0.000
1031.591; 7049.375;  253.525;    0.000
1031.747; 6970.375;  240.525;    0.000
1031.904; 7093.375;  212.525;    0.000
1032.060; 6797.375;  185.525;    0.000
1032.217; 6610.375;  201.525;    0.000
1032.373; 7506.375;  207.525;    0.000
1032.530; 7411.375;  226.525;    0.000
1032.686; 7986.375;  226.525;    0.000
1032.843; 8110.375;  203.525;    0.000
1032.999; 7501.375;  233.525;    0.000
1033.155; 7925.375;  232.525;    0.000
1033.312; 8179.375;  239.525;    0.000
1033.468; 9303.375;  207.525;    0.000
1033.624;10211.375;  238.525;    0.000
1033.780;10008.375;  255.525;    0.000
1033.937;10102.375;  188.525;    0.000
1034.093; 9227.375;  244.525;    0.000
1034.249; 9621.375;  182.525;    0.000
1034.405; 9789.375;  251.525;    0.000
1034.561;10552.375;  250.525;    0.000
1034.717;11167.375;  208.525;    0.000
1034.873;10635.375;  210.525;    0.000
1035.029;10652.375;  245.525;    0.000
1035.185;10114.375;  230.525;    0.000
1035.341; 9762.375;  209.525;    0.000
1035.497;11099.375;  244.525;    0.000
1035.653;11311.375;  229.525;    0.000
1035.809;12320.375;  275.525;    0.000
1035.964;13085.375;  203.525;    0.000
1036.120;11835.375;  215.525;    0.000
1036.276;11919.375;  228.525;    0.000
1036.432;11849.375;  183.525;    0.000
1036.587;10880.375;  214.525;    0.000
1036.743;12242.375;  240.525;    0.000
1036.899;13277.375;  202.525;    0.000
1037.054;12709.375;  182.525;    0.000
1037.210;14744.375;  228.525;    0.000
1037.365;14486.375;  239.525;    0.000
1037.521;13411.375;  230.525;    0.000
1037.676;13734.375;  217.525;    0.000
1037.832;12656.375;  235.525;    0.000
1037.987;12696.375;  210.525;    0.000
1038.143;13089.375;  206.525;    0.000
1038.298;14805.375;  177.525;    0.000
1038.453;14419.375;  215.525;    0.000
1038.609;15566.375;  210.525;    0.000
1038.764;16402.375;  227.525;    0.000
1038.919;14728.375;  197.525;    0.000
1039.074;15090.375;  183.525;    0.000
1039.229;14169.375;  218.525;    0.000
1039.385;13533.375;  251.525;    0.000
1039.540;14559.375;  222.525;    0.000
1039.695;15516.375;  215.525;    0.000
1039.850;16503.375;  204.525;    0.000
1040.005;17536.375;  241.525;    0.000
1040.160;19006.375;  180.525;    0.000
1040.315;18523.375;  197.525;    0.000
1040.470;17334.375;  180.525;    0.000
1040.625;17033.375;  196.525;    0.000
1040.780;16212.375;  245.525;    0.000
1040.935;15189.375;  204.525;    0.000
1041.089;16421.375;  213.525;    0.000
1041.244;18441.375;  200.525;    0.000
1041.399;19812.375;  212.525;    0.000
1041.554;20888.375;  239.525;    0.000
1041.708;23114.375;  238.525;    0.000
1041.863;23872.375;  213.525;    0.000
1042.018;21376.375;  236.525;    0.000
1042.172;21100.375;  238.525;    0.000
1042.327;20536.375;  254.525;    0.000
1042.481;19755.375;  197.525;    0.000
1042.636;20700.375;  205.525;    0.000
1042.791;20730.375;  218.525;    0.000
1042.945;24230.375;  261.525;    0.000
1043.099;27582.375;  201.525;    0.000
1043.254;26269.375;  191.525;    0.000
1043.408;27388.375;  279.525;    0.000
1043.563;29917.375;  203.525;    0.000
1043.717;28191.375;  229.525;    0.000
1043.871;27341.375;  213.525;    0.000
1044.025;26180.375;  240.525;    0.000
1044.180;24800.375;  220.525;    0.000
1044.334;24560.375;  268.525;    0.000
1044.488;24975.375;  261.525;    0.000
1044.642;26098.375;  205.525;    0.000
1044.796;28778.375;  240.525;    0.000
1044.950;33386.375;  258.525;    0.000
1045.104;36996.375;  218.525;    0.000
1045.258;38115.375;  213.525;    0.000
1045.412;36827.375;  223.525;    0.000
1045.566;34877.375;  240.525;    0.000
1045.720;34547.375;  235.525;    0.000
1045.874;32004.375;  221.525;    0.000
1046.028;30219.375;  247.525;    0.000
1046.182;29757.375;  200.525;    0.000
1046.336;29922.375;  220.525;    0.000
1046.489;30061.375;  228.525;    0.000
1046.643;31152.375;  249.525;    0.000
1046.797;34013.375;  230.525;    0.000
1046.951;34680.375;  234.525;    0.000
1047.104;35973.375;  262.525;    0.000
1047.258;40926.375;  210.525;    0.000
1047.411;42146.375;  235.525;    0.000
1047.565;40016.375;  237.525;    0.000
1047.719;39834.375;  237.525;    0.000
1047.872;38748.375;  225.525;    0.000
1048.026;37085.375;  237.525;    0.000
1048.179;34661.375;  220.525;    0.000
1048.332;34070.375;  219.525;    0.000
1048.486;34773.375;  195.525;    0.000
1048.639;35346.375;  213.525;    0.000
1048.792;35462.375;  245.525;    0.000
1048.946;37970.375;  234.525;    0.000
1049.099;41447.375;  226.525;    0.000
1049.252;43236.375;  282.525;    0.000
1049.406;39145.375;  255.525;    0.000
1049.559;41333.375;  223.525;    0.000
1049.712;48493.375;  253.525;    0.000
1049.865;52633.375;  271.525;    0.000
1050.018;51422.375;  241.525;    0.000
1050.171;43664.375;  202.525;    0.000
1050.324;41814.375;  250.525;    0.000
1050.477;42830.375;  251.525;    0.000
1050.630;47256.375;  216.525;    0.000
1050.783;49113.375;  205.525;    0.000
1050.936;45706.375;  219.525;    0.000
1051.089;41659.375;  247.525;    0.000
1051.242;44549.375;  238.525;    0.000
1051.394;50122.375;  252.525;    0.000
1051.547;52096.375;  245.525;    0.000
1051.700;49205.375;  206.525;    0.000
1051.853;46331.375;  270.525;    0.000
1052.005;48000.375;  245.525;    0.000
1052.158;53511.375;  290.525;    0.000
1052.311;60044.375;  237.525;    0.000
1052.463;59294.375;  271.525;    0.000
1052.616;51533.375;  255.525;    0.000
1052.768;46652.375;  257.525;    0.000
1052.921;46121.375;  289.525;    0.000
1053.073;48434.375;  287.525;    0.000
1053.226;55095.375;  268.525;    0.000
1053.378;64524.375;  294.525;    0.000
1053.531;65131.375;  255.525;    0.000
1053.683;63664.375;  293.525;    0.000
1053.835;54527.375;  274.525;    0.000
1053.988;42139.375;  282.525;    0.000
1054.140; 7660.375;  291.525;    0.000
1054.292; 1719.375;  292.525;    0.000
1054.444; 1436.375;  299.525;    0.000
1054.596; 1287.375;  319.525;    0.000
1054.749; 1143.375;  295.525;    0.000
1054.901; 1076.375;  266.525;    0.000
1055.053; 1039.375;  300.525;    0.000
1055.205;  918.375;  290.525;    0.000
1055.357;  911.375;  304.525;    0.000
1055.509;  841.375;  292.525;    0.000
1055.661;  812.375;  339.525;    0.000
1055.813;  817.375;  306.525;    0.000
1055.965;  797.375;  293.525;    0.000
1056.116;  791.375;  300.525;    0.000
1056.268;  768.375;  306.525;    0.000
1056.420;  824.375;  288.525;    0.000

