
Integration time [ms]:   0.300
Averaging Nr. [scans]: 1
Smoothing Nr. [pixels]: 0
Data measured with spectrometer [name]: VIS
Wave   ;Sample   ;Dark     ;Reference
[nm]   ;[counts] ;[counts] ;[counts] 

450.961;  194.550;  204.125;    0.000
451.100;  220.550;  219.125;    0.000
451.239;  228.550;  196.125;    0.000
451.377;  244.550;  252.125;    0.000
451.516;  197.550;  215.125;    0.000
451.655;  210.550;  214.125;    0.000
451.794;  233.550;  241.125;    0.000
451.932;  225.550;  242.125;    0.000
452.071;  215.550;  204.125;    0.000
452.210;  226.550;  243.125;    0.000
452.348;  234.550;  241.125;    0.000
452.487;  236.550;  246.125;    0.000
452.626;  238.550;  235.125;    0.000
452.764;  251.550;  230.125;    0.000
452.903;  238.550;  199.125;    0.000
453.042;  262.550;  178.125;    0.000
453.180; 2705.550;  291.125;    0.000
453.319; 2738.550;  335.125;    0.000
453.458; 2805.550;  245.125;    0.000
453.596; 2868.550;  325.125;    0.000
453.735; 2818.550;  291.125;    0.000
453.873; 2924.550;  295.125;    0.000
454.012; 2818.550;  291.125;    0.000
454.150; 2984.550;  292.125;    0.000
454.289; 3033.550;  328.125;    0.000
454.427; 2976.550;  295.125;    0.000
454.566; 3055.550;  295.125;    0.000
454.704; 2916.550;  301.125;    0.000
454.843; 2995.550;  278.125;    0.000
454.981; 3118.550;  306.125;    0.000
455.120; 3019.550;  237.125;    0.000
455.258; 3117.550;  325.125;    0.000
455.397; 3173.550;  276.125;    0.000
455.535; 3197.550;  269.125;    0.000
455.674; 3258.550;  259.125;    0.000
455.812; 3179.550;  264.125;    0.000
455.951; 3284.550;  286.125;    0.000
456.089; 3242.550;  302.125;    0.000
456.227; 3312.550;  230.125;    0.000
456.366; 3246.550;  303.125;    0.000
456.504; 3421.550;  316.125;    0.000
456.642; 3443.550;  309.125;    0.000
456.781; 3386.550;  299.125;    0.000
456.919; 3435.550;  281.125;    0.000
457.057; 3452.550;  253.125;    0.000
457.196; 3528.550;  268.125;    0.000
457.334; 3535.550;  292.125;    0.000
457.472; 3584.550;  287.125;    0.000
457.610; 3765.550;  300.125;    0.000
457.749; 3779.550;  342.125;    0.000
457.887; 3857.550;  310.125;    0.000
458.025; 3847.550;  310.125;    0.000
458.163; 3809.550;  323.125;    0.000
458.301; 4012.550;  336.125;    0.000
458.440; 3961.550;  297.125;    0.000
458.578; 4028.550;  295.125;    0.000
458.716; 4081.550;  309.125;    0.000
458.854; 4160.550;  335.125;    0.000
458.992; 4243.550;  244.125;    0.000
459.130; 4238.550;  370.125;    0.000
459.269; 4357.550;  313.125;    0.000
459.407; 4448.550;  370.125;    0.000
459.545; 4517.550;  341.125;    0.000
459.683; 4477.550;  336.125;    0.000
459.821; 4546.550;  311.125;    0.000
459.959; 4588.550;  330.125;    0.000
460.097; 4709.550;  355.125;    0.000
460.235; 4760.550;  348.125;    0.000
460.373; 4722.550;  338.125;    0.000
460.511; 4726.550;  361.125;    0.000
460.649; 4831.550;  295.125;    0.000
460.787; 4742.550;  325.125;    0.000
460.925; 4891.550;  266.125;    0.000
461.063; 4816.550;  365.125;    0.000
461.201; 4872.550;  334.125;    0.000
461.339; 4883.550;  341.125;    0.000
461.477; 5016.550;  304.125;    0.000
461.615; 4995.550;  311.125;    0.000
461.753; 5039.550;  342.125;    0.000
461.891; 5087.550;  333.125;    0.000
462.029; 5229.550;  336.125;    0.000
462.166; 5309.550;  272.125;    0.000
462.304; 5275.550;  313.125;    0.000
462.442; 5397.550;  313.125;    0.000
462.580; 5585.550;  328.125;    0.000
462.718; 5446.550;  358.125;    0.000
462.856; 5560.550;  302.125;    0.000
462.993; 5627.550;  360.125;    0.000
463.131; 5514.550;  280.125;    0.000
463.269; 5520.550;  312.125;    0.000
463.407; 5344.550;  263.125;    0.000
463.545; 5225.550;  253.125;    0.000
463.682; 5317.550;  296.125;    0.000
463.820; 5534.550;  308.125;    0.000
463.958; 5819.550;  300.125;    0.000
464.095; 5797.550;  289.125;    0.000
464.233; 5896.550;  340.125;    0.000
464.371; 5886.550;  300.125;    0.000
464.509; 5778.550;  266.125;    0.000
464.646; 5857.550;  294.125;    0.000
464.784; 5786.550;  284.125;    0.000
464.921; 5569.550;  350.125;    0.000
465.059; 5584.550;  256.125;    0.000
465.197; 5416.550;  289.125;    0.000
465.334; 5370.550;  287.125;    0.000
465.472; 5318.550;  322.125;    0.000
465.609; 5278.550;  311.125;    0.000
465.747; 5103.550;  336.125;    0.000
465.885; 5091.550;  308.125;    0.000
466.022; 5172.550;  299.125;    0.000
466.160; 5154.550;  293.125;    0.000
466.297; 5018.550;  317.125;    0.000
466.435; 5025.550;  336.125;    0.000
466.572; 5089.550;  282.125;    0.000
466.710; 5059.550;  299.125;    0.000
466.847; 5120.550;  288.125;    0.000
466.985; 5092.550;  274.125;    0.000
467.122; 5006.550;  302.125;    0.000
467.260; 4936.550;  271.125;    0.000
467.397; 4903.550;  263.125;    0.000
467.534; 4989.550;  320.125;    0.000
467.672; 4979.550;  309.125;    0.000
467.809; 4974.550;  275.125;    0.000
467.947; 5009.550;  319.125;    0.000
468.084; 4931.550;  309.125;    0.000
468.221; 4920.550;  302.125;    0.000
468.359; 5001.550;  286.125;    0.000
468.496; 4932.550;  293.125;    0.000
468.633; 4948.550;  273.125;    0.000
468.771; 4995.550;  296.125;    0.000
468.908; 5007.550;  277.125;    0.000
469.045; 5180.550;  303.125;    0.000
469.183; 5127.550;  314.125;    0.000
469.320; 5087.550;  278.125;    0.000
469.457; 5171.550;  308.125;    0.000
469.594; 5293.550;  272.125;    0.000
469.732; 5119.550;  321.125;    0.000
469.869; 5279.550;  299.125;    0.000
470.006; 5335.550;  267.125;    0.000
470.143; 5419.550;  298.125;    0.000
470.280; 5398.550;  272.125;    0.000
470.417; 5465.550;  314.125;    0.000
470.555; 5321.550;  305.125;    0.000
470.692; 5353.550;  309.125;    0.000
470.829; 5303.550;  311.125;    0.000
470.966; 5298.550;  260.125;    0.000
471.103; 5350.550;  267.125;    0.000
471.240; 5324.550;  290.125;    0.000
471.377; 5306.550;  290.125;    0.000
471.514; 5245.550;  295.125;    0.000
471.651; 5134.550;  300.125;    0.000
471.789; 5316.550;  281.125;    0.000
471.926; 5233.550;  291.125;    0.000
472.063; 5162.550;  305.125;    0.000
472.200; 5082.550;  285.125;    0.000
472.337; 5110.550;  288.125;    0.000
472.474; 5093.550;  276.125;    0.000
472.611; 5156.550;  309.125;    0.000
472.748; 5050.550;  280.125;    0.000
472.884; 5170.550;  300.125;    0.000
473.021; 5060.550;  280.125;    0.000
473.158; 5102.550;  304.125;    0.000
473.295; 5035.550;  308.125;    0.000
473.432; 5044.550;  294.125;    0.000
473.569; 4992.550;  288.125;    0.000
473.706; 4917.550;  254.125;    0.000
473.843; 4900.550;  282.125;    0.000
473.980; 5045.550;  286.125;    0.000
474.117; 5085.550;  257.125;    0.000
474.253; 5137.550;  298.125;    0.000
474.390; 4950.550;  253.125;    0.000
474.527; 5001.550;  271.125;    0.000
474.664; 5120.550;  257.125;    0.000
474.801; 5020.550;  296.125;    0.000
474.937; 5050.550;  263.125;    0.000
475.074; 5082.550;  262.125;    0.000
475.211; 5076.550;  299.125;    0.000
475.348; 5241.550;  308.125;    0.000
475.484; 5209.550;  278.125;    0.000
475.621; 5072.550;  287.125;    0.000
475.758; 5082.550;  231.125;    0.000
475.894; 5177.550;  295.125;    0.000
476.031; 5218.550;  290.125;    0.000
476.168; 5034.550;  287.125;    0.000
476.304; 5119.550;  331.125;    0.000
476.441; 5230.550;  301.125;    0.000
476.578; 5240.550;  263.125;    0.000
476.714; 5236.550;  261.125;    0.000
476.851; 5226.550;  247.125;    0.000
476.987; 5287.550;  297.125;    0.000
477.124; 5350.550;  296.125;    0.000
477.261; 5407.550;  299.125;    0.000
477.397; 5349.550;  292.125;    0.000
477.534; 5534.550;  289.125;    0.000
477.670; 5475.550;  268.125;    0.000
477.807; 5384.550;  234.125;    0.000
477.943; 5605.550;  279.125;    0.000
478.080; 5472.550;  276.125;    0.000
478.216; 5494.550;  248.125;    0.000
478.353; 5525.550;  296.125;    0.000
478.489; 5769.550;  267.125;    0.000
478.626; 5718.550;  243.125;    0.000
478.762; 5693.550;  252.125;    0.000
478.898; 5654.550;  266.125;    0.000
479.035; 5816.550;  290.125;    0.000
479.171; 5750.550;  247.125;    0.000
479.308; 5872.550;  283.125;    0.000
479.444; 5762.550;  244.125;    0.000
479.580; 5844.550;  259.125;    0.000
479.717; 5829.550;  301.125;    0.000
479.853; 5770.550;  257.125;    0.000
479.989; 5817.550;  249.125;    0.000
480.126; 5928.550;  218.125;    0.000
480.262; 6035.550;  275.125;    0.000
480.398; 5924.550;  246.125;    0.000
480.535; 5922.550;  246.125;    0.000
480.671; 5954.550;  272.125;    0.000
480.807; 5891.550;  281.125;    0.000
480.943; 5945.550;  233.125;    0.000
481.080; 5825.550;  303.125;    0.000
481.216; 5956.550;  229.125;    0.000
481.352; 5854.550;  240.125;    0.000
481.488; 5775.550;  284.125;    0.000
481.624; 5774.550;  236.125;    0.000
481.760; 5890.550;  255.125;    0.000
481.897; 5685.550;  206.125;    0.000
482.033; 5724.550;  254.125;    0.000
482.169; 5797.550;  268.125;    0.000
482.305; 5708.550;  214.125;    0.000
482.441; 5660.550;  225.125;    0.000
482.577; 5776.550;  251.125;    0.000
482.713; 5739.550;  221.125;    0.000
482.849; 5730.550;  218.125;    0.000
482.985; 5679.550;  245.125;    0.000
483.121; 5747.550;  224.125;    0.000
483.258; 5815.550;  249.125;    0.000
483.394; 5759.550;  224.125;    0.000
483.530; 5756.550;  247.125;    0.000
483.665; 5783.550;  256.125;    0.000
483.801; 5681.550;  220.125;    0.000
483.937; 5781.550;  200.125;    0.000
484.073; 5825.550;  272.125;    0.000
484.209; 5865.550;  243.125;    0.000
484.345; 5789.550;  274.125;    0.000
484.481; 5948.550;  264.125;    0.000
484.617; 5748.550;  270.125;    0.000
484.753; 5846.550;  244.125;    0.000
484.889; 5820.550;  293.125;    0.000
485.025; 5944.550;  257.125;    0.000
485.161; 5897.550;  264.125;    0.000
485.296; 6011.550;  247.125;    0.000
485.432; 5990.550;  240.125;    0.000
485.568; 5875.550;  240.125;    0.000
485.704; 5901.550;  232.125;    0.000
485.840; 5860.550;  280.125;    0.000
485.975; 5857.550;  253.125;    0.000
486.111; 5778.550;  250.125;    0.000
486.247; 5907.550;  272.125;    0.000
486.383; 6018.550;  258.125;    0.000
486.518; 5949.550;  256.125;    0.000
486.654; 5930.550;  250.125;    0.000
486.790; 5924.550;  259.125;    0.000
486.926; 5911.550;  256.125;    0.000
487.061; 5872.550;  267.125;    0.000
487.197; 5894.550;  224.125;    0.000
487.333; 5850.550;  265.125;    0.000
487.468; 5767.550;  223.125;    0.000
487.604; 5875.550;  298.125;    0.000
487.740; 5945.550;  261.125;    0.000
487.875; 5910.550;  278.125;    0.000
488.011; 5882.550;  292.125;    0.000
488.146; 5741.550;  239.125;    0.000
488.282; 5745.550;  265.125;    0.000
488.417; 5940.550;  286.125;    0.000
488.553; 5932.550;  271.125;    0.000
488.688; 5972.550;  252.125;    0.000
488.824; 5848.550;  239.125;    0.000
488.960; 5940.550;  266.125;    0.000
489.095; 5913.550;  229.125;    0.000
489.230; 5985.550;  247.125;    0.000
489.366; 5941.550;  260.125;    0.000
489.501; 5937.550;  257.125;    0.000
489.637; 5975.550;  233.125;    0.000
489.772; 5896.550;  254.125;    0.000
489.908; 5936.550;  235.125;    0.000
490.043; 6080.550;  266.125;    0.000
490.178; 6040.550;  228.125;    0.000
490.314; 5915.550;  310.125;    0.000
490.449; 6021.550;  251.125;    0.000
490.585; 5903.550;  221.125;    0.000
490.720; 5917.550;  203.125;    0.000
490.855; 5939.550;  266.125;    0.000
490.991; 6019.550;  249.125;    0.000
491.126; 6006.550;  313.125;    0.000
491.261; 6025.550;  284.125;    0.000
491.396; 5960.550;  225.125;    0.000
491.532; 6035.550;  227.125;    0.000
491.667; 6099.550;  210.125;    0.000
491.802; 6014.550;  214.125;    0.000
491.937; 6038.550;  246.125;    0.000
492.073; 5931.550;  250.125;    0.000
492.208; 5991.550;  267.125;    0.000
492.343; 6083.550;  245.125;    0.000
492.478; 6170.550;  271.125;    0.000
492.613; 6216.550;  253.125;    0.000
492.749; 6019.550;  249.125;    0.000
492.884; 6111.550;  217.125;    0.000
493.019; 6117.550;  244.125;    0.000
493.154; 6054.550;  265.125;    0.000
493.289; 6101.550;  266.125;    0.000
493.424; 6147.550;  226.125;    0.000
493.559; 6069.550;  222.125;    0.000
493.694; 6084.550;  218.125;    0.000
493.829; 6096.550;  246.125;    0.000
493.964; 6154.550;  243.125;    0.000
494.099; 6117.550;  269.125;    0.000
494.234; 6080.550;  249.125;    0.000
494.369; 6001.550;  279.125;    0.000
494.504; 5951.550;  261.125;    0.000
494.639; 6120.550;  289.125;    0.000
494.774; 6060.550;  252.125;    0.000
494.909; 6023.550;  250.125;    0.000
495.044; 6050.550;  207.125;    0.000
495.179; 6035.550;  266.125;    0.000
495.314; 6175.550;  228.125;    0.000
495.449; 6047.550;  262.125;    0.000
495.584; 6009.550;  281.125;    0.000
495.719; 6094.550;  251.125;    0.000
495.854; 6079.550;  237.125;    0.000
495.988; 6103.550;  238.125;    0.000
496.123; 6167.550;  255.125;    0.000
496.258; 6120.550;  264.125;    0.000
496.393; 6212.550;  253.125;    0.000
496.528; 6173.550;  244.125;    0.000
496.663; 6243.550;  267.125;    0.000
496.797; 6313.550;  271.125;    0.000
496.932; 6477.550;  262.125;    0.000
497.067; 6431.550;  260.125;    0.000
497.202; 6494.550;  264.125;    0.000
497.336; 6525.550;  243.125;    0.000
497.471; 6732.550;  251.125;    0.000
497.606; 6678.550;  219.125;    0.000
497.740; 6799.550;  264.125;    0.000
497.875; 7126.550;  252.125;    0.000
498.010; 7132.550;  241.125;    0.000
498.144; 7233.550;  261.125;    0.000
498.279; 7474.550;  221.125;    0.000
498.414; 7435.550;  246.125;    0.000
498.548; 7664.550;  212.125;    0.000
498.683; 7727.550;  260.125;    0.000
498.817; 7802.550;  244.125;    0.000
498.952; 8104.550;  252.125;    0.000
499.087; 8195.550;  251.125;    0.000
499.221; 8461.550;  282.125;    0.000
499.356; 8785.550;  264.125;    0.000
499.490; 8776.550;  280.125;    0.000
499.625; 9229.550;  256.125;    0.000
499.759; 9439.550;  253.125;    0.000
499.894; 9798.550;  261.125;    0.000
500.028;10210.550;  304.125;    0.000
500.162;10501.550;  272.125;    0.000
500.297;10506.550;  274.125;    0.000
500.431;10721.550;  320.125;    0.000
500.566;10790.550;  268.125;    0.000
500.700;10600.550;  280.125;    0.000
500.835;10312.550;  288.125;    0.000
500.969; 9944.550;  253.125;    0.000
501.103; 9760.550;  234.125;    0.000
501.238; 9450.550;  302.125;    0.000
501.372; 9089.550;  292.125;    0.000
501.506; 8795.550;  222.125;    0.000
501.641; 8531.550;  274.125;    0.000
501.775; 8131.550;  245.125;    0.000
501.909; 7946.550;  283.125;    0.000
502.043; 7958.550;  252.125;    0.000
502.178; 7677.550;  293.125;    0.000
502.312; 7431.550;  223.125;    0.000
502.446; 7193.550;  292.125;    0.000
502.580; 7058.550;  253.125;    0.000
502.715; 7068.550;  282.125;    0.000
502.849; 6916.550;  258.125;    0.000
502.983; 6997.550;  267.125;    0.000
503.117; 6764.550;  226.125;    0.000
503.251; 6714.550;  260.125;    0.000
503.385; 6505.550;  291.125;    0.000
503.520; 6481.550;  279.125;    0.000
503.654; 6324.550;  229.125;    0.000
503.788; 6355.550;  259.125;    0.000
503.922; 6292.550;  246.125;    0.000
504.056; 6246.550;  269.125;    0.000
504.190; 6292.550;  265.125;    0.000
504.324; 6231.550;  298.125;    0.000
504.458; 6133.550;  235.125;    0.000
504.592; 6099.550;  275.125;    0.000
504.726; 6004.550;  226.125;    0.000
504.860; 5827.550;  298.125;    0.000
504.994; 5879.550;  253.125;    0.000
505.128; 5724.550;  283.125;    0.000
505.262; 5571.550;  255.125;    0.000
505.396; 5513.550;  219.125;    0.000
505.530; 5589.550;  279.125;    0.000
505.664; 5441.550;  306.125;    0.000
505.798; 5331.550;  297.125;    0.000
505.932; 5321.550;  273.125;    0.000
506.066; 5258.550;  271.125;    0.000
506.199; 5116.550;  273.125;    0.000
506.333; 5250.550;  227.125;    0.000
506.467; 5151.550;  302.125;    0.000
506.601; 4916.550;  254.125;    0.000
506.735; 5056.550;  299.125;    0.000
506.869; 4991.550;  278.125;    0.000
507.002; 4896.550;  259.125;    0.000
507.136; 5009.550;  285.125;    0.000
507.270; 4961.550;  255.125;    0.000
507.404; 4989.550;  273.125;    0.000
507.537; 4841.550;  245.125;    0.000
507.671; 4705.550;  251.125;    0.000
507.805; 4824.550;  286.125;    0.000
507.939; 4802.550;  261.125;    0.000
508.072; 4890.550;  298.125;    0.000
508.206; 4806.550;  238.125;    0.000
508.340; 4676.550;  289.125;    0.000
508.473; 4703.550;  255.125;    0.000
508.607; 4720.550;  266.125;    0.000
508.740; 4700.550;  253.125;    0.000
508.874; 4714.550;  233.125;    0.000
509.008; 4761.550;  274.125;    0.000
509.141; 4665.550;  235.125;    0.000
509.275; 4653.550;  225.125;    0.000
509.408; 4667.550;  254.125;    0.000
509.542; 4446.550;  244.125;    0.000
509.675; 4600.550;  263.125;    0.000
509.809; 4622.550;  271.125;    0.000
509.942; 4530.550;  246.125;    0.000
510.076; 4487.550;  221.125;    0.000
510.209; 4492.550;  270.125;    0.000
510.343; 4459.550;  265.125;    0.000
510.476; 4486.550;  291.125;    0.000
510.610; 4510.550;  251.125;    0.000
510.743; 4499.550;  304.125;    0.000
510.877; 4417.550;  259.125;    0.000
511.010; 4493.550;  274.125;    0.000
511.143; 4392.550;  255.125;    0.000
511.277; 4352.550;  267.125;    0.000
511.410; 4543.550;  270.125;    0.000
511.543; 4352.550;  231.125;    0.000
511.677; 4394.550;  275.125;    0.000
511.810; 4335.550;  265.125;    0.000
511.943; 4419.550;  231.125;    0.000
512.077; 4363.550;  225.125;    0.000
512.210; 4337.550;  235.125;    0.000
512.343; 4432.550;  251.125;    0.000
512.476; 4449.550;  260.125;    0.000
512.610; 4343.550;  289.125;    0.000
512.743; 4303.550;  270.125;    0.000
512.876; 4486.550;  289.125;    0.000
513.009; 4445.550;  293.125;    0.000
513.142; 4380.550;  282.125;    0.000
513.276; 4387.550;  244.125;    0.000
513.409; 4327.550;  277.125;    0.000
513.542; 4372.550;  254.125;    0.000
513.675; 4394.550;  258.125;    0.000
513.808; 4433.550;  243.125;    0.000
513.941; 4349.550;  274.125;    0.000
514.074; 4433.550;  296.125;    0.000
514.207; 4379.550;  267.125;    0.000
514.340; 4488.550;  283.125;    0.000
514.474; 4474.550;  255.125;    0.000
514.607; 4384.550;  291.125;    0.000
514.740; 4522.550;  296.125;    0.000
514.873; 4493.550;  275.125;    0.000
515.006; 4487.550;  313.125;    0.000
515.139; 4508.550;  253.125;    0.000
515.272; 4593.550;  263.125;    0.000
515.404; 4680.550;  258.125;    0.000
515.537; 4608.550;  285.125;    0.000
515.670; 4589.550;  286.125;    0.000
515.803; 4541.550;  266.125;    0.000
515.936; 4632.550;  251.125;    0.000
516.069; 4753.550;  231.125;    0.000
516.202; 4911.550;  278.125;    0.000
516.335; 4936.550;  295.125;    0.000
516.468; 5166.550;  239.125;    0.000
516.600; 5819.550;  229.125;    0.000
516.733; 6920.550;  301.125;    0.000
516.866; 6903.550;  287.125;    0.000
516.999; 6485.550;  265.125;    0.000
517.132; 7580.550;  291.125;    0.000
517.264;10231.550;  262.125;    0.000
517.397;10085.550;  292.125;    0.000
517.530; 8009.550;  299.125;    0.000
517.663; 6876.550;  268.125;    0.000
517.795; 6325.550;  323.125;    0.000
517.928; 6165.550;  281.125;    0.000
518.061; 6268.550;  242.125;    0.000
518.193; 7870.550;  279.125;    0.000
518.326;11917.550;  288.125;    0.000
518.459;12942.550;  251.125;    0.000
518.591; 9854.550;  314.125;    0.000
518.724; 7495.550;  279.125;    0.000
518.857; 6586.550;  245.125;    0.000
518.989; 6106.550;  290.125;    0.000
519.122; 5680.550;  319.125;    0.000
519.254; 5442.550;  295.125;    0.000
519.387; 5241.550;  271.125;    0.000
519.519; 5146.550;  312.125;    0.000
519.652; 4962.550;  289.125;    0.000
519.784; 4975.550;  311.125;    0.000
519.917; 4692.550;  283.125;    0.000
520.049; 4706.550;  281.125;    0.000
520.182; 4594.550;  242.125;    0.000
520.314; 4758.550;  310.125;    0.000
520.447; 4611.550;  215.125;    0.000
520.579; 4441.550;  277.125;    0.000
520.712; 4542.550;  224.125;    0.000
520.844; 4506.550;  293.125;    0.000
520.976; 4442.550;  281.125;    0.000
521.109; 4293.550;  279.125;    0.000
521.241; 4310.550;  318.125;    0.000
521.373; 4180.550;  242.125;    0.000
521.506; 4234.550;  246.125;    0.000
521.638; 4212.550;  312.125;    0.000
521.770; 4198.550;  257.125;    0.000
521.903; 4146.550;  295.125;    0.000
522.035; 4065.550;  283.125;    0.000
522.167; 4082.550;  281.125;    0.000
522.300; 4017.550;  262.125;    0.000
522.432; 4008.550;  272.125;    0.000
522.564; 3942.550;  277.125;    0.000
522.696; 4044.550;  295.125;    0.000
522.828; 3916.550;  284.125;    0.000
522.961; 3966.550;  295.125;    0.000
523.093; 3903.550;  282.125;    0.000
523.225; 3916.550;  270.125;    0.000
523.357; 3795.550;  285.125;    0.000
523.489; 3881.550;  292.125;    0.000
523.621; 3942.550;  285.125;    0.000
523.753; 3811.550;  273.125;    0.000
523.885; 3781.550;  271.125;    0.000
524.018; 3845.550;  276.125;    0.000
524.150; 3854.550;  320.125;    0.000
524.282; 3780.550;  304.125;    0.000
524.414; 3817.550;  302.125;    0.000
524.546; 3736.550;  305.125;    0.000
524.678; 3700.550;  264.125;    0.000
524.810; 3686.550;  258.125;    0.000
524.942; 3703.550;  252.125;    0.000
525.074; 3690.550;  275.125;    0.000
525.206; 3637.550;  286.125;    0.000
525.338; 3683.550;  280.125;    0.000
525.469; 3774.550;  267.125;    0.000
525.601; 3579.550;  266.125;    0.000
525.733; 3542.550;  283.125;    0.000
525.865; 3566.550;  273.125;    0.000
525.997; 3625.550;  286.125;    0.000
526.129; 3506.550;  249.125;    0.000
526.261; 3591.550;  233.125;    0.000
526.393; 3512.550;  257.125;    0.000
526.524; 3616.550;  184.125;    0.000
526.656; 3478.550;  259.125;    0.000
526.788; 3690.550;  268.125;    0.000
526.920; 3617.550;  262.125;    0.000
527.052; 3539.550;  250.125;    0.000
527.183; 3515.550;  264.125;    0.000
527.315; 3566.550;  301.125;    0.000
527.447; 3568.550;  262.125;    0.000
527.578; 3542.550;  267.125;    0.000
527.710; 3465.550;  299.125;    0.000
527.842; 3481.550;  266.125;    0.000
527.973; 3588.550;  240.125;    0.000
528.105; 3557.550;  275.125;    0.000
528.237; 3578.550;  239.125;    0.000
528.368; 3442.550;  275.125;    0.000
528.500; 3572.550;  271.125;    0.000
528.632; 3475.550;  252.125;    0.000
528.763; 3494.550;  253.125;    0.000
528.895; 3436.550;  259.125;    0.000
529.026; 3522.550;  209.125;    0.000
529.158; 3383.550;  291.125;    0.000
529.289; 3527.550;  280.125;    0.000
529.421; 3508.550;  274.125;    0.000
529.552; 3467.550;  253.125;    0.000
529.684; 3452.550;  310.125;    0.000
529.815; 3467.550;  305.125;    0.000
529.947; 3491.550;  234.125;    0.000
530.078; 3475.550;  259.125;    0.000
530.210; 3441.550;  264.125;    0.000
530.341; 3505.550;  267.125;    0.000
530.472; 3435.550;  232.125;    0.000
530.604; 3461.550;  293.125;    0.000
530.735; 3539.550;  275.125;    0.000
530.867; 3588.550;  280.125;    0.000
530.998; 3438.550;  295.125;    0.000
531.129; 3597.550;  274.125;    0.000
531.260; 3524.550;  272.125;    0.000
531.392; 3483.550;  275.125;    0.000
531.523; 3559.550;  244.125;    0.000
531.654; 3622.550;  289.125;    0.000
531.786; 3574.550;  259.125;    0.000
531.917; 3663.550;  286.125;    0.000
532.048; 3659.550;  293.125;    0.000
532.179; 3705.550;  288.125;    0.000
532.311; 3640.550;  296.125;    0.000
532.442; 3590.550;  277.125;    0.000
532.573; 3593.550;  273.125;    0.000
532.704; 3529.550;  308.125;    0.000
532.835; 3450.550;  308.125;    0.000
532.966; 3469.550;  274.125;    0.000
533.097; 3444.550;  310.125;    0.000
533.229; 3512.550;  294.125;    0.000
533.360; 3478.550;  324.125;    0.000
533.491; 3538.550;  278.125;    0.000
533.622; 3496.550;  319.125;    0.000
533.753; 3525.550;  303.125;    0.000
533.884; 3645.550;  269.125;    0.000
534.015; 3640.550;  266.125;    0.000
534.146; 3630.550;  283.125;    0.000
534.277; 3623.550;  299.125;    0.000
534.408; 3664.550;  265.125;    0.000
534.539; 3536.550;  310.125;    0.000
534.670; 3615.550;  319.125;    0.000
534.801; 3526.550;  281.125;    0.000
534.932; 3463.550;  239.125;    0.000
535.063; 3529.550;  276.125;    0.000
535.194; 3545.550;  361.125;    0.000
535.324; 3427.550;  283.125;    0.000
535.455; 3442.550;  282.125;    0.000
535.586; 3463.550;  331.125;    0.000
535.717; 3430.550;  262.125;    0.000
535.848; 3466.550;  308.125;    0.000
535.979; 3327.550;  273.125;    0.000
536.109; 3396.550;  277.125;    0.000
536.240; 3377.550;  293.125;    0.000
536.371; 3424.550;  295.125;    0.000
536.502; 3426.550;  330.125;    0.000
536.632; 3361.550;  280.125;    0.000
536.763; 3421.550;  332.125;    0.000
536.894; 3506.550;  334.125;    0.000
537.025; 3385.550;  295.125;    0.000
537.155; 3360.550;  321.125;    0.000
537.286; 3350.550;  292.125;    0.000
537.417; 3416.550;  314.125;    0.000
537.547; 3302.550;  287.125;    0.000
537.678; 3364.550;  287.125;    0.000
537.808; 3333.550;  278.125;    0.000
537.939; 3440.550;  304.125;    0.000
538.070; 3401.550;  303.125;    0.000
538.200; 3382.550;  279.125;    0.000
538.331; 3317.550;  321.125;    0.000
538.461; 3380.550;  313.125;    0.000
538.592; 3443.550;  290.125;    0.000
538.722; 3362.550;  285.125;    0.000
538.853; 3298.550;  261.125;    0.000
538.983; 3372.550;  280.125;    0.000
539.114; 3333.550;  310.125;    0.000
539.244; 3349.550;  281.125;    0.000
539.375; 3332.550;  292.125;    0.000
539.505; 3362.550;  286.125;    0.000
539.636; 3383.550;  276.125;    0.000
539.766; 3342.550;  287.125;    0.000
539.896; 3274.550;  292.125;    0.000
540.027; 3351.550;  262.125;    0.000
540.157; 3398.550;  269.125;    0.000
540.287; 3367.550;  282.125;    0.000
540.418; 3316.550;  269.125;    0.000
540.548; 3328.550;  328.125;    0.000
540.678; 3391.550;  271.125;    0.000
540.809; 3424.550;  272.125;    0.000
540.939; 3303.550;  299.125;    0.000
541.069; 3465.550;  266.125;    0.000
541.200; 3315.550;  242.125;    0.000
541.330; 3315.550;  257.125;    0.000
541.460; 3423.550;  270.125;    0.000
541.590; 3397.550;  287.125;    0.000
541.720; 3352.550;  255.125;    0.000
541.851; 3445.550;  273.125;    0.000
541.981; 3433.550;  244.125;    0.000
542.111; 3465.550;  263.125;    0.000
542.241; 3458.550;  271.125;    0.000
542.371; 3517.550;  263.125;    0.000
542.501; 3492.550;  274.125;    0.000
542.631; 3580.550;  288.125;    0.000
542.761; 3642.550;  261.125;    0.000
542.891; 3674.550;  253.125;    0.000
543.021; 3598.550;  249.125;    0.000
543.151; 3691.550;  261.125;    0.000
543.281; 3529.550;  256.125;    0.000
543.411; 3664.550;  290.125;    0.000
543.542; 3534.550;  278.125;    0.000
543.671; 3638.550;  238.125;    0.000
543.801; 3505.550;  256.125;    0.000
543.931; 3508.550;  254.125;    0.000
544.061; 3501.550;  237.125;    0.000
544.191; 3550.550;  245.125;    0.000
544.321; 3480.550;  267.125;    0.000
544.451; 3544.550;  262.125;    0.000
544.581; 3513.550;  221.125;    0.000
544.711; 3592.550;  252.125;    0.000
544.841; 3502.550;  264.125;    0.000
544.970; 3803.550;  315.125;    0.000
545.100; 3661.550;  245.125;    0.000
545.230; 3834.550;  276.125;    0.000
545.360; 3735.550;  278.125;    0.000
545.490; 3628.550;  268.125;    0.000
545.619; 3745.550;  237.125;    0.000
545.749; 3544.550;  228.125;    0.000
545.879; 3560.550;  234.125;    0.000
546.009; 3619.550;  287.125;    0.000
546.138; 3525.550;  222.125;    0.000
546.268; 3472.550;  228.125;    0.000
546.398; 3515.550;  244.125;    0.000
546.527; 3405.550;  233.125;    0.000
546.657; 3419.550;  189.125;    0.000
546.786; 3476.550;  247.125;    0.000
546.916; 3585.550;  244.125;    0.000
547.046; 3521.550;  214.125;    0.000
547.175; 3494.550;  242.125;    0.000
547.305; 3607.550;  252.125;    0.000
547.434; 3501.550;  191.125;    0.000
547.564; 3598.550;  208.125;    0.000
547.693; 3468.550;  213.125;    0.000
547.823; 3488.550;  209.125;    0.000
547.953; 3515.550;  250.125;    0.000
548.082; 3650.550;  231.125;    0.000
548.211; 3506.550;  226.125;    0.000
548.341; 3511.550;  254.125;    0.000
548.470; 3453.550;  266.125;    0.000
548.600; 3553.550;  229.125;    0.000
548.729; 3434.550;  225.125;    0.000
548.859; 3556.550;  185.125;    0.000
548.988; 3623.550;  225.125;    0.000
549.117; 3650.550;  241.125;    0.000
549.247; 3550.550;  236.125;    0.000
549.376; 3558.550;  220.125;    0.000
549.505; 3649.550;  254.125;    0.000
549.635; 3657.550;  268.125;    0.000
549.764; 3662.550;  194.125;    0.000
549.893; 3660.550;  232.125;    0.000
550.023; 3696.550;  222.125;    0.000
550.152; 3640.550;  223.125;    0.000
550.281; 3602.550;  210.125;    0.000
550.410; 3602.550;  197.125;    0.000
550.539; 3741.550;  222.125;    0.000
550.669; 3571.550;  245.125;    0.000
550.798; 3759.550;  265.125;    0.000
550.927; 3628.550;  249.125;    0.000
551.056; 3536.550;  184.125;    0.000
551.185; 3598.550;  247.125;    0.000
551.314; 3605.550;  258.125;    0.000
551.443; 3621.550;  224.125;    0.000
551.573; 3647.550;  204.125;    0.000
551.702; 3643.550;  220.125;    0.000
551.831; 3620.550;  287.125;    0.000
551.960; 3558.550;  259.125;    0.000
552.089; 3740.550;  222.125;    0.000
552.218; 3711.550;  254.125;    0.000
552.347; 3729.550;  260.125;    0.000
552.476; 3789.550;  251.125;    0.000
552.605; 3790.550;  229.125;    0.000
552.734; 3775.550;  261.125;    0.000
552.863; 3919.550;  225.125;    0.000
552.992; 3976.550;  202.125;    0.000
553.121; 3884.550;  193.125;    0.000
553.249; 3872.550;  224.125;    0.000
553.378; 3971.550;  274.125;    0.000
553.507; 3863.550;  248.125;    0.000
553.636; 3747.550;  203.125;    0.000
553.765; 3735.550;  224.125;    0.000
553.894; 3749.550;  246.125;    0.000
554.023; 3767.550;  229.125;    0.000
554.151; 3811.550;  216.125;    0.000
554.280; 3703.550;  223.125;    0.000
554.409; 3667.550;  240.125;    0.000
554.538; 3748.550;  277.125;    0.000
554.666; 3723.550;  244.125;    0.000
554.795; 3559.550;  240.125;    0.000
554.924; 3713.550;  257.125;    0.000
555.052; 3621.550;  266.125;    0.000
555.181; 3633.550;  244.125;    0.000
555.310; 3595.550;  262.125;    0.000
555.439; 3687.550;  260.125;    0.000
555.567; 3660.550;  234.125;    0.000
555.696; 3620.550;  237.125;    0.000
555.824; 3672.550;  232.125;    0.000
555.953; 3577.550;  279.125;    0.000
556.082; 3477.550;  234.125;    0.000
556.210; 3541.550;  235.125;    0.000
556.339; 3593.550;  198.125;    0.000
556.467; 3557.550;  216.125;    0.000
556.596; 3526.550;  273.125;    0.000
556.724; 3568.550;  245.125;    0.000
556.853; 3538.550;  241.125;    0.000
556.981; 3498.550;  219.125;    0.000
557.110; 3440.550;  242.125;    0.000
557.238; 3466.550;  202.125;    0.000
557.367; 3449.550;  254.125;    0.000
557.495; 3530.550;  260.125;    0.000
557.623; 3458.550;  207.125;    0.000
557.752; 3515.550;  219.125;    0.000
557.880; 3488.550;  209.125;    0.000
558.008; 3524.550;  243.125;    0.000
558.137; 3492.550;  244.125;    0.000
558.265; 3488.550;  221.125;    0.000
558.393; 3507.550;  297.125;    0.000
558.522; 3485.550;  232.125;    0.000
558.650; 3573.550;  299.125;    0.000
558.778; 3471.550;  210.125;    0.000
558.906; 3547.550;  240.125;    0.000
559.035; 3463.550;  252.125;    0.000
559.163; 3458.550;  246.125;    0.000
559.291; 3578.550;  213.125;    0.000
559.419; 3417.550;  221.125;    0.000
559.548; 3439.550;  208.125;    0.000
559.676; 3537.550;  254.125;    0.000
559.804; 3614.550;  213.125;    0.000
559.932; 3638.550;  208.125;    0.000
560.060; 3558.550;  276.125;    0.000
560.188; 3569.550;  278.125;    0.000
560.316; 3604.550;  217.125;    0.000
560.444; 3590.550;  254.125;    0.000
560.572; 3568.550;  226.125;    0.000
560.700; 3672.550;  282.125;    0.000
560.828; 3708.550;  211.125;    0.000
560.956; 3665.550;  264.125;    0.000
561.085; 3710.550;  295.125;    0.000
561.212; 3645.550;  229.125;    0.000
561.340; 3719.550;  259.125;    0.000
561.468; 3647.550;  253.125;    0.000
561.596; 3738.550;  240.125;    0.000
561.724; 3732.550;  259.125;    0.000
561.852; 3652.550;  224.125;    0.000
561.980; 3663.550;  251.125;    0.000
562.108; 3755.550;  214.125;    0.000
562.236; 3732.550;  258.125;    0.000
562.364; 3707.550;  237.125;    0.000
562.492; 3729.550;  228.125;    0.000
562.619; 3821.550;  223.125;    0.000
562.747; 3879.550;  263.125;    0.000
562.875; 3853.550;  257.125;    0.000
563.003; 3777.550;  216.125;    0.000
563.130; 3884.550;  190.125;    0.000
563.258; 3982.550;  225.125;    0.000
563.386; 4047.550;  259.125;    0.000
563.514; 3942.550;  264.125;    0.000
563.641; 4004.550;  230.125;    0.000
563.769; 4083.550;  257.125;    0.000
563.897; 4256.550;  210.125;    0.000
564.024; 4307.550;  221.125;    0.000
564.152; 4248.550;  256.125;    0.000
564.280; 4251.550;  225.125;    0.000
564.407; 4253.550;  262.125;    0.000
564.535; 4369.550;  235.125;    0.000
564.662; 4361.550;  238.125;    0.000
564.790; 4383.550;  248.125;    0.000
564.917; 4373.550;  214.125;    0.000
565.045; 4346.550;  253.125;    0.000
565.173; 4366.550;  225.125;    0.000
565.300; 4512.550;  261.125;    0.000
565.428; 4651.550;  218.125;    0.000
565.555; 4558.550;  245.125;    0.000
565.682; 4614.550;  242.125;    0.000
565.810; 4686.550;  228.125;    0.000
565.937; 4849.550;  230.125;    0.000
566.065; 4845.550;  251.125;    0.000
566.192; 5028.550;  196.125;    0.000
566.320; 5256.550;  217.125;    0.000
566.447; 5244.550;  224.125;    0.000
566.574; 5314.550;  221.125;    0.000
566.702; 5348.550;  221.125;    0.000
566.829; 5485.550;  252.125;    0.000
566.956; 5409.550;  214.125;    0.000
567.083; 5485.550;  204.125;    0.000
567.211; 5508.550;  216.125;    0.000
567.338; 5563.550;  228.125;    0.000
567.465; 5740.550;  208.125;    0.000
567.593; 5712.550;  205.125;    0.000
567.720; 5706.550;  194.125;    0.000
567.847; 5741.550;  268.125;    0.000
567.974; 5691.550;  198.125;    0.000
568.101; 5791.550;  224.125;    0.000
568.228; 6371.550;  236.125;    0.000
568.356; 6554.550;  207.125;    0.000
568.483; 6220.550;  220.125;    0.000
568.610; 6143.550;  181.125;    0.000
568.737; 6765.550;  216.125;    0.000
568.864; 7341.550;  258.125;    0.000
568.991; 6956.550;  203.125;    0.000
569.118; 6167.550;  232.125;    0.000
569.245; 5723.550;  192.125;    0.000
569.372; 5476.550;  226.125;    0.000
569.499; 5058.550;  211.125;    0.000
569.626; 5035.550;  247.125;    0.000
569.753; 4937.550;  248.125;    0.000
569.880; 4859.550;  226.125;    0.000
570.007; 4799.550;  215.125;    0.000
570.134; 4672.550;  205.125;    0.000
570.261; 4591.550;  187.125;    0.000
570.388; 4566.550;  258.125;    0.000
570.515; 4487.550;  241.125;    0.000
570.642; 4523.550;  211.125;    0.000
570.768; 4425.550;  228.125;    0.000
570.895; 4351.550;  229.125;    0.000
571.022; 4336.550;  203.125;    0.000
571.149; 4343.550;  206.125;    0.000
571.276; 4317.550;  191.125;    0.000
571.402; 4338.550;  218.125;    0.000
571.529; 4305.550;  192.125;    0.000
571.656; 4127.550;  209.125;    0.000
571.783; 4073.550;  181.125;    0.000
571.909; 4128.550;  251.125;    0.000
572.036; 4128.550;  225.125;    0.000
572.163; 3990.550;  214.125;    0.000
572.289; 3923.550;  252.125;    0.000
572.416; 3966.550;  220.125;    0.000
572.543; 3991.550;  225.125;    0.000
572.669; 3939.550;  226.125;    0.000
572.796; 3930.550;  231.125;    0.000
572.922; 3883.550;  258.125;    0.000
573.049; 3894.550;  202.125;    0.000
573.176; 3863.550;  254.125;    0.000
573.302; 3861.550;  215.125;    0.000
573.429; 3798.550;  251.125;    0.000
573.555; 3761.550;  221.125;    0.000
573.682; 3882.550;  227.125;    0.000
573.808; 3657.550;  259.125;    0.000
573.935; 3892.550;  233.125;    0.000
574.061; 3680.550;  241.125;    0.000
574.188; 3692.550;  238.125;    0.000
574.314; 3772.550;  221.125;    0.000
574.440; 3700.550;  221.125;    0.000
574.567; 3661.550;  216.125;    0.000
574.693; 3803.550;  224.125;    0.000
574.820; 3769.550;  199.125;    0.000
574.946; 3805.550;  248.125;    0.000
575.072; 3797.550;  220.125;    0.000
575.198; 3848.550;  262.125;    0.000
575.325; 3743.550;  232.125;    0.000
575.451; 3738.550;  225.125;    0.000
575.577; 3710.550;  216.125;    0.000
575.704; 3722.550;  248.125;    0.000
575.830; 3799.550;  227.125;    0.000
575.956; 3687.550;  206.125;    0.000
576.082; 3724.550;  222.125;    0.000
576.208; 3742.550;  206.125;    0.000
576.335; 3708.550;  256.125;    0.000
576.461; 3625.550;  247.125;    0.000
576.587; 3777.550;  219.125;    0.000
576.713; 3691.550;  215.125;    0.000
576.839; 3648.550;  225.125;    0.000
576.965; 3759.550;  230.125;    0.000
577.091; 3766.550;  235.125;    0.000
577.217; 3738.550;  235.125;    0.000
577.343; 3659.550;  233.125;    0.000
577.469; 3649.550;  242.125;    0.000
577.596; 3639.550;  241.125;    0.000
577.722; 3682.550;  255.125;    0.000
577.848; 3692.550;  235.125;    0.000
577.974; 3639.550;  210.125;    0.000
578.099; 3644.550;  239.125;    0.000
578.225; 3753.550;  258.125;    0.000
578.351; 3708.550;  209.125;    0.000
578.477; 3691.550;  255.125;    0.000
578.603; 3639.550;  213.125;    0.000
578.729; 3695.550;  221.125;    0.000
578.855; 3636.550;  209.125;    0.000
578.981; 3783.550;  206.125;    0.000
579.107; 3745.550;  221.125;    0.000
579.232; 3791.550;  206.125;    0.000
579.358; 3721.550;  226.125;    0.000
579.484; 3729.550;  244.125;    0.000
579.610; 3723.550;  261.125;    0.000
579.735; 3676.550;  270.125;    0.000
579.861; 3715.550;  255.125;    0.000
579.987; 3736.550;  249.125;    0.000
580.113; 3822.550;  260.125;    0.000
580.238; 3765.550;  206.125;    0.000
580.364; 3767.550;  249.125;    0.000
580.490; 3883.550;  225.125;    0.000
580.615; 3875.550;  266.125;    0.000
580.741; 3730.550;  224.125;    0.000
580.867; 3944.550;  251.125;    0.000
580.992; 3803.550;  270.125;    0.000
581.118; 3817.550;  248.125;    0.000
581.243; 3853.550;  251.125;    0.000
581.369; 3912.550;  192.125;    0.000
581.494; 3909.550;  259.125;    0.000
581.620; 3881.550;  245.125;    0.000
581.745; 3974.550;  232.125;    0.000
581.871; 3912.550;  243.125;    0.000
581.996; 3953.550;  216.125;    0.000
582.122; 3996.550;  263.125;    0.000
582.247; 3966.550;  254.125;    0.000
582.373; 3922.550;  232.125;    0.000
582.498; 3995.550;  275.125;    0.000
582.624; 4036.550;  260.125;    0.000
582.749; 3945.550;  251.125;    0.000
582.874; 4016.550;  245.125;    0.000
583.000; 4052.550;  278.125;    0.000
583.125; 4029.550;  211.125;    0.000
583.250; 4223.550;  246.125;    0.000
583.376; 4188.550;  259.125;    0.000
583.501; 4287.550;  254.125;    0.000
583.626; 4237.550;  209.125;    0.000
583.751; 4266.550;  239.125;    0.000
583.877; 4305.550;  255.125;    0.000
584.002; 4327.550;  263.125;    0.000
584.127; 4261.550;  205.125;    0.000
584.252; 4370.550;  196.125;    0.000
584.377; 4582.550;  249.125;    0.000
584.503; 4448.550;  219.125;    0.000
584.628; 4503.550;  243.125;    0.000
584.753; 4510.550;  250.125;    0.000
584.878; 4552.550;  208.125;    0.000
585.003; 4680.550;  234.125;    0.000
585.128; 4749.550;  207.125;    0.000
585.253; 4869.550;  219.125;    0.000
585.378; 4972.550;  205.125;    0.000
585.503; 5081.550;  256.125;    0.000
585.628; 4929.550;  217.125;    0.000
585.753; 5262.550;  213.125;    0.000
585.878; 5262.550;  147.125;    0.000
586.003; 5429.550;  256.125;    0.000
586.128; 5474.550;  214.125;    0.000
586.253; 5572.550;  254.125;    0.000
586.378; 5816.550;  252.125;    0.000
586.503; 6016.550;  219.125;    0.000
586.628; 6112.550;  226.125;    0.000
586.753; 6376.550;  237.125;    0.000
586.878; 6745.550;  185.125;    0.000
587.003; 6877.550;  248.125;    0.000
587.127; 6951.550;  237.125;    0.000
587.252; 7307.550;  221.125;    0.000
587.377; 7779.550;  244.125;    0.000
587.502; 8334.550;  260.125;    0.000
587.627; 8586.550;  232.125;    0.000
587.751; 9265.550;  250.125;    0.000
587.876;10093.550;  234.125;    0.000
588.001;10963.550;  248.125;    0.000
588.125;12142.550;  236.125;    0.000
588.250;13642.550;  192.125;    0.000
588.375;15502.550;  265.125;    0.000
588.499;18180.551;  235.125;    0.000
588.624;22229.551;  212.125;    0.000
588.749;28658.551;  214.125;    0.000
588.873;36538.551;  236.125;    0.000
588.998;43912.551;  230.125;    0.000
589.122;44483.551;  231.125;    0.000
589.247;38996.551;  250.125;    0.000
589.372;35122.551;  247.125;    0.000
589.496;37298.551;  230.125;    0.000
589.621;40983.551;  237.125;    0.000
589.745;37811.551;  277.125;    0.000
589.870;30261.551;  283.125;    0.000
589.994;23708.551;  263.125;    0.000
590.118;19640.551;  239.125;    0.000
590.243;16667.551;  218.125;    0.000
590.367;14635.550;  226.125;    0.000
590.492;13264.550;  269.125;    0.000
590.616;11965.550;  205.125;    0.000
590.740;11055.550;  243.125;    0.000
590.865;10177.550;  281.125;    0.000
590.989; 9569.550;  233.125;    0.000
591.114; 8995.550;  222.125;    0.000
591.238; 8564.550;  204.125;    0.000
591.362; 8157.550;  283.125;    0.000
591.486; 7854.550;  236.125;    0.000
591.611; 7536.550;  228.125;    0.000
591.735; 7463.550;  249.125;    0.000
591.859; 7107.550;  202.125;    0.000
591.983; 6984.550;  257.125;    0.000
592.107; 6796.550;  230.125;    0.000
592.232; 6575.550;  266.125;    0.000
592.356; 6545.550;  232.125;    0.000
592.480; 6295.550;  245.125;    0.000
592.604; 6133.550;  254.125;    0.000
592.728; 6153.550;  233.125;    0.000
592.852; 6013.550;  213.125;    0.000
592.976; 6000.550;  234.125;    0.000
593.100; 5677.550;  246.125;    0.000
593.224; 5802.550;  305.125;    0.000
593.349; 5636.550;  240.125;    0.000
593.473; 5642.550;  206.125;    0.000
593.597; 5551.550;  243.125;    0.000
593.721; 5482.550;  247.125;    0.000
593.844; 5298.550;  230.125;    0.000
593.968; 5351.550;  226.125;    0.000
594.092; 5174.550;  193.125;    0.000
594.216; 5299.550;  237.125;    0.000
594.340; 5126.550;  235.125;    0.000
594.464; 5176.550;  225.125;    0.000
594.588; 4875.550;  269.125;    0.000
594.712; 4950.550;  242.125;    0.000
594.836; 4805.550;  240.125;    0.000
594.959; 4738.550;  255.125;    0.000
595.083; 4719.550;  258.125;    0.000
595.207; 4645.550;  264.125;    0.000
595.331; 4572.550;  215.125;    0.000
595.455; 4518.550;  234.125;    0.000
595.578; 4320.550;  215.125;    0.000
595.702; 4527.550;  259.125;    0.000
595.826; 4298.550;  232.125;    0.000
595.949; 4325.550;  251.125;    0.000
596.073; 4286.550;  197.125;    0.000
596.197; 4293.550;  239.125;    0.000
596.320; 4235.550;  229.125;    0.000
596.444; 4208.550;  264.125;    0.000
596.568; 4066.550;  207.125;    0.000
596.691; 4090.550;  234.125;    0.000
596.815; 4042.550;  241.125;    0.000
596.938; 4071.550;  244.125;    0.000
597.062; 4011.550;  210.125;    0.000
597.186; 4040.550;  247.125;    0.000
597.309; 4022.550;  215.125;    0.000
597.433; 3922.550;  266.125;    0.000
597.556; 3883.550;  234.125;    0.000
597.680; 3827.550;  261.125;    0.000
597.803; 3795.550;  239.125;    0.000
597.926; 3846.550;  251.125;    0.000
598.050; 3828.550;  227.125;    0.000
598.173; 3747.550;  247.125;    0.000
598.297; 3859.550;  244.125;    0.000
598.420; 3629.550;  243.125;    0.000
598.543; 3666.550;  237.125;    0.000
598.667; 3675.550;  239.125;    0.000
598.790; 3711.550;  217.125;    0.000
598.913; 3605.550;  244.125;    0.000
599.037; 3592.550;  249.125;    0.000
599.160; 3664.550;  222.125;    0.000
599.283; 3753.550;  235.125;    0.000
599.406; 3639.550;  228.125;    0.000
599.530; 3628.550;  234.125;    0.000
599.653; 3607.550;  228.125;    0.000
599.776; 3615.550;  263.125;    0.000
599.899; 3524.550;  197.125;    0.000
600.022; 3443.550;  224.125;    0.000
600.145; 3559.550;  211.125;    0.000
600.269; 3509.550;  246.125;    0.000
600.392; 3567.550;  233.125;    0.000
600.515; 3507.550;  266.125;    0.000
600.638; 3531.550;  246.125;    0.000
600.761; 3449.550;  213.125;    0.000
600.884; 3398.550;  279.125;    0.000
601.007; 3443.550;  268.125;    0.000
601.130; 3411.550;  203.125;    0.000
601.253; 3423.550;  241.125;    0.000
601.376; 3434.550;  248.125;    0.000
601.499; 3380.550;  241.125;    0.000
601.622; 3333.550;  266.125;    0.000
601.745; 3297.550;  237.125;    0.000
601.868; 3453.550;  256.125;    0.000
601.991; 3434.550;  260.125;    0.000
602.113; 3397.550;  246.125;    0.000
602.236; 3366.550;  243.125;    0.000
602.359; 3388.550;  220.125;    0.000
602.482; 3322.550;  236.125;    0.000
602.605; 3310.550;  216.125;    0.000
602.728; 3326.550;  247.125;    0.000
602.850; 3490.550;  255.125;    0.000
602.973; 3243.550;  224.125;    0.000
603.096; 3350.550;  258.125;    0.000
603.219; 3374.550;  222.125;    0.000
603.341; 3420.550;  235.125;    0.000
603.464; 3352.550;  223.125;    0.000
603.587; 3291.550;  250.125;    0.000
603.709; 3202.550;  229.125;    0.000
603.832; 3296.550;  285.125;    0.000
603.955; 3283.550;  225.125;    0.000
604.077; 3167.550;  235.125;    0.000
604.200; 3233.550;  209.125;    0.000
604.323; 3272.550;  240.125;    0.000
604.445; 3261.550;  198.125;    0.000
604.568; 3199.550;  230.125;    0.000
604.690; 3261.550;  225.125;    0.000
604.813; 3186.550;  248.125;    0.000
604.935; 3253.550;  204.125;    0.000
605.058; 3208.550;  191.125;    0.000
605.180; 3209.550;  237.125;    0.000
605.303; 3234.550;  224.125;    0.000
605.425; 3160.550;  244.125;    0.000
605.547; 3290.550;  268.125;    0.000
605.670; 3219.550;  211.125;    0.000
605.792; 3206.550;  266.125;    0.000
605.915; 3246.550;  202.125;    0.000
606.037; 3217.550;  236.125;    0.000
606.159; 3156.550;  234.125;    0.000
606.282; 3223.550;  223.125;    0.000
606.404; 3184.550;  217.125;    0.000
606.526; 3118.550;  221.125;    0.000
606.648; 3150.550;  204.125;    0.000
606.771; 3103.550;  265.125;    0.000
606.893; 3103.550;  211.125;    0.000
607.015; 3129.550;  206.125;    0.000
607.137; 3128.550;  222.125;    0.000
607.260; 3076.550;  228.125;    0.000
607.382; 3215.550;  202.125;    0.000
607.504; 3193.550;  257.125;    0.000
607.626; 3260.550;  249.125;    0.000
607.748; 3163.550;  233.125;    0.000
607.870; 3113.550;  222.125;    0.000
607.992; 3137.550;  227.125;    0.000
608.114; 3174.550;  228.125;    0.000
608.237; 3173.550;  254.125;    0.000
608.359; 3027.550;  216.125;    0.000
608.481; 3140.550;  197.125;    0.000
608.603; 3098.550;  209.125;    0.000
608.725; 3108.550;  220.125;    0.000
608.847; 3132.550;  259.125;    0.000
608.969; 3087.550;  242.125;    0.000
609.090; 3063.550;  218.125;    0.000
609.212; 3060.550;  200.125;    0.000
609.334; 3131.550;  212.125;    0.000
609.456; 3125.550;  231.125;    0.000
609.578; 3071.550;  249.125;    0.000
609.700; 3005.550;  185.125;    0.000
609.822; 3113.550;  200.125;    0.000
609.944; 3049.550;  236.125;    0.000
610.065; 3040.550;  255.125;    0.000
610.187; 3059.550;  208.125;    0.000
610.309; 3102.550;  202.125;    0.000
610.431; 3082.550;  232.125;    0.000
610.552; 3094.550;  232.125;    0.000
610.674; 3015.550;  217.125;    0.000
610.796; 3051.550;  186.125;    0.000
610.918; 2990.550;  211.125;    0.000
611.039; 3112.550;  244.125;    0.000
611.161; 3092.550;  202.125;    0.000
611.282; 3089.550;  212.125;    0.000
611.404; 3045.550;  235.125;    0.000
611.526; 3026.550;  213.125;    0.000
611.647; 3035.550;  248.125;    0.000
611.769; 3089.550;  205.125;    0.000
611.890; 3058.550;  224.125;    0.000
612.012; 2998.550;  189.125;    0.000
612.133; 3040.550;  186.125;    0.000
612.255; 3025.550;  246.125;    0.000
612.377; 3048.550;  230.125;    0.000
612.498; 2998.550;  196.125;    0.000
612.619; 3052.550;  234.125;    0.000
612.741; 3047.550;  221.125;    0.000
612.862; 3024.550;  227.125;    0.000
612.984; 2977.550;  189.125;    0.000
613.105; 3000.550;  232.125;    0.000
613.226; 2967.550;  199.125;    0.000
613.348; 3087.550;  260.125;    0.000
613.469; 2943.550;  217.125;    0.000
613.590; 2990.550;  236.125;    0.000
613.712; 3049.550;  226.125;    0.000
613.833; 2969.550;  231.125;    0.000
613.954; 2961.550;  236.125;    0.000
614.076; 2947.550;  236.125;    0.000
614.197; 2928.550;  228.125;    0.000
614.318; 2980.550;  207.125;    0.000
614.439; 2978.550;  237.125;    0.000
614.560; 2990.550;  202.125;    0.000
614.682; 2927.550;  230.125;    0.000
614.803; 3011.550;  236.125;    0.000
614.924; 3017.550;  257.125;    0.000
615.045; 3076.550;  228.125;    0.000
615.166; 3092.550;  221.125;    0.000
615.287; 3191.550;  199.125;    0.000
615.408; 3385.550;  228.125;    0.000
615.529; 3344.550;  200.125;    0.000
615.650; 3351.550;  224.125;    0.000
615.771; 3233.550;  202.125;    0.000
615.892; 3245.550;  215.125;    0.000
616.013; 3732.550;  246.125;    0.000
616.134; 4005.550;  210.125;    0.000
616.255; 3751.550;  232.125;    0.000
616.376; 3524.550;  241.125;    0.000
616.497; 3252.550;  213.125;    0.000
616.618; 3245.550;  171.125;    0.000
616.739; 3128.550;  221.125;    0.000
616.860; 3127.550;  244.125;    0.000
616.981; 3007.550;  240.125;    0.000
617.102; 3087.550;  234.125;    0.000
617.222; 3024.550;  265.125;    0.000
617.343; 3057.550;  206.125;    0.000
617.464; 3135.550;  246.125;    0.000
617.585; 3005.550;  256.125;    0.000
617.705; 3017.550;  249.125;    0.000
617.826; 2949.550;  218.125;    0.000
617.947; 3104.550;  225.125;    0.000
618.068; 3023.550;  199.125;    0.000
618.188; 3026.550;  202.125;    0.000
618.309; 3030.550;  220.125;    0.000
618.430; 3038.550;  229.125;    0.000
618.550; 2971.550;  252.125;    0.000
618.671; 3009.550;  233.125;    0.000
618.791; 3066.550;  227.125;    0.000
618.912; 2928.550;  236.125;    0.000
619.033; 2930.550;  220.125;    0.000
619.153; 2991.550;  228.125;    0.000
619.274; 2804.550;  208.125;    0.000
619.394; 2918.550;  255.125;    0.000
619.515; 2985.550;  206.125;    0.000
619.635; 2968.550;  204.125;    0.000
619.756; 3005.550;  252.125;    0.000
619.876; 2989.550;  238.125;    0.000
619.996; 2860.550;  249.125;    0.000
620.117; 2954.550;  223.125;    0.000
620.237; 2967.550;  210.125;    0.000
620.358; 3006.550;  264.125;    0.000
620.478; 2932.550;  263.125;    0.000
620.598; 2923.550;  238.125;    0.000
620.719; 2996.550;  225.125;    0.000
620.839; 2941.550;  259.125;    0.000
620.959; 2784.550;  218.125;    0.000
621.079; 2839.550;  253.125;    0.000
621.200; 2903.550;  245.125;    0.000
621.320; 2965.550;  254.125;    0.000
621.440; 2910.550;  233.125;    0.000
621.560; 2873.550;  235.125;    0.000
621.681; 2845.550;  234.125;    0.000
621.801; 2871.550;  240.125;    0.000
621.921; 2918.550;  239.125;    0.000
622.041; 2942.550;  288.125;    0.000
622.161; 2888.550;  229.125;    0.000
622.281; 2838.550;  223.125;    0.000
622.401; 2825.550;  240.125;    0.000
622.521; 2882.550;  267.125;    0.000
622.641; 2790.550;  226.125;    0.000
622.761; 2861.550;  252.125;    0.000
622.882; 2880.550;  207.125;    0.000
623.002; 2856.550;  226.125;    0.000
623.121; 2776.550;  207.125;    0.000
623.241; 2874.550;  215.125;    0.000
623.361; 2792.550;  222.125;    0.000
623.481; 2799.550;  187.125;    0.000
623.601; 2957.550;  283.125;    0.000
623.721; 2757.550;  283.125;    0.000
623.841; 2840.550;  233.125;    0.000
623.961; 2863.550;  215.125;    0.000
624.081; 2779.550;  219.125;    0.000
624.201; 2772.550;  221.125;    0.000
624.320; 2838.550;  215.125;    0.000
624.440; 2731.550;  222.125;    0.000
624.560; 2793.550;  231.125;    0.000
624.680; 2729.550;  225.125;    0.000
624.799; 2741.550;  230.125;    0.000
624.919; 2810.550;  243.125;    0.000
625.039; 2705.550;  203.125;    0.000
625.159; 2748.550;  257.125;    0.000
625.278; 2690.550;  230.125;    0.000
625.398; 2782.550;  195.125;    0.000
625.518; 2764.550;  211.125;    0.000
625.637; 2820.550;  267.125;    0.000
625.757; 2675.550;  228.125;    0.000
625.876; 2720.550;  231.125;    0.000
625.996; 2746.550;  219.125;    0.000
626.115; 2721.550;  235.125;    0.000
626.235; 2757.550;  199.125;    0.000
626.354; 2715.550;  226.125;    0.000
626.474; 2693.550;  225.125;    0.000
626.594; 2696.550;  223.125;    0.000
626.713; 2708.550;  231.125;    0.000
626.832; 2666.550;  287.125;    0.000
626.952; 2667.550;  251.125;    0.000
627.071; 2726.550;  254.125;    0.000
627.191; 2655.550;  193.125;    0.000
627.310; 2645.550;  213.125;    0.000
627.429; 2704.550;  259.125;    0.000
627.549; 2721.550;  243.125;    0.000
627.668; 2654.550;  181.125;    0.000
627.787; 2683.550;  232.125;    0.000
627.907; 2742.550;  222.125;    0.000
628.026; 2769.550;  219.125;    0.000
628.145; 2590.550;  201.125;    0.000
628.264; 2684.550;  198.125;    0.000
628.384; 2663.550;  208.125;    0.000
628.503; 2698.550;  251.125;    0.000
628.622; 2688.550;  195.125;    0.000
628.741; 2668.550;  180.125;    0.000
628.860; 2759.550;  235.125;    0.000
628.980; 2615.550;  222.125;    0.000
629.099; 2662.550;  237.125;    0.000
629.218; 2667.550;  175.125;    0.000
629.337; 2605.550;  194.125;    0.000
629.456; 2721.550;  225.125;    0.000
629.575; 2645.550;  239.125;    0.000
629.694; 2660.550;  230.125;    0.000
629.813; 2695.550;  197.125;    0.000
629.932; 2632.550;  225.125;    0.000
630.051; 2668.550;  238.125;    0.000
630.170; 2688.550;  233.125;    0.000
630.289; 2613.550;  231.125;    0.000
630.408; 2625.550;  204.125;    0.000
630.527; 2657.550;  262.125;    0.000
630.646; 2581.550;  181.125;    0.000
630.764; 2731.550;  218.125;    0.000
630.883; 2628.550;  215.125;    0.000
631.002; 2668.550;  224.125;    0.000
631.121; 2694.550;  209.125;    0.000
631.240; 2686.550;  230.125;    0.000
631.359; 2709.550;  235.125;    0.000
631.477; 2663.550;  223.125;    0.000
631.596; 2617.550;  218.125;    0.000
631.715; 2620.550;  234.125;    0.000
631.834; 2630.550;  215.125;    0.000
631.952; 2592.550;  243.125;    0.000
632.071; 2665.550;  219.125;    0.000
632.190; 2620.550;  235.125;    0.000
632.308; 2679.550;  239.125;    0.000
632.427; 2520.550;  211.125;    0.000
632.546; 2615.550;  233.125;    0.000
632.664; 2554.550;  219.125;    0.000
632.783; 2693.550;  203.125;    0.000
632.901; 2543.550;  221.125;    0.000
633.020; 2559.550;  197.125;    0.000
633.138; 2623.550;  244.125;    0.000
633.257; 2618.550;  205.125;    0.000
633.375; 2604.550;  245.125;    0.000
633.494; 2571.550;  218.125;    0.000
633.612; 2631.550;  222.125;    0.000
633.731; 2607.550;  212.125;    0.000
633.849; 2596.550;  218.125;    0.000
633.968; 2655.550;  236.125;    0.000
634.086; 2519.550;  233.125;    0.000
634.204; 2589.550;  215.125;    0.000
634.323; 2591.550;  230.125;    0.000
634.441; 2643.550;  235.125;    0.000
634.559; 2555.550;  202.125;    0.000
634.678; 2595.550;  218.125;    0.000
634.796; 2480.550;  203.125;    0.000
634.914; 2541.550;  227.125;    0.000
635.032; 2591.550;  279.125;    0.000
635.151; 2529.550;  221.125;    0.000
635.269; 2607.550;  207.125;    0.000
635.387; 2555.550;  195.125;    0.000
635.505; 2582.550;  243.125;    0.000
635.623; 2611.550;  269.125;    0.000
635.742; 2468.550;  232.125;    0.000
635.860; 2511.550;  243.125;    0.000
635.978; 2517.550;  215.125;    0.000
636.096; 2586.550;  225.125;    0.000
636.214; 2659.550;  244.125;    0.000
636.332; 2597.550;  226.125;    0.000
636.450; 2605.550;  227.125;    0.000
636.568; 2542.550;  225.125;    0.000
636.686; 2534.550;  194.125;    0.000
636.804; 2587.550;  234.125;    0.000
636.922; 2522.550;  177.125;    0.000
637.040; 2534.550;  225.125;    0.000
637.158; 2516.550;  194.125;    0.000
637.276; 2554.550;  219.125;    0.000
637.394; 2481.550;  219.125;    0.000
637.512; 2552.550;  210.125;    0.000
637.629; 2518.550;  242.125;    0.000
637.747; 2555.550;  193.125;    0.000
637.865; 2512.550;  219.125;    0.000
637.983; 2542.550;  251.125;    0.000
638.101; 2513.550;  221.125;    0.000
638.218; 2466.550;  193.125;    0.000
638.336; 2513.550;  224.125;    0.000
638.454; 2495.550;  227.125;    0.000
638.572; 2572.550;  245.125;    0.000
638.689; 2552.550;  222.125;    0.000
638.807; 2598.550;  244.125;    0.000
638.925; 2574.550;  238.125;    0.000
639.042; 2485.550;  213.125;    0.000
639.160; 2507.550;  186.125;    0.000
639.278; 2441.550;  203.125;    0.000
639.395; 2488.550;  270.125;    0.000
639.513; 2550.550;  227.125;    0.000
639.630; 2526.550;  200.125;    0.000
639.748; 2429.550;  199.125;    0.000
639.865; 2566.550;  233.125;    0.000
639.983; 2517.550;  181.125;    0.000
640.100; 2542.550;  219.125;    0.000
640.218; 2542.550;  234.125;    0.000
640.335; 2448.550;  233.125;    0.000
640.453; 2510.550;  202.125;    0.000
640.570; 2554.550;  214.125;    0.000
640.688; 2512.550;  215.125;    0.000
640.805; 2468.550;  229.125;    0.000
640.922; 2501.550;  244.125;    0.000
641.040; 2532.550;  233.125;    0.000
641.157; 2508.550;  199.125;    0.000
641.274; 2531.550;  205.125;    0.000
641.391; 2531.550;  244.125;    0.000
641.509; 2460.550;  184.125;    0.000
641.626; 2507.550;  244.125;    0.000
641.743; 2407.550;  221.125;    0.000
641.860; 2497.550;  206.125;    0.000
641.978; 2503.550;  272.125;    0.000
642.095; 2571.550;  218.125;    0.000
642.212; 2497.550;  208.125;    0.000
642.329; 2463.550;  218.125;    0.000
642.446; 2446.550;  197.125;    0.000
642.563; 2489.550;  214.125;    0.000
642.681; 2517.550;  203.125;    0.000
642.798; 2482.550;  236.125;    0.000
642.915; 2531.550;  191.125;    0.000
643.032; 2510.550;  226.125;    0.000
643.149; 2526.550;  231.125;    0.000
643.266; 2450.550;  213.125;    0.000
643.383; 2460.550;  240.125;    0.000
643.500; 2489.550;  185.125;    0.000
643.617; 2446.550;  229.125;    0.000
643.734; 2442.550;  205.125;    0.000
643.850; 2496.550;  222.125;    0.000
643.967; 2481.550;  202.125;    0.000
644.084; 2658.550;  264.125;    0.000
644.201; 2498.550;  214.125;    0.000
644.318; 2546.550;  206.125;    0.000
644.435; 2535.550;  225.125;    0.000
644.552; 2554.550;  203.125;    0.000
644.668; 2578.550;  252.125;    0.000
644.785; 2566.550;  213.125;    0.000
644.902; 2622.550;  233.125;    0.000
645.019; 2499.550;  220.125;    0.000
645.135; 2610.550;  225.125;    0.000
645.252; 2508.550;  218.125;    0.000
645.369; 2518.550;  214.125;    0.000
645.485; 2560.550;  210.125;    0.000
645.602; 2585.550;  198.125;    0.000
645.719; 2534.550;  228.125;    0.000
645.835; 2591.550;  209.125;    0.000
645.952; 2628.550;  213.125;    0.000
646.068; 2569.550;  241.125;    0.000
646.185; 2574.550;  219.125;    0.000
646.302; 2620.550;  246.125;    0.000
646.418; 2643.550;  228.125;    0.000
646.535; 2545.550;  256.125;    0.000
646.651; 2638.550;  222.125;    0.000
646.768; 2680.550;  203.125;    0.000
646.884; 2633.550;  199.125;    0.000
647.000; 2687.550;  194.125;    0.000
647.117; 2754.550;  214.125;    0.000
647.233; 2706.550;  209.125;    0.000
647.350; 2711.550;  235.125;    0.000
647.466; 2734.550;  237.125;    0.000
647.582; 2603.550;  231.125;    0.000
647.699; 2718.550;  219.125;    0.000
647.815; 2776.550;  200.125;    0.000
647.931; 2783.550;  173.125;    0.000
648.047; 2672.550;  184.125;    0.000
648.164; 2747.550;  199.125;    0.000
648.280; 2766.550;  209.125;    0.000
648.396; 2729.550;  220.125;    0.000
648.512; 2879.550;  212.125;    0.000
648.629; 2773.550;  214.125;    0.000
648.745; 2751.550;  197.125;    0.000
648.861; 2802.550;  228.125;    0.000
648.977; 2732.550;  238.125;    0.000
649.093; 2729.550;  208.125;    0.000
649.209; 2816.550;  179.125;    0.000
649.325; 2837.550;  256.125;    0.000
649.441; 2810.550;  224.125;    0.000
649.557; 2799.550;  247.125;    0.000
649.673; 2792.550;  214.125;    0.000
649.789; 2841.550;  213.125;    0.000
649.905; 2886.550;  170.125;    0.000
650.021; 2874.550;  236.125;    0.000
650.137; 2863.550;  229.125;    0.000
650.253; 2855.550;  207.125;    0.000
650.369; 2848.550;  198.125;    0.000
650.485; 2850.550;  225.125;    0.000
650.601; 2960.550;  260.125;    0.000
650.717; 2873.550;  196.125;    0.000
650.833; 2835.550;  219.125;    0.000
650.948; 2975.550;  203.125;    0.000
651.064; 2942.550;  232.125;    0.000
651.180; 2925.550;  252.125;    0.000
651.296; 2844.550;  190.125;    0.000
651.411; 2887.550;  235.125;    0.000
651.527; 3019.550;  227.125;    0.000
651.643; 3044.550;  238.125;    0.000
651.759; 2992.550;  260.125;    0.000
651.874; 3031.550;  217.125;    0.000
651.990; 3045.550;  239.125;    0.000
652.105; 3061.550;  215.125;    0.000
652.221; 3023.550;  237.125;    0.000
652.337; 3061.550;  238.125;    0.000
652.452; 3139.550;  230.125;    0.000
652.568; 3208.550;  201.125;    0.000
652.683; 3104.550;  243.125;    0.000
652.799; 3087.550;  218.125;    0.000
652.914; 3164.550;  189.125;    0.000
653.030; 3163.550;  191.125;    0.000
653.145; 3237.550;  240.125;    0.000
653.261; 3359.550;  225.125;    0.000
653.376; 3267.550;  241.125;    0.000
653.492; 3317.550;  188.125;    0.000
653.607; 3461.550;  219.125;    0.000
653.722; 3528.550;  268.125;    0.000
653.838; 3509.550;  262.125;    0.000
653.953; 3547.550;  188.125;    0.000
654.068; 3620.550;  244.125;    0.000
654.184; 3606.550;  247.125;    0.000
654.299; 3733.550;  228.125;    0.000
654.414; 3770.550;  181.125;    0.000
654.530; 3963.550;  210.125;    0.000
654.645; 3995.550;  240.125;    0.000
654.760; 3978.550;  219.125;    0.000
654.875; 4074.550;  178.125;    0.000
654.990; 4284.550;  222.125;    0.000
655.106; 4381.550;  227.125;    0.000
655.221; 4463.550;  270.125;    0.000
655.336; 4574.550;  199.125;    0.000
655.451; 4790.550;  235.125;    0.000
655.566; 4889.550;  251.125;    0.000
655.681; 5060.550;  253.125;    0.000
655.796; 5393.550;  207.125;    0.000
655.911; 5566.550;  213.125;    0.000
656.026; 5774.550;  247.125;    0.000
656.141; 6064.550;  209.125;    0.000
656.256; 6429.550;  226.125;    0.000
656.371; 6426.550;  201.125;    0.000
656.486; 6408.550;  196.125;    0.000
656.601; 6218.550;  239.125;    0.000
656.716; 5993.550;  234.125;    0.000
656.831; 5748.550;  223.125;    0.000
656.946; 5644.550;  246.125;    0.000
657.060; 5467.550;  230.125;    0.000
657.175; 5332.550;  207.125;    0.000
657.290; 5186.550;  213.125;    0.000
657.405; 5075.550;  319.125;    0.000
657.520; 4901.550;  241.125;    0.000
657.634; 4809.550;  235.125;    0.000
657.749; 4747.550;  275.125;    0.000
657.864; 4524.550;  210.125;    0.000
657.979; 4521.550;  227.125;    0.000
658.093; 4284.550;  206.125;    0.000
658.208; 4284.550;  217.125;    0.000
658.323; 4137.550;  227.125;    0.000
658.437; 4085.550;  217.125;    0.000
658.552; 4004.550;  237.125;    0.000
658.666; 4035.550;  233.125;    0.000
658.781; 3965.550;  248.125;    0.000
658.895; 4034.550;  233.125;    0.000
659.010; 3778.550;  238.125;    0.000
659.125; 3733.550;  206.125;    0.000
659.239; 3745.550;  220.125;    0.000
659.353; 3694.550;  236.125;    0.000
659.468; 3592.550;  238.125;    0.000
659.582; 3660.550;  275.125;    0.000
659.697; 3566.550;  239.125;    0.000
659.811; 3428.550;  232.125;    0.000
659.926; 3374.550;  230.125;    0.000
660.040; 3363.550;  257.125;    0.000
660.154; 3473.550;  221.125;    0.000
660.269; 3334.550;  219.125;    0.000
660.383; 3355.550;  228.125;    0.000
660.497; 3318.550;  243.125;    0.000
660.612; 3285.550;  238.125;    0.000
660.726; 3318.550;  260.125;    0.000
660.840; 3242.550;  239.125;    0.000
660.954; 3203.550;  236.125;    0.000
661.068; 3138.550;  239.125;    0.000
661.183; 3080.550;  245.125;    0.000
661.297; 2946.550;  198.125;    0.000
661.411; 2952.550;  203.125;    0.000
661.525; 3103.550;  244.125;    0.000
661.639; 3070.550;  229.125;    0.000
661.753; 2869.550;  238.125;    0.000
661.867; 2982.550;  237.125;    0.000
661.981; 2851.550;  219.125;    0.000
662.095; 2863.550;  232.125;    0.000
662.209; 2926.550;  236.125;    0.000
662.323; 2798.550;  209.125;    0.000
662.437; 2736.550;  206.125;    0.000
662.551; 2735.550;  217.125;    0.000
662.665; 2807.550;  262.125;    0.000
662.779; 2730.550;  234.125;    0.000
662.893; 2758.550;  222.125;    0.000
663.007; 2713.550;  189.125;    0.000
663.121; 2637.550;  258.125;    0.000
663.235; 2707.550;  191.125;    0.000
663.349; 2594.550;  259.125;    0.000
663.462; 2632.550;  209.125;    0.000
663.576; 2686.550;  244.125;    0.000
663.690; 2584.550;  237.125;    0.000
663.804; 2635.550;  205.125;    0.000
663.917; 2548.550;  207.125;    0.000
664.031; 2549.550;  234.125;    0.000
664.145; 2506.550;  216.125;    0.000
664.258; 2495.550;  202.125;    0.000
664.372; 2451.550;  198.125;    0.000
664.486; 2471.550;  181.125;    0.000
664.599; 2428.550;  229.125;    0.000
664.713; 2510.550;  266.125;    0.000
664.827; 2451.550;  185.125;    0.000
664.940; 2425.550;  225.125;    0.000
665.054; 2427.550;  198.125;    0.000
665.167; 2435.550;  208.125;    0.000
665.281; 2416.550;  231.125;    0.000
665.394; 2423.550;  228.125;    0.000
665.508; 2336.550;  204.125;    0.000
665.621; 2401.550;  263.125;    0.000
665.735; 2419.550;  222.125;    0.000
665.848; 2381.550;  237.125;    0.000
665.961; 2315.550;  180.125;    0.000
666.075; 2283.550;  212.125;    0.000
666.188; 2424.550;  229.125;    0.000
666.301; 2273.550;  247.125;    0.000
666.415; 2316.550;  212.125;    0.000
666.528; 2271.550;  268.125;    0.000
666.641; 2311.550;  210.125;    0.000
666.755; 2269.550;  178.125;    0.000
666.868; 2204.550;  227.125;    0.000
666.981; 2279.550;  250.125;    0.000
667.094; 2301.550;  228.125;    0.000
667.207; 2223.550;  235.125;    0.000
667.321; 2222.550;  171.125;    0.000
667.434; 2215.550;  191.125;    0.000
667.547; 2311.550;  279.125;    0.000
667.660; 2230.550;  210.125;    0.000
667.773; 2219.550;  217.125;    0.000
667.886; 2186.550;  209.125;    0.000
667.999; 2265.550;  239.125;    0.000
668.112; 2119.550;  227.125;    0.000
668.225; 2162.550;  185.125;    0.000
668.338; 2115.550;  222.125;    0.000
668.451; 2148.550;  200.125;    0.000
668.564; 2174.550;  237.125;    0.000
668.677; 2163.550;  207.125;    0.000
668.790; 2152.550;  208.125;    0.000
668.903; 2185.550;  243.125;    0.000
669.016; 2073.550;  190.125;    0.000
669.129; 2144.550;  234.125;    0.000
669.242; 2063.550;  185.125;    0.000
669.354; 2093.550;  224.125;    0.000
669.467; 2138.550;  219.125;    0.000
669.580; 2110.550;  249.125;    0.000
669.693; 2125.550;  187.125;    0.000
669.806; 2039.550;  206.125;    0.000
669.918; 2036.550;  192.125;    0.000
670.031; 2090.550;  235.125;    0.000
670.144; 2110.550;  238.125;    0.000
670.256; 2086.550;  237.125;    0.000
670.369; 2163.550;  237.125;    0.000
670.482; 2085.550;  250.125;    0.000
670.594; 2098.550;  273.125;    0.000
670.707; 2162.550;  223.125;    0.000
670.820; 2112.550;  238.125;    0.000
670.932; 2057.550;  224.125;    0.000
671.045; 2102.550;  219.125;    0.000
671.157; 2086.550;  242.125;    0.000
671.270; 1986.550;  235.125;    0.000
671.382; 2009.550;  213.125;    0.000
671.495; 2028.550;  254.125;    0.000
671.607; 2074.550;  253.125;    0.000
671.720; 2020.550;  169.125;    0.000
671.832; 2038.550;  201.125;    0.000
671.944; 2044.550;  250.125;    0.000
672.057; 1951.550;  187.125;    0.000
672.169; 2090.550;  224.125;    0.000
672.281; 2027.550;  238.125;    0.000
672.394; 2052.550;  250.125;    0.000
672.506; 2033.550;  227.125;    0.000
672.618; 2011.550;  223.125;    0.000
672.731; 2032.550;  210.125;    0.000
672.843; 2059.550;  245.125;    0.000
672.955; 1957.550;  263.125;    0.000
673.067; 2010.550;  239.125;    0.000
673.180; 2063.550;  253.125;    0.000
673.292; 2035.550;  243.125;    0.000
673.404; 1969.550;  226.125;    0.000
673.516; 1970.550;  223.125;    0.000
673.628; 1996.550;  223.125;    0.000
673.740; 1969.550;  216.125;    0.000
673.852; 2021.550;  277.125;    0.000
673.964; 2008.550;  211.125;    0.000
674.076; 1950.550;  241.125;    0.000
674.188; 1887.550;  251.125;    0.000
674.300; 2016.550;  268.125;    0.000
674.412; 2020.550;  260.125;    0.000
674.524; 1981.550;  257.125;    0.000
674.636; 2018.550;  222.125;    0.000
674.748; 1981.550;  227.125;    0.000
674.860; 1985.550;  250.125;    0.000
674.972; 2017.550;  240.125;    0.000
675.084; 2014.550;  262.125;    0.000
675.196; 1902.550;  287.125;    0.000
675.307; 1956.550;  257.125;    0.000
675.419; 2020.550;  231.125;    0.000
675.531; 2008.550;  274.125;    0.000
675.643; 1942.550;  235.125;    0.000
675.755; 1888.550;  275.125;    0.000
675.866; 1885.550;  238.125;    0.000
675.978; 1947.550;  209.125;    0.000
676.090; 1913.550;  239.125;    0.000
676.201; 1942.550;  249.125;    0.000
676.313; 1909.550;  237.125;    0.000
676.425; 1910.550;  263.125;    0.000
676.536; 1889.550;  178.125;    0.000
676.648; 1912.550;  245.125;    0.000
676.759; 1902.550;  244.125;    0.000
676.871; 1888.550;  242.125;    0.000
676.983; 1956.550;  245.125;    0.000
677.094; 1868.550;  209.125;    0.000
677.206; 1895.550;  248.125;    0.000
677.317; 1866.550;  260.125;    0.000
677.429; 1837.550;  237.125;    0.000
677.540; 1913.550;  226.125;    0.000
677.651; 1857.550;  226.125;    0.000
677.763; 1855.550;  194.125;    0.000
677.874; 1864.550;  230.125;    0.000
677.986; 1896.550;  202.125;    0.000
678.097; 1788.550;  229.125;    0.000
678.208; 1830.550;  263.125;    0.000
678.320; 1859.550;  243.125;    0.000
678.431; 1815.550;  229.125;    0.000
678.542; 1831.550;  231.125;    0.000
678.653; 1785.550;  224.125;    0.000
678.765; 1828.550;  255.125;    0.000
678.876; 1777.550;  175.125;    0.000
678.987; 1833.550;  204.125;    0.000
679.098; 1811.550;  227.125;    0.000
679.209; 1790.550;  228.125;    0.000
679.320; 1811.550;  223.125;    0.000
679.432; 1846.550;  219.125;    0.000
679.543; 1836.550;  210.125;    0.000
679.654; 1881.550;  249.125;    0.000
679.765; 1840.550;  222.125;    0.000
679.876; 1831.550;  219.125;    0.000
679.987; 1752.550;  213.125;    0.000
680.098; 1813.550;  237.125;    0.000
680.209; 1748.550;  188.125;    0.000
680.320; 1747.550;  243.125;    0.000
680.431; 1831.550;  227.125;    0.000
680.542; 1769.550;  212.125;    0.000
680.653; 1840.550;  266.125;    0.000
680.763; 1717.550;  198.125;    0.000
680.874; 1749.550;  211.125;    0.000
680.985; 1723.550;  207.125;    0.000
681.096; 1756.550;  244.125;    0.000
681.207; 1777.550;  209.125;    0.000
681.318; 1764.550;  215.125;    0.000
681.428; 1798.550;  199.125;    0.000
681.539; 1733.550;  175.125;    0.000
681.650; 1761.550;  224.125;    0.000
681.760; 1804.550;  216.125;    0.000
681.871; 1751.550;  187.125;    0.000
681.982; 1784.550;  237.125;    0.000
682.093; 1712.550;  213.125;    0.000
682.203; 1776.550;  190.125;    0.000
682.314; 1713.550;  230.125;    0.000
682.424; 1739.550;  223.125;    0.000
682.535; 1775.550;  172.125;    0.000
682.646; 1769.550;  268.125;    0.000
682.756; 1737.550;  249.125;    0.000
682.867; 1756.550;  225.125;    0.000
682.977; 1739.550;  211.125;    0.000
683.088; 1753.550;  238.125;    0.000
683.198; 1764.550;  202.125;    0.000
683.308; 1778.550;  196.125;    0.000
683.419; 1721.550;  230.125;    0.000
683.529; 1715.550;  213.125;    0.000
683.640; 1670.550;  225.125;    0.000
683.750; 1761.550;  203.125;    0.000
683.860; 1764.550;  200.125;    0.000
683.971; 1802.550;  269.125;    0.000
684.081; 1683.550;  204.125;    0.000
684.191; 1720.550;  228.125;    0.000
684.301; 1688.550;  219.125;    0.000
684.412; 1779.550;  222.125;    0.000
684.522; 1722.550;  242.125;    0.000
684.632; 1729.550;  234.125;    0.000
684.742; 1719.550;  240.125;    0.000
684.852; 1681.550;  229.125;    0.000
684.963; 1785.550;  237.125;    0.000
685.073; 1718.550;  205.125;    0.000
685.183; 1752.550;  241.125;    0.000
685.293; 1685.550;  202.125;    0.000
685.403; 1684.550;  232.125;    0.000
685.513; 1774.550;  244.125;    0.000
685.623; 1682.550;  224.125;    0.000
685.733; 1815.550;  236.125;    0.000
685.843; 1814.550;  235.125;    0.000
685.953; 1689.550;  216.125;    0.000
686.063; 1718.550;  214.125;    0.000
686.173; 1722.550;  198.125;    0.000
686.283; 1689.550;  250.125;    0.000
686.393; 1734.550;  227.125;    0.000
686.503; 1704.550;  244.125;    0.000
686.612; 1714.550;  247.125;    0.000
686.722; 1748.550;  265.125;    0.000
686.832; 1786.550;  213.125;    0.000
686.942; 1788.550;  241.125;    0.000
687.052; 1675.550;  238.125;    0.000
687.161; 1722.550;  233.125;    0.000
687.271; 1745.550;  232.125;    0.000
687.381; 1682.550;  220.125;    0.000
687.491; 1723.550;  206.125;    0.000
687.600; 1719.550;  283.125;    0.000
687.710; 1730.550;  212.125;    0.000
687.820; 1696.550;  226.125;    0.000
687.929; 1700.550;  202.125;    0.000
688.039; 1677.550;  225.125;    0.000
688.148; 1653.550;  235.125;    0.000
688.258; 1646.550;  224.125;    0.000
688.367; 1733.550;  239.125;    0.000
688.477; 1663.550;  193.125;    0.000
688.586; 1670.550;  226.125;    0.000
688.696; 1682.550;  185.125;    0.000
688.805; 1686.550;  190.125;    0.000
688.915; 1656.550;  209.125;    0.000
689.024; 1689.550;  214.125;    0.000
689.134; 1680.550;  205.125;    0.000
689.243; 1692.550;  190.125;    0.000
689.352; 1736.550;  233.125;    0.000
689.462; 1733.550;  196.125;    0.000
689.571; 1698.550;  227.125;    0.000
689.680; 1735.550;  206.125;    0.000
689.790; 1687.550;  193.125;    0.000
689.899; 1623.550;  204.125;    0.000
690.008; 1652.550;  228.125;    0.000
690.117; 1690.550;  207.125;    0.000
690.227; 1689.550;  231.125;    0.000
690.336; 1689.550;  222.125;    0.000
690.445; 1661.550;  198.125;    0.000
690.554; 1659.550;  202.125;    0.000
690.663; 1656.550;  217.125;    0.000
690.772; 1666.550;  213.125;    0.000
690.881; 1692.550;  225.125;    0.000
690.990; 1706.550;  217.125;    0.000
691.099; 1677.550;  205.125;    0.000
691.209; 1671.550;  220.125;    0.000
691.318; 1596.550;  216.125;    0.000
691.427; 1637.550;  188.125;    0.000
691.536; 1684.550;  224.125;    0.000
691.644; 1642.550;  212.125;    0.000
691.753; 1659.550;  216.125;    0.000
691.862; 1667.550;  250.125;    0.000
691.971; 1696.550;  210.125;    0.000
692.080; 1653.550;  232.125;    0.000
692.189; 1672.550;  218.125;    0.000
692.298; 1599.550;  220.125;    0.000
692.406; 1705.550;  261.125;    0.000
692.515; 1751.550;  253.125;    0.000
692.624; 1612.550;  224.125;    0.000
692.733; 1687.550;  209.125;    0.000
692.842; 1673.550;  214.125;    0.000
692.950; 1636.550;  206.125;    0.000
693.059; 1631.550;  180.125;    0.000
693.168; 1669.550;  220.125;    0.000
693.276; 1713.550;  196.125;    0.000
693.385; 1664.550;  203.125;    0.000
693.494; 1721.550;  263.125;    0.000
693.602; 1633.550;  222.125;    0.000
693.711; 1660.550;  178.125;    0.000
693.819; 1690.550;  230.125;    0.000
693.928; 1705.550;  187.125;    0.000
694.036; 1656.550;  219.125;    0.000
694.145; 1692.550;  223.125;    0.000
694.253; 1661.550;  241.125;    0.000
694.362; 1656.550;  229.125;    0.000
694.470; 1712.550;  223.125;    0.000
694.579; 1613.550;  195.125;    0.000
694.687; 1661.550;  257.125;    0.000
694.795; 1694.550;  230.125;    0.000
694.904; 1657.550;  196.125;    0.000
695.012; 1657.550;  247.125;    0.000
695.120; 1652.550;  215.125;    0.000
695.229; 1692.550;  244.125;    0.000
695.337; 1666.550;  197.125;    0.000
695.445; 1710.550;  270.125;    0.000
695.553; 1666.550;  241.125;    0.000
695.662; 1715.550;  249.125;    0.000
695.770; 1657.550;  244.125;    0.000
695.878; 1734.550;  236.125;    0.000
695.986; 1698.550;  253.125;    0.000
696.094; 1638.550;  242.125;    0.000
696.202; 1657.550;  174.125;    0.000
696.310; 1654.550;  230.125;    0.000
696.419; 1662.550;  218.125;    0.000
696.527; 1656.550;  226.125;    0.000
696.635; 1638.550;  217.125;    0.000
696.743; 1682.550;  221.125;    0.000
696.851; 1662.550;  259.125;    0.000
696.959; 1646.550;  245.125;    0.000
697.067; 1687.550;  235.125;    0.000
697.174; 1636.550;  238.125;    0.000
697.282; 1586.550;  208.125;    0.000
697.390; 1674.550;  265.125;    0.000
697.498; 1640.550;  202.125;    0.000
697.606; 1659.550;  219.125;    0.000
697.714; 1629.550;  245.125;    0.000
697.822; 1688.550;  222.125;    0.000
697.929; 1560.550;  194.125;    0.000
698.037; 1603.550;  223.125;    0.000
698.145; 1633.550;  213.125;    0.000
698.253; 1618.550;  234.125;    0.000
698.360; 1631.550;  211.125;    0.000
698.468; 1641.550;  241.125;    0.000
698.576; 1685.550;  249.125;    0.000
698.683; 1678.550;  268.125;    0.000
698.791; 1614.550;  223.125;    0.000
698.899; 1691.550;  251.125;    0.000
699.006; 1650.550;  216.125;    0.000
699.114; 1634.550;  256.125;    0.000
699.221; 1672.550;  226.125;    0.000
699.329; 1658.550;  255.125;    0.000
699.436; 1603.550;  213.125;    0.000
699.544; 1664.550;  258.125;    0.000
699.651; 1662.550;  214.125;    0.000
699.759; 1643.550;  229.125;    0.000
699.866; 1602.550;  239.125;    0.000
699.974; 1579.550;  224.125;    0.000
700.081; 1585.550;  227.125;    0.000
700.188; 1610.550;  267.125;    0.000
700.296; 1573.550;  222.125;    0.000
700.403; 1604.550;  225.125;    0.000
700.510; 1623.550;  248.125;    0.000
700.618; 1660.550;  223.125;    0.000
700.725; 1606.550;  243.125;    0.000
700.832; 1562.550;  239.125;    0.000
700.940; 1565.550;  284.125;    0.000
701.047; 1639.550;  216.125;    0.000
701.154; 1589.550;  249.125;    0.000
701.261; 1604.550;  229.125;    0.000
701.368; 1654.550;  247.125;    0.000
701.475; 1586.550;  208.125;    0.000
701.582; 1677.550;  262.125;    0.000
701.690; 1622.550;  224.125;    0.000
701.797; 1719.550;  294.125;    0.000
701.904; 1686.550;  303.125;    0.000
702.011; 1718.550;  278.125;    0.000
702.118; 1698.550;  279.125;    0.000
702.225; 1648.550;  342.125;    0.000
702.332; 1691.550;  281.125;    0.000
702.439; 1672.550;  313.125;    0.000
702.546; 1694.550;  295.125;    0.000
702.652; 1688.550;  293.125;    0.000
702.759; 1687.550;  333.125;    0.000
702.866; 1659.550;  272.125;    0.000
702.973; 1711.550;  310.125;    0.000
703.080; 1736.550;  313.125;    0.000
703.187; 1703.550;  316.125;    0.000
703.294; 1639.550;  328.125;    0.000
703.400; 1543.550;  312.125;    0.000
703.507;  433.550;  349.125;    0.000
703.614;  319.550;  298.125;    0.000
703.720;  303.550;  300.125;    0.000
703.827;  309.550;  346.125;    0.000
703.934;  327.550;  308.125;    0.000
704.040;  278.550;  300.125;    0.000
704.147;  331.550;  317.125;    0.000
704.254;  333.550;  350.125;    0.000
704.360;  314.550;  285.125;    0.000
704.467;  355.550;  334.125;    0.000
704.573;  348.550;  330.125;    0.000
704.680;  347.550;  312.125;    0.000
704.786;  336.550;  305.125;    0.000
704.893;  324.550;  330.125;    0.000
704.999;  297.550;  315.125;    0.000
705.106;  341.550;  327.125;    0.000

