
Integration time [ms]:   0.300
Averaging Nr. [scans]: 1
Smoothing Nr. [pixels]: 0
Data measured with spectrometer [name]: UV1
Wave   ;Sample   ;Dark     ;Reference
[nm]   ;[counts] ;[counts] ;[counts] 

236.381;  118.625;  160.350;    0.000
236.451;  209.625;  198.350;    0.000
236.520;  156.625;  179.350;    0.000
236.590;  188.625;  205.350;    0.000
236.660;  204.625;  199.350;    0.000
236.730;  174.625;  178.350;    0.000
236.799;  241.625;  201.350;    0.000
236.869;  193.625;  197.350;    0.000
236.939;  183.625;  180.350;    0.000
237.009;  145.625;  165.350;    0.000
237.078;  176.625;  191.350;    0.000
237.148;  147.625;  146.350;    0.000
237.218;  197.625;  142.350;    0.000
237.287;  184.625;  190.350;    0.000
237.357;  171.625;  182.350;    0.000
237.427;  155.625;  139.350;    0.000
237.496;  816.625;  221.350;    0.000
237.566;  815.625;  183.350;    0.000
237.636;  833.625;  157.350;    0.000
237.705;  800.625;  189.350;    0.000
237.775;  760.625;  169.350;    0.000
237.845;  795.625;  156.350;    0.000
237.914;  844.625;  185.350;    0.000
237.984;  751.625;  194.350;    0.000
238.054;  723.625;  138.350;    0.000
238.123;  791.625;  166.350;    0.000
238.193;  804.625;  174.350;    0.000
238.263;  767.625;  158.350;    0.000
238.332;  768.625;  167.350;    0.000
238.402;  764.625;  173.350;    0.000
238.471;  768.625;  153.350;    0.000
238.541;  801.625;  167.350;    0.000
238.611;  792.625;  165.350;    0.000
238.680;  733.625;  157.350;    0.000
238.750;  745.625;  152.350;    0.000
238.819;  765.625;  190.350;    0.000
238.889;  801.625;  151.350;    0.000
238.958;  779.625;  166.350;    0.000
239.028;  769.625;  180.350;    0.000
239.097;  713.625;  170.350;    0.000
239.167;  779.625;  177.350;    0.000
239.237;  781.625;  195.350;    0.000
239.306;  726.625;  145.350;    0.000
239.376;  799.625;  158.350;    0.000
239.445;  797.625;  187.350;    0.000
239.515;  766.625;  160.350;    0.000
239.584;  793.625;  173.350;    0.000
239.654;  778.625;  184.350;    0.000
239.723;  822.625;  195.350;    0.000
239.793;  793.625;  183.350;    0.000
239.862;  786.625;  190.350;    0.000
239.932;  753.625;  168.350;    0.000
240.001;  786.625;  164.350;    0.000
240.070;  796.625;  183.350;    0.000
240.140;  773.625;  175.350;    0.000
240.209;  772.625;  135.350;    0.000
240.279;  749.625;  176.350;    0.000
240.348;  760.625;  184.350;    0.000
240.418;  733.625;  157.350;    0.000
240.487;  723.625;  189.350;    0.000
240.556;  753.625;  157.350;    0.000
240.626;  741.625;  174.350;    0.000
240.695;  781.625;  180.350;    0.000
240.765;  785.625;  152.350;    0.000
240.834;  770.625;  136.350;    0.000
240.903;  817.625;  196.350;    0.000
240.973;  825.625;  183.350;    0.000
241.042;  713.625;  150.350;    0.000
241.112;  731.625;  168.350;    0.000
241.181;  814.625;  152.350;    0.000
241.250;  741.625;  132.350;    0.000
241.320;  789.625;  209.350;    0.000
241.389;  745.625;  169.350;    0.000
241.458;  770.625;  204.350;    0.000
241.528;  758.625;  176.350;    0.000
241.597;  783.625;  170.350;    0.000
241.666;  741.625;  168.350;    0.000
241.736;  775.625;  172.350;    0.000
241.805;  800.625;  160.350;    0.000
241.874;  732.625;  176.350;    0.000
241.943;  732.625;  165.350;    0.000
242.013;  783.625;  206.350;    0.000
242.082;  756.625;  162.350;    0.000
242.151;  785.625;  180.350;    0.000
242.221;  739.625;  154.350;    0.000
242.290;  737.625;  122.350;    0.000
242.359;  678.625;  121.350;    0.000
242.428;  789.625;  187.350;    0.000
242.498;  729.625;  140.350;    0.000
242.567;  766.625;  173.350;    0.000
242.636;  755.625;  155.350;    0.000
242.705;  726.625;  108.350;    0.000
242.774;  789.625;  145.350;    0.000
242.844;  707.625;  162.350;    0.000
242.913;  710.625;  178.350;    0.000
242.982;  722.625;  163.350;    0.000
243.051;  722.625;  138.350;    0.000
243.120;  771.625;  172.350;    0.000
243.190;  722.625;  155.350;    0.000
243.259;  776.625;  159.350;    0.000
243.328;  774.625;  173.350;    0.000
243.397;  720.625;  175.350;    0.000
243.466;  702.625;  170.350;    0.000
243.535;  778.625;  161.350;    0.000
243.605;  689.625;  149.350;    0.000
243.674;  732.625;  162.350;    0.000
243.743;  717.625;  175.350;    0.000
243.812;  716.625;  159.350;    0.000
243.881;  818.625;  158.350;    0.000
243.950;  747.625;  154.350;    0.000
244.019;  733.625;  185.350;    0.000
244.088;  717.625;  175.350;    0.000
244.158;  759.625;  167.350;    0.000
244.227;  714.625;  159.350;    0.000
244.296;  718.625;  143.350;    0.000
244.365;  709.625;  182.350;    0.000
244.434;  729.625;  117.350;    0.000
244.503;  666.625;  109.350;    0.000
244.572;  664.625;  147.350;    0.000
244.641;  712.625;  129.350;    0.000
244.710;  737.625;  159.350;    0.000
244.779;  755.625;  166.350;    0.000
244.848;  736.625;  122.350;    0.000
244.917;  719.625;  167.350;    0.000
244.986;  671.625;  158.350;    0.000
245.055;  653.625;  175.350;    0.000
245.124;  748.625;  153.350;    0.000
245.193;  687.625;  155.350;    0.000
245.262;  702.625;  137.350;    0.000
245.331;  676.625;  145.350;    0.000
245.400;  627.625;  107.350;    0.000
245.469;  695.625;  162.350;    0.000
245.538;  660.625;  165.350;    0.000
245.607;  746.625;  178.350;    0.000
245.676;  717.625;  166.350;    0.000
245.745;  686.625;  169.350;    0.000
245.814;  682.625;  155.350;    0.000
245.883;  735.625;  186.350;    0.000
245.952;  674.625;  165.350;    0.000
246.021;  685.625;  169.350;    0.000
246.090;  692.625;  170.350;    0.000
246.159;  636.625;  155.350;    0.000
246.227;  650.625;  161.350;    0.000
246.296;  666.625;  142.350;    0.000
246.365;  685.625;  160.350;    0.000
246.434;  715.625;  199.350;    0.000
246.503;  717.625;  155.350;    0.000
246.572;  708.625;  206.350;    0.000
246.641;  658.625;  177.350;    0.000
246.710;  681.625;  178.350;    0.000
246.779;  654.625;  193.350;    0.000
246.847;  645.625;  147.350;    0.000
246.916;  621.625;  131.350;    0.000
246.985;  692.625;  168.350;    0.000
247.054;  629.625;  143.350;    0.000
247.123;  644.625;  130.350;    0.000
247.192;  683.625;  175.350;    0.000
247.260;  695.625;  171.350;    0.000
247.329;  657.625;  162.350;    0.000
247.398;  655.625;  163.350;    0.000
247.467;  633.625;  155.350;    0.000
247.536;  602.625;  149.350;    0.000
247.604;  638.625;  191.350;    0.000
247.673;  663.625;  193.350;    0.000
247.742;  602.625;  159.350;    0.000
247.811;  643.625;  167.350;    0.000
247.879;  664.625;  176.350;    0.000
247.948;  660.625;  157.350;    0.000
248.017;  602.625;  150.350;    0.000
248.086;  672.625;  153.350;    0.000
248.154;  616.625;  157.350;    0.000
248.223;  649.625;  198.350;    0.000
248.292;  639.625;  188.350;    0.000
248.361;  670.625;  157.350;    0.000
248.429;  641.625;  138.350;    0.000
248.498;  615.625;  166.350;    0.000
248.567;  641.625;  179.350;    0.000
248.635;  652.625;  210.350;    0.000
248.704;  630.625;  168.350;    0.000
248.773;  579.625;  147.350;    0.000
248.841;  624.625;  155.350;    0.000
248.910;  673.625;  183.350;    0.000
248.979;  635.625;  171.350;    0.000
249.047;  634.625;  152.350;    0.000
249.116;  600.625;  155.350;    0.000
249.185;  675.625;  217.350;    0.000
249.253;  585.625;  149.350;    0.000
249.322;  616.625;  167.350;    0.000
249.390;  630.625;  182.350;    0.000
249.459;  659.625;  173.350;    0.000
249.528;  608.625;  162.350;    0.000
249.596;  573.625;  162.350;    0.000
249.665;  629.625;  163.350;    0.000
249.733;  594.625;  147.350;    0.000
249.802;  650.625;  170.350;    0.000
249.871;  659.625;  179.350;    0.000
249.939;  597.625;  179.350;    0.000
250.008;  609.625;  201.350;    0.000
250.076;  674.625;  189.350;    0.000
250.145;  656.625;  171.350;    0.000
250.213;  564.625;  161.350;    0.000
250.282;  547.625;  171.350;    0.000
250.350;  581.625;  138.350;    0.000
250.419;  626.625;  172.350;    0.000
250.487;  657.625;  207.350;    0.000
250.556;  619.625;  160.350;    0.000
250.624;  588.625;  187.350;    0.000
250.693;  557.625;  141.350;    0.000
250.761;  614.625;  182.350;    0.000
250.830;  593.625;  203.350;    0.000
250.898;  592.625;  160.350;    0.000
250.967;  567.625;  143.350;    0.000
251.035;  597.625;  142.350;    0.000
251.104;  582.625;  159.350;    0.000
251.172;  559.625;  189.350;    0.000
251.241;  559.625;  134.350;    0.000
251.309;  594.625;  179.350;    0.000
251.378;  591.625;  203.350;    0.000
251.446;  582.625;  151.350;    0.000
251.514;  594.625;  176.350;    0.000
251.583;  624.625;  173.350;    0.000
251.651;  556.625;  163.350;    0.000
251.720;  620.625;  151.350;    0.000
251.788;  616.625;  205.350;    0.000
251.856;  540.625;  126.350;    0.000
251.925;  579.625;  118.350;    0.000
251.993;  547.625;  139.350;    0.000
252.062;  595.625;  161.350;    0.000
252.130;  555.625;  180.350;    0.000
252.198;  553.625;  141.350;    0.000
252.267;  556.625;  145.350;    0.000
252.335;  580.625;  159.350;    0.000
252.403;  576.625;  158.350;    0.000
252.472;  564.625;  142.350;    0.000
252.540;  601.625;  162.350;    0.000
252.608;  547.625;  180.350;    0.000
252.677;  549.625;  137.350;    0.000
252.745;  555.625;  183.350;    0.000
252.813;  521.625;  151.350;    0.000
252.881;  509.625;  109.350;    0.000
252.950;  500.625;  174.350;    0.000
253.018;  541.625;  136.350;    0.000
253.086;  466.625;  149.350;    0.000
253.155;  479.625;  127.350;    0.000
253.223;  447.625;  156.350;    0.000
253.291;  509.625;  163.350;    0.000
253.359;  477.625;  174.350;    0.000
253.428;  486.625;  174.350;    0.000
253.496;  458.625;  161.350;    0.000
253.564;  474.625;  128.350;    0.000
253.632;  489.625;  153.350;    0.000
253.700;  411.625;  185.350;    0.000
253.769;  458.625;  163.350;    0.000
253.837;  510.625;  176.350;    0.000
253.905;  436.625;  164.350;    0.000
253.973;  457.625;  156.350;    0.000
254.041;  476.625;  154.350;    0.000
254.110;  446.625;  165.350;    0.000
254.178;  412.625;  148.350;    0.000
254.246;  451.625;  138.350;    0.000
254.314;  447.625;  164.350;    0.000
254.382;  441.625;  167.350;    0.000
254.450;  454.625;  134.350;    0.000
254.518;  477.625;  192.350;    0.000
254.587;  498.625;  139.350;    0.000
254.655;  506.625;  162.350;    0.000
254.723;  495.625;  131.350;    0.000
254.791;  510.625;  181.350;    0.000
254.859;  471.625;  146.350;    0.000
254.927;  472.625;  189.350;    0.000
254.995;  450.625;  141.350;    0.000
255.063;  466.625;  181.350;    0.000
255.131;  458.625;  156.350;    0.000
255.199;  484.625;  175.350;    0.000
255.267;  433.625;  120.350;    0.000
255.336;  526.625;  186.350;    0.000
255.404;  402.625;  134.350;    0.000
255.472;  462.625;  172.350;    0.000
255.540;  451.625;  157.350;    0.000
255.608;  523.625;  186.350;    0.000
255.676;  424.625;  155.350;    0.000
255.744;  478.625;  143.350;    0.000
255.812;  516.625;  134.350;    0.000
255.880;  488.625;  188.350;    0.000
255.948;  468.625;  163.350;    0.000
256.016;  467.625;  175.350;    0.000
256.084;  510.625;  191.350;    0.000
256.152;  465.625;  187.350;    0.000
256.220;  471.625;  152.350;    0.000
256.288;  525.625;  141.350;    0.000
256.356;  456.625;  139.350;    0.000
256.424;  486.625;  121.350;    0.000
256.491;  485.625;  139.350;    0.000
256.559;  516.625;  144.350;    0.000
256.627;  515.625;  158.350;    0.000
256.695;  499.625;  121.350;    0.000
256.763;  574.625;  150.350;    0.000
256.831;  505.625;  181.350;    0.000
256.899;  531.625;  146.350;    0.000
256.967;  534.625;   71.350;    0.000
257.035;  556.625;  164.350;    0.000
257.103;  564.625;  191.350;    0.000
257.171;  503.625;  140.350;    0.000
257.238;  560.625;  165.350;    0.000
257.306;  538.625;  127.350;    0.000
257.374;  585.625;  120.350;    0.000
257.442;  551.625;  139.350;    0.000
257.510;  598.625;  158.350;    0.000
257.578;  599.625;  164.350;    0.000
257.646;  604.625;  151.350;    0.000
257.713;  621.625;  136.350;    0.000
257.781;  574.625;  137.350;    0.000
257.849;  628.625;  151.350;    0.000
257.917;  560.625;  154.350;    0.000
257.985;  605.625;  113.350;    0.000
258.052;  673.625;  140.350;    0.000
258.120;  640.625;  176.350;    0.000
258.188;  639.625;  157.350;    0.000
258.256;  591.625;  153.350;    0.000
258.324;  651.625;  184.350;    0.000
258.391;  633.625;  144.350;    0.000
258.459;  685.625;  162.350;    0.000
258.527;  620.625;  154.350;    0.000
258.595;  674.625;  122.350;    0.000
258.662;  640.625;  164.350;    0.000
258.730;  673.625;  114.350;    0.000
258.798;  671.625;  131.350;    0.000
258.865;  663.625;  171.350;    0.000
258.933;  714.625;  145.350;    0.000
259.001;  741.625;  150.350;    0.000
259.069;  707.625;  123.350;    0.000
259.136;  734.625;  139.350;    0.000
259.204;  762.625;  165.350;    0.000
259.272;  740.625;  114.350;    0.000
259.339;  697.625;  179.350;    0.000
259.407;  776.625;  153.350;    0.000
259.475;  762.625;  143.350;    0.000
259.542;  760.625;  136.350;    0.000
259.610;  821.625;  133.350;    0.000
259.677;  775.625;  159.350;    0.000
259.745;  751.625;  130.350;    0.000
259.813;  858.625;  175.350;    0.000
259.880;  835.625;  158.350;    0.000
259.948;  807.625;  124.350;    0.000
260.016;  818.625;  105.350;    0.000
260.083;  834.625;  169.350;    0.000
260.151;  800.625;  133.350;    0.000
260.218;  876.625;  143.350;    0.000
260.286;  884.625;  134.350;    0.000
260.353;  886.625;  160.350;    0.000
260.421;  894.625;  128.350;    0.000
260.489;  915.625;  150.350;    0.000
260.556;  897.625;  179.350;    0.000
260.624;  925.625;  113.350;    0.000
260.691;  914.625;  128.350;    0.000
260.759;  922.625;  146.350;    0.000
260.826;  902.625;  111.350;    0.000
260.894;  907.625;  115.350;    0.000
260.961;  959.625;  138.350;    0.000
261.029;  992.625;  152.350;    0.000
261.096;  972.625;  175.350;    0.000
261.164;  932.625;  131.350;    0.000
261.231; 1010.625;  141.350;    0.000
261.299;  994.625;  125.350;    0.000
261.366; 1025.625;  142.350;    0.000
261.434; 1049.625;  133.350;    0.000
261.501; 1001.625;  137.350;    0.000
261.568; 1044.625;  184.350;    0.000
261.636; 1050.625;  138.350;    0.000
261.703; 1055.625;  161.350;    0.000
261.771; 1047.625;  160.350;    0.000
261.838; 1035.625;  178.350;    0.000
261.906; 1067.625;  128.350;    0.000
261.973; 1086.625;  139.350;    0.000
262.040; 1110.625;  148.350;    0.000
262.108; 1114.625;  130.350;    0.000
262.175; 1076.625;  117.350;    0.000
262.243; 1126.625;  174.350;    0.000
262.310; 1126.625;  145.350;    0.000
262.377; 1084.625;  108.350;    0.000
262.445; 1132.625;  147.350;    0.000
262.512; 1155.625;  124.350;    0.000
262.579; 1058.625;  127.350;    0.000
262.647; 1138.625;  166.350;    0.000
262.714; 1195.625;  150.350;    0.000
262.781; 1207.625;  121.350;    0.000
262.849; 1168.625;  126.350;    0.000
262.916; 1202.625;  119.350;    0.000
262.983; 1210.625;  155.350;    0.000
263.051; 1200.625;  137.350;    0.000
263.118; 1254.625;  160.350;    0.000
263.185; 1203.625;  151.350;    0.000
263.252; 1210.625;  167.350;    0.000
263.320; 1216.625;  123.350;    0.000
263.387; 1265.625;  134.350;    0.000
263.454; 1248.625;  144.350;    0.000
263.522; 1244.625;  153.350;    0.000
263.589; 1332.625;  161.350;    0.000
263.656; 1303.625;  117.350;    0.000
263.723; 1265.625;  101.350;    0.000
263.790; 1313.625;  128.350;    0.000
263.858; 1333.625;  142.350;    0.000
263.925; 1319.625;  182.350;    0.000
263.992; 1312.625;  146.350;    0.000
264.059; 1363.625;  132.350;    0.000
264.126; 1287.625;  154.350;    0.000
264.194; 1397.625;  153.350;    0.000
264.261; 1396.625;  157.350;    0.000
264.328; 1315.625;  171.350;    0.000
264.395; 1344.625;  166.350;    0.000
264.462; 1412.625;  165.350;    0.000
264.529; 1373.625;  124.350;    0.000
264.597; 1393.625;  120.350;    0.000
264.664; 1424.625;  159.350;    0.000
264.731; 1367.625;  145.350;    0.000
264.798; 1347.625;  100.350;    0.000
264.865; 1435.625;  166.350;    0.000
264.932; 1431.625;  132.350;    0.000
264.999; 1405.625;  137.350;    0.000
265.066; 1420.625;  124.350;    0.000
265.133; 1506.625;  162.350;    0.000
265.201; 1424.625;  163.350;    0.000
265.268; 1348.625;  174.350;    0.000
265.335; 1503.625;  132.350;    0.000
265.402; 1463.625;  116.350;    0.000
265.469; 1480.625;  121.350;    0.000
265.536; 1503.625;  157.350;    0.000
265.603; 1569.625;  151.350;    0.000
265.670; 1464.625;  164.350;    0.000
265.737; 1534.625;  142.350;    0.000
265.804; 1521.625;  146.350;    0.000
265.871; 1552.625;  168.350;    0.000
265.938; 1585.625;  131.350;    0.000
266.005; 1623.625;  208.350;    0.000
266.072; 1552.625;  125.350;    0.000
266.139; 1561.625;  161.350;    0.000
266.206; 1547.625;  134.350;    0.000
266.273; 1607.625;  155.350;    0.000
266.340; 1534.625;  122.350;    0.000
266.407; 1597.625;  134.350;    0.000
266.474; 1555.625;  126.350;    0.000
266.541; 1574.625;  153.350;    0.000
266.608; 1572.625;  129.350;    0.000
266.675; 1624.625;  185.350;    0.000
266.742; 1621.625;  153.350;    0.000
266.808; 1648.625;  169.350;    0.000
266.875; 1654.625;  156.350;    0.000
266.942; 1653.625;  172.350;    0.000
267.009; 1685.625;  150.350;    0.000
267.076; 1703.625;  184.350;    0.000
267.143; 1581.625;  170.350;    0.000
267.210; 1672.625;  132.350;    0.000
267.277; 1609.625;  146.350;    0.000
267.344; 1741.625;  159.350;    0.000
267.410; 1638.625;  174.350;    0.000
267.477; 1671.625;  169.350;    0.000
267.544; 1677.625;  130.350;    0.000
267.611; 1701.625;  169.350;    0.000
267.678; 1669.625;  197.350;    0.000
267.745; 1666.625;  185.350;    0.000
267.811; 1714.625;  160.350;    0.000
267.878; 1683.625;  143.350;    0.000
267.945; 1693.625;  126.350;    0.000
268.012; 1665.625;  172.350;    0.000
268.079; 1688.625;  156.350;    0.000
268.145; 1718.625;  128.350;    0.000
268.212; 1682.625;  107.350;    0.000
268.279; 1649.625;  135.350;    0.000
268.346; 1719.625;  166.350;    0.000
268.412; 1713.625;  150.350;    0.000
268.479; 1660.625;  176.350;    0.000
268.546; 1720.625;  119.350;    0.000
268.613; 1725.625;  201.350;    0.000
268.679; 1640.625;  141.350;    0.000
268.746; 1731.625;  177.350;    0.000
268.813; 1649.625;  134.350;    0.000
268.879; 1695.625;  141.350;    0.000
268.946; 1703.625;  172.350;    0.000
269.013; 1641.625;  150.350;    0.000
269.079; 1714.625;  124.350;    0.000
269.146; 1655.625;  135.350;    0.000
269.213; 1730.625;  200.350;    0.000
269.280; 1758.625;  142.350;    0.000
269.346; 1703.625;  153.350;    0.000
269.413; 1718.625;  140.350;    0.000
269.479; 1682.625;  171.350;    0.000
269.546; 1702.625;  156.350;    0.000
269.613; 1674.625;  145.350;    0.000
269.679; 1674.625;  168.350;    0.000
269.746; 1724.625;  136.350;    0.000
269.813; 1712.625;  153.350;    0.000
269.879; 1726.625;  162.350;    0.000
269.946; 1692.625;  156.350;    0.000
270.012; 1726.625;  178.350;    0.000
270.079; 1625.625;  132.350;    0.000
270.145; 1681.625;  146.350;    0.000
270.212; 1686.625;  145.350;    0.000
270.279; 1733.625;  184.350;    0.000
270.345; 1706.625;  143.350;    0.000
270.412; 1617.625;  158.350;    0.000
270.478; 1645.625;  143.350;    0.000
270.545; 1592.625;  150.350;    0.000
270.611; 1661.625;  156.350;    0.000
270.678; 1706.625;  121.350;    0.000
270.744; 1573.625;  161.350;    0.000
270.811; 1621.625;  173.350;    0.000
270.877; 1621.625;  115.350;    0.000
270.944; 1637.625;  114.350;    0.000
271.010; 1668.625;  122.350;    0.000
271.077; 1633.625;  142.350;    0.000
271.143; 1657.625;  152.350;    0.000
271.210; 1699.625;  135.350;    0.000
271.276; 1583.625;  107.350;    0.000
271.342; 1673.625;  173.350;    0.000
271.409; 1637.625;  171.350;    0.000
271.475; 1663.625;  136.350;    0.000
271.542; 1586.625;  121.350;    0.000
271.608; 1668.625;  133.350;    0.000
271.675; 1669.625;  136.350;    0.000
271.741; 1653.625;  151.350;    0.000
271.807; 1586.625;  130.350;    0.000
271.874; 1582.625;  168.350;    0.000
271.940; 1701.625;  156.350;    0.000
272.007; 1711.625;  122.350;    0.000
272.073; 1665.625;  121.350;    0.000
272.139; 1706.625;  137.350;    0.000
272.206; 1596.625;  152.350;    0.000
272.272; 1641.625;  162.350;    0.000
272.338; 1694.625;  197.350;    0.000
272.405; 1673.625;  144.350;    0.000
272.471; 1660.625;  160.350;    0.000
272.537; 1729.625;  142.350;    0.000
272.604; 1653.625;  141.350;    0.000
272.670; 1750.625;  182.350;    0.000
272.736; 1627.625;  126.350;    0.000
272.802; 1661.625;  146.350;    0.000
272.869; 1663.625;  163.350;    0.000
272.935; 1629.625;  132.350;    0.000
273.001; 1754.625;  119.350;    0.000
273.068; 1720.625;  137.350;    0.000
273.134; 1699.625;  155.350;    0.000
273.200; 1746.625;  165.350;    0.000
273.266; 1731.625;  156.350;    0.000
273.333; 1730.625;  143.350;    0.000
273.399; 1617.625;  128.350;    0.000
273.465; 1668.625;  167.350;    0.000
273.531; 1738.625;  122.350;    0.000
273.597; 1670.625;  182.350;    0.000
273.664; 1758.625;  177.350;    0.000
273.730; 1661.625;  124.350;    0.000
273.796; 1685.625;  143.350;    0.000
273.862; 1748.625;  155.350;    0.000
273.928; 1800.625;  137.350;    0.000
273.995; 1778.625;  188.350;    0.000
274.061; 1765.625;  154.350;    0.000
274.127; 1663.625;  161.350;    0.000
274.193; 1771.625;   95.350;    0.000
274.259; 1761.625;  128.350;    0.000
274.325; 1672.625;  146.350;    0.000
274.391; 1823.625;  113.350;    0.000
274.457; 1746.625;  150.350;    0.000
274.524; 1830.625;  165.350;    0.000
274.590; 1735.625;  140.350;    0.000
274.656; 1801.625;  165.350;    0.000
274.722; 1778.625;  118.350;    0.000
274.788; 1772.625;  143.350;    0.000
274.854; 1830.625;  150.350;    0.000
274.920; 1858.625;   88.350;    0.000
274.986; 1865.625;  178.350;    0.000
275.052; 1822.625;  145.350;    0.000
275.118; 1755.625;  105.350;    0.000
275.184; 1906.625;  129.350;    0.000
275.250; 1854.625;  138.350;    0.000
275.316; 1883.625;  173.350;    0.000
275.382; 1864.625;  106.350;    0.000
275.448; 1810.625;  160.350;    0.000
275.514; 1936.625;  162.350;    0.000
275.580; 1910.625;  135.350;    0.000
275.646; 1884.625;  120.350;    0.000
275.712; 1985.625;  157.350;    0.000
275.778; 1930.625;  128.350;    0.000
275.844; 1949.625;  117.350;    0.000
275.910; 1990.625;  121.350;    0.000
275.976; 2047.625;  172.350;    0.000
276.042; 2013.625;  114.350;    0.000
276.108; 2070.625;  200.350;    0.000
276.174; 2049.625;  132.350;    0.000
276.240; 1966.625;  128.350;    0.000
276.306; 2054.625;  124.350;    0.000
276.372; 2157.625;  133.350;    0.000
276.437; 2164.625;  146.350;    0.000
276.503; 2209.625;  136.350;    0.000
276.569; 2228.625;  162.350;    0.000
276.635; 2322.625;  128.350;    0.000
276.701; 2297.625;  148.350;    0.000
276.767; 2321.625;  155.350;    0.000
276.833; 2319.625;  128.350;    0.000
276.899; 2389.625;  145.350;    0.000
276.964; 2362.625;  124.350;    0.000
277.030; 2539.625;  130.350;    0.000
277.096; 2555.625;  139.350;    0.000
277.162; 2632.625;  164.350;    0.000
277.228; 2581.625;  108.350;    0.000
277.293; 2720.625;  138.350;    0.000
277.359; 2782.625;  123.350;    0.000
277.425; 3008.625;  183.350;    0.000
277.491; 3197.625;  144.350;    0.000
277.557; 3689.625;  130.350;    0.000
277.622; 4767.625;  151.350;    0.000
277.688; 4822.625;  169.350;    0.000
277.754; 4925.625;  199.350;    0.000
277.820; 5201.625;  170.350;    0.000
277.885; 6315.625;  173.350;    0.000
277.951; 7706.625;  187.350;    0.000
278.017; 6540.625;  152.350;    0.000
278.083; 5843.625;  137.350;    0.000
278.148; 5593.625;  147.350;    0.000
278.214; 5784.625;  162.350;    0.000
278.280; 6068.625;  171.350;    0.000
278.345; 5449.625;  174.350;    0.000
278.411; 5030.625;  152.350;    0.000
278.477; 5269.625;  173.350;    0.000
278.542; 5459.625;  161.350;    0.000
278.608; 5875.625;  155.350;    0.000
278.674; 6479.625;  169.350;    0.000
278.739; 7202.625;  142.350;    0.000
278.805; 7983.625;  164.350;    0.000
278.871; 9636.625;  160.350;    0.000
278.936;12136.625;  121.350;    0.000
279.002;17726.625;  166.350;    0.000
279.067;23598.625;  199.350;    0.000
279.133;22954.625;  150.350;    0.000
279.199;21137.625;  154.350;    0.000
279.264;21863.625;  154.350;    0.000
279.330;26308.625;  159.350;    0.000
279.395;34698.625;  143.350;    0.000
279.461;47292.625;  173.350;    0.000
279.527;53897.625;  163.350;    0.000
279.592;49062.625;  167.350;    0.000
279.658;39141.625;  189.350;    0.000
279.723;37298.625;  153.350;    0.000
279.789;38841.625;  174.350;    0.000
279.854;34331.625;  129.350;    0.000
279.920;28092.625;  165.350;    0.000
279.985;25351.625;  152.350;    0.000
280.051;25712.625;  164.350;    0.000
280.116;31019.625;  187.350;    0.000
280.182;43204.625;  160.350;    0.000
280.247;50113.625;  124.350;    0.000
280.313;41290.625;  154.350;    0.000
280.378;27923.625;  152.350;    0.000
280.444;20216.625;  165.350;    0.000
280.509;15831.625;  164.350;    0.000
280.574;13319.625;  160.350;    0.000
280.640;11366.625;  167.350;    0.000
280.705;10044.625;  190.350;    0.000
280.771; 9067.625;  154.350;    0.000
280.836; 8274.625;  158.350;    0.000
280.902; 7854.625;  124.350;    0.000
280.967; 7252.625;  179.350;    0.000
281.032; 6733.625;  187.350;    0.000
281.098; 6424.625;  155.350;    0.000
281.163; 6126.625;  133.350;    0.000
281.229; 5850.625;  170.350;    0.000
281.294; 5619.625;  175.350;    0.000
281.359; 5299.625;  163.350;    0.000
281.425; 5243.625;  161.350;    0.000
281.490; 5038.625;  162.350;    0.000
281.555; 4858.625;  137.350;    0.000
281.621; 4782.625;  163.350;    0.000
281.686; 4516.625;  155.350;    0.000
281.751; 4384.625;  158.350;    0.000
281.816; 4154.625;  139.350;    0.000
281.882; 4152.625;  150.350;    0.000
281.947; 4088.625;  165.350;    0.000
282.012; 3893.625;  171.350;    0.000
282.078; 3915.625;  177.350;    0.000
282.143; 3766.625;  149.350;    0.000
282.208; 3777.625;  181.350;    0.000
282.273; 3685.625;  166.350;    0.000
282.339; 3703.625;  165.350;    0.000
282.404; 3610.625;  166.350;    0.000
282.469; 3530.625;  150.350;    0.000
282.534; 3547.625;  176.350;    0.000
282.600; 3467.625;  117.350;    0.000
282.665; 3454.625;  134.350;    0.000
282.730; 3362.625;  155.350;    0.000
282.795; 3324.625;  193.350;    0.000
282.860; 3312.625;  160.350;    0.000
282.926; 3248.625;  174.350;    0.000
282.991; 3336.625;  161.350;    0.000
283.056; 3252.625;  157.350;    0.000
283.121; 3215.625;  178.350;    0.000
283.186; 3119.625;  152.350;    0.000
283.251; 3205.625;  167.350;    0.000
283.316; 3101.625;  186.350;    0.000
283.382; 3213.625;  148.350;    0.000
283.447; 3234.625;  191.350;    0.000
283.512; 3098.625;  132.350;    0.000
283.577; 3103.625;  179.350;    0.000
283.642; 3057.625;  185.350;    0.000
283.707; 2983.625;  136.350;    0.000
283.772; 3112.625;  119.350;    0.000
283.837; 2954.625;  136.350;    0.000
283.902; 3098.625;  135.350;    0.000
283.967; 3109.625;  146.350;    0.000
284.032; 3028.625;  140.350;    0.000
284.097; 3213.625;  199.350;    0.000
284.163; 3124.625;  144.350;    0.000
284.228; 3118.625;  183.350;    0.000
284.293; 3079.625;  141.350;    0.000
284.358; 3119.625;  146.350;    0.000
284.423; 3105.625;  127.350;    0.000
284.488; 3329.625;  186.350;    0.000
284.553; 3290.625;  155.350;    0.000
284.618; 3322.625;  118.350;    0.000
284.683; 3416.625;  145.350;    0.000
284.748; 3667.625;  139.350;    0.000
284.812; 3791.625;  147.350;    0.000
284.877; 4010.625;  123.350;    0.000
284.942; 4626.625;  153.350;    0.000
285.007; 5383.625;  168.350;    0.000
285.072; 7314.625;  181.350;    0.000
285.137;12464.625;  147.350;    0.000
285.202;16322.625;  175.350;    0.000
285.267;13554.625;  182.350;    0.000
285.332; 8724.625;  136.350;    0.000
285.397; 6636.625;  138.350;    0.000
285.462; 5471.625;  151.350;    0.000
285.527; 4614.625;  159.350;    0.000
285.591; 4272.625;  177.350;    0.000
285.656; 3971.625;  144.350;    0.000
285.721; 3747.625;  125.350;    0.000
285.786; 3662.625;  169.350;    0.000
285.851; 3530.625;  175.350;    0.000
285.916; 3491.625;  164.350;    0.000
285.981; 3308.625;  134.350;    0.000
286.045; 3258.625;  154.350;    0.000
286.110; 3288.625;  136.350;    0.000
286.175; 3156.625;  155.350;    0.000
286.240; 3144.625;  138.350;    0.000
286.305; 3079.625;  213.350;    0.000
286.369; 2976.625;  221.350;    0.000
286.434; 3057.625;  172.350;    0.000
286.499; 3061.625;  161.350;    0.000
286.564; 2871.625;  189.350;    0.000
286.628; 2908.625;  144.350;    0.000
286.693; 2981.625;  176.350;    0.000
286.758; 2881.625;  168.350;    0.000
286.823; 2839.625;  142.350;    0.000
286.887; 2816.625;  134.350;    0.000
286.952; 2891.625;  180.350;    0.000
287.017; 2981.625;  204.350;    0.000
287.082; 2841.625;  120.350;    0.000
287.146; 2956.625;  173.350;    0.000
287.211; 2811.625;  167.350;    0.000
287.276; 2892.625;  164.350;    0.000
287.340; 2813.625;  138.350;    0.000
287.405; 2819.625;  172.350;    0.000
287.470; 2633.625;  142.350;    0.000
287.534; 2806.625;  155.350;    0.000
287.599; 2701.625;  166.350;    0.000
287.663; 2883.625;  171.350;    0.000
287.728; 2746.625;  190.350;    0.000
287.793; 2745.625;  197.350;    0.000
287.857; 2736.625;  165.350;    0.000
287.922; 2763.625;  147.350;    0.000
287.987; 2742.625;  167.350;    0.000
288.051; 2680.625;  151.350;    0.000
288.116; 2761.625;  154.350;    0.000
288.180; 2707.625;  186.350;    0.000
288.245; 2722.625;  161.350;    0.000
288.309; 2816.625;  177.350;    0.000
288.374; 2779.625;  151.350;    0.000
288.439; 2763.625;  169.350;    0.000
288.503; 2616.625;  133.350;    0.000
288.568; 2774.625;  206.350;    0.000
288.632; 2683.625;  192.350;    0.000
288.697; 2688.625;  183.350;    0.000
288.761; 2728.625;  148.350;    0.000
288.826; 2625.625;  136.350;    0.000
288.890; 2668.625;  185.350;    0.000
288.955; 2618.625;  150.350;    0.000
289.019; 2751.625;  165.350;    0.000
289.084; 2631.625;  150.350;    0.000
289.148; 2629.625;  146.350;    0.000
289.212; 2613.625;  172.350;    0.000
289.277; 2662.625;  177.350;    0.000
289.341; 2624.625;  190.350;    0.000
289.406; 2590.625;  117.350;    0.000
289.470; 2621.625;  173.350;    0.000
289.535; 2587.625;  170.350;    0.000
289.599; 2568.625;  154.350;    0.000
289.663; 2579.625;  173.350;    0.000
289.728; 2532.625;  176.350;    0.000
289.792; 2697.625;  138.350;    0.000
289.857; 2720.625;  203.350;    0.000
289.921; 2641.625;  143.350;    0.000
289.985; 2664.625;  150.350;    0.000
290.050; 2693.625;  170.350;    0.000
290.114; 2633.625;  125.350;    0.000
290.178; 2635.625;  161.350;    0.000
290.243; 2747.625;  119.350;    0.000
290.307; 2653.625;  169.350;    0.000
290.371; 2619.625;  169.350;    0.000
290.436; 2639.625;  170.350;    0.000
290.500; 2702.625;  144.350;    0.000
290.564; 2654.625;  179.350;    0.000
290.629; 2651.625;  166.350;    0.000
290.693; 2648.625;  156.350;    0.000
290.757; 2664.625;  147.350;    0.000
290.821; 2710.625;  170.350;    0.000
290.886; 2666.625;  167.350;    0.000
290.950; 2662.625;  187.350;    0.000
291.014; 2751.625;  164.350;    0.000
291.078; 2675.625;  115.350;    0.000
291.143; 2710.625;  149.350;    0.000
291.207; 2748.625;  163.350;    0.000
291.271; 2682.625;  177.350;    0.000
291.335; 2760.625;  148.350;    0.000
291.399; 2744.625;  155.350;    0.000
291.464; 2848.625;  114.350;    0.000
291.528; 2929.625;  153.350;    0.000
291.592; 3054.625;  156.350;    0.000
291.656; 2883.625;  170.350;    0.000
291.720; 2821.625;  159.350;    0.000
291.784; 2905.625;  159.350;    0.000
291.849; 2877.625;  154.350;    0.000
291.913; 2762.625;  118.350;    0.000
291.977; 2820.625;  157.350;    0.000
292.041; 2841.625;  163.350;    0.000
292.105; 2859.625;  135.350;    0.000
292.169; 2819.625;  155.350;    0.000
292.233; 2872.625;  163.350;    0.000
292.297; 2979.625;  144.350;    0.000
292.361; 2979.625;  143.350;    0.000
292.425; 2992.625;  177.350;    0.000
292.490; 3108.625;  159.350;    0.000
292.554; 3097.625;  137.350;    0.000
292.618; 3274.625;  144.350;    0.000
292.682; 3500.625;  169.350;    0.000
292.746; 3835.625;  166.350;    0.000
292.810; 4885.625;  147.350;    0.000
292.874; 5967.625;  160.350;    0.000
292.938; 6112.625;  174.350;    0.000
293.002; 5443.625;  148.350;    0.000
293.066; 4958.625;  115.350;    0.000
293.130; 4665.625;  133.350;    0.000
293.194; 4378.625;  148.350;    0.000
293.258; 4375.625;  167.350;    0.000
293.322; 4278.625;  166.350;    0.000
293.386; 4344.625;  193.350;    0.000
293.450; 4473.625;  142.350;    0.000
293.514; 4940.625;  170.350;    0.000
293.577; 6450.625;  153.350;    0.000
293.641; 8320.625;  171.350;    0.000
293.705; 8921.625;  168.350;    0.000
293.769; 8189.625;  155.350;    0.000
293.833; 7029.625;  161.350;    0.000
293.897; 6354.625;  124.350;    0.000
293.961; 5683.625;  165.350;    0.000
294.025; 5247.625;  118.350;    0.000
294.089; 4853.625;  125.350;    0.000
294.152; 4591.625;  160.350;    0.000
294.216; 4330.625;  160.350;    0.000
294.280; 4110.625;  158.350;    0.000
294.344; 3942.625;  119.350;    0.000
294.408; 3703.625;  168.350;    0.000
294.472; 3584.625;  156.350;    0.000
294.536; 3484.625;  192.350;    0.000
294.599; 3520.625;  171.350;    0.000
294.663; 3320.625;  139.350;    0.000
294.727; 3262.625;  136.350;    0.000
294.791; 3207.625;  118.350;    0.000
294.855; 3251.625;  118.350;    0.000
294.918; 3035.625;  127.350;    0.000
294.982; 3039.625;  167.350;    0.000
295.046; 3000.625;  178.350;    0.000
295.110; 2944.625;  157.350;    0.000
295.173; 2902.625;  101.350;    0.000
295.237; 2992.625;  145.350;    0.000
295.301; 3042.625;  135.350;    0.000
295.364; 2827.625;  185.350;    0.000
295.428; 2863.625;  112.350;    0.000
295.492; 2882.625;  142.350;    0.000
295.556; 2945.625;  170.350;    0.000
295.619; 2840.625;  193.350;    0.000
295.683; 2786.625;  144.350;    0.000
295.747; 2604.625;  152.350;    0.000
295.810; 2704.625;  139.350;    0.000
295.874; 2743.625;  157.350;    0.000
295.938; 2635.625;  128.350;    0.000
296.001; 2714.625;  164.350;    0.000
296.065; 2537.625;  184.350;    0.000
296.128; 2567.625;  127.350;    0.000
296.192; 2546.625;  166.350;    0.000
296.256; 2638.625;  154.350;    0.000
296.319; 2548.625;  128.350;    0.000
296.383; 2689.625;  146.350;    0.000
296.447; 2598.625;  155.350;    0.000
296.510; 2658.625;  177.350;    0.000
296.574; 2488.625;  169.350;    0.000
296.637; 2569.625;  140.350;    0.000
296.701; 2719.625;  181.350;    0.000
296.764; 2532.625;  131.350;    0.000
296.828; 2562.625;  194.350;    0.000
296.891; 2513.625;  146.350;    0.000
296.955; 2611.625;  160.350;    0.000
297.018; 2538.625;  174.350;    0.000
297.082; 2481.625;  153.350;    0.000
297.145; 2472.625;  133.350;    0.000
297.209; 2461.625;  149.350;    0.000
297.272; 2448.625;  150.350;    0.000
297.336; 2422.625;  119.350;    0.000
297.399; 2455.625;  160.350;    0.000
297.463; 2427.625;  158.350;    0.000
297.526; 2421.625;  160.350;    0.000
297.590; 2441.625;  173.350;    0.000
297.653; 2310.625;  121.350;    0.000
297.717; 2422.625;  168.350;    0.000
297.780; 2478.625;  131.350;    0.000
297.843; 2497.625;  154.350;    0.000
297.907; 2499.625;  126.350;    0.000
297.970; 2408.625;  180.350;    0.000
298.034; 2390.625;  140.350;    0.000
298.097; 2460.625;  207.350;    0.000
298.160; 2329.625;  177.350;    0.000
298.224; 2406.625;  165.350;    0.000
298.287; 2459.625;  160.350;    0.000
298.350; 2442.625;  176.350;    0.000
298.414; 2381.625;  155.350;    0.000
298.477; 2321.625;  132.350;    0.000
298.540; 2394.625;  162.350;    0.000
298.604; 2370.625;  180.350;    0.000
298.667; 2340.625;  208.350;    0.000
298.730; 2327.625;  177.350;    0.000
298.794; 2307.625;  126.350;    0.000
298.857; 2322.625;  171.350;    0.000
298.920; 2350.625;  124.350;    0.000
298.984; 2239.625;  146.350;    0.000
299.047; 2360.625;  140.350;    0.000
299.110; 2246.625;  159.350;    0.000
299.173; 2354.625;  177.350;    0.000
299.237; 2254.625;  196.350;    0.000
299.300; 2216.625;  121.350;    0.000
299.363; 2263.625;  172.350;    0.000
299.426; 2158.625;  117.350;    0.000
299.489; 2130.625;  138.350;    0.000
299.553; 2300.625;  198.350;    0.000
299.616; 2261.625;  158.350;    0.000
299.679; 2278.625;  148.350;    0.000
299.742; 2238.625;  138.350;    0.000
299.805; 2278.625;  157.350;    0.000
299.868; 2139.625;  183.350;    0.000
299.932; 2189.625;  137.350;    0.000
299.995; 2186.625;  152.350;    0.000
300.058; 2184.625;  171.350;    0.000
300.121; 2140.625;  172.350;    0.000
300.184; 2120.625;  161.350;    0.000
300.247; 2123.625;  156.350;    0.000
300.310; 2268.625;  154.350;    0.000
300.374; 2205.625;  147.350;    0.000
300.437; 2175.625;  144.350;    0.000
300.500; 2133.625;  152.350;    0.000
300.563; 2196.625;  160.350;    0.000
300.626; 2131.625;  167.350;    0.000
300.689; 2151.625;  193.350;    0.000
300.752; 2148.625;  134.350;    0.000
300.815; 2129.625;  194.350;    0.000
300.878; 2191.625;  156.350;    0.000
300.941; 2126.625;  177.350;    0.000
301.004; 2130.625;  160.350;    0.000
301.067; 2165.625;  153.350;    0.000
301.130; 2123.625;  167.350;    0.000
301.193; 2090.625;  156.350;    0.000
301.256; 2068.625;  176.350;    0.000
301.319; 2066.625;  172.350;    0.000
301.382; 2141.625;  150.350;    0.000
301.445; 2190.625;  183.350;    0.000
301.508; 2120.625;  118.350;    0.000
301.571; 2135.625;  142.350;    0.000
301.634; 2102.625;  164.350;    0.000
301.697; 2069.625;  169.350;    0.000
301.760; 2136.625;  197.350;    0.000
301.823; 2057.625;  155.350;    0.000
301.885; 2176.625;  165.350;    0.000
301.948; 2144.625;  168.350;    0.000
302.011; 2081.625;  172.350;    0.000
302.074; 2183.625;  182.350;    0.000
302.137; 2093.625;  161.350;    0.000
302.200; 2131.625;  174.350;    0.000
302.263; 2045.625;  158.350;    0.000
302.326; 2079.625;  168.350;    0.000
302.388; 2270.625;  165.350;    0.000
302.451; 2099.625;  158.350;    0.000
302.514; 2024.625;  181.350;    0.000
302.577; 2097.625;  147.350;    0.000
302.640; 2076.625;  178.350;    0.000
302.703; 2040.625;  164.350;    0.000
302.765; 2098.625;  149.350;    0.000
302.828; 2135.625;  192.350;    0.000
302.891; 2087.625;  201.350;    0.000
302.954; 2015.625;  135.350;    0.000
303.016; 2085.625;  180.350;    0.000
303.079; 2104.625;  192.350;    0.000
303.142; 2178.625;  176.350;    0.000
303.205; 2118.625;  176.350;    0.000
303.267; 2116.625;  163.350;    0.000
303.330; 2077.625;  162.350;    0.000
303.393; 2149.625;  164.350;    0.000
303.456; 2046.625;  180.350;    0.000
303.518; 2064.625;  162.350;    0.000
303.581; 2091.625;  137.350;    0.000
303.644; 2051.625;  135.350;    0.000
303.706; 2067.625;  170.350;    0.000
303.769; 2084.625;  216.350;    0.000
303.832; 1987.625;  143.350;    0.000
303.894; 2142.625;  162.350;    0.000
303.957; 2118.625;  149.350;    0.000
304.020; 2034.625;  111.350;    0.000
304.082; 2065.625;  158.350;    0.000
304.145; 2130.625;  149.350;    0.000
304.207; 2026.625;  169.350;    0.000
304.270; 2026.625;  170.350;    0.000
304.333; 2124.625;  185.350;    0.000
304.395; 2135.625;  179.350;    0.000
304.458; 1994.625;  174.350;    0.000
304.520; 2112.625;  160.350;    0.000
304.583; 2094.625;  175.350;    0.000
304.646; 2117.625;  160.350;    0.000
304.708; 2058.625;  173.350;    0.000
304.771; 2050.625;  115.350;    0.000
304.833; 2059.625;  172.350;    0.000
304.896; 2140.625;  187.350;    0.000
304.958; 2051.625;  142.350;    0.000
305.021; 2020.625;  164.350;    0.000
305.083; 2058.625;  139.350;    0.000
305.146; 2122.625;  162.350;    0.000
305.208; 2093.625;  135.350;    0.000
305.271; 2060.625;  159.350;    0.000
305.333; 2143.625;  210.350;    0.000
305.396; 2128.625;  151.350;    0.000
305.458; 2034.625;  195.350;    0.000
305.520; 2097.625;  179.350;    0.000
305.583; 2149.625;  157.350;    0.000
305.645; 2070.625;  187.350;    0.000
305.708; 2095.625;  159.350;    0.000
305.770; 2176.625;  189.350;    0.000
305.833; 2097.625;  147.350;    0.000
305.895; 2173.625;  154.350;    0.000
305.957; 2100.625;  143.350;    0.000
306.020; 2046.625;  133.350;    0.000
306.082; 2127.625;  146.350;    0.000
306.144; 2097.625;  171.350;    0.000
306.207; 2043.625;  151.350;    0.000
306.269; 2067.625;  169.350;    0.000
306.331; 2084.625;  162.350;    0.000
306.394; 2054.625;  171.350;    0.000
306.456; 2083.625;  155.350;    0.000
306.518; 2208.625;  183.350;    0.000
306.581; 2008.625;  180.350;    0.000
306.643; 2087.625;  199.350;    0.000
306.705; 2048.625;  163.350;    0.000
306.768; 2088.625;  183.350;    0.000
306.830; 2139.625;  183.350;    0.000
306.892; 2191.625;  190.350;    0.000
306.954; 2160.625;  161.350;    0.000
307.017; 2117.625;  151.350;    0.000
307.079; 2151.625;  147.350;    0.000
307.141; 2184.625;  179.350;    0.000
307.203; 2202.625;  143.350;    0.000
307.266; 2171.625;  142.350;    0.000
307.328; 2205.625;  161.350;    0.000
307.390; 2226.625;  189.350;    0.000
307.452; 2235.625;  155.350;    0.000
307.514; 2180.625;  211.350;    0.000
307.577; 2236.625;  201.350;    0.000
307.639; 2205.625;  192.350;    0.000
307.701; 2144.625;  162.350;    0.000
307.763; 2228.625;  155.350;    0.000
307.825; 2197.625;  193.350;    0.000
307.887; 2245.625;  214.350;    0.000
307.949; 2251.625;  208.350;    0.000
308.012; 2289.625;  175.350;    0.000
308.074; 2241.625;  155.350;    0.000
308.136; 2209.625;  172.350;    0.000
308.198; 2185.625;  171.350;    0.000
308.260; 2234.625;  182.350;    0.000
308.322; 2225.625;  177.350;    0.000
308.384; 2307.625;  207.350;    0.000
308.446; 2201.625;  170.350;    0.000
308.508; 2241.625;  177.350;    0.000
308.570; 2266.625;  195.350;    0.000
308.632; 2365.625;  190.350;    0.000
308.694; 2316.625;  161.350;    0.000
308.756; 2425.625;  173.350;    0.000
308.818; 2341.625;  190.350;    0.000
308.880; 2240.625;  197.350;    0.000
308.942; 2371.625;  223.350;    0.000
309.004; 2363.625;  176.350;    0.000
309.066; 2437.625;  182.350;    0.000
309.128; 2405.625;  185.350;    0.000
309.190; 2501.625;  166.350;    0.000
309.252; 2628.625;  191.350;    0.000
309.314; 2610.625;  208.350;    0.000
309.376; 2521.625;  205.350;    0.000
309.438; 2473.625;  166.350;    0.000
309.500; 2519.625;  195.350;    0.000
309.562; 2501.625;  163.350;    0.000
309.624; 2546.625;  162.350;    0.000
309.686; 2577.625;  194.350;    0.000
309.747; 2619.625;  179.350;    0.000
309.809; 2514.625;  211.350;    0.000
309.871; 2501.625;  191.350;    0.000
309.933; 2420.625;  151.350;    0.000
309.995; 2385.625;  179.350;    0.000
310.057; 2340.625;  175.350;    0.000
310.119; 2426.625;  161.350;    0.000
310.180; 2317.625;  167.350;    0.000
310.242; 2361.625;  171.350;    0.000
310.304; 2339.625;  209.350;    0.000
310.366; 2359.625;  229.350;    0.000
310.428; 2288.625;  132.350;    0.000
310.489; 2439.625;  165.350;    0.000
310.551; 2311.625;  193.350;    0.000
310.613; 2360.625;  182.350;    0.000
310.675; 2402.625;  186.350;    0.000
310.737; 2333.625;  192.350;    0.000
310.798; 2316.625;  194.350;    0.000
310.860; 2328.625;  220.350;    0.000
310.922; 2249.625;  161.350;    0.000
310.983; 2262.625;  203.350;    0.000
311.045; 2291.625;  198.350;    0.000
311.107; 2299.625;  179.350;    0.000
311.169; 2293.625;  154.350;    0.000
311.230; 2321.625;  134.350;    0.000
311.292; 2358.625;  215.350;    0.000
311.354; 2354.625;  171.350;    0.000
311.415; 2320.625;  195.350;    0.000
311.477; 2359.625;  185.350;    0.000
311.539; 2313.625;  183.350;    0.000
311.600; 2312.625;  183.350;    0.000
311.662; 2308.625;  207.350;    0.000
311.724; 2259.625;  193.350;    0.000
311.785; 2292.625;  180.350;    0.000
311.847; 2249.625;  155.350;    0.000
311.908; 2353.625;  179.350;    0.000
311.970; 2241.625;  193.350;    0.000
312.032; 2248.625;  188.350;    0.000
312.093; 2311.625;  166.350;    0.000
312.155; 2253.625;  147.350;    0.000
312.216; 2323.625;  177.350;    0.000
312.278; 2345.625;  162.350;    0.000
312.339; 2263.625;  158.350;    0.000
312.401; 2314.625;  181.350;    0.000
312.462; 2231.625;  153.350;    0.000
312.524; 2418.625;  186.350;    0.000
312.585; 2399.625;  191.350;    0.000
312.647; 2348.625;  131.350;    0.000
312.708; 2322.625;  170.350;    0.000
312.770; 2344.625;  194.350;    0.000
312.831; 2416.625;  161.350;    0.000
312.893; 2350.625;  179.350;    0.000
312.954; 2337.625;  183.350;    0.000
313.016; 2430.625;  189.350;    0.000
313.077; 2407.625;  169.350;    0.000
313.139; 2317.625;  148.350;    0.000
313.200; 2384.625;  155.350;    0.000
313.261; 2343.625;  213.350;    0.000
313.323; 2300.625;  162.350;    0.000
313.384; 2456.625;  160.350;    0.000
313.446; 2371.625;  202.350;    0.000
313.507; 2445.625;  149.350;    0.000
313.568; 2374.625;  194.350;    0.000
313.630; 2371.625;  163.350;    0.000
313.691; 2307.625;  158.350;    0.000
313.752; 2360.625;  179.350;    0.000
313.814; 2419.625;  180.350;    0.000
313.875; 2316.625;  191.350;    0.000
313.936; 2336.625;  169.350;    0.000
313.998; 2294.625;  165.350;    0.000
314.059; 2381.625;  211.350;    0.000
314.120; 2318.625;  190.350;    0.000
314.182; 2365.625;  185.350;    0.000
314.243; 2273.625;  186.350;    0.000
314.304; 2432.625;  178.350;    0.000
314.365; 2391.625;  187.350;    0.000
314.427; 2280.625;  145.350;    0.000
314.488; 2305.625;  184.350;    0.000
314.549; 2323.625;  181.350;    0.000
314.610; 2265.625;  151.350;    0.000
314.672; 2336.625;  153.350;    0.000
314.733; 2345.625;  148.350;    0.000
314.794; 2341.625;  156.350;    0.000
314.855; 2408.625;  196.350;    0.000
314.917; 2335.625;  157.350;    0.000
314.978; 2249.625;  174.350;    0.000
315.039; 2379.625;  168.350;    0.000
315.100; 2231.625;  154.350;    0.000
315.161; 2373.625;  176.350;    0.000
315.222; 2366.625;  198.350;    0.000
315.283; 2341.625;  169.350;    0.000
315.345; 2348.625;  162.350;    0.000
315.406; 2344.625;  199.350;    0.000
315.467; 2219.625;  180.350;    0.000
315.528; 2262.625;  179.350;    0.000
315.589; 2329.625;  166.350;    0.000
315.650; 2343.625;  179.350;    0.000
315.711; 2303.625;  177.350;    0.000
315.772; 2300.625;  180.350;    0.000
315.833; 2296.625;  157.350;    0.000
315.894; 2365.625;  133.350;    0.000
315.955; 2340.625;  205.350;    0.000
316.016; 2232.625;  190.350;    0.000
316.078; 2279.625;  174.350;    0.000
316.139; 2277.625;  208.350;    0.000
316.200; 2241.625;  166.350;    0.000
316.261; 2295.625;  186.350;    0.000
316.322; 2273.625;  185.350;    0.000
316.383; 2282.625;  179.350;    0.000
316.444; 2249.625;  172.350;    0.000
316.504; 2321.625;  181.350;    0.000
316.565; 2308.625;  197.350;    0.000
316.626; 2247.625;  196.350;    0.000
316.687; 2276.625;  173.350;    0.000
316.748; 2279.625;  178.350;    0.000
316.809; 2303.625;  178.350;    0.000
316.870; 2235.625;  134.350;    0.000
316.931; 2276.625;  166.350;    0.000
316.992; 2341.625;  200.350;    0.000
317.053; 2264.625;  169.350;    0.000
317.114; 2304.625;  185.350;    0.000
317.175; 2246.625;  213.350;    0.000
317.235; 2275.625;  199.350;    0.000
317.296; 2273.625;  190.350;    0.000
317.357; 2201.625;  152.350;    0.000
317.418; 2271.625;  192.350;    0.000
317.479; 2332.625;  170.350;    0.000
317.540; 2264.625;  179.350;    0.000
317.601; 2285.625;  155.350;    0.000
317.661; 2261.625;  154.350;    0.000
317.722; 2302.625;  190.350;    0.000
317.783; 2251.625;  149.350;    0.000
317.844; 2349.625;  207.350;    0.000
317.904; 2247.625;  153.350;    0.000
317.965; 2215.625;  179.350;    0.000
318.026; 2280.625;  235.350;    0.000
318.087; 2238.625;  184.350;    0.000
318.148; 2281.625;  201.350;    0.000
318.208; 2238.625;  220.350;    0.000
318.269; 2358.625;  175.350;    0.000
318.330; 2271.625;  185.350;    0.000
318.390; 2218.625;  180.350;    0.000
318.451; 2309.625;  164.350;    0.000
318.512; 2346.625;  150.350;    0.000
318.572; 2254.625;  205.350;    0.000
318.633; 2300.625;  224.350;    0.000
318.694; 2298.625;  202.350;    0.000
318.754; 2241.625;  196.350;    0.000
318.815; 2276.625;  187.350;    0.000
318.876; 2292.625;  200.350;    0.000
318.936; 2287.625;  232.350;    0.000
318.997; 2268.625;  211.350;    0.000
319.058; 2303.625;  194.350;    0.000
319.118; 2287.625;  197.350;    0.000
319.179; 2221.625;  162.350;    0.000
319.239; 2276.625;  188.350;    0.000
319.300; 2233.625;  205.350;    0.000
319.361; 2272.625;  179.350;    0.000
319.421; 2292.625;  182.350;    0.000
319.482; 2191.625;  189.350;    0.000
319.542; 2267.625;  180.350;    0.000
319.603; 2233.625;  204.350;    0.000
319.663; 2279.625;  195.350;    0.000
319.724; 2169.625;  135.350;    0.000
319.784; 2270.625;  184.350;    0.000
319.845; 2240.625;  160.350;    0.000
319.905; 2189.625;  206.350;    0.000
319.966; 2300.625;  203.350;    0.000
320.026; 2197.625;  203.350;    0.000
320.087; 2282.625;  206.350;    0.000
320.147; 2261.625;  180.350;    0.000
320.208; 2279.625;  189.350;    0.000
320.268; 2219.625;  179.350;    0.000
320.329; 2253.625;  215.350;    0.000
320.389; 2290.625;  193.350;    0.000
320.449; 2261.625;  210.350;    0.000
320.510; 2260.625;  206.350;    0.000
320.570; 2262.625;  221.350;    0.000
320.631; 2235.625;  203.350;    0.000
320.691; 2284.625;  190.350;    0.000
320.751; 2297.625;  205.350;    0.000
320.812; 2203.625;  191.350;    0.000
320.872; 2270.625;  216.350;    0.000
320.932; 2228.625;  209.350;    0.000
320.993; 2185.625;  189.350;    0.000
321.053; 2323.625;  228.350;    0.000
321.113; 2266.625;  163.350;    0.000
321.174; 2262.625;  204.350;    0.000
321.234; 2325.625;  214.350;    0.000
321.294; 2303.625;  184.350;    0.000
321.355; 2240.625;  216.350;    0.000
321.415; 2342.625;  187.350;    0.000
321.475; 2268.625;  216.350;    0.000
321.535; 2311.625;  189.350;    0.000
321.596; 2284.625;  186.350;    0.000
321.656; 2305.625;  204.350;    0.000
321.716; 2184.625;  183.350;    0.000
321.776; 2235.625;  194.350;    0.000
321.837; 2164.625;  190.350;    0.000
321.897; 2197.625;  219.350;    0.000
321.957; 2207.625;  222.350;    0.000
322.017; 2177.625;  183.350;    0.000
322.077; 2242.625;  239.350;    0.000
322.138; 2213.625;  219.350;    0.000
322.198; 2243.625;  185.350;    0.000
322.258; 2204.625;  231.350;    0.000
322.318; 2199.625;  197.350;    0.000
322.378; 2260.625;  179.350;    0.000
322.438; 2175.625;  217.350;    0.000
322.499; 2254.625;  238.350;    0.000
322.559; 2167.625;  197.350;    0.000
322.619; 2252.625;  204.350;    0.000
322.679; 2171.625;  199.350;    0.000
322.739; 2062.625;  194.350;    0.000
322.799; 2222.625;  203.350;    0.000
322.859; 2242.625;  234.350;    0.000
322.919; 2163.625;  194.350;    0.000
322.979; 2324.625;  219.350;    0.000
323.039; 2146.625;  193.350;    0.000
323.099; 2206.625;  207.350;    0.000
323.159; 2116.625;  213.350;    0.000
323.219; 2152.625;  171.350;    0.000
323.279; 2257.625;  215.350;    0.000
323.339; 2268.625;  170.350;    0.000
323.399; 2306.625;  195.350;    0.000
323.459; 2191.625;  234.350;    0.000
323.519; 2219.625;  201.350;    0.000
323.579; 2211.625;  167.350;    0.000
323.639; 2207.625;  209.350;    0.000
323.699; 2194.625;  217.350;    0.000
323.759; 2122.625;  213.350;    0.000
323.819; 2168.625;  216.350;    0.000
323.879; 2238.625;  193.350;    0.000
323.939; 2130.625;  182.350;    0.000
323.999; 2228.625;  206.350;    0.000
324.059; 2228.625;  196.350;    0.000
324.119; 2203.625;  240.350;    0.000
324.178; 2204.625;  186.350;    0.000
324.238; 2148.625;  179.350;    0.000
324.298; 2291.625;  195.350;    0.000
324.358; 2249.625;  208.350;    0.000
324.418; 2208.625;  190.350;    0.000
324.478; 2233.625;  197.350;    0.000
324.538; 2291.625;  157.350;    0.000
324.597; 2194.625;  219.350;    0.000
324.657; 2157.625;  176.350;    0.000
324.717; 2167.625;  179.350;    0.000
324.777; 2195.625;  190.350;    0.000
324.837; 2194.625;  172.350;    0.000
324.896; 2196.625;  199.350;    0.000
324.956; 2181.625;  216.350;    0.000
325.016; 2308.625;  191.350;    0.000
325.076; 2200.625;  185.350;    0.000
325.135; 2158.625;  174.350;    0.000
325.195; 2193.625;  175.350;    0.000
325.255; 2177.625;  144.350;    0.000
325.315; 2181.625;  201.350;    0.000
325.374; 2203.625;  198.350;    0.000
325.434; 2160.625;  181.350;    0.000
325.494; 2253.625;  183.350;    0.000
325.553; 2181.625;  172.350;    0.000
325.613; 2241.625;  200.350;    0.000
325.673; 2216.625;  177.350;    0.000
325.732; 2237.625;  174.350;    0.000
325.792; 2207.625;  181.350;    0.000
325.852; 2143.625;  214.350;    0.000
325.911; 2207.625;  230.350;    0.000
325.971; 2197.625;  198.350;    0.000
326.031; 2265.625;  201.350;    0.000
326.090; 2176.625;  214.350;    0.000
326.150; 2198.625;  163.350;    0.000
326.209; 2242.625;  207.350;    0.000
326.269; 2231.625;  201.350;    0.000
326.328; 2119.625;  208.350;    0.000
326.388; 2137.625;  169.350;    0.000
326.448; 2218.625;  229.350;    0.000
326.507; 2180.625;  243.350;    0.000
326.567; 2192.625;  162.350;    0.000
326.626; 2178.625;  200.350;    0.000
326.686; 2063.625;  166.350;    0.000
326.745; 2196.625;  178.350;    0.000
326.805; 2157.625;  185.350;    0.000
326.864; 2163.625;  209.350;    0.000
326.924; 2108.625;  234.350;    0.000
326.983; 2144.625;  197.350;    0.000
327.043; 2193.625;  217.350;    0.000
327.102; 2211.625;  174.350;    0.000
327.161; 2218.625;  172.350;    0.000
327.221; 2151.625;  183.350;    0.000
327.280; 2087.625;  200.350;    0.000
327.340; 2091.625;  200.350;    0.000
327.399; 2170.625;  219.350;    0.000
327.459; 2110.625;  246.350;    0.000
327.518; 2130.625;  217.350;    0.000
327.577; 2070.625;  212.350;    0.000
327.637; 2044.625;  188.350;    0.000
327.696; 2094.625;  201.350;    0.000
327.755; 2156.625;  199.350;    0.000
327.815; 2138.625;  224.350;    0.000
327.874; 2128.625;  236.350;    0.000
327.933; 2073.625;  182.350;    0.000
327.993; 2118.625;  206.350;    0.000
328.052; 2085.625;  191.350;    0.000
328.111; 2134.625;  222.350;    0.000
328.171; 2165.625;  200.350;    0.000
328.230; 2121.625;  203.350;    0.000
328.289; 2152.625;  219.350;    0.000
328.349; 2171.625;  231.350;    0.000
328.408; 2198.625;  223.350;    0.000
328.467; 2211.625;  226.350;    0.000
328.526; 2119.625;  197.350;    0.000
328.586; 2157.625;  221.350;    0.000
328.645; 2160.625;  199.350;    0.000
328.704; 2164.625;  227.350;    0.000
328.763; 2104.625;  201.350;    0.000
328.822; 2144.625;  230.350;    0.000
328.882; 2213.625;  244.350;    0.000
328.941; 2131.625;  221.350;    0.000
329.000; 2185.625;  207.350;    0.000
329.059; 2155.625;  208.350;    0.000
329.118; 2163.625;  203.350;    0.000
329.177; 2111.625;  198.350;    0.000
329.237; 2196.625;  218.350;    0.000
329.296; 2161.625;  213.350;    0.000
329.355; 2084.625;  208.350;    0.000
329.414; 2090.625;  231.350;    0.000
329.473; 2162.625;  221.350;    0.000
329.532; 2165.625;  243.350;    0.000
329.591; 2127.625;  210.350;    0.000
329.650; 2179.625;  232.350;    0.000
329.709; 2198.625;  211.350;    0.000
329.768; 2166.625;  194.350;    0.000
329.827; 2313.625;  237.350;    0.000
329.886; 2198.625;  213.350;    0.000
329.945; 2158.625;  190.350;    0.000
330.004; 2350.625;  233.350;    0.000
330.063; 2412.625;  191.350;    0.000
330.122; 2609.625;  234.350;    0.000
330.181; 2788.625;  220.350;    0.000
330.240; 2694.625;  191.350;    0.000
330.299; 2532.625;  210.350;    0.000
330.358; 2383.625;  191.350;    0.000
330.417; 2309.625;  225.350;    0.000
330.476; 2219.625;  226.350;    0.000
330.535; 2158.625;  217.350;    0.000
330.594; 2155.625;  205.350;    0.000
330.653; 2098.625;  193.350;    0.000
330.712; 2095.625;  206.350;    0.000
330.771; 2154.625;  175.350;    0.000
330.830; 2180.625;  204.350;    0.000
330.889; 2108.625;  198.350;    0.000
330.948; 2148.625;  198.350;    0.000
331.006; 2110.625;  207.350;    0.000
331.065; 2136.625;  203.350;    0.000
331.124; 2115.625;  210.350;    0.000
331.183; 1953.625;  165.350;    0.000
331.242; 1997.625;  195.350;    0.000
331.301; 2110.625;  191.350;    0.000
331.359; 2075.625;  205.350;    0.000
331.418; 2054.625;  183.350;    0.000
331.477; 2083.625;  198.350;    0.000
331.536; 2067.625;  211.350;    0.000
331.595; 2004.625;  191.350;    0.000
331.653; 1946.625;  232.350;    0.000
331.712; 1986.625;  225.350;    0.000
331.771; 2006.625;  199.350;    0.000
331.830; 2024.625;  189.350;    0.000
331.888; 2115.625;  219.350;    0.000
331.947; 1988.625;  188.350;    0.000
332.006; 2064.625;  180.350;    0.000
332.065; 1992.625;  177.350;    0.000
332.123; 2055.625;  214.350;    0.000
332.182; 2090.625;  223.350;    0.000
332.241; 2047.625;  202.350;    0.000
332.299; 1995.625;  180.350;    0.000
332.358; 2113.625;  206.350;    0.000
332.417; 2066.625;  195.350;    0.000
332.475; 2098.625;  221.350;    0.000
332.534; 2080.625;  207.350;    0.000
332.592; 2000.625;  190.350;    0.000
332.651; 2059.625;  203.350;    0.000
332.710; 2086.625;  219.350;    0.000
332.768; 2072.625;  210.350;    0.000
332.827; 2097.625;  173.350;    0.000
332.885; 2107.625;  239.350;    0.000
332.944; 2068.625;  145.350;    0.000
333.003; 2064.625;  197.350;    0.000
333.061; 2071.625;  179.350;    0.000
333.120; 2119.625;  198.350;    0.000
333.178; 2212.625;  185.350;    0.000
333.237; 2151.625;  204.350;    0.000
333.295; 2205.625;  266.350;    0.000
333.354; 2138.625;  181.350;    0.000
333.412; 2118.625;  189.350;    0.000
333.471; 2203.625;  216.350;    0.000
333.529; 2158.625;  220.350;    0.000
333.588; 2249.625;  193.350;    0.000
333.646; 2262.625;  186.350;    0.000
333.705; 2260.625;  210.350;    0.000
333.763; 2340.625;  222.350;    0.000
333.822; 2240.625;  222.350;    0.000
333.880; 2167.625;  202.350;    0.000
333.938; 2212.625;  205.350;    0.000
333.997; 2195.625;  199.350;    0.000
334.055; 2213.625;  199.350;    0.000
334.114; 2155.625;  237.350;    0.000
334.172; 2144.625;  155.350;    0.000
334.230; 2153.625;  208.350;    0.000
334.289; 2132.625;  191.350;    0.000
334.347; 2085.625;  211.350;    0.000
334.405; 2214.625;  212.350;    0.000
334.464; 2149.625;  179.350;    0.000
334.522; 2101.625;  160.350;    0.000
334.580; 2087.625;  195.350;    0.000
334.639; 2135.625;  191.350;    0.000
334.697; 2048.625;  194.350;    0.000
334.755; 2071.625;  185.350;    0.000
334.814; 2121.625;  214.350;    0.000
334.872; 2034.625;  179.350;    0.000
334.930; 2128.625;  169.350;    0.000
334.988; 2159.625;  201.350;    0.000
335.047; 2144.625;  188.350;    0.000
335.105; 2139.625;  175.350;    0.000
335.163; 2158.625;  191.350;    0.000
335.221; 2221.625;  196.350;    0.000
335.280; 2126.625;  182.350;    0.000
335.338; 2143.625;  202.350;    0.000
335.396; 2118.625;  219.350;    0.000
335.454; 2206.625;  187.350;    0.000
335.512; 2261.625;  236.350;    0.000
335.570; 2090.625;  209.350;    0.000
335.629; 2172.625;  247.350;    0.000
335.687; 2138.625;  219.350;    0.000
335.745; 2184.625;  203.350;    0.000
335.803; 2165.625;  220.350;    0.000
335.861; 2156.625;  208.350;    0.000
335.919; 2143.625;  223.350;    0.000
335.977; 2196.625;  201.350;    0.000
336.035; 2173.625;  193.350;    0.000
336.094; 2155.625;  178.350;    0.000
336.152; 2167.625;  182.350;    0.000
336.210; 2202.625;  199.350;    0.000
336.268; 2123.625;  216.350;    0.000
336.326; 2147.625;  216.350;    0.000
336.384; 2202.625;  201.350;    0.000
336.442; 2164.625;  197.350;    0.000
336.500; 2164.625;  203.350;    0.000
336.558; 2136.625;  198.350;    0.000
336.616; 2200.625;  210.350;    0.000
336.674; 2046.625;  192.350;    0.000
336.732; 2093.625;  182.350;    0.000
336.790; 2091.625;  189.350;    0.000
336.848; 2073.625;  233.350;    0.000
336.906; 2143.625;  235.350;    0.000
336.964; 2122.625;  208.350;    0.000
337.022; 2159.625;  249.350;    0.000
337.080; 2168.625;  204.350;    0.000
337.138; 2171.625;  176.350;    0.000
337.195; 2130.625;  207.350;    0.000
337.253; 2104.625;  214.350;    0.000
337.311; 2004.625;  210.350;    0.000
337.369; 2173.625;  222.350;    0.000
337.427; 2066.625;  236.350;    0.000
337.485; 2006.625;  241.350;    0.000
337.543; 2101.625;  217.350;    0.000
337.601; 2077.625;  221.350;    0.000
337.658; 2069.625;  205.350;    0.000
337.716; 2094.625;  210.350;    0.000
337.774; 2058.625;  196.350;    0.000
337.832; 2063.625;  200.350;    0.000
337.890; 2013.625;  192.350;    0.000
337.947; 2127.625;  192.350;    0.000
338.005; 2016.625;  211.350;    0.000
338.063; 2110.625;  176.350;    0.000
338.121; 2098.625;  222.350;    0.000
338.178; 2067.625;  198.350;    0.000
338.236; 2064.625;  210.350;    0.000
338.294; 2011.625;  211.350;    0.000
338.352; 2026.625;  212.350;    0.000
338.409; 2068.625;  199.350;    0.000
338.467; 2040.625;  205.350;    0.000
338.525; 2097.625;  217.350;    0.000
338.583; 2002.625;  197.350;    0.000
338.640; 2102.625;  226.350;    0.000
338.698; 2031.625;  201.350;    0.000
338.756; 2007.625;  192.350;    0.000
338.813; 2033.625;  220.350;    0.000
338.871; 2026.625;  258.350;    0.000
338.928; 2038.625;  223.350;    0.000
338.986; 2134.625;  200.350;    0.000
339.044; 2014.625;  206.350;    0.000
339.101; 1991.625;  250.350;    0.000
339.159; 2026.625;  245.350;    0.000
339.216; 2088.625;  227.350;    0.000
339.274; 2086.625;  260.350;    0.000
339.332; 2086.625;  223.350;    0.000
339.389; 1996.625;  233.350;    0.000
339.447; 2026.625;  206.350;    0.000
339.504; 2123.625;  229.350;    0.000
339.562; 1972.625;  194.350;    0.000
339.619; 1996.625;  245.350;    0.000
339.677; 2053.625;  238.350;    0.000
339.734; 2010.625;  197.350;    0.000
339.792; 2098.625;  210.350;    0.000
339.849; 2047.625;  201.350;    0.000
339.907; 2043.625;  252.350;    0.000
339.964; 2035.625;  191.350;    0.000
340.022; 2112.625;  246.350;    0.000
340.079; 1874.625;  213.350;    0.000
340.137; 2064.625;  240.350;    0.000
340.194; 2104.625;  208.350;    0.000
340.252; 1986.625;  215.350;    0.000
340.309; 2013.625;  203.350;    0.000
340.366; 1948.625;  194.350;    0.000
340.424; 2021.625;  226.350;    0.000
340.481; 1991.625;  234.350;    0.000
340.538; 1972.625;  205.350;    0.000
340.596; 2021.625;  197.350;    0.000
340.653; 2021.625;  233.350;    0.000
340.711; 2053.625;  273.350;    0.000
340.768; 2064.625;  237.350;    0.000
340.825; 2053.625;  224.350;    0.000
340.883; 2087.625;  240.350;    0.000
340.940; 2015.625;  216.350;    0.000
340.997; 2087.625;  228.350;    0.000
341.054; 2031.625;  200.350;    0.000
341.112; 2043.625;  220.350;    0.000
341.169; 2072.625;  226.350;    0.000
341.226; 2092.625;  206.350;    0.000
341.284; 2046.625;  204.350;    0.000
341.341; 2112.625;  214.350;    0.000
341.398; 2066.625;  160.350;    0.000
341.455; 2089.625;  209.350;    0.000
341.512; 2057.625;  233.350;    0.000
341.570; 2096.625;  240.350;    0.000
341.627; 2077.625;  209.350;    0.000
341.684; 1990.625;  178.350;    0.000
341.741; 2111.625;  254.350;    0.000
341.798; 2061.625;  232.350;    0.000
341.856; 2085.625;  196.350;    0.000
341.913; 2099.625;  244.350;    0.000
341.970; 2052.625;  203.350;    0.000
342.027; 2012.625;  235.350;    0.000
342.084; 2041.625;  214.350;    0.000
342.141; 2039.625;  194.350;    0.000
342.198; 2070.625;  194.350;    0.000
342.255; 2099.625;  219.350;    0.000
342.313; 2029.625;  195.350;    0.000
342.370; 1945.625;  207.350;    0.000
342.427; 2094.625;  217.350;    0.000
342.484; 2010.625;  213.350;    0.000
342.541; 1968.625;  215.350;    0.000
342.598; 2101.625;  247.350;    0.000
342.655; 2035.625;  205.350;    0.000
342.712; 2094.625;  226.350;    0.000
342.769; 2052.625;  212.350;    0.000
342.826; 2035.625;  203.350;    0.000
342.883; 2025.625;  207.350;    0.000
342.940; 1978.625;  204.350;    0.000
342.997; 1998.625;  237.350;    0.000
343.054; 2053.625;  210.350;    0.000
343.111; 1978.625;  209.350;    0.000
343.168; 2057.625;  201.350;    0.000
343.225; 2024.625;  208.350;    0.000
343.282; 2120.625;  216.350;    0.000
343.339; 2143.625;  237.350;    0.000
343.395; 2158.625;  218.350;    0.000
343.452; 2143.625;  234.350;    0.000
343.509; 2123.625;  214.350;    0.000
343.566; 2163.625;  222.350;    0.000
343.623; 2094.625;  226.350;    0.000
343.680; 2144.625;  245.350;    0.000
343.737; 2122.625;  209.350;    0.000
343.794; 2260.625;  227.350;    0.000
343.850; 2142.625;  197.350;    0.000
343.907; 2176.625;  211.350;    0.000
343.964; 2259.625;  190.350;    0.000
344.021; 2244.625;  252.350;    0.000
344.078; 2161.625;  261.350;    0.000
344.134; 2258.625;  206.350;    0.000
344.191; 2243.625;  231.350;    0.000
344.248; 2200.625;  225.350;    0.000
344.305; 2177.625;  210.350;    0.000
344.361; 2245.625;  194.350;    0.000
344.418; 2166.625;  219.350;    0.000
344.475; 2148.625;  245.350;    0.000
344.532; 2195.625;  238.350;    0.000
344.588; 2211.625;  235.350;    0.000
344.645; 2187.625;  229.350;    0.000
344.702; 2138.625;  145.350;    0.000
344.758; 2193.625;  240.350;    0.000
344.815; 2176.625;  215.350;    0.000
344.872; 2104.625;  203.350;    0.000
344.928; 2186.625;  208.350;    0.000
344.985; 2124.625;  216.350;    0.000
345.042; 2159.625;  234.350;    0.000
345.098; 2159.625;  183.350;    0.000
345.155; 2163.625;  241.350;    0.000
345.212; 2234.625;  222.350;    0.000
345.268; 2283.625;  234.350;    0.000
345.325; 2084.625;  181.350;    0.000
345.381; 2172.625;  251.350;    0.000
345.438; 2130.625;  256.350;    0.000
345.495; 2216.625;  247.350;    0.000
345.551; 2182.625;  231.350;    0.000
345.608; 2187.625;  206.350;    0.000
345.664; 2155.625;  201.350;    0.000
345.721; 2140.625;  216.350;    0.000
345.777; 2139.625;  195.350;    0.000
345.834; 2132.625;  195.350;    0.000
345.890; 2082.625;  227.350;    0.000
345.947; 2100.625;  240.350;    0.000
346.003; 2139.625;  248.350;    0.000
346.060; 2098.625;  213.350;    0.000
346.116; 2235.625;  225.350;    0.000
346.173; 2190.625;  199.350;    0.000
346.229; 2137.625;  264.350;    0.000
346.285; 2114.625;  246.350;    0.000
346.342; 2136.625;  240.350;    0.000
346.398; 2146.625;  222.350;    0.000
346.455; 2208.625;  231.350;    0.000
346.511; 2241.625;  214.350;    0.000
346.567; 2202.625;  231.350;    0.000
346.624; 2183.625;  222.350;    0.000
346.680; 2192.625;  197.350;    0.000
346.737; 2109.625;  225.350;    0.000
346.793; 2203.625;  255.350;    0.000
346.849; 2208.625;  245.350;    0.000
346.906; 2282.625;  221.350;    0.000
346.962; 2251.625;  260.350;    0.000
347.018; 2221.625;  238.350;    0.000
347.074; 2182.625;  257.350;    0.000
347.131; 2235.625;  200.350;    0.000
347.187; 2270.625;  232.350;    0.000
347.243; 2202.625;  240.350;    0.000
347.300; 2197.625;  249.350;    0.000
347.356; 2214.625;  250.350;    0.000
347.412; 2180.625;  252.350;    0.000
347.468; 2202.625;  254.350;    0.000
347.524; 2196.625;  280.350;    0.000
347.581; 2235.625;  228.350;    0.000
347.637; 2242.625;  261.350;    0.000
347.693; 2247.625;  238.350;    0.000
347.749; 2200.625;  261.350;    0.000
347.805; 2169.625;  238.350;    0.000
347.862; 2190.625;  246.350;    0.000
347.918; 2252.625;  256.350;    0.000
347.974; 2278.625;  277.350;    0.000
348.030; 2189.625;  242.350;    0.000
348.086; 2213.625;  223.350;    0.000
348.142; 2226.625;  215.350;    0.000
348.198; 2305.625;  272.350;    0.000
348.254; 2208.625;  292.350;    0.000
348.311; 2269.625;  235.350;    0.000
348.367; 2221.625;  263.350;    0.000
348.423; 2202.625;  193.350;    0.000
348.479; 2173.625;  266.350;    0.000
348.535; 2179.625;  238.350;    0.000
348.591; 2141.625;  237.350;    0.000
348.647; 2227.625;  239.350;    0.000
348.703; 2186.625;  240.350;    0.000
348.759; 2263.625;  253.350;    0.000
348.815; 2222.625;  255.350;    0.000
348.871; 2253.625;  256.350;    0.000
348.927; 2170.625;  261.350;    0.000
348.983; 2282.625;  258.350;    0.000
349.039; 2262.625;  204.350;    0.000
349.095; 2196.625;  215.350;    0.000
349.151; 2269.625;  230.350;    0.000
349.207; 2226.625;  216.350;    0.000
349.263; 2258.625;  235.350;    0.000
349.319; 2220.625;  244.350;    0.000
349.374; 2221.625;  213.350;    0.000
349.430; 2237.625;  241.350;    0.000
349.486; 2268.625;  248.350;    0.000
349.542; 2318.625;  259.350;    0.000
349.598; 2329.625;  208.350;    0.000
349.654; 2259.625;  242.350;    0.000
349.710; 2329.625;  246.350;    0.000
349.766; 2195.625;  226.350;    0.000
349.821; 2310.625;  227.350;    0.000
349.877; 2291.625;  226.350;    0.000
349.933; 2316.625;  249.350;    0.000
349.989; 2275.625;  263.350;    0.000
350.045; 2228.625;  267.350;    0.000
350.100; 2266.625;  219.350;    0.000
350.156; 2212.625;  207.350;    0.000
350.212; 2193.625;  230.350;    0.000
350.268; 2266.625;  223.350;    0.000
350.323; 2195.625;  217.350;    0.000
350.379; 2214.625;  227.350;    0.000
350.435; 2213.625;  219.350;    0.000
350.491; 2207.625;  195.350;    0.000
350.546; 2208.625;  229.350;    0.000
350.602; 2218.625;  222.350;    0.000
350.658; 2286.625;  225.350;    0.000
350.713; 2205.625;  231.350;    0.000
350.769; 2218.625;  193.350;    0.000
350.825; 2293.625;  182.350;    0.000
350.880; 2182.625;  193.350;    0.000
350.936; 2314.625;  222.350;    0.000
350.992; 2203.625;  217.350;    0.000
351.047; 2172.625;  226.350;    0.000
351.103; 2207.625;  187.350;    0.000
351.158; 2270.625;  212.350;    0.000
351.214; 2220.625;  207.350;    0.000
351.270; 2154.625;  194.350;    0.000
351.325; 2331.625;  213.350;    0.000
351.381; 2262.625;  223.350;    0.000
351.436; 2216.625;  222.350;    0.000
351.492; 2229.625;  219.350;    0.000
351.547; 2322.625;  205.350;    0.000
351.603; 2258.625;  218.350;    0.000
351.658; 2306.625;  199.350;    0.000
351.714; 2209.625;  201.350;    0.000
351.769; 2295.625;  209.350;    0.000
351.825; 2250.625;  226.350;    0.000
351.880; 2268.625;  189.350;    0.000
351.936; 2196.625;  201.350;    0.000
351.991; 2277.625;  220.350;    0.000
352.047; 2290.625;  232.350;    0.000
352.102; 2286.625;  185.350;    0.000
352.158; 2293.625;  228.350;    0.000
352.213; 2219.625;  204.350;    0.000
352.268; 2223.625;  220.350;    0.000
352.324; 2284.625;  206.350;    0.000
352.379; 2244.625;  182.350;    0.000
352.434; 2333.625;  214.350;    0.000
352.490; 2256.625;  250.350;    0.000
352.545; 2264.625;  290.350;    0.000
352.601; 2311.625;  247.350;    0.000
352.656; 2315.625;  203.350;    0.000
352.711; 2323.625;  197.350;    0.000
352.767; 2213.625;  169.350;    0.000
352.822; 2203.625;  191.350;    0.000
352.877; 2258.625;  235.350;    0.000
352.932; 2210.625;  231.350;    0.000
352.988; 2264.625;  224.350;    0.000
353.043; 2341.625;  226.350;    0.000
353.098; 2288.625;  227.350;    0.000
353.153; 2362.625;  239.350;    0.000
353.209; 2322.625;  217.350;    0.000
353.264; 2275.625;  198.350;    0.000
353.319; 2231.625;  247.350;    0.000
353.374; 2265.625;  199.350;    0.000
353.430; 2224.625;  247.350;    0.000
353.485; 2300.625;  242.350;    0.000
353.540; 2304.625;  237.350;    0.000
353.595; 2278.625;  233.350;    0.000
353.650; 2279.625;  221.350;    0.000
353.705; 2253.625;  259.350;    0.000
353.761; 2213.625;  223.350;    0.000
353.816; 2291.625;  234.350;    0.000
353.871; 2278.625;  226.350;    0.000
353.926; 2246.625;  232.350;    0.000
353.981; 2335.625;  245.350;    0.000
354.036; 2301.625;  247.350;    0.000
354.091; 2320.625;  233.350;    0.000
354.146; 2270.625;  253.350;    0.000
354.201; 2374.625;  236.350;    0.000
354.256; 2174.625;  210.350;    0.000
354.311; 2283.625;  279.350;    0.000
354.367; 2267.625;  208.350;    0.000
354.422; 2222.625;  228.350;    0.000
354.477; 2286.625;  202.350;    0.000
354.532; 2280.625;  215.350;    0.000
354.587; 2358.625;  249.350;    0.000
354.642; 2286.625;  206.350;    0.000
354.697; 2294.625;  226.350;    0.000
354.751; 2208.625;  241.350;    0.000
354.806; 2319.625;  249.350;    0.000
354.861; 2234.625;  216.350;    0.000
354.916; 2284.625;  249.350;    0.000
354.971; 2338.625;  217.350;    0.000
355.026; 2297.625;  236.350;    0.000
355.081; 2286.625;  242.350;    0.000
355.136; 2238.625;  216.350;    0.000
355.191; 2269.625;  216.350;    0.000
355.246; 2298.625;  258.350;    0.000
355.301; 2343.625;  250.350;    0.000
355.355; 2304.625;  251.350;    0.000
355.410; 2322.625;  216.350;    0.000
355.465; 2291.625;  224.350;    0.000
355.520; 2268.625;  221.350;    0.000
355.575; 2296.625;  255.350;    0.000
355.630; 2269.625;  225.350;    0.000
355.684; 2264.625;  210.350;    0.000
355.739; 2242.625;  232.350;    0.000
355.794; 2337.625;  202.350;    0.000
355.849; 2329.625;  211.350;    0.000
355.904; 2371.625;  226.350;    0.000
355.958; 2307.625;  191.350;    0.000
356.013; 2340.625;  208.350;    0.000
356.068; 2337.625;  229.350;    0.000
356.123; 2333.625;  243.350;    0.000
356.177; 2348.625;  227.350;    0.000
356.232; 2334.625;  243.350;    0.000
356.287; 2267.625;  216.350;    0.000
356.341; 2381.625;  242.350;    0.000
356.396; 2293.625;  175.350;    0.000
356.451; 2285.625;  271.350;    0.000
356.505; 2276.625;  225.350;    0.000
356.560; 2360.625;  260.350;    0.000
356.615; 2357.625;  213.350;    0.000
356.669; 2397.625;  213.350;    0.000
356.724; 2329.625;  221.350;    0.000
356.778; 2375.625;  232.350;    0.000
356.833; 2271.625;  178.350;    0.000
356.888; 2313.625;  236.350;    0.000
356.942; 2275.625;  224.350;    0.000
356.997; 2261.625;  228.350;    0.000
357.051; 2368.625;  226.350;    0.000
357.106; 2288.625;  185.350;    0.000
357.160; 2227.625;  202.350;    0.000
357.215; 2252.625;  232.350;    0.000
357.269; 2343.625;  224.350;    0.000
357.324; 2255.625;  219.350;    0.000
357.378; 2373.625;  196.350;    0.000
357.433; 2250.625;  241.350;    0.000
357.487; 2303.625;  244.350;    0.000
357.542; 2272.625;  210.350;    0.000
357.596; 2338.625;  231.350;    0.000
357.651; 2287.625;  248.350;    0.000
357.705; 2320.625;  232.350;    0.000
357.760; 2320.625;  224.350;    0.000
357.814; 2301.625;  221.350;    0.000
357.868; 2296.625;  207.350;    0.000
357.923; 2328.625;  234.350;    0.000
357.977; 2287.625;  218.350;    0.000
358.032; 2231.625;  244.350;    0.000
358.086; 2317.625;  246.350;    0.000
358.140; 2313.625;  235.350;    0.000
358.195; 2239.625;  237.350;    0.000
358.249; 2356.625;  233.350;    0.000
358.303; 2330.625;  254.350;    0.000
358.358; 2251.625;  217.350;    0.000
358.412; 2321.625;  245.350;    0.000
358.466; 2278.625;  230.350;    0.000
358.521; 2233.625;  214.350;    0.000
358.575; 2332.625;  243.350;    0.000
358.629; 2236.625;  230.350;    0.000
358.683; 2249.625;  232.350;    0.000
358.738; 2284.625;  249.350;    0.000
358.792; 2249.625;  249.350;    0.000
358.846; 2337.625;  271.350;    0.000
358.900; 2277.625;  265.350;    0.000
358.954; 2227.625;  236.350;    0.000
359.009; 2235.625;  254.350;    0.000
359.063; 2277.625;  216.350;    0.000
359.117; 2289.625;  245.350;    0.000
359.171; 2343.625;  252.350;    0.000
359.225; 2334.625;  240.350;    0.000
359.280; 2340.625;  239.350;    0.000
359.334; 2279.625;  234.350;    0.000
359.388; 2293.625;  258.350;    0.000
359.442; 2336.625;  220.350;    0.000
359.496; 2250.625;  206.350;    0.000
359.550; 2289.625;  279.350;    0.000
359.604; 2312.625;  263.350;    0.000
359.658; 2293.625;  251.350;    0.000
359.712; 2319.625;  244.350;    0.000
359.766; 2280.625;  217.350;    0.000
359.820; 2347.625;  235.350;    0.000
359.875; 2313.625;  249.350;    0.000
359.929; 2345.625;  269.350;    0.000
359.983; 2224.625;  240.350;    0.000
360.037; 2149.625;  252.350;    0.000
360.091; 2220.625;  271.350;    0.000
360.145; 2295.625;  222.350;    0.000
360.199; 2343.625;  302.350;    0.000
360.253; 2357.625;  234.350;    0.000
360.306; 2355.625;  258.350;    0.000
360.360; 2201.625;  249.350;    0.000
360.414; 2282.625;  231.350;    0.000
360.468; 2324.625;  261.350;    0.000
360.522; 2277.625;  277.350;    0.000
360.576; 2250.625;  273.350;    0.000
360.630; 2305.625;  264.350;    0.000
360.684; 2432.625;  223.350;    0.000
360.738; 2393.625;  266.350;    0.000
360.792; 2369.625;  252.350;    0.000
360.846; 2282.625;  234.350;    0.000
360.899; 2379.625;  296.350;    0.000
360.953; 2337.625;  273.350;    0.000
361.007; 2311.625;  251.350;    0.000
361.061; 2275.625;  250.350;    0.000
361.115; 2332.625;  267.350;    0.000
361.168; 2270.625;  308.350;    0.000
361.222; 2317.625;  246.350;    0.000
361.276; 2304.625;  261.350;    0.000
361.330; 2218.625;  233.350;    0.000
361.384; 2231.625;  269.350;    0.000
361.437; 2288.625;  270.350;    0.000
361.491; 2237.625;  263.350;    0.000
361.545; 2327.625;  288.350;    0.000
361.599; 2246.625;  270.350;    0.000
361.652; 2314.625;  256.350;    0.000
361.706; 2345.625;  263.350;    0.000
361.760; 2205.625;  237.350;    0.000
361.813; 2284.625;  278.350;    0.000
361.867; 2340.625;  317.350;    0.000
361.921; 2258.625;  260.350;    0.000
361.974; 2297.625;  239.350;    0.000
362.028; 2315.625;  266.350;    0.000
362.082; 2311.625;  269.350;    0.000
362.135; 2289.625;  262.350;    0.000
362.189; 2312.625;  258.350;    0.000
362.242; 2257.625;  273.350;    0.000
362.296; 2288.625;  261.350;    0.000
362.350; 2296.625;  272.350;    0.000
362.403; 2343.625;  291.350;    0.000
362.457; 2285.625;  253.350;    0.000
362.510; 2277.625;  266.350;    0.000
362.564; 2187.625;  260.350;    0.000
362.617; 2305.625;  280.350;    0.000
362.671; 2202.625;  281.350;    0.000
362.724; 2173.625;  234.350;    0.000
362.778; 2283.625;  311.350;    0.000
362.831; 2298.625;  276.350;    0.000
362.885; 2303.625;  288.350;    0.000
362.938; 2214.625;  284.350;    0.000
362.992;  359.625;  245.350;    0.000
363.045;  288.625;  277.350;    0.000
363.099;  294.625;  246.350;    0.000
363.152;  320.625;  290.350;    0.000
363.205;  270.625;  256.350;    0.000
363.259;  272.625;  238.350;    0.000
363.312;  341.625;  290.350;    0.000
363.366;  294.625;  287.350;    0.000
363.419;  299.625;  279.350;    0.000
363.472;  316.625;  304.350;    0.000
363.526;  309.625;  305.350;    0.000
363.579;  263.625;  281.350;    0.000
363.632;  284.625;  279.350;    0.000
363.686;  284.625;  277.350;    0.000
363.739;  277.625;  268.350;    0.000
363.792;  257.625;  274.350;    0.000

