
Integration time [ms]:   1.000
Averaging Nr. [scans]: 1
Smoothing Nr. [pixels]: 0
Data measured with spectrometer [name]: VIS
Wave   ;Sample   ;Dark     ;Reference
[nm]   ;[counts] ;[counts] ;[counts] 

450.961;  208.675;  200.375;    0.000
451.100;  192.675;  241.375;    0.000
451.239;  211.675;  201.375;    0.000
451.377;  242.675;  262.375;    0.000
451.516;  203.675;  229.375;    0.000
451.655;  259.675;  211.375;    0.000
451.794;  213.675;  225.375;    0.000
451.932;  260.675;  247.375;    0.000
452.071;  222.675;  260.375;    0.000
452.210;  208.675;  235.375;    0.000
452.348;  232.675;  276.375;    0.000
452.487;  209.675;  259.375;    0.000
452.626;  195.675;  254.375;    0.000
452.764;  214.675;  233.375;    0.000
452.903;  223.675;  202.375;    0.000
453.042;  219.675;  211.375;    0.000
453.180; 1705.675;  240.375;    0.000
453.319; 1668.675;  238.375;    0.000
453.458; 1740.675;  215.375;    0.000
453.596; 1750.675;  252.375;    0.000
453.735; 1744.675;  240.375;    0.000
453.873; 1731.675;  257.375;    0.000
454.012; 1789.675;  228.375;    0.000
454.150; 1747.675;  270.375;    0.000
454.289; 1842.675;  233.375;    0.000
454.427; 1831.675;  243.375;    0.000
454.566; 1822.675;  257.375;    0.000
454.704; 1769.675;  243.375;    0.000
454.843; 1874.675;  190.375;    0.000
454.981; 1826.675;  271.375;    0.000
455.120; 1888.675;  210.375;    0.000
455.258; 1904.675;  235.375;    0.000
455.397; 1873.675;  214.375;    0.000
455.535; 1934.675;  214.375;    0.000
455.674; 1946.675;  184.375;    0.000
455.812; 1943.675;  228.375;    0.000
455.951; 1979.675;  204.375;    0.000
456.089; 1941.675;  220.375;    0.000
456.227; 1958.675;  196.375;    0.000
456.366; 2006.675;  261.375;    0.000
456.504; 2026.675;  249.375;    0.000
456.642; 2070.675;  245.375;    0.000
456.781; 2021.675;  183.375;    0.000
456.919; 2046.675;  203.375;    0.000
457.057; 2102.675;  177.375;    0.000
457.196; 2130.675;  191.375;    0.000
457.334; 2124.675;  233.375;    0.000
457.472; 2175.675;  214.375;    0.000
457.610; 2200.675;  230.375;    0.000
457.749; 2290.675;  247.375;    0.000
457.887; 2292.675;  220.375;    0.000
458.025; 2317.675;  195.375;    0.000
458.163; 2432.675;  224.375;    0.000
458.301; 2435.675;  228.375;    0.000
458.440; 2366.675;  200.375;    0.000
458.578; 2515.675;  233.375;    0.000
458.716; 2459.675;  182.375;    0.000
458.854; 2523.675;  251.375;    0.000
458.992; 2464.675;  187.375;    0.000
459.130; 2530.675;  229.375;    0.000
459.269; 2540.675;  237.375;    0.000
459.407; 2672.675;  228.375;    0.000
459.545; 2678.675;  216.375;    0.000
459.683; 2757.675;  204.375;    0.000
459.821; 2710.675;  191.375;    0.000
459.959; 2773.675;  227.375;    0.000
460.097; 2773.675;  221.375;    0.000
460.235; 2778.675;  241.375;    0.000
460.373; 2811.675;  231.375;    0.000
460.511; 2836.675;  214.375;    0.000
460.649; 2843.675;  172.375;    0.000
460.787; 2927.675;  275.375;    0.000
460.925; 2826.675;  175.375;    0.000
461.063; 2908.675;  252.375;    0.000
461.201; 2819.675;  210.375;    0.000
461.339; 2970.675;  237.375;    0.000
461.477; 2962.675;  210.375;    0.000
461.615; 3090.675;  236.375;    0.000
461.753; 2977.675;  215.375;    0.000
461.891; 3028.675;  222.375;    0.000
462.029; 3062.675;  227.375;    0.000
462.166; 3052.675;  202.375;    0.000
462.304; 3150.675;  191.375;    0.000
462.442; 3153.675;  210.375;    0.000
462.580; 3221.675;  184.375;    0.000
462.718; 3292.675;  220.375;    0.000
462.856; 3219.675;  226.375;    0.000
462.993; 3230.675;  254.375;    0.000
463.131; 3109.675;  200.375;    0.000
463.269; 3245.675;  215.375;    0.000
463.407; 3155.675;  213.375;    0.000
463.545; 3060.675;  242.375;    0.000
463.682; 3100.675;  212.375;    0.000
463.820; 3249.675;  185.375;    0.000
463.958; 3319.675;  212.375;    0.000
464.095; 3394.675;  181.375;    0.000
464.233; 3361.675;  192.375;    0.000
464.371; 3453.675;  247.375;    0.000
464.509; 3359.675;  151.375;    0.000
464.646; 3420.675;  207.375;    0.000
464.784; 3422.675;  199.375;    0.000
464.921; 3295.675;  253.375;    0.000
465.059; 3245.675;  214.375;    0.000
465.197; 3128.675;  200.375;    0.000
465.334; 3179.675;  180.375;    0.000
465.472; 3030.675;  204.375;    0.000
465.609; 3008.675;  203.375;    0.000
465.747; 3035.675;  214.375;    0.000
465.885; 3103.675;  233.375;    0.000
466.022; 3018.675;  215.375;    0.000
466.160; 3004.675;  201.375;    0.000
466.297; 3003.675;  196.375;    0.000
466.435; 3020.675;  230.375;    0.000
466.572; 3020.675;  227.375;    0.000
466.710; 2984.675;  218.375;    0.000
466.847; 3023.675;  245.375;    0.000
466.985; 2934.675;  223.375;    0.000
467.122; 2943.675;  168.375;    0.000
467.260; 2889.675;  196.375;    0.000
467.397; 2931.675;  198.375;    0.000
467.534; 2924.675;  219.375;    0.000
467.672; 2916.675;  214.375;    0.000
467.809; 2894.675;  185.375;    0.000
467.947; 2941.675;  247.375;    0.000
468.084; 2968.675;  196.375;    0.000
468.221; 2867.675;  238.375;    0.000
468.359; 2981.675;  236.375;    0.000
468.496; 2934.675;  235.375;    0.000
468.633; 2949.675;  218.375;    0.000
468.771; 2961.675;  223.375;    0.000
468.908; 2884.675;  208.375;    0.000
469.045; 3035.675;  249.375;    0.000
469.183; 2978.675;  222.375;    0.000
469.320; 3045.675;  216.375;    0.000
469.457; 3047.675;  224.375;    0.000
469.594; 3105.675;  259.375;    0.000
469.732; 3190.675;  223.375;    0.000
469.869; 3170.675;  234.375;    0.000
470.006; 3075.675;  225.375;    0.000
470.143; 3262.675;  243.375;    0.000
470.280; 3231.675;  208.375;    0.000
470.417; 3300.675;  232.375;    0.000
470.555; 3122.675;  218.375;    0.000
470.692; 3256.675;  223.375;    0.000
470.829; 3180.675;  238.375;    0.000
470.966; 3156.675;  205.375;    0.000
471.103; 3185.675;  259.375;    0.000
471.240; 3188.675;  214.375;    0.000
471.377; 3061.675;  226.375;    0.000
471.514; 3155.675;  250.375;    0.000
471.651; 3139.675;  221.375;    0.000
471.789; 3077.675;  242.375;    0.000
471.926; 3079.675;  190.375;    0.000
472.063; 3075.675;  234.375;    0.000
472.200; 3074.675;  252.375;    0.000
472.337; 3096.675;  241.375;    0.000
472.474; 3001.675;  244.375;    0.000
472.611; 3106.675;  268.375;    0.000
472.748; 3086.675;  222.375;    0.000
472.884; 3044.675;  271.375;    0.000
473.021; 3007.675;  195.375;    0.000
473.158; 3013.675;  205.375;    0.000
473.295; 3060.675;  223.375;    0.000
473.432; 3026.675;  216.375;    0.000
473.569; 3077.675;  196.375;    0.000
473.706; 3026.675;  190.375;    0.000
473.843; 3009.675;  211.375;    0.000
473.980; 3127.675;  254.375;    0.000
474.117; 3068.675;  185.375;    0.000
474.253; 3085.675;  229.375;    0.000
474.390; 3000.675;  238.375;    0.000
474.527; 2979.675;  220.375;    0.000
474.664; 3010.675;  242.375;    0.000
474.801; 3089.675;  229.375;    0.000
474.937; 3089.675;  229.375;    0.000
475.074; 3133.675;  210.375;    0.000
475.211; 3014.675;  219.375;    0.000
475.348; 3106.675;  226.375;    0.000
475.484; 3155.675;  207.375;    0.000
475.621; 3165.675;  233.375;    0.000
475.758; 3195.675;  230.375;    0.000
475.894; 3104.675;  234.375;    0.000
476.031; 3080.675;  202.375;    0.000
476.168; 3138.675;  222.375;    0.000
476.304; 3057.675;  237.375;    0.000
476.441; 3256.675;  238.375;    0.000
476.578; 3109.675;  216.375;    0.000
476.714; 3191.675;  212.375;    0.000
476.851; 3206.675;  210.375;    0.000
476.987; 3215.675;  239.375;    0.000
477.124; 3327.675;  250.375;    0.000
477.261; 3105.675;  227.375;    0.000
477.397; 3370.675;  189.375;    0.000
477.534; 3198.675;  204.375;    0.000
477.670; 3314.675;  190.375;    0.000
477.807; 3332.675;  198.375;    0.000
477.943; 3327.675;  216.375;    0.000
478.080; 3418.675;  213.375;    0.000
478.216; 3318.675;  239.375;    0.000
478.353; 3458.675;  218.375;    0.000
478.489; 3459.675;  184.375;    0.000
478.626; 3354.675;  223.375;    0.000
478.762; 3424.675;  213.375;    0.000
478.898; 3530.675;  216.375;    0.000
479.035; 3608.675;  250.375;    0.000
479.171; 3368.675;  201.375;    0.000
479.308; 3492.675;  242.375;    0.000
479.444; 3493.675;  205.375;    0.000
479.580; 3450.675;  203.375;    0.000
479.717; 3559.675;  260.375;    0.000
479.853; 3475.675;  225.375;    0.000
479.989; 3583.675;  226.375;    0.000
480.126; 3509.675;  211.375;    0.000
480.262; 3594.675;  220.375;    0.000
480.398; 3576.675;  207.375;    0.000
480.535; 3580.675;  179.375;    0.000
480.671; 3506.675;  200.375;    0.000
480.807; 3519.675;  190.375;    0.000
480.943; 3512.675;  165.375;    0.000
481.080; 3601.675;  210.375;    0.000
481.216; 3515.675;  232.375;    0.000
481.352; 3528.675;  235.375;    0.000
481.488; 3540.675;  208.375;    0.000
481.624; 3505.675;  245.375;    0.000
481.760; 3427.675;  210.375;    0.000
481.897; 3356.675;  189.375;    0.000
482.033; 3467.675;  256.375;    0.000
482.169; 3421.675;  257.375;    0.000
482.305; 3515.675;  199.375;    0.000
482.441; 3456.675;  182.375;    0.000
482.577; 3479.675;  223.375;    0.000
482.713; 3462.675;  243.375;    0.000
482.849; 3455.675;  197.375;    0.000
482.985; 3476.675;  240.375;    0.000
483.121; 3451.675;  210.375;    0.000
483.258; 3504.675;  248.375;    0.000
483.394; 3466.675;  224.375;    0.000
483.530; 3404.675;  209.375;    0.000
483.665; 3485.675;  225.375;    0.000
483.801; 3526.675;  216.375;    0.000
483.937; 3517.675;  211.375;    0.000
484.073; 3586.675;  259.375;    0.000
484.209; 3457.675;  191.375;    0.000
484.345; 3581.675;  239.375;    0.000
484.481; 3516.675;  231.375;    0.000
484.617; 3555.675;  216.375;    0.000
484.753; 3422.675;  180.375;    0.000
484.889; 3677.675;  252.375;    0.000
485.025; 3551.675;  244.375;    0.000
485.161; 3519.675;  242.375;    0.000
485.296; 3678.675;  235.375;    0.000
485.432; 3602.675;  247.375;    0.000
485.568; 3711.675;  203.375;    0.000
485.704; 3564.675;  229.375;    0.000
485.840; 3586.675;  230.375;    0.000
485.975; 3678.675;  266.375;    0.000
486.111; 3680.675;  220.375;    0.000
486.247; 3702.675;  264.375;    0.000
486.383; 3563.675;  213.375;    0.000
486.518; 3574.675;  222.375;    0.000
486.654; 3620.675;  244.375;    0.000
486.790; 3649.675;  273.375;    0.000
486.926; 3608.675;  203.375;    0.000
487.061; 3482.675;  227.375;    0.000
487.197; 3678.675;  210.375;    0.000
487.333; 3593.675;  209.375;    0.000
487.468; 3635.675;  197.375;    0.000
487.604; 3591.675;  230.375;    0.000
487.740; 3562.675;  254.375;    0.000
487.875; 3548.675;  286.375;    0.000
488.011; 3673.675;  225.375;    0.000
488.146; 3564.675;  251.375;    0.000
488.282; 3650.675;  242.375;    0.000
488.417; 3568.675;  230.375;    0.000
488.553; 3653.675;  260.375;    0.000
488.688; 3519.675;  207.375;    0.000
488.824; 3661.675;  204.375;    0.000
488.960; 3572.675;  248.375;    0.000
489.095; 3725.675;  204.375;    0.000
489.230; 3669.675;  227.375;    0.000
489.366; 3588.675;  226.375;    0.000
489.501; 3671.675;  199.375;    0.000
489.637; 3699.675;  233.375;    0.000
489.772; 3571.675;  249.375;    0.000
489.908; 3631.675;  200.375;    0.000
490.043; 3611.675;  246.375;    0.000
490.178; 3654.675;  222.375;    0.000
490.314; 3624.675;  219.375;    0.000
490.449; 3628.675;  227.375;    0.000
490.585; 3588.675;  209.375;    0.000
490.720; 3474.675;  238.375;    0.000
490.855; 3650.675;  222.375;    0.000
490.991; 3543.675;  202.375;    0.000
491.126; 3703.675;  272.375;    0.000
491.261; 3559.675;  261.375;    0.000
491.396; 3524.675;  190.375;    0.000
491.532; 3648.675;  202.375;    0.000
491.667; 3664.675;  208.375;    0.000
491.802; 3612.675;  203.375;    0.000
491.937; 3680.675;  253.375;    0.000
492.073; 3583.675;  242.375;    0.000
492.208; 3605.675;  230.375;    0.000
492.343; 3581.675;  183.375;    0.000
492.478; 3723.675;  246.375;    0.000
492.613; 3655.675;  223.375;    0.000
492.749; 3594.675;  230.375;    0.000
492.884; 3585.675;  190.375;    0.000
493.019; 3569.675;  234.375;    0.000
493.154; 3676.675;  218.375;    0.000
493.289; 3618.675;  222.375;    0.000
493.424; 3694.675;  196.375;    0.000
493.559; 3495.675;  202.375;    0.000
493.694; 3599.675;  180.375;    0.000
493.829; 3695.675;  224.375;    0.000
493.964; 3682.675;  218.375;    0.000
494.099; 3712.675;  275.375;    0.000
494.234; 3660.675;  226.375;    0.000
494.369; 3666.675;  225.375;    0.000
494.504; 3666.675;  219.375;    0.000
494.639; 3678.675;  296.375;    0.000
494.774; 3645.675;  228.375;    0.000
494.909; 3545.675;  222.375;    0.000
495.044; 3630.675;  215.375;    0.000
495.179; 3588.675;  200.375;    0.000
495.314; 3624.675;  235.375;    0.000
495.449; 3629.675;  249.375;    0.000
495.584; 3663.675;  228.375;    0.000
495.719; 3594.675;  212.375;    0.000
495.854; 3575.675;  201.375;    0.000
495.988; 3623.675;  248.375;    0.000
496.123; 3767.675;  209.375;    0.000
496.258; 3750.675;  249.375;    0.000
496.393; 3686.675;  223.375;    0.000
496.528; 3678.675;  209.375;    0.000
496.663; 3736.675;  207.375;    0.000
496.797; 3700.675;  229.375;    0.000
496.932; 3820.675;  225.375;    0.000
497.067; 3774.675;  218.375;    0.000
497.202; 3802.675;  163.375;    0.000
497.336; 3913.675;  246.375;    0.000
497.471; 3927.675;  229.375;    0.000
497.606; 3895.675;  251.375;    0.000
497.740; 4022.675;  220.375;    0.000
497.875; 4006.675;  216.375;    0.000
498.010; 3945.675;  226.375;    0.000
498.144; 4156.675;  237.375;    0.000
498.279; 4196.675;  196.375;    0.000
498.414; 4286.675;  219.375;    0.000
498.548; 4270.675;  205.375;    0.000
498.683; 4415.675;  206.375;    0.000
498.817; 4463.675;  225.375;    0.000
498.952; 4649.675;  221.375;    0.000
499.087; 4768.675;  220.375;    0.000
499.221; 4768.675;  233.375;    0.000
499.356; 5124.675;  230.375;    0.000
499.490; 5260.675;  229.375;    0.000
499.625; 5359.675;  231.375;    0.000
499.759; 5327.675;  243.375;    0.000
499.894; 5679.675;  241.375;    0.000
500.028; 5879.675;  264.375;    0.000
500.162; 5999.675;  287.375;    0.000
500.297; 6132.675;  234.375;    0.000
500.431; 6216.675;  230.375;    0.000
500.566; 6196.675;  213.375;    0.000
500.700; 6218.675;  243.375;    0.000
500.835; 5888.675;  272.375;    0.000
500.969; 5687.675;  188.375;    0.000
501.103; 5535.675;  200.375;    0.000
501.238; 5523.675;  257.375;    0.000
501.372; 5230.675;  224.375;    0.000
501.506; 5067.675;  225.375;    0.000
501.641; 4918.675;  271.375;    0.000
501.775; 4636.675;  199.375;    0.000
501.909; 4702.675;  249.375;    0.000
502.043; 4454.675;  211.375;    0.000
502.178; 4398.675;  269.375;    0.000
502.312; 4388.675;  198.375;    0.000
502.446; 4233.675;  256.375;    0.000
502.580; 4222.675;  195.375;    0.000
502.715; 4154.675;  224.375;    0.000
502.849; 4062.675;  245.375;    0.000
502.983; 3993.675;  250.375;    0.000
503.117; 3933.675;  193.375;    0.000
503.251; 3746.675;  242.375;    0.000
503.385; 3858.675;  227.375;    0.000
503.520; 3734.675;  235.375;    0.000
503.654; 3687.675;  220.375;    0.000
503.788; 3757.675;  267.375;    0.000
503.922; 3722.675;  220.375;    0.000
504.056; 3708.675;  238.375;    0.000
504.190; 3646.675;  212.375;    0.000
504.324; 3604.675;  265.375;    0.000
504.458; 3605.675;  228.375;    0.000
504.592; 3656.675;  231.375;    0.000
504.726; 3543.675;  218.375;    0.000
504.860; 3460.675;  253.375;    0.000
504.994; 3465.675;  217.375;    0.000
505.128; 3391.675;  243.375;    0.000
505.262; 3399.675;  194.375;    0.000
505.396; 3314.675;  210.375;    0.000
505.530; 3289.675;  211.375;    0.000
505.664; 3239.675;  219.375;    0.000
505.798; 3194.675;  240.375;    0.000
505.932; 3226.675;  240.375;    0.000
506.066; 3230.675;  252.375;    0.000
506.199; 3209.675;  242.375;    0.000
506.333; 3130.675;  244.375;    0.000
506.467; 3074.675;  223.375;    0.000
506.601; 3140.675;  183.375;    0.000
506.735; 3054.675;  249.375;    0.000
506.869; 3025.675;  270.375;    0.000
507.002; 3062.675;  207.375;    0.000
507.136; 3022.675;  242.375;    0.000
507.270; 3015.675;  232.375;    0.000
507.404; 3076.675;  195.375;    0.000
507.537; 2955.675;  218.375;    0.000
507.671; 2962.675;  246.375;    0.000
507.805; 2932.675;  244.375;    0.000
507.939; 2892.675;  251.375;    0.000
508.072; 2877.675;  212.375;    0.000
508.206; 2890.675;  198.375;    0.000
508.340; 2910.675;  234.375;    0.000
508.473; 2879.675;  217.375;    0.000
508.607; 2869.675;  224.375;    0.000
508.740; 2881.675;  207.375;    0.000
508.874; 2910.675;  230.375;    0.000
509.008; 2900.675;  246.375;    0.000
509.141; 2826.675;  239.375;    0.000
509.275; 2905.675;  229.375;    0.000
509.408; 2813.675;  234.375;    0.000
509.542; 2752.675;  212.375;    0.000
509.675; 2889.675;  256.375;    0.000
509.809; 2790.675;  232.375;    0.000
509.942; 2823.675;  237.375;    0.000
510.076; 2797.675;  226.375;    0.000
510.209; 2795.675;  251.375;    0.000
510.343; 2791.675;  229.375;    0.000
510.476; 2748.675;  285.375;    0.000
510.610; 2724.675;  211.375;    0.000
510.743; 2757.675;  258.375;    0.000
510.877; 2810.675;  244.375;    0.000
511.010; 2686.675;  235.375;    0.000
511.143; 2747.675;  251.375;    0.000
511.277; 2691.675;  228.375;    0.000
511.410; 2707.675;  216.375;    0.000
511.543; 2702.675;  231.375;    0.000
511.677; 2710.675;  244.375;    0.000
511.810; 2724.675;  186.375;    0.000
511.943; 2696.675;  211.375;    0.000
512.077; 2706.675;  201.375;    0.000
512.210; 2642.675;  194.375;    0.000
512.343; 2616.675;  233.375;    0.000
512.476; 2715.675;  234.375;    0.000
512.610; 2697.675;  224.375;    0.000
512.743; 2622.675;  255.375;    0.000
512.876; 2722.675;  264.375;    0.000
513.009; 2737.675;  283.375;    0.000
513.142; 2744.675;  246.375;    0.000
513.276; 2617.675;  217.375;    0.000
513.409; 2752.675;  222.375;    0.000
513.542; 2682.675;  237.375;    0.000
513.675; 2659.675;  238.375;    0.000
513.808; 2679.675;  220.375;    0.000
513.941; 2655.675;  233.375;    0.000
514.074; 2775.675;  248.375;    0.000
514.207; 2732.675;  233.375;    0.000
514.340; 2652.675;  190.375;    0.000
514.474; 2724.675;  221.375;    0.000
514.607; 2736.675;  213.375;    0.000
514.740; 2774.675;  251.375;    0.000
514.873; 2751.675;  257.375;    0.000
515.006; 2761.675;  268.375;    0.000
515.139; 2719.675;  257.375;    0.000
515.272; 2673.675;  227.375;    0.000
515.404; 2760.675;  238.375;    0.000
515.537; 2778.675;  275.375;    0.000
515.670; 2807.675;  239.375;    0.000
515.803; 2804.675;  223.375;    0.000
515.936; 2885.675;  202.375;    0.000
516.069; 2783.675;  188.375;    0.000
516.202; 2814.675;  240.375;    0.000
516.335; 2936.675;  252.375;    0.000
516.468; 3007.675;  254.375;    0.000
516.600; 3411.675;  254.375;    0.000
516.733; 4206.675;  255.375;    0.000
516.866; 4064.675;  265.375;    0.000
516.999; 3653.675;  251.375;    0.000
517.132; 4502.675;  256.375;    0.000
517.264; 6074.675;  202.375;    0.000
517.397; 5794.675;  248.375;    0.000
517.530; 4349.675;  221.375;    0.000
517.663; 3891.675;  244.375;    0.000
517.795; 3562.675;  245.375;    0.000
517.928; 3400.675;  236.375;    0.000
518.061; 3552.675;  219.375;    0.000
518.193; 4487.675;  251.375;    0.000
518.326; 6916.675;  271.375;    0.000
518.459; 7112.675;  207.375;    0.000
518.591; 5239.675;  217.375;    0.000
518.724; 4041.675;  200.375;    0.000
518.857; 3574.675;  204.375;    0.000
518.989; 3297.675;  242.375;    0.000
519.122; 3167.675;  254.375;    0.000
519.254; 3032.675;  239.375;    0.000
519.387; 2937.675;  235.375;    0.000
519.519; 2984.675;  227.375;    0.000
519.652; 2855.675;  178.375;    0.000
519.784; 2794.675;  226.375;    0.000
519.917; 2703.675;  256.375;    0.000
520.049; 2681.675;  234.375;    0.000
520.182; 2683.675;  258.375;    0.000
520.314; 2778.675;  298.375;    0.000
520.447; 2730.675;  204.375;    0.000
520.579; 2652.675;  235.375;    0.000
520.712; 2617.675;  208.375;    0.000
520.844; 2612.675;  272.375;    0.000
520.976; 2550.675;  234.375;    0.000
521.109; 2548.675;  235.375;    0.000
521.241; 2541.675;  250.375;    0.000
521.373; 2573.675;  233.375;    0.000
521.506; 2421.675;  231.375;    0.000
521.638; 2452.675;  258.375;    0.000
521.770; 2483.675;  226.375;    0.000
521.903; 2479.675;  258.375;    0.000
522.035; 2519.675;  263.375;    0.000
522.167; 2439.675;  214.375;    0.000
522.300; 2493.675;  212.375;    0.000
522.432; 2410.675;  220.375;    0.000
522.564; 2410.675;  228.375;    0.000
522.696; 2486.675;  272.375;    0.000
522.828; 2454.675;  222.375;    0.000
522.961; 2387.675;  205.375;    0.000
523.093; 2452.675;  253.375;    0.000
523.225; 2368.675;  239.375;    0.000
523.357; 2338.675;  263.375;    0.000
523.489; 2414.675;  264.375;    0.000
523.621; 2366.675;  259.375;    0.000
523.753; 2243.675;  233.375;    0.000
523.885; 2259.675;  232.375;    0.000
524.018; 2332.675;  214.375;    0.000
524.150; 2296.675;  235.375;    0.000
524.282; 2366.675;  242.375;    0.000
524.414; 2384.675;  261.375;    0.000
524.546; 2364.675;  233.375;    0.000
524.678; 2247.675;  242.375;    0.000
524.810; 2339.675;  216.375;    0.000
524.942; 2230.675;  220.375;    0.000
525.074; 2257.675;  249.375;    0.000
525.206; 2207.675;  227.375;    0.000
525.338; 2324.675;  250.375;    0.000
525.469; 2296.675;  231.375;    0.000
525.601; 2218.675;  245.375;    0.000
525.733; 2181.675;  187.375;    0.000
525.865; 2224.675;  280.375;    0.000
525.997; 2251.675;  216.375;    0.000
526.129; 2271.675;  228.375;    0.000
526.261; 2184.675;  187.375;    0.000
526.393; 2259.675;  228.375;    0.000
526.524; 2131.675;  201.375;    0.000
526.656; 2220.675;  199.375;    0.000
526.788; 2188.675;  233.375;    0.000
526.920; 2247.675;  256.375;    0.000
527.052; 2170.675;  219.375;    0.000
527.183; 2200.675;  227.375;    0.000
527.315; 2193.675;  266.375;    0.000
527.447; 2209.675;  239.375;    0.000
527.578; 2248.675;  213.375;    0.000
527.710; 2166.675;  216.375;    0.000
527.842; 2243.675;  240.375;    0.000
527.973; 2143.675;  286.375;    0.000
528.105; 2229.675;  222.375;    0.000
528.237; 2183.675;  223.375;    0.000
528.368; 2060.675;  211.375;    0.000
528.500; 2168.675;  215.375;    0.000
528.632; 2192.675;  216.375;    0.000
528.763; 2141.675;  234.375;    0.000
528.895; 2140.675;  196.375;    0.000
529.026; 2071.675;  202.375;    0.000
529.158; 2169.675;  226.375;    0.000
529.289; 2213.675;  229.375;    0.000
529.421; 2185.675;  264.375;    0.000
529.552; 2157.675;  265.375;    0.000
529.684; 2174.675;  260.375;    0.000
529.815; 2197.675;  284.375;    0.000
529.947; 2119.675;  237.375;    0.000
530.078; 2173.675;  223.375;    0.000
530.210; 2187.675;  223.375;    0.000
530.341; 2122.675;  209.375;    0.000
530.472; 2141.675;  203.375;    0.000
530.604; 2266.675;  223.375;    0.000
530.735; 2147.675;  218.375;    0.000
530.867; 2126.675;  222.375;    0.000
530.998; 2194.675;  239.375;    0.000
531.129; 2181.675;  250.375;    0.000
531.260; 2222.675;  224.375;    0.000
531.392; 2188.675;  216.375;    0.000
531.523; 2154.675;  234.375;    0.000
531.654; 2204.675;  256.375;    0.000
531.786; 2165.675;  226.375;    0.000
531.917; 2190.675;  239.375;    0.000
532.048; 2177.675;  205.375;    0.000
532.179; 2232.675;  244.375;    0.000
532.311; 2179.675;  235.375;    0.000
532.442; 2225.675;  258.375;    0.000
532.573; 2114.675;  220.375;    0.000
532.704; 2173.675;  213.375;    0.000
532.835; 2203.675;  249.375;    0.000
532.966; 2102.675;  226.375;    0.000
533.097; 2115.675;  246.375;    0.000
533.229; 2184.675;  237.375;    0.000
533.360; 2149.675;  225.375;    0.000
533.491; 2176.675;  241.375;    0.000
533.622; 2208.675;  242.375;    0.000
533.753; 2162.675;  264.375;    0.000
533.884; 2209.675;  245.375;    0.000
534.015; 2171.675;  269.375;    0.000
534.146; 2137.675;  267.375;    0.000
534.277; 2235.675;  282.375;    0.000
534.408; 2194.675;  229.375;    0.000
534.539; 2191.675;  269.375;    0.000
534.670; 2128.675;  231.375;    0.000
534.801; 2225.675;  260.375;    0.000
534.932; 2120.675;  232.375;    0.000
535.063; 2192.675;  227.375;    0.000
535.194; 2260.675;  281.375;    0.000
535.324; 2077.675;  206.375;    0.000
535.455; 2187.675;  257.375;    0.000
535.586; 2167.675;  275.375;    0.000
535.717; 2183.675;  206.375;    0.000
535.848; 2121.675;  271.375;    0.000
535.979; 2123.675;  250.375;    0.000
536.109; 2114.675;  253.375;    0.000
536.240; 2138.675;  234.375;    0.000
536.371; 2082.675;  230.375;    0.000
536.502; 2133.675;  270.375;    0.000
536.632; 2142.675;  228.375;    0.000
536.763; 2136.675;  249.375;    0.000
536.894; 2090.675;  262.375;    0.000
537.025; 2062.675;  258.375;    0.000
537.155; 2099.675;  278.375;    0.000
537.286; 2120.675;  209.375;    0.000
537.417; 2087.675;  255.375;    0.000
537.547; 2098.675;  208.375;    0.000
537.678; 2150.675;  224.375;    0.000
537.808; 2010.675;  224.375;    0.000
537.939; 2113.675;  257.375;    0.000
538.070; 2096.675;  240.375;    0.000
538.200; 2132.675;  259.375;    0.000
538.331; 2030.675;  235.375;    0.000
538.461; 2042.675;  251.375;    0.000
538.592; 2123.675;  245.375;    0.000
538.722; 2067.675;  239.375;    0.000
538.853; 2053.675;  216.375;    0.000
538.983; 2100.675;  226.375;    0.000
539.114; 2114.675;  240.375;    0.000
539.244; 2108.675;  237.375;    0.000
539.375; 2058.675;  198.375;    0.000
539.505; 2113.675;  263.375;    0.000
539.636; 2031.675;  226.375;    0.000
539.766; 2034.675;  229.375;    0.000
539.896; 1997.675;  219.375;    0.000
540.027; 2078.675;  246.375;    0.000
540.157; 2039.675;  218.375;    0.000
540.287; 2020.675;  216.375;    0.000
540.418; 2040.675;  267.375;    0.000
540.548; 2115.675;  260.375;    0.000
540.678; 2124.675;  242.375;    0.000
540.809; 2074.675;  260.375;    0.000
540.939; 2087.675;  257.375;    0.000
541.069; 2095.675;  226.375;    0.000
541.200; 2014.675;  227.375;    0.000
541.330; 2091.675;  218.375;    0.000
541.460; 2134.675;  223.375;    0.000
541.590; 2064.675;  237.375;    0.000
541.720; 2022.675;  222.375;    0.000
541.851; 2110.675;  250.375;    0.000
541.981; 2028.675;  222.375;    0.000
542.111; 2144.675;  212.375;    0.000
542.241; 2067.675;  205.375;    0.000
542.371; 2078.675;  202.375;    0.000
542.501; 2138.675;  218.375;    0.000
542.631; 2137.675;  222.375;    0.000
542.761; 2153.675;  249.375;    0.000
542.891; 2136.675;  173.375;    0.000
543.021; 2076.675;  218.375;    0.000
543.151; 2052.675;  222.375;    0.000
543.281; 2107.675;  188.375;    0.000
543.411; 2149.675;  239.375;    0.000
543.542; 2097.675;  215.375;    0.000
543.671; 2023.675;  250.375;    0.000
543.801; 2121.675;  212.375;    0.000
543.931; 2026.675;  233.375;    0.000
544.061; 2093.675;  194.375;    0.000
544.191; 2105.675;  218.375;    0.000
544.321; 2120.675;  220.375;    0.000
544.451; 2187.675;  183.375;    0.000
544.581; 2148.675;  221.375;    0.000
544.711; 2185.675;  224.375;    0.000
544.841; 2109.675;  214.375;    0.000
544.970; 2219.675;  227.375;    0.000
545.100; 2060.675;  186.375;    0.000
545.230; 2199.675;  205.375;    0.000
545.360; 2195.675;  211.375;    0.000
545.490; 2167.675;  202.375;    0.000
545.619; 2086.675;  182.375;    0.000
545.749; 2091.675;  174.375;    0.000
545.879; 2136.675;  169.375;    0.000
546.009; 2096.675;  182.375;    0.000
546.138; 2090.675;  200.375;    0.000
546.268; 2092.675;  204.375;    0.000
546.398; 2092.675;  200.375;    0.000
546.527; 2105.675;  179.375;    0.000
546.657; 2117.675;  162.375;    0.000
546.786; 2082.675;  179.375;    0.000
546.916; 2175.675;  221.375;    0.000
547.046; 2105.675;  179.375;    0.000
547.175; 2183.675;  168.375;    0.000
547.305; 2203.675;  200.375;    0.000
547.434; 2092.675;  166.375;    0.000
547.564; 2156.675;  177.375;    0.000
547.693; 2135.675;  152.375;    0.000
547.823; 2110.675;  171.375;    0.000
547.953; 2224.675;  195.375;    0.000
548.082; 2119.675;  214.375;    0.000
548.211; 2141.675;  177.375;    0.000
548.341; 2130.675;  189.375;    0.000
548.470; 2104.675;  194.375;    0.000
548.600; 2117.675;  172.375;    0.000
548.729; 2110.675;  158.375;    0.000
548.859; 2107.675;  193.375;    0.000
548.988; 2144.675;  131.375;    0.000
549.117; 2145.675;  204.375;    0.000
549.247; 2149.675;  191.375;    0.000
549.376; 2134.675;  202.375;    0.000
549.505; 2224.675;  187.375;    0.000
549.635; 2155.675;  198.375;    0.000
549.764; 2135.675;  155.375;    0.000
549.893; 2241.675;  176.375;    0.000
550.023; 2148.675;  202.375;    0.000
550.152; 2141.675;  168.375;    0.000
550.281; 2176.675;  180.375;    0.000
550.410; 2162.675;  180.375;    0.000
550.539; 2221.675;  181.375;    0.000
550.669; 2239.675;  168.375;    0.000
550.798; 2173.675;  223.375;    0.000
550.927; 2185.675;  179.375;    0.000
551.056; 2130.675;  159.375;    0.000
551.185; 2143.675;  199.375;    0.000
551.314; 2162.675;  185.375;    0.000
551.443; 2137.675;  172.375;    0.000
551.573; 2141.675;  158.375;    0.000
551.702; 2182.675;  210.375;    0.000
551.831; 2200.675;  238.375;    0.000
551.960; 2174.675;  191.375;    0.000
552.089; 2259.675;  195.375;    0.000
552.218; 2275.675;  196.375;    0.000
552.347; 2248.675;  194.375;    0.000
552.476; 2223.675;  192.375;    0.000
552.605; 2316.675;  172.375;    0.000
552.734; 2392.675;  214.375;    0.000
552.863; 2374.675;  177.375;    0.000
552.992; 2375.675;  190.375;    0.000
553.121; 2384.675;  185.375;    0.000
553.249; 2407.675;  175.375;    0.000
553.378; 2313.675;  192.375;    0.000
553.507; 2318.675;  193.375;    0.000
553.636; 2206.675;  182.375;    0.000
553.765; 2293.675;  187.375;    0.000
553.894; 2276.675;  214.375;    0.000
554.023; 2335.675;  217.375;    0.000
554.151; 2210.675;  223.375;    0.000
554.280; 2218.675;  170.375;    0.000
554.409; 2223.675;  172.375;    0.000
554.538; 2225.675;  182.375;    0.000
554.666; 2244.675;  195.375;    0.000
554.795; 2166.675;  176.375;    0.000
554.924; 2224.675;  164.375;    0.000
555.052; 2250.675;  171.375;    0.000
555.181; 2223.675;  208.375;    0.000
555.310; 2229.675;  214.375;    0.000
555.439; 2190.675;  193.375;    0.000
555.567; 2249.675;  189.375;    0.000
555.696; 2140.675;  196.375;    0.000
555.824; 2066.675;  183.375;    0.000
555.953; 2229.675;  234.375;    0.000
556.082; 2220.675;  183.375;    0.000
556.210; 2219.675;  199.375;    0.000
556.339; 2135.675;  201.375;    0.000
556.467; 2140.675;  208.375;    0.000
556.596; 2225.675;  194.375;    0.000
556.724; 2167.675;  170.375;    0.000
556.853; 2176.675;  166.375;    0.000
556.981; 2122.675;  185.375;    0.000
557.110; 2163.675;  213.375;    0.000
557.238; 2121.675;  188.375;    0.000
557.367; 2110.675;  176.375;    0.000
557.495; 2147.675;  180.375;    0.000
557.623; 2040.675;  193.375;    0.000
557.752; 2104.675;  207.375;    0.000
557.880; 2143.675;  189.375;    0.000
558.008; 2140.675;  169.375;    0.000
558.137; 2148.675;  203.375;    0.000
558.265; 2121.675;  167.375;    0.000
558.393; 2103.675;  204.375;    0.000
558.522; 2076.675;  203.375;    0.000
558.650; 2137.675;  215.375;    0.000
558.778; 2153.675;  190.375;    0.000
558.906; 2121.675;  186.375;    0.000
559.035; 2196.675;  193.375;    0.000
559.163; 2163.675;  198.375;    0.000
559.291; 2109.675;  222.375;    0.000
559.419; 2111.675;  192.375;    0.000
559.548; 2057.675;  186.375;    0.000
559.676; 2157.675;  199.375;    0.000
559.804; 2162.675;  186.375;    0.000
559.932; 2105.675;  202.375;    0.000
560.060; 2164.675;  183.375;    0.000
560.188; 2205.675;  212.375;    0.000
560.316; 2125.675;  192.375;    0.000
560.444; 2096.675;  180.375;    0.000
560.572; 2143.675;  206.375;    0.000
560.700; 2201.675;  184.375;    0.000
560.828; 2229.675;  177.375;    0.000
560.956; 2273.675;  221.375;    0.000
561.085; 2211.675;  227.375;    0.000
561.212; 2178.675;  208.375;    0.000
561.340; 2273.675;  189.375;    0.000
561.468; 2201.675;  189.375;    0.000
561.596; 2259.675;  183.375;    0.000
561.724; 2180.675;  188.375;    0.000
561.852; 2164.675;  183.375;    0.000
561.980; 2275.675;  209.375;    0.000
562.108; 2229.675;  165.375;    0.000
562.236; 2114.675;  188.375;    0.000
562.364; 2315.675;  177.375;    0.000
562.492; 2265.675;  192.375;    0.000
562.619; 2260.675;  187.375;    0.000
562.747; 2261.675;  217.375;    0.000
562.875; 2352.675;  221.375;    0.000
563.003; 2310.675;  199.375;    0.000
563.130; 2237.675;  191.375;    0.000
563.258; 2265.675;  186.375;    0.000
563.386; 2299.675;  191.375;    0.000
563.514; 2369.675;  217.375;    0.000
563.641; 2268.675;  220.375;    0.000
563.769; 2339.675;  186.375;    0.000
563.897; 2351.675;  158.375;    0.000
564.024; 2390.675;  192.375;    0.000
564.152; 2393.675;  217.375;    0.000
564.280; 2343.675;  203.375;    0.000
564.407; 2444.675;  190.375;    0.000
564.535; 2312.675;  188.375;    0.000
564.662; 2496.675;  199.375;    0.000
564.790; 2409.675;  227.375;    0.000
564.917; 2432.675;  160.375;    0.000
565.045; 2527.675;  222.375;    0.000
565.173; 2485.675;  169.375;    0.000
565.300; 2565.675;  208.375;    0.000
565.428; 2591.675;  174.375;    0.000
565.555; 2539.675;  201.375;    0.000
565.682; 2648.675;  180.375;    0.000
565.810; 2627.675;  165.375;    0.000
565.937; 2773.675;  167.375;    0.000
566.065; 2772.675;  190.375;    0.000
566.192; 2820.675;  169.375;    0.000
566.320; 2889.675;  167.375;    0.000
566.447; 2856.675;  151.375;    0.000
566.574; 2945.675;  176.375;    0.000
566.702; 3047.675;  198.375;    0.000
566.829; 3003.675;  209.375;    0.000
566.956; 2959.675;  186.375;    0.000
567.083; 2993.675;  188.375;    0.000
567.211; 3079.675;  159.375;    0.000
567.338; 3092.675;  204.375;    0.000
567.465; 3058.675;  141.375;    0.000
567.593; 3176.675;  168.375;    0.000
567.720; 3137.675;  177.375;    0.000
567.847; 3126.675;  160.375;    0.000
567.974; 3149.675;  139.375;    0.000
568.101; 3180.675;  153.375;    0.000
568.228; 3193.675;  173.375;    0.000
568.356; 3031.675;  149.375;    0.000
568.483; 2960.675;  185.375;    0.000
568.610; 2873.675;  170.375;    0.000
568.737; 2939.675;  223.375;    0.000
568.864; 2993.675;  167.375;    0.000
568.991; 2806.675;  177.375;    0.000
569.118; 2665.675;  169.375;    0.000
569.245; 2625.675;  128.375;    0.000
569.372; 2556.675;  160.375;    0.000
569.499; 2567.675;  156.375;    0.000
569.626; 2654.675;  191.375;    0.000
569.753; 2507.675;  163.375;    0.000
569.880; 2515.675;  167.375;    0.000
570.007; 2433.675;  143.375;    0.000
570.134; 2438.675;  191.375;    0.000
570.261; 2422.675;  164.375;    0.000
570.388; 2522.675;  162.375;    0.000
570.515; 2444.675;  220.375;    0.000
570.642; 2473.675;  184.375;    0.000
570.768; 2456.675;  174.375;    0.000
570.895; 2460.675;  177.375;    0.000
571.022; 2410.675;  152.375;    0.000
571.149; 2479.675;  183.375;    0.000
571.276; 2381.675;  153.375;    0.000
571.402; 2405.675;  190.375;    0.000
571.529; 2313.675;  187.375;    0.000
571.656; 2364.675;  167.375;    0.000
571.783; 2262.675;  186.375;    0.000
571.909; 2343.675;  183.375;    0.000
572.036; 2281.675;  162.375;    0.000
572.163; 2323.675;  196.375;    0.000
572.289; 2283.675;  180.375;    0.000
572.416; 2174.675;  190.375;    0.000
572.543; 2346.675;  174.375;    0.000
572.669; 2241.675;  186.375;    0.000
572.796; 2282.675;  205.375;    0.000
572.922; 2208.675;  185.375;    0.000
573.049; 2288.675;  178.375;    0.000
573.176; 2254.675;  196.375;    0.000
573.302; 2195.675;  202.375;    0.000
573.429; 2218.675;  189.375;    0.000
573.555; 2239.675;  145.375;    0.000
573.682; 2213.675;  228.375;    0.000
573.808; 2230.675;  197.375;    0.000
573.935; 2174.675;  216.375;    0.000
574.061; 2272.675;  173.375;    0.000
574.188; 2122.675;  151.375;    0.000
574.314; 2259.675;  181.375;    0.000
574.440; 2228.675;  167.375;    0.000
574.567; 2190.675;  185.375;    0.000
574.693; 2207.675;  173.375;    0.000
574.820; 2136.675;  164.375;    0.000
574.946; 2156.675;  199.375;    0.000
575.072; 2189.675;  162.375;    0.000
575.198; 2230.675;  225.375;    0.000
575.325; 2164.675;  171.375;    0.000
575.451; 2163.675;  183.375;    0.000
575.577; 2141.675;  190.375;    0.000
575.704; 2223.675;  210.375;    0.000
575.830; 2156.675;  185.375;    0.000
575.956; 2125.675;  168.375;    0.000
576.082; 2126.675;  158.375;    0.000
576.208; 2099.675;  158.375;    0.000
576.335; 2248.675;  196.375;    0.000
576.461; 2187.675;  187.375;    0.000
576.587; 2177.675;  157.375;    0.000
576.713; 2148.675;  156.375;    0.000
576.839; 2152.675;  196.375;    0.000
576.965; 2121.675;  187.375;    0.000
577.091; 2112.675;  204.375;    0.000
577.217; 2157.675;  207.375;    0.000
577.343; 2089.675;  175.375;    0.000
577.469; 2057.675;  197.375;    0.000
577.596; 2145.675;  182.375;    0.000
577.722; 2119.675;  159.375;    0.000
577.848; 2103.675;  162.375;    0.000
577.974; 2207.675;  180.375;    0.000
578.099; 2133.675;  161.375;    0.000
578.225; 2115.675;  180.375;    0.000
578.351; 2118.675;  190.375;    0.000
578.477; 2102.675;  212.375;    0.000
578.603; 2138.675;  179.375;    0.000
578.729; 2121.675;  195.375;    0.000
578.855; 2136.675;  153.375;    0.000
578.981; 2122.675;  162.375;    0.000
579.107; 2156.675;  149.375;    0.000
579.232; 2180.675;  164.375;    0.000
579.358; 2171.675;  162.375;    0.000
579.484; 2169.675;  181.375;    0.000
579.610; 2194.675;  190.375;    0.000
579.735; 2145.675;  191.375;    0.000
579.861; 2149.675;  189.375;    0.000
579.987; 2144.675;  202.375;    0.000
580.113; 2129.675;  197.375;    0.000
580.238; 2132.675;  228.375;    0.000
580.364; 2121.675;  212.375;    0.000
580.490; 2111.675;  225.375;    0.000
580.615; 2155.675;  218.375;    0.000
580.741; 2043.675;  167.375;    0.000
580.867; 2111.675;  215.375;    0.000
580.992; 2161.675;  191.375;    0.000
581.118; 2132.675;  171.375;    0.000
581.243; 2210.675;  204.375;    0.000
581.369; 2140.675;  186.375;    0.000
581.494; 2146.675;  184.375;    0.000
581.620; 2191.675;  212.375;    0.000
581.745; 2093.675;  192.375;    0.000
581.871; 2212.675;  195.375;    0.000
581.996; 2193.675;  160.375;    0.000
582.122; 2132.675;  217.375;    0.000
582.247; 2092.675;  213.375;    0.000
582.373; 2179.675;  187.375;    0.000
582.498; 2191.675;  208.375;    0.000
582.624; 2165.675;  189.375;    0.000
582.749; 2187.675;  185.375;    0.000
582.874; 2177.675;  195.375;    0.000
583.000; 2248.675;  208.375;    0.000
583.125; 2176.675;  147.375;    0.000
583.250; 2131.675;  201.375;    0.000
583.376; 2226.675;  191.375;    0.000
583.501; 2139.675;  206.375;    0.000
583.626; 2165.675;  167.375;    0.000
583.751; 2191.675;  180.375;    0.000
583.877; 2070.675;  185.375;    0.000
584.002; 2196.675;  186.375;    0.000
584.127; 2060.675;  176.375;    0.000
584.252; 2183.675;  214.375;    0.000
584.377; 2168.675;  225.375;    0.000
584.503; 2172.675;  195.375;    0.000
584.628; 2151.675;  206.375;    0.000
584.753; 2215.675;  181.375;    0.000
584.878; 2204.675;  136.375;    0.000
585.003; 2197.675;  215.375;    0.000
585.128; 2231.675;  206.375;    0.000
585.253; 2298.675;  200.375;    0.000
585.378; 2288.675;  169.375;    0.000
585.503; 2225.675;  191.375;    0.000
585.628; 2151.675;  182.375;    0.000
585.753; 2264.675;  164.375;    0.000
585.878; 2270.675;  123.375;    0.000
586.003; 2227.675;  187.375;    0.000
586.128; 2303.675;  198.375;    0.000
586.253; 2210.675;  172.375;    0.000
586.378; 2267.675;  191.375;    0.000
586.503; 2320.675;  190.375;    0.000
586.628; 2376.675;  178.375;    0.000
586.753; 2344.675;  184.375;    0.000
586.878; 2354.675;  169.375;    0.000
587.003; 2452.675;  186.375;    0.000
587.127; 2333.675;  170.375;    0.000
587.252; 2405.675;  170.375;    0.000
587.377; 2497.675;  181.375;    0.000
587.502; 2562.675;  209.375;    0.000
587.627; 2601.675;  210.375;    0.000
587.751; 2679.675;  212.375;    0.000
587.876; 2833.675;  198.375;    0.000
588.001; 2795.675;  161.375;    0.000
588.125; 3020.675;  191.375;    0.000
588.250; 3219.675;  132.375;    0.000
588.375; 3556.675;  183.375;    0.000
588.499; 3997.675;  176.375;    0.000
588.624; 4842.675;  173.375;    0.000
588.749; 6801.675;  204.375;    0.000
588.873;12366.675;  179.375;    0.000
588.998;17961.676;  182.375;    0.000
589.122;15741.675;  165.375;    0.000
589.247;10054.675;  185.375;    0.000
589.372; 8407.675;  199.375;    0.000
589.496;12078.675;  182.375;    0.000
589.621;14611.675;  158.375;    0.000
589.745;11277.675;  213.375;    0.000
589.870; 6788.675;  175.375;    0.000
589.994; 5082.675;  194.375;    0.000
590.118; 4212.675;  218.375;    0.000
590.243; 3790.675;  170.375;    0.000
590.367; 3525.675;  189.375;    0.000
590.492; 3251.675;  196.375;    0.000
590.616; 3154.675;  182.375;    0.000
590.740; 2963.675;  210.375;    0.000
590.865; 2982.675;  242.375;    0.000
590.989; 2931.675;  191.375;    0.000
591.114; 2734.675;  167.375;    0.000
591.238; 2700.675;  194.375;    0.000
591.362; 2684.675;  236.375;    0.000
591.486; 2708.675;  194.375;    0.000
591.611; 2646.675;  154.375;    0.000
591.735; 2578.675;  186.375;    0.000
591.859; 2593.675;  148.375;    0.000
591.983; 2597.675;  211.375;    0.000
592.107; 2579.675;  204.375;    0.000
592.232; 2546.675;  194.375;    0.000
592.356; 2588.675;  238.375;    0.000
592.480; 2567.675;  179.375;    0.000
592.604; 2599.675;  192.375;    0.000
592.728; 2532.675;  201.375;    0.000
592.852; 2568.675;  158.375;    0.000
592.976; 2551.675;  152.375;    0.000
593.100; 2590.675;  194.375;    0.000
593.224; 2622.675;  235.375;    0.000
593.349; 2529.675;  233.375;    0.000
593.473; 2515.675;  194.375;    0.000
593.597; 2648.675;  215.375;    0.000
593.721; 2620.675;  212.375;    0.000
593.844; 2472.675;  220.375;    0.000
593.968; 2631.675;  221.375;    0.000
594.092; 2510.675;  150.375;    0.000
594.216; 2499.675;  212.375;    0.000
594.340; 2567.675;  209.375;    0.000
594.464; 2519.675;  207.375;    0.000
594.588; 2440.675;  195.375;    0.000
594.712; 2438.675;  176.375;    0.000
594.836; 2464.675;  219.375;    0.000
594.959; 2418.675;  215.375;    0.000
595.083; 2336.675;  200.375;    0.000
595.207; 2465.675;  206.375;    0.000
595.331; 2392.675;  207.375;    0.000
595.455; 2345.675;  206.375;    0.000
595.578; 2314.675;  204.375;    0.000
595.702; 2301.675;  225.375;    0.000
595.826; 2291.675;  186.375;    0.000
595.949; 2183.675;  196.375;    0.000
596.073; 2247.675;  188.375;    0.000
596.197; 2212.675;  217.375;    0.000
596.320; 2195.675;  225.375;    0.000
596.444; 2244.675;  220.375;    0.000
596.568; 2202.675;  155.375;    0.000
596.691; 2238.675;  195.375;    0.000
596.815; 2187.675;  163.375;    0.000
596.938; 2206.675;  181.375;    0.000
597.062; 2181.675;  201.375;    0.000
597.186; 2172.675;  200.375;    0.000
597.309; 2138.675;  214.375;    0.000
597.433; 2204.675;  176.375;    0.000
597.556; 2138.675;  193.375;    0.000
597.680; 2199.675;  241.375;    0.000
597.803; 2255.675;  185.375;    0.000
597.926; 2136.675;  200.375;    0.000
598.050; 2075.675;  193.375;    0.000
598.173; 2176.675;  219.375;    0.000
598.297; 2122.675;  223.375;    0.000
598.420; 2176.675;  187.375;    0.000
598.543; 2127.675;  205.375;    0.000
598.667; 2124.675;  177.375;    0.000
598.790; 2107.675;  208.375;    0.000
598.913; 2078.675;  170.375;    0.000
599.037; 2061.675;  212.375;    0.000
599.160; 2086.675;  165.375;    0.000
599.283; 2147.675;  211.375;    0.000
599.406; 2124.675;  207.375;    0.000
599.530; 2094.675;  182.375;    0.000
599.653; 2005.675;  215.375;    0.000
599.776; 2098.675;  167.375;    0.000
599.899; 2030.675;  190.375;    0.000
600.022; 2061.675;  182.375;    0.000
600.145; 2080.675;  180.375;    0.000
600.269; 2055.675;  208.375;    0.000
600.392; 1988.675;  214.375;    0.000
600.515; 1946.675;  196.375;    0.000
600.638; 2051.675;  204.375;    0.000
600.761; 2081.675;  209.375;    0.000
600.884; 2054.675;  207.375;    0.000
601.007; 2083.675;  234.375;    0.000
601.130; 2058.675;  183.375;    0.000
601.253; 2042.675;  211.375;    0.000
601.376; 2035.675;  199.375;    0.000
601.499; 2018.675;  190.375;    0.000
601.622; 2016.675;  210.375;    0.000
601.745; 2012.675;  180.375;    0.000
601.868; 2020.675;  204.375;    0.000
601.991; 2056.675;  188.375;    0.000
602.113; 1984.675;  210.375;    0.000
602.236; 1961.675;  194.375;    0.000
602.359; 2047.675;  213.375;    0.000
602.482; 1999.675;  169.375;    0.000
602.605; 2101.675;  189.375;    0.000
602.728; 2069.675;  236.375;    0.000
602.850; 2055.675;  230.375;    0.000
602.973; 2016.675;  187.375;    0.000
603.096; 2068.675;  201.375;    0.000
603.219; 1963.675;  209.375;    0.000
603.341; 1993.675;  209.375;    0.000
603.464; 1964.675;  194.375;    0.000
603.587; 2065.675;  166.375;    0.000
603.709; 1949.675;  175.375;    0.000
603.832; 2006.675;  239.375;    0.000
603.955; 2017.675;  205.375;    0.000
604.077; 2017.675;  196.375;    0.000
604.200; 2009.675;  188.375;    0.000
604.323; 2019.675;  224.375;    0.000
604.445; 1966.675;  182.375;    0.000
604.568; 1963.675;  199.375;    0.000
604.690; 1957.675;  175.375;    0.000
604.813; 2013.675;  211.375;    0.000
604.935; 2016.675;  171.375;    0.000
605.058; 1962.675;  196.375;    0.000
605.180; 2002.675;  194.375;    0.000
605.303; 1989.675;  198.375;    0.000
605.425; 1983.675;  212.375;    0.000
605.547; 2057.675;  238.375;    0.000
605.670; 1952.675;  207.375;    0.000
605.792; 1928.675;  204.375;    0.000
605.915; 1925.675;  198.375;    0.000
606.037; 1956.675;  215.375;    0.000
606.159; 1985.675;  170.375;    0.000
606.282; 1975.675;  194.375;    0.000
606.404; 1909.675;  207.375;    0.000
606.526; 1971.675;  208.375;    0.000
606.648; 1909.675;  174.375;    0.000
606.771; 1949.675;  170.375;    0.000
606.893; 1958.675;  182.375;    0.000
607.015; 1931.675;  180.375;    0.000
607.137; 1858.675;  187.375;    0.000
607.260; 1943.675;  202.375;    0.000
607.382; 1947.675;  226.375;    0.000
607.504; 1910.675;  208.375;    0.000
607.626; 1962.675;  229.375;    0.000
607.748; 2014.675;  170.375;    0.000
607.870; 1854.675;  208.375;    0.000
607.992; 1968.675;  184.375;    0.000
608.114; 1936.675;  213.375;    0.000
608.237; 1966.675;  237.375;    0.000
608.359; 1932.675;  176.375;    0.000
608.481; 1834.675;  173.375;    0.000
608.603; 1929.675;  189.375;    0.000
608.725; 1973.675;  185.375;    0.000
608.847; 1892.675;  239.375;    0.000
608.969; 1975.675;  237.375;    0.000
609.090; 1816.675;  189.375;    0.000
609.212; 1859.675;  147.375;    0.000
609.334; 1887.675;  177.375;    0.000
609.456; 1949.675;  196.375;    0.000
609.578; 1940.675;  199.375;    0.000
609.700; 1767.675;  167.375;    0.000
609.822; 1870.675;  140.375;    0.000
609.944; 1968.675;  225.375;    0.000
610.065; 1905.675;  183.375;    0.000
610.187; 1905.675;  170.375;    0.000
610.309; 1964.675;  210.375;    0.000
610.431; 1880.675;  185.375;    0.000
610.552; 2021.675;  197.375;    0.000
610.674; 1891.675;  188.375;    0.000
610.796; 1903.675;  162.375;    0.000
610.918; 1857.675;  200.375;    0.000
611.039; 1925.675;  209.375;    0.000
611.161; 1875.675;  201.375;    0.000
611.282; 1966.675;  197.375;    0.000
611.404; 1888.675;  220.375;    0.000
611.526; 1883.675;  159.375;    0.000
611.647; 1899.675;  205.375;    0.000
611.769; 1884.675;  161.375;    0.000
611.890; 1890.675;  173.375;    0.000
612.012; 1937.675;  225.375;    0.000
612.133; 1964.675;  188.375;    0.000
612.255; 1870.675;  217.375;    0.000
612.377; 1945.675;  219.375;    0.000
612.498; 1854.675;  177.375;    0.000
612.619; 1849.675;  211.375;    0.000
612.741; 1903.675;  185.375;    0.000
612.862; 1898.675;  191.375;    0.000
612.984; 1937.675;  190.375;    0.000
613.105; 1940.675;  211.375;    0.000
613.226; 1949.675;  174.375;    0.000
613.348; 1970.675;  235.375;    0.000
613.469; 1910.675;  230.375;    0.000
613.590; 1881.675;  208.375;    0.000
613.712; 1895.675;  244.375;    0.000
613.833; 1925.675;  202.375;    0.000
613.954; 1894.675;  228.375;    0.000
614.076; 1904.675;  220.375;    0.000
614.197; 1893.675;  191.375;    0.000
614.318; 1868.675;  201.375;    0.000
614.439; 1877.675;  212.375;    0.000
614.560; 1944.675;  219.375;    0.000
614.682; 1871.675;  189.375;    0.000
614.803; 1897.675;  188.375;    0.000
614.924; 1893.675;  225.375;    0.000
615.045; 1917.675;  227.375;    0.000
615.166; 1879.675;  200.375;    0.000
615.287; 1898.675;  195.375;    0.000
615.408; 1859.675;  199.375;    0.000
615.529; 1989.675;  227.375;    0.000
615.650; 1957.675;  176.375;    0.000
615.771; 1898.675;  211.375;    0.000
615.892; 1906.675;  212.375;    0.000
616.013; 1898.675;  172.375;    0.000
616.134; 1971.675;  220.375;    0.000
616.255; 2009.675;  251.375;    0.000
616.376; 1960.675;  186.375;    0.000
616.497; 1926.675;  201.375;    0.000
616.618; 1810.675;  149.375;    0.000
616.739; 1926.675;  213.375;    0.000
616.860; 1873.675;  224.375;    0.000
616.981; 1907.675;  224.375;    0.000
617.102; 1904.675;  217.375;    0.000
617.222; 1940.675;  237.375;    0.000
617.343; 1858.675;  205.375;    0.000
617.464; 1941.675;  229.375;    0.000
617.585; 1828.675;  227.375;    0.000
617.705; 1915.675;  191.375;    0.000
617.826; 1915.675;  237.375;    0.000
617.947; 1910.675;  223.375;    0.000
618.068; 1887.675;  189.375;    0.000
618.188; 1859.675;  194.375;    0.000
618.309; 1850.675;  206.375;    0.000
618.430; 1944.675;  229.375;    0.000
618.550; 1898.675;  250.375;    0.000
618.671; 1830.675;  201.375;    0.000
618.791; 1828.675;  226.375;    0.000
618.912; 1850.675;  246.375;    0.000
619.033; 1867.675;  243.375;    0.000
619.153; 1832.675;  208.375;    0.000
619.274; 1882.675;  223.375;    0.000
619.394; 1863.675;  226.375;    0.000
619.515; 1778.675;  188.375;    0.000
619.635; 1832.675;  216.375;    0.000
619.756; 1863.675;  229.375;    0.000
619.876; 1908.675;  216.375;    0.000
619.996; 1904.675;  244.375;    0.000
620.117; 1888.675;  225.375;    0.000
620.237; 1845.675;  207.375;    0.000
620.358; 1844.675;  239.375;    0.000
620.478; 1863.675;  237.375;    0.000
620.598; 1871.675;  237.375;    0.000
620.719; 1837.675;  223.375;    0.000
620.839; 1817.675;  254.375;    0.000
620.959; 1825.675;  244.375;    0.000
621.079; 1818.675;  193.375;    0.000
621.200; 1824.675;  233.375;    0.000
621.320; 1877.675;  270.375;    0.000
621.440; 1861.675;  206.375;    0.000
621.560; 1833.675;  241.375;    0.000
621.681; 1860.675;  231.375;    0.000
621.801; 1833.675;  235.375;    0.000
621.921; 1889.675;  240.375;    0.000
622.041; 1845.675;  244.375;    0.000
622.161; 1891.675;  225.375;    0.000
622.281; 1811.675;  222.375;    0.000
622.401; 1813.675;  238.375;    0.000
622.521; 1799.675;  233.375;    0.000
622.641; 1785.675;  241.375;    0.000
622.761; 1822.675;  233.375;    0.000
622.882; 1832.675;  230.375;    0.000
623.002; 1821.675;  206.375;    0.000
623.121; 1834.675;  217.375;    0.000
623.241; 1895.675;  263.375;    0.000
623.361; 1772.675;  245.375;    0.000
623.481; 1795.675;  194.375;    0.000
623.601; 1871.675;  228.375;    0.000
623.721; 1858.675;  219.375;    0.000
623.841; 1840.675;  234.375;    0.000
623.961; 1821.675;  235.375;    0.000
624.081; 1810.675;  166.375;    0.000
624.201; 1860.675;  229.375;    0.000
624.320; 1788.675;  224.375;    0.000
624.440; 1777.675;  200.375;    0.000
624.560; 1809.675;  220.375;    0.000
624.680; 1836.675;  214.375;    0.000
624.799; 1775.675;  179.375;    0.000
624.919; 1679.675;  199.375;    0.000
625.039; 1813.675;  211.375;    0.000
625.159; 1777.675;  213.375;    0.000
625.278; 1767.675;  178.375;    0.000
625.398; 1790.675;  206.375;    0.000
625.518; 1806.675;  182.375;    0.000
625.637; 1821.675;  206.375;    0.000
625.757; 1837.675;  197.375;    0.000
625.876; 1774.675;  204.375;    0.000
625.996; 1828.675;  222.375;    0.000
626.115; 1776.675;  222.375;    0.000
626.235; 1805.675;  222.375;    0.000
626.354; 1751.675;  211.375;    0.000
626.474; 1742.675;  217.375;    0.000
626.594; 1839.675;  190.375;    0.000
626.713; 1749.675;  200.375;    0.000
626.832; 1713.675;  234.375;    0.000
626.952; 1780.675;  214.375;    0.000
627.071; 1742.675;  243.375;    0.000
627.191; 1764.675;  192.375;    0.000
627.310; 1705.675;  211.375;    0.000
627.429; 1739.675;  218.375;    0.000
627.549; 1731.675;  214.375;    0.000
627.668; 1664.675;  208.375;    0.000
627.787; 1755.675;  199.375;    0.000
627.907; 1761.675;  208.375;    0.000
628.026; 1778.675;  216.375;    0.000
628.145; 1742.675;  170.375;    0.000
628.264; 1743.675;  217.375;    0.000
628.384; 1770.675;  190.375;    0.000
628.503; 1793.675;  203.375;    0.000
628.622; 1728.675;  197.375;    0.000
628.741; 1760.675;  186.375;    0.000
628.860; 1722.675;  191.375;    0.000
628.980; 1730.675;  196.375;    0.000
629.099; 1751.675;  190.375;    0.000
629.218; 1723.675;  165.375;    0.000
629.337; 1667.675;  190.375;    0.000
629.456; 1758.675;  222.375;    0.000
629.575; 1738.675;  197.375;    0.000
629.694; 1682.675;  210.375;    0.000
629.813; 1728.675;  187.375;    0.000
629.932; 1768.675;  224.375;    0.000
630.051; 1748.675;  216.375;    0.000
630.170; 1710.675;  203.375;    0.000
630.289; 1728.675;  178.375;    0.000
630.408; 1677.675;  192.375;    0.000
630.527; 1711.675;  223.375;    0.000
630.646; 1739.675;  177.375;    0.000
630.764; 1724.675;  224.375;    0.000
630.883; 1703.675;  220.375;    0.000
631.002; 1729.675;  187.375;    0.000
631.121; 1698.675;  208.375;    0.000
631.240; 1718.675;  217.375;    0.000
631.359; 1699.675;  241.375;    0.000
631.477; 1742.675;  189.375;    0.000
631.596; 1759.675;  244.375;    0.000
631.715; 1754.675;  241.375;    0.000
631.834; 1744.675;  219.375;    0.000
631.952; 1700.675;  231.375;    0.000
632.071; 1672.675;  197.375;    0.000
632.190; 1708.675;  193.375;    0.000
632.308; 1704.675;  185.375;    0.000
632.427; 1799.675;  188.375;    0.000
632.546; 1727.675;  208.375;    0.000
632.664; 1723.675;  191.375;    0.000
632.783; 1711.675;  201.375;    0.000
632.901; 1717.675;  239.375;    0.000
633.020; 1640.675;  197.375;    0.000
633.138; 1664.675;  189.375;    0.000
633.257; 1686.675;  210.375;    0.000
633.375; 1640.675;  213.375;    0.000
633.494; 1713.675;  206.375;    0.000
633.612; 1743.675;  231.375;    0.000
633.731; 1719.675;  213.375;    0.000
633.849; 1728.675;  244.375;    0.000
633.968; 1703.675;  251.375;    0.000
634.086; 1673.675;  224.375;    0.000
634.204; 1720.675;  212.375;    0.000
634.323; 1664.675;  213.375;    0.000
634.441; 1691.675;  219.375;    0.000
634.559; 1722.675;  198.375;    0.000
634.678; 1699.675;  201.375;    0.000
634.796; 1625.675;  179.375;    0.000
634.914; 1725.675;  255.375;    0.000
635.032; 1730.675;  264.375;    0.000
635.151; 1678.675;  228.375;    0.000
635.269; 1686.675;  223.375;    0.000
635.387; 1685.675;  228.375;    0.000
635.505; 1699.675;  214.375;    0.000
635.623; 1746.675;  279.375;    0.000
635.742; 1702.675;  237.375;    0.000
635.860; 1730.675;  244.375;    0.000
635.978; 1637.675;  213.375;    0.000
636.096; 1704.675;  230.375;    0.000
636.214; 1656.675;  252.375;    0.000
636.332; 1686.675;  221.375;    0.000
636.450; 1660.675;  227.375;    0.000
636.568; 1689.675;  193.375;    0.000
636.686; 1691.675;  208.375;    0.000
636.804; 1677.675;  213.375;    0.000
636.922; 1662.675;  199.375;    0.000
637.040; 1643.675;  202.375;    0.000
637.158; 1607.675;  239.375;    0.000
637.276; 1686.675;  225.375;    0.000
637.394; 1695.675;  217.375;    0.000
637.512; 1714.675;  192.375;    0.000
637.629; 1684.675;  216.375;    0.000
637.747; 1614.675;  198.375;    0.000
637.865; 1686.675;  265.375;    0.000
637.983; 1726.675;  245.375;    0.000
638.101; 1608.675;  199.375;    0.000
638.218; 1677.675;  197.375;    0.000
638.336; 1706.675;  212.375;    0.000
638.454; 1696.675;  227.375;    0.000
638.572; 1666.675;  215.375;    0.000
638.689; 1731.675;  214.375;    0.000
638.807; 1679.675;  233.375;    0.000
638.925; 1706.675;  217.375;    0.000
639.042; 1677.675;  180.375;    0.000
639.160; 1716.675;  220.375;    0.000
639.278; 1656.675;  180.375;    0.000
639.395; 1728.675;  243.375;    0.000
639.513; 1678.675;  207.375;    0.000
639.630; 1673.675;  183.375;    0.000
639.748; 1651.675;  231.375;    0.000
639.865; 1689.675;  215.375;    0.000
639.983; 1653.675;  182.375;    0.000
640.100; 1772.675;  190.375;    0.000
640.218; 1631.675;  224.375;    0.000
640.335; 1644.675;  214.375;    0.000
640.453; 1661.675;  212.375;    0.000
640.570; 1627.675;  224.375;    0.000
640.688; 1643.675;  220.375;    0.000
640.805; 1702.675;  189.375;    0.000
640.922; 1617.675;  256.375;    0.000
641.040; 1641.675;  209.375;    0.000
641.157; 1686.675;  195.375;    0.000
641.274; 1752.675;  195.375;    0.000
641.391; 1702.675;  231.375;    0.000
641.509; 1649.675;  207.375;    0.000
641.626; 1727.675;  227.375;    0.000
641.743; 1734.675;  188.375;    0.000
641.860; 1707.675;  208.375;    0.000
641.978; 1736.675;  222.375;    0.000
642.095; 1691.675;  194.375;    0.000
642.212; 1704.675;  202.375;    0.000
642.329; 1646.675;  241.375;    0.000
642.446; 1618.675;  261.375;    0.000
642.563; 1661.675;  236.375;    0.000
642.681; 1654.675;  228.375;    0.000
642.798; 1643.675;  242.375;    0.000
642.915; 1664.675;  197.375;    0.000
643.032; 1656.675;  239.375;    0.000
643.149; 1705.675;  241.375;    0.000
643.266; 1678.675;  199.375;    0.000
643.383; 1734.675;  200.375;    0.000
643.500; 1667.675;  221.375;    0.000
643.617; 1727.675;  196.375;    0.000
643.734; 1737.675;  207.375;    0.000
643.850; 1752.675;  222.375;    0.000
643.967; 1686.675;  235.375;    0.000
644.084; 1754.675;  233.375;    0.000
644.201; 1718.675;  229.375;    0.000
644.318; 1669.675;  210.375;    0.000
644.435; 1683.675;  234.375;    0.000
644.552; 1742.675;  220.375;    0.000
644.668; 1756.675;  231.375;    0.000
644.785; 1686.675;  231.375;    0.000
644.902; 1723.675;  238.375;    0.000
645.019; 1708.675;  226.375;    0.000
645.135; 1724.675;  179.375;    0.000
645.252; 1697.675;  224.375;    0.000
645.369; 1792.675;  206.375;    0.000
645.485; 1776.675;  200.375;    0.000
645.602; 1751.675;  210.375;    0.000
645.719; 1711.675;  206.375;    0.000
645.835; 1787.675;  247.375;    0.000
645.952; 1811.675;  222.375;    0.000
646.068; 1803.675;  205.375;    0.000
646.185; 1760.675;  230.375;    0.000
646.302; 1874.675;  254.375;    0.000
646.418; 1786.675;  230.375;    0.000
646.535; 1808.675;  214.375;    0.000
646.651; 1810.675;  179.375;    0.000
646.768; 1851.675;  190.375;    0.000
646.884; 1890.675;  208.375;    0.000
647.000; 1888.675;  262.375;    0.000
647.117; 1813.675;  212.375;    0.000
647.233; 1796.675;  228.375;    0.000
647.350; 1892.675;  208.375;    0.000
647.466; 1848.675;  211.375;    0.000
647.582; 1825.675;  196.375;    0.000
647.699; 1847.675;  217.375;    0.000
647.815; 1843.675;  203.375;    0.000
647.931; 1885.675;  201.375;    0.000
648.047; 1865.675;  182.375;    0.000
648.164; 1847.675;  219.375;    0.000
648.280; 1878.675;  213.375;    0.000
648.396; 1906.675;  202.375;    0.000
648.512; 1893.675;  233.375;    0.000
648.629; 1873.675;  206.375;    0.000
648.745; 1930.675;  188.375;    0.000
648.861; 1864.675;  209.375;    0.000
648.977; 1964.675;  218.375;    0.000
649.093; 1921.675;  225.375;    0.000
649.209; 1933.675;  240.375;    0.000
649.325; 1956.675;  253.375;    0.000
649.441; 1927.675;  263.375;    0.000
649.557; 1951.675;  256.375;    0.000
649.673; 1983.675;  211.375;    0.000
649.789; 1927.675;  237.375;    0.000
649.905; 1873.675;  183.375;    0.000
650.021; 1988.675;  238.375;    0.000
650.137; 1996.675;  241.375;    0.000
650.253; 1990.675;  228.375;    0.000
650.369; 2022.675;  221.375;    0.000
650.485; 1953.675;  240.375;    0.000
650.601; 1995.675;  254.375;    0.000
650.717; 1965.675;  201.375;    0.000
650.833; 1982.675;  257.375;    0.000
650.948; 2018.675;  213.375;    0.000
651.064; 2119.675;  223.375;    0.000
651.180; 2038.675;  230.375;    0.000
651.296; 2101.675;  235.375;    0.000
651.411; 2044.675;  221.375;    0.000
651.527; 2076.675;  233.375;    0.000
651.643; 2138.675;  236.375;    0.000
651.759; 2108.675;  268.375;    0.000
651.874; 2113.675;  214.375;    0.000
651.990; 2159.675;  251.375;    0.000
652.105; 2151.675;  217.375;    0.000
652.221; 2122.675;  243.375;    0.000
652.337; 2277.675;  231.375;    0.000
652.452; 2187.675;  238.375;    0.000
652.568; 2202.675;  188.375;    0.000
652.683; 2278.675;  197.375;    0.000
652.799; 2274.675;  194.375;    0.000
652.914; 2255.675;  222.375;    0.000
653.030; 2356.675;  200.375;    0.000
653.145; 2304.675;  235.375;    0.000
653.261; 2482.675;  261.375;    0.000
653.376; 2362.675;  228.375;    0.000
653.492; 2400.675;  222.375;    0.000
653.607; 2479.675;  227.375;    0.000
653.722; 2473.675;  250.375;    0.000
653.838; 2546.675;  255.375;    0.000
653.953; 2498.675;  235.375;    0.000
654.068; 2623.675;  266.375;    0.000
654.184; 2606.675;  210.375;    0.000
654.299; 2761.675;  240.375;    0.000
654.414; 2692.675;  222.375;    0.000
654.530; 2828.675;  222.375;    0.000
654.645; 2906.675;  256.375;    0.000
654.760; 2926.675;  244.375;    0.000
654.875; 3003.675;  229.375;    0.000
654.990; 3057.675;  226.375;    0.000
655.106; 3169.675;  254.375;    0.000
655.221; 3222.675;  251.375;    0.000
655.336; 3272.675;  245.375;    0.000
655.451; 3436.675;  199.375;    0.000
655.566; 3407.675;  228.375;    0.000
655.681; 3671.675;  208.375;    0.000
655.796; 3832.675;  218.375;    0.000
655.911; 3963.675;  233.375;    0.000
656.026; 4125.675;  232.375;    0.000
656.141; 4192.675;  223.375;    0.000
656.256; 4438.675;  247.375;    0.000
656.371; 4383.675;  220.375;    0.000
656.486; 4476.675;  225.375;    0.000
656.601; 4315.675;  257.375;    0.000
656.716; 4321.675;  248.375;    0.000
656.831; 4186.675;  262.375;    0.000
656.946; 4062.675;  249.375;    0.000
657.060; 3971.675;  245.375;    0.000
657.175; 3814.675;  245.375;    0.000
657.290; 3731.675;  219.375;    0.000
657.405; 3738.675;  286.375;    0.000
657.520; 3658.675;  259.375;    0.000
657.634; 3510.675;  239.375;    0.000
657.749; 3384.675;  227.375;    0.000
657.864; 3388.675;  210.375;    0.000
657.979; 3304.675;  236.375;    0.000
658.093; 3184.675;  210.375;    0.000
658.208; 3098.675;  248.375;    0.000
658.323; 3061.675;  216.375;    0.000
658.437; 3025.675;  248.375;    0.000
658.552; 2983.675;  249.375;    0.000
658.666; 2901.675;  256.375;    0.000
658.781; 2896.675;  247.375;    0.000
658.895; 2803.675;  209.375;    0.000
659.010; 2805.675;  219.375;    0.000
659.125; 2692.675;  215.375;    0.000
659.239; 2775.675;  205.375;    0.000
659.353; 2683.675;  246.375;    0.000
659.468; 2552.675;  245.375;    0.000
659.582; 2667.675;  244.375;    0.000
659.697; 2525.675;  242.375;    0.000
659.811; 2548.675;  239.375;    0.000
659.926; 2520.675;  226.375;    0.000
660.040; 2469.675;  255.375;    0.000
660.154; 2380.675;  225.375;    0.000
660.269; 2427.675;  200.375;    0.000
660.383; 2359.675;  192.375;    0.000
660.497; 2411.675;  218.375;    0.000
660.612; 2337.675;  236.375;    0.000
660.726; 2371.675;  263.375;    0.000
660.840; 2308.675;  205.375;    0.000
660.954; 2216.675;  219.375;    0.000
661.068; 2216.675;  240.375;    0.000
661.183; 2277.675;  221.375;    0.000
661.297; 2220.675;  194.375;    0.000
661.411; 2201.675;  253.375;    0.000
661.525; 2137.675;  246.375;    0.000
661.639; 2161.675;  217.375;    0.000
661.753; 2117.675;  241.375;    0.000
661.867; 2083.675;  276.375;    0.000
661.981; 2029.675;  203.375;    0.000
662.095; 2041.675;  224.375;    0.000
662.209; 2111.675;  217.375;    0.000
662.323; 1945.675;  251.375;    0.000
662.437; 2022.675;  243.375;    0.000
662.551; 1913.675;  244.375;    0.000
662.665; 1997.675;  247.375;    0.000
662.779; 1974.675;  251.375;    0.000
662.893; 1987.675;  254.375;    0.000
663.007; 1906.675;  222.375;    0.000
663.121; 1975.675;  253.375;    0.000
663.235; 1821.675;  270.375;    0.000
663.349; 1790.675;  242.375;    0.000
663.462; 1852.675;  230.375;    0.000
663.576; 1858.675;  230.375;    0.000
663.690; 1844.675;  249.375;    0.000
663.804; 1869.675;  200.375;    0.000
663.917; 1780.675;  204.375;    0.000
664.031; 1685.675;  206.375;    0.000
664.145; 1796.675;  202.375;    0.000
664.258; 1753.675;  221.375;    0.000
664.372; 1759.675;  215.375;    0.000
664.486; 1733.675;  179.375;    0.000
664.599; 1741.675;  208.375;    0.000
664.713; 1833.675;  268.375;    0.000
664.827; 1737.675;  225.375;    0.000
664.940; 1734.675;  222.375;    0.000
665.054; 1703.675;  208.375;    0.000
665.167; 1681.675;  253.375;    0.000
665.281; 1729.675;  237.375;    0.000
665.394; 1687.675;  227.375;    0.000
665.508; 1666.675;  192.375;    0.000
665.621; 1680.675;  175.375;    0.000
665.735; 1647.675;  249.375;    0.000
665.848; 1681.675;  197.375;    0.000
665.961; 1658.675;  206.375;    0.000
666.075; 1606.675;  245.375;    0.000
666.188; 1635.675;  230.375;    0.000
666.301; 1620.675;  219.375;    0.000
666.415; 1679.675;  231.375;    0.000
666.528; 1672.675;  258.375;    0.000
666.641; 1656.675;  243.375;    0.000
666.755; 1612.675;  208.375;    0.000
666.868; 1643.675;  228.375;    0.000
666.981; 1616.675;  244.375;    0.000
667.094; 1645.675;  244.375;    0.000
667.207; 1587.675;  226.375;    0.000
667.321; 1589.675;  175.375;    0.000
667.434; 1518.675;  211.375;    0.000
667.547; 1567.675;  249.375;    0.000
667.660; 1525.675;  225.375;    0.000
667.773; 1566.675;  242.375;    0.000
667.886; 1537.675;  246.375;    0.000
667.999; 1570.675;  244.375;    0.000
668.112; 1556.675;  227.375;    0.000
668.225; 1497.675;  231.375;    0.000
668.338; 1530.675;  256.375;    0.000
668.451; 1471.675;  216.375;    0.000
668.564; 1468.675;  261.375;    0.000
668.677; 1519.675;  230.375;    0.000
668.790; 1487.675;  192.375;    0.000
668.903; 1592.675;  243.375;    0.000
669.016; 1406.675;  201.375;    0.000
669.129; 1417.675;  249.375;    0.000
669.242; 1434.675;  190.375;    0.000
669.354; 1474.675;  219.375;    0.000
669.467; 1501.675;  242.375;    0.000
669.580; 1540.675;  237.375;    0.000
669.693; 1457.675;  243.375;    0.000
669.806; 1440.675;  234.375;    0.000
669.918; 1482.675;  206.375;    0.000
670.031; 1473.675;  258.375;    0.000
670.144; 1469.675;  231.375;    0.000
670.256; 1401.675;  244.375;    0.000
670.369; 1451.675;  262.375;    0.000
670.482; 1470.675;  264.375;    0.000
670.594; 1443.675;  256.375;    0.000
670.707; 1461.675;  224.375;    0.000
670.820; 1481.675;  261.375;    0.000
670.932; 1442.675;  226.375;    0.000
671.045; 1448.675;  243.375;    0.000
671.157; 1408.675;  235.375;    0.000
671.270; 1417.675;  217.375;    0.000
671.382; 1433.675;  267.375;    0.000
671.495; 1448.675;  258.375;    0.000
671.607; 1431.675;  236.375;    0.000
671.720; 1395.675;  200.375;    0.000
671.832; 1365.675;  219.375;    0.000
671.944; 1393.675;  234.375;    0.000
672.057; 1335.675;  226.375;    0.000
672.169; 1358.675;  225.375;    0.000
672.281; 1396.675;  253.375;    0.000
672.394; 1415.675;  238.375;    0.000
672.506; 1437.675;  244.375;    0.000
672.618; 1340.675;  272.375;    0.000
672.731; 1358.675;  247.375;    0.000
672.843; 1435.675;  261.375;    0.000
672.955; 1350.675;  262.375;    0.000
673.067; 1439.675;  253.375;    0.000
673.180; 1359.675;  239.375;    0.000
673.292; 1382.675;  240.375;    0.000
673.404; 1464.675;  243.375;    0.000
673.516; 1380.675;  258.375;    0.000
673.628; 1364.675;  263.375;    0.000
673.740; 1366.675;  250.375;    0.000
673.852; 1364.675;  285.375;    0.000
673.964; 1369.675;  264.375;    0.000
674.076; 1343.675;  260.375;    0.000
674.188; 1387.675;  226.375;    0.000
674.300; 1328.675;  272.375;    0.000
674.412; 1379.675;  259.375;    0.000
674.524; 1373.675;  283.375;    0.000
674.636; 1282.675;  259.375;    0.000
674.748; 1296.675;  238.375;    0.000
674.860; 1341.675;  277.375;    0.000
674.972; 1338.675;  272.375;    0.000
675.084; 1305.675;  244.375;    0.000
675.196; 1308.675;  272.375;    0.000
675.307; 1351.675;  244.375;    0.000
675.419; 1335.675;  219.375;    0.000
675.531; 1332.675;  275.375;    0.000
675.643; 1313.675;  215.375;    0.000
675.755; 1253.675;  243.375;    0.000
675.866; 1298.675;  223.375;    0.000
675.978; 1302.675;  216.375;    0.000
676.090; 1327.675;  242.375;    0.000
676.201; 1287.675;  276.375;    0.000
676.313; 1273.675;  226.375;    0.000
676.425; 1356.675;  234.375;    0.000
676.536; 1236.675;  231.375;    0.000
676.648; 1302.675;  254.375;    0.000
676.759; 1304.675;  273.375;    0.000
676.871; 1257.675;  250.375;    0.000
676.983; 1355.675;  256.375;    0.000
677.094; 1279.675;  210.375;    0.000
677.206; 1310.675;  248.375;    0.000
677.317; 1281.675;  263.375;    0.000
677.429; 1305.675;  238.375;    0.000
677.540; 1244.675;  247.375;    0.000
677.651; 1260.675;  224.375;    0.000
677.763; 1208.675;  217.375;    0.000
677.874; 1323.675;  234.375;    0.000
677.986; 1289.675;  238.375;    0.000
678.097; 1271.675;  226.375;    0.000
678.208; 1255.675;  253.375;    0.000
678.320; 1307.675;  217.375;    0.000
678.431; 1238.675;  238.375;    0.000
678.542; 1235.675;  236.375;    0.000
678.653; 1236.675;  218.375;    0.000
678.765; 1270.675;  275.375;    0.000
678.876; 1186.675;  213.375;    0.000
678.987; 1190.675;  182.375;    0.000
679.098; 1238.675;  221.375;    0.000
679.209; 1237.675;  238.375;    0.000
679.320; 1216.675;  212.375;    0.000
679.432; 1308.675;  231.375;    0.000
679.543; 1226.675;  198.375;    0.000
679.654; 1178.675;  191.375;    0.000
679.765; 1239.675;  214.375;    0.000
679.876; 1207.675;  221.375;    0.000
679.987; 1183.675;  162.375;    0.000
680.098; 1236.675;  230.375;    0.000
680.209; 1168.675;  206.375;    0.000
680.320; 1250.675;  196.375;    0.000
680.431; 1160.675;  191.375;    0.000
680.542; 1206.675;  214.375;    0.000
680.653; 1189.675;  238.375;    0.000
680.763; 1231.675;  182.375;    0.000
680.874; 1216.675;  213.375;    0.000
680.985; 1201.675;  224.375;    0.000
681.096; 1250.675;  222.375;    0.000
681.207; 1217.675;  220.375;    0.000
681.318; 1252.675;  216.375;    0.000
681.428; 1275.675;  229.375;    0.000
681.539; 1141.675;  183.375;    0.000
681.650; 1230.675;  202.375;    0.000
681.760; 1203.675;  223.375;    0.000
681.871; 1183.675;  211.375;    0.000
681.982; 1226.675;  189.375;    0.000
682.093; 1195.675;  222.375;    0.000
682.203; 1170.675;  220.375;    0.000
682.314; 1160.675;  214.375;    0.000
682.424; 1172.675;  208.375;    0.000
682.535; 1122.675;  213.375;    0.000
682.646; 1194.675;  302.375;    0.000
682.756; 1232.675;  255.375;    0.000
682.867; 1169.675;  244.375;    0.000
682.977; 1139.675;  221.375;    0.000
683.088; 1182.675;  259.375;    0.000
683.198; 1222.675;  212.375;    0.000
683.308; 1143.675;  202.375;    0.000
683.419; 1169.675;  255.375;    0.000
683.529; 1176.675;  217.375;    0.000
683.640; 1196.675;  240.375;    0.000
683.750; 1168.675;  181.375;    0.000
683.860; 1184.675;  246.375;    0.000
683.971; 1233.675;  254.375;    0.000
684.081; 1191.675;  235.375;    0.000
684.191; 1201.675;  251.375;    0.000
684.301; 1123.675;  233.375;    0.000
684.412; 1217.675;  202.375;    0.000
684.522; 1177.675;  232.375;    0.000
684.632; 1196.675;  202.375;    0.000
684.742; 1167.675;  254.375;    0.000
684.852; 1150.675;  219.375;    0.000
684.963; 1213.675;  256.375;    0.000
685.073; 1111.675;  253.375;    0.000
685.183; 1185.675;  254.375;    0.000
685.293; 1134.675;  232.375;    0.000
685.403; 1204.675;  242.375;    0.000
685.513; 1191.675;  261.375;    0.000
685.623; 1146.675;  245.375;    0.000
685.733; 1145.675;  254.375;    0.000
685.843; 1198.675;  249.375;    0.000
685.953; 1155.675;  252.375;    0.000
686.063; 1182.675;  227.375;    0.000
686.173; 1132.675;  223.375;    0.000
686.283; 1165.675;  234.375;    0.000
686.393; 1140.675;  239.375;    0.000
686.503; 1198.675;  231.375;    0.000
686.612; 1132.675;  232.375;    0.000
686.722; 1143.675;  258.375;    0.000
686.832; 1175.675;  256.375;    0.000
686.942; 1177.675;  230.375;    0.000
687.052; 1210.675;  274.375;    0.000
687.161; 1143.675;  269.375;    0.000
687.271; 1190.675;  218.375;    0.000
687.381; 1208.675;  235.375;    0.000
687.491; 1217.675;  262.375;    0.000
687.600; 1246.675;  256.375;    0.000
687.710; 1138.675;  225.375;    0.000
687.820; 1146.675;  230.375;    0.000
687.929; 1115.675;  226.375;    0.000
688.039; 1161.675;  228.375;    0.000
688.148; 1112.675;  249.375;    0.000
688.258; 1096.675;  237.375;    0.000
688.367; 1156.675;  260.375;    0.000
688.477; 1134.675;  200.375;    0.000
688.586; 1159.675;  223.375;    0.000
688.696; 1163.675;  223.375;    0.000
688.805; 1191.675;  257.375;    0.000
688.915; 1139.675;  185.375;    0.000
689.024; 1132.675;  227.375;    0.000
689.134; 1134.675;  224.375;    0.000
689.243; 1100.675;  206.375;    0.000
689.352; 1160.675;  275.375;    0.000
689.462; 1076.675;  233.375;    0.000
689.571; 1129.675;  244.375;    0.000
689.680; 1158.675;  261.375;    0.000
689.790; 1083.675;  192.375;    0.000
689.899; 1075.675;  214.375;    0.000
690.008; 1117.675;  255.375;    0.000
690.117; 1103.675;  219.375;    0.000
690.227; 1166.675;  241.375;    0.000
690.336; 1108.675;  231.375;    0.000
690.445; 1042.675;  212.375;    0.000
690.554; 1119.675;  234.375;    0.000
690.663; 1082.675;  210.375;    0.000
690.772; 1084.675;  221.375;    0.000
690.881; 1127.675;  244.375;    0.000
690.990; 1098.675;  247.375;    0.000
691.099; 1102.675;  222.375;    0.000
691.209; 1052.675;  240.375;    0.000
691.318; 1093.675;  223.375;    0.000
691.427; 1094.675;  217.375;    0.000
691.536; 1124.675;  216.375;    0.000
691.644; 1094.675;  194.375;    0.000
691.753; 1133.675;  221.375;    0.000
691.862; 1103.675;  224.375;    0.000
691.971; 1100.675;  191.375;    0.000
692.080; 1115.675;  247.375;    0.000
692.189; 1094.675;  208.375;    0.000
692.298; 1143.675;  203.375;    0.000
692.406; 1130.675;  239.375;    0.000
692.515; 1133.675;  250.375;    0.000
692.624; 1032.675;  226.375;    0.000
692.733; 1120.675;  229.375;    0.000
692.842; 1124.675;  254.375;    0.000
692.950; 1100.675;  242.375;    0.000
693.059; 1039.675;  204.375;    0.000
693.168; 1155.675;  252.375;    0.000
693.276; 1105.675;  195.375;    0.000
693.385; 1053.675;  228.375;    0.000
693.494; 1171.675;  282.375;    0.000
693.602; 1090.675;  221.375;    0.000
693.711; 1046.675;  225.375;    0.000
693.819; 1125.675;  234.375;    0.000
693.928; 1053.675;  229.375;    0.000
694.036; 1058.675;  192.375;    0.000
694.145; 1122.675;  233.375;    0.000
694.253; 1078.675;  277.375;    0.000
694.362; 1095.675;  188.375;    0.000
694.470; 1139.675;  263.375;    0.000
694.579; 1132.675;  253.375;    0.000
694.687; 1134.675;  281.375;    0.000
694.795; 1104.675;  233.375;    0.000
694.904; 1034.675;  223.375;    0.000
695.012; 1150.675;  296.375;    0.000
695.120; 1095.675;  227.375;    0.000
695.229; 1120.675;  269.375;    0.000
695.337; 1093.675;  229.375;    0.000
695.445; 1170.675;  244.375;    0.000
695.553; 1106.675;  259.375;    0.000
695.662; 1092.675;  208.375;    0.000
695.770; 1123.675;  241.375;    0.000
695.878; 1121.675;  239.375;    0.000
695.986; 1098.675;  247.375;    0.000
696.094; 1138.675;  224.375;    0.000
696.202; 1067.675;  205.375;    0.000
696.310; 1078.675;  217.375;    0.000
696.419; 1077.675;  228.375;    0.000
696.527; 1094.675;  246.375;    0.000
696.635; 1122.675;  245.375;    0.000
696.743; 1092.675;  233.375;    0.000
696.851; 1060.675;  251.375;    0.000
696.959; 1119.675;  257.375;    0.000
697.067; 1064.675;  260.375;    0.000
697.174; 1054.675;  223.375;    0.000
697.282; 1019.675;  239.375;    0.000
697.390; 1109.675;  264.375;    0.000
697.498; 1118.675;  227.375;    0.000
697.606; 1087.675;  243.375;    0.000
697.714; 1070.675;  256.375;    0.000
697.822; 1124.675;  278.375;    0.000
697.929; 1023.675;  227.375;    0.000
698.037; 1036.675;  232.375;    0.000
698.145; 1024.675;  256.375;    0.000
698.253; 1090.675;  245.375;    0.000
698.360; 1063.675;  282.375;    0.000
698.468; 1088.675;  244.375;    0.000
698.576; 1147.675;  279.375;    0.000
698.683; 1153.675;  259.375;    0.000
698.791; 1138.675;  265.375;    0.000
698.899; 1060.675;  250.375;    0.000
699.006; 1081.675;  245.375;    0.000
699.114; 1152.675;  280.375;    0.000
699.221; 1075.675;  240.375;    0.000
699.329; 1112.675;  293.375;    0.000
699.436; 1113.675;  216.375;    0.000
699.544; 1079.675;  269.375;    0.000
699.651; 1041.675;  219.375;    0.000
699.759; 1116.675;  245.375;    0.000
699.866; 1081.675;  261.375;    0.000
699.974; 1061.675;  245.375;    0.000
700.081; 1074.675;  257.375;    0.000
700.188; 1059.675;  268.375;    0.000
700.296; 1069.675;  225.375;    0.000
700.403; 1095.675;  257.375;    0.000
700.510; 1061.675;  267.375;    0.000
700.618; 1088.675;  299.375;    0.000
700.725; 1030.675;  223.375;    0.000
700.832; 1069.675;  233.375;    0.000
700.940; 1092.675;  255.375;    0.000
701.047; 1083.675;  244.375;    0.000
701.154; 1055.675;  248.375;    0.000
701.261; 1070.675;  264.375;    0.000
701.368; 1109.675;  299.375;    0.000
701.475; 1047.675;  264.375;    0.000
701.582; 1090.675;  275.375;    0.000
701.690; 1048.675;  261.375;    0.000
701.797; 1152.675;  273.375;    0.000
701.904; 1169.675;  320.375;    0.000
702.011; 1076.675;  299.375;    0.000
702.118; 1120.675;  292.375;    0.000
702.225; 1167.675;  317.375;    0.000
702.332; 1093.675;  307.375;    0.000
702.439; 1127.675;  313.375;    0.000
702.546; 1167.675;  312.375;    0.000
702.652; 1141.675;  297.375;    0.000
702.759; 1168.675;  345.375;    0.000
702.866; 1159.675;  330.375;    0.000
702.973; 1108.675;  303.375;    0.000
703.080; 1124.675;  303.375;    0.000
703.187; 1129.675;  327.375;    0.000
703.294; 1133.675;  325.375;    0.000
703.400; 1064.675;  302.375;    0.000
703.507;  467.675;  344.375;    0.000
703.614;  279.675;  294.375;    0.000
703.720;  299.675;  322.375;    0.000
703.827;  305.675;  329.375;    0.000
703.934;  349.675;  318.375;    0.000
704.040;  340.675;  299.375;    0.000
704.147;  326.675;  352.375;    0.000
704.254;  338.675;  350.375;    0.000
704.360;  285.675;  347.375;    0.000
704.467;  313.675;  336.375;    0.000
704.573;  327.675;  344.375;    0.000
704.680;  320.675;  365.375;    0.000
704.786;  334.675;  332.375;    0.000
704.893;  313.675;  304.375;    0.000
704.999;  325.675;  299.375;    0.000
705.106;  354.675;  365.375;    0.000

