
Integration time [ms]:   1.000
Averaging Nr. [scans]: 1
Smoothing Nr. [pixels]: 0
Data measured with spectrometer [name]: UV2
Wave   ;Sample   ;Dark     ;Reference
[nm]   ;[counts] ;[counts] ;[counts] 

353.533;  206.125;  216.475;    0.000
353.597;  255.125;  244.475;    0.000
353.660;  186.125;  181.475;    0.000
353.723;  193.125;  203.475;    0.000
353.786;  190.125;  180.475;    0.000
353.850;  216.125;  213.475;    0.000
353.913;  190.125;  191.475;    0.000
353.976;  204.125;  195.475;    0.000
354.039;  169.125;  158.475;    0.000
354.102;  230.125;  199.475;    0.000
354.166;  223.125;  185.475;    0.000
354.229;  192.125;  188.475;    0.000
354.292;  177.125;  188.475;    0.000
354.355;  185.125;  226.475;    0.000
354.418;  196.125;  158.475;    0.000
354.481;  222.125;  185.475;    0.000
354.545;  507.125;  191.475;    0.000
354.608;  489.125;  247.475;    0.000
354.671;  457.125;  176.475;    0.000
354.734;  473.125;  198.475;    0.000
354.797;  470.125;  195.475;    0.000
354.860;  510.125;  212.475;    0.000
354.923;  525.125;  184.475;    0.000
354.986;  519.125;  169.475;    0.000
355.050;  477.125;  206.475;    0.000
355.113;  514.125;  210.475;    0.000
355.176;  568.125;  217.475;    0.000
355.239;  535.125;  201.475;    0.000
355.302;  530.125;  193.475;    0.000
355.365;  591.125;  234.475;    0.000
355.428;  580.125;  182.475;    0.000
355.491;  569.125;  233.475;    0.000
355.554;  582.125;  167.475;    0.000
355.617;  600.125;  195.475;    0.000
355.680;  590.125;  198.475;    0.000
355.743;  559.125;  186.475;    0.000
355.806;  573.125;  171.475;    0.000
355.869;  602.125;  244.475;    0.000
355.932;  579.125;  164.475;    0.000
355.995;  612.125;  220.475;    0.000
356.058;  654.125;  172.475;    0.000
356.121;  683.125;  228.475;    0.000
356.184;  626.125;  225.475;    0.000
356.247;  614.125;  161.475;    0.000
356.310;  665.125;  195.475;    0.000
356.373;  672.125;  191.475;    0.000
356.436;  582.125;  147.475;    0.000
356.498;  634.125;  183.475;    0.000
356.561;  606.125;  137.475;    0.000
356.624;  631.125;  186.475;    0.000
356.687;  609.125;  158.475;    0.000
356.750;  602.125;  194.475;    0.000
356.813;  606.125;  186.475;    0.000
356.876;  674.125;  161.475;    0.000
356.939;  664.125;  188.475;    0.000
357.001;  621.125;  200.475;    0.000
357.064;  634.125;  182.475;    0.000
357.127;  596.125;  168.475;    0.000
357.190;  616.125;  157.475;    0.000
357.253;  653.125;  199.475;    0.000
357.316;  649.125;  187.475;    0.000
357.378;  628.125;  174.475;    0.000
357.441;  669.125;  165.475;    0.000
357.504;  629.125;  189.475;    0.000
357.567;  619.125;  116.475;    0.000
357.629;  681.125;  176.475;    0.000
357.692;  591.125;  134.475;    0.000
357.755;  639.125;  175.475;    0.000
357.818;  589.125;  159.475;    0.000
357.880;  630.125;  185.475;    0.000
357.943;  607.125;  159.475;    0.000
358.006;  644.125;  176.475;    0.000
358.069;  658.125;  156.475;    0.000
358.131;  637.125;  170.475;    0.000
358.194;  648.125;  125.475;    0.000
358.257;  602.125;  186.475;    0.000
358.319;  631.125;  139.475;    0.000
358.382;  674.125;  175.475;    0.000
358.445;  665.125;  170.475;    0.000
358.507;  661.125;  129.475;    0.000
358.570;  632.125;  168.475;    0.000
358.633;  630.125;  152.475;    0.000
358.695;  656.125;  194.475;    0.000
358.758;  637.125;  154.475;    0.000
358.821;  637.125;  147.475;    0.000
358.883;  673.125;  163.475;    0.000
358.946;  646.125;  155.475;    0.000
359.008;  705.125;  208.475;    0.000
359.071;  651.125;  182.475;    0.000
359.134;  669.125;  126.475;    0.000
359.196;  701.125;  142.475;    0.000
359.259;  664.125;  138.475;    0.000
359.321;  713.125;  153.475;    0.000
359.384;  660.125;  186.475;    0.000
359.446;  661.125;  152.475;    0.000
359.509;  639.125;  144.475;    0.000
359.571;  681.125;  164.475;    0.000
359.634;  661.125;  171.475;    0.000
359.696;  675.125;  144.475;    0.000
359.759;  659.125;  171.475;    0.000
359.821;  698.125;  161.475;    0.000
359.884;  683.125;  159.475;    0.000
359.946;  655.125;  186.475;    0.000
360.009;  734.125;  171.475;    0.000
360.071;  688.125;  166.475;    0.000
360.134;  716.125;  215.475;    0.000
360.196;  682.125;  138.475;    0.000
360.259;  696.125;  196.475;    0.000
360.321;  678.125;  148.475;    0.000
360.384;  697.125;  150.475;    0.000
360.446;  647.125;  148.475;    0.000
360.508;  678.125;  172.475;    0.000
360.571;  741.125;  155.475;    0.000
360.633;  706.125;  153.475;    0.000
360.696;  681.125;  142.475;    0.000
360.758;  684.125;  165.475;    0.000
360.820;  692.125;  155.475;    0.000
360.883;  687.125;  156.475;    0.000
360.945;  712.125;  171.475;    0.000
361.007;  753.125;  138.475;    0.000
361.070;  685.125;  129.475;    0.000
361.132;  699.125;  166.475;    0.000
361.194;  702.125;  143.475;    0.000
361.257;  705.125;  154.475;    0.000
361.319;  757.125;  176.475;    0.000
361.381;  705.125;  143.475;    0.000
361.443;  670.125;  136.475;    0.000
361.506;  698.125;  160.475;    0.000
361.568;  721.125;  140.475;    0.000
361.630;  833.125;  159.475;    0.000
361.693;  759.125;  162.475;    0.000
361.755;  746.125;  185.475;    0.000
361.817;  770.125;  209.475;    0.000
361.879;  781.125;  161.475;    0.000
361.941;  757.125;  152.475;    0.000
362.004;  732.125;  132.475;    0.000
362.066;  714.125;  159.475;    0.000
362.128;  760.125;  143.475;    0.000
362.190;  755.125;  131.475;    0.000
362.252;  735.125;  131.475;    0.000
362.315;  717.125;  175.475;    0.000
362.377;  756.125;  140.475;    0.000
362.439;  751.125;  140.475;    0.000
362.501;  786.125;  140.475;    0.000
362.563;  742.125;  152.475;    0.000
362.625;  737.125;  174.475;    0.000
362.688;  783.125;  195.475;    0.000
362.750;  810.125;  221.475;    0.000
362.812;  786.125;  171.475;    0.000
362.874;  766.125;  117.475;    0.000
362.936;  773.125;  162.475;    0.000
362.998;  766.125;  142.475;    0.000
363.060;  748.125;  143.475;    0.000
363.122;  762.125;  148.475;    0.000
363.184;  814.125;  179.475;    0.000
363.246;  779.125;  186.475;    0.000
363.308;  726.125;  180.475;    0.000
363.370;  755.125;  200.475;    0.000
363.432;  754.125;  139.475;    0.000
363.494;  760.125;  138.475;    0.000
363.556;  762.125;  114.475;    0.000
363.618;  760.125;  153.475;    0.000
363.680;  772.125;  153.475;    0.000
363.742;  810.125;  178.475;    0.000
363.804;  773.125;  214.475;    0.000
363.866;  810.125;  170.475;    0.000
363.928;  763.125;  145.475;    0.000
363.990;  811.125;  215.475;    0.000
364.052;  776.125;  166.475;    0.000
364.114;  761.125;  168.475;    0.000
364.176;  822.125;  176.475;    0.000
364.238;  792.125;  203.475;    0.000
364.300;  810.125;  158.475;    0.000
364.362;  801.125;  152.475;    0.000
364.424;  767.125;  119.475;    0.000
364.486;  798.125;  187.475;    0.000
364.548;  841.125;  180.475;    0.000
364.609;  830.125;  212.475;    0.000
364.671;  813.125;  165.475;    0.000
364.733;  748.125;  190.475;    0.000
364.795;  768.125;  148.475;    0.000
364.857;  807.125;  159.475;    0.000
364.919;  728.125;  159.475;    0.000
364.981;  799.125;  191.475;    0.000
365.042;  817.125;  170.475;    0.000
365.104;  793.125;  145.475;    0.000
365.166;  756.125;  134.475;    0.000
365.228;  783.125;  150.475;    0.000
365.290;  772.125;  158.475;    0.000
365.351;  855.125;  168.475;    0.000
365.413;  807.125;  173.475;    0.000
365.475;  815.125;  172.475;    0.000
365.537;  800.125;  126.475;    0.000
365.598;  837.125;  160.475;    0.000
365.660;  822.125;  127.475;    0.000
365.722;  822.125;  189.475;    0.000
365.784;  798.125;  161.475;    0.000
365.845;  789.125;  152.475;    0.000
365.907;  757.125;  117.475;    0.000
365.969;  840.125;  146.475;    0.000
366.030;  830.125;  171.475;    0.000
366.092;  836.125;  155.475;    0.000
366.154;  795.125;  137.475;    0.000
366.215;  795.125;  147.475;    0.000
366.277;  837.125;  148.475;    0.000
366.339;  778.125;  158.475;    0.000
366.400;  791.125;  140.475;    0.000
366.462;  824.125;  159.475;    0.000
366.524;  806.125;  160.475;    0.000
366.585;  783.125;  157.475;    0.000
366.647;  796.125;  170.475;    0.000
366.708;  786.125;  123.475;    0.000
366.770;  873.125;  194.475;    0.000
366.832;  850.125;  191.475;    0.000
366.893;  854.125;  155.475;    0.000
366.955;  779.125;  132.475;    0.000
367.016;  836.125;  126.475;    0.000
367.078;  807.125;  202.475;    0.000
367.139;  782.125;  116.475;    0.000
367.201;  786.125;  134.475;    0.000
367.262;  774.125;  157.475;    0.000
367.324;  807.125;  202.475;    0.000
367.385;  802.125;  118.475;    0.000
367.447;  808.125;  155.475;    0.000
367.508;  750.125;  134.475;    0.000
367.570;  792.125;  165.475;    0.000
367.631;  796.125;  118.475;    0.000
367.693;  848.125;  170.475;    0.000
367.754;  849.125;  154.475;    0.000
367.816;  836.125;  146.475;    0.000
367.877;  845.125;  175.475;    0.000
367.939;  849.125;  200.475;    0.000
368.000;  857.125;  168.475;    0.000
368.062;  821.125;  138.475;    0.000
368.123;  855.125;  170.475;    0.000
368.184;  791.125;  188.475;    0.000
368.246;  889.125;  145.475;    0.000
368.307;  799.125;  163.475;    0.000
368.369;  795.125;  144.475;    0.000
368.430;  840.125;  140.475;    0.000
368.491;  856.125;  133.475;    0.000
368.553;  823.125;  145.475;    0.000
368.614;  828.125;  158.475;    0.000
368.675;  764.125;  147.475;    0.000
368.737;  881.125;  157.475;    0.000
368.798;  843.125;  163.475;    0.000
368.859;  820.125;  173.475;    0.000
368.921;  871.125;  122.475;    0.000
368.982;  845.125;  184.475;    0.000
369.043;  835.125;  169.475;    0.000
369.104;  840.125;  142.475;    0.000
369.166;  869.125;  169.475;    0.000
369.227;  784.125;  156.475;    0.000
369.288;  805.125;  151.475;    0.000
369.349;  908.125;  191.475;    0.000
369.411;  829.125;  168.475;    0.000
369.472;  863.125;  155.475;    0.000
369.533;  883.125;  149.475;    0.000
369.594;  805.125;  174.475;    0.000
369.656;  865.125;  188.475;    0.000
369.717;  809.125;  113.475;    0.000
369.778;  864.125;  184.475;    0.000
369.839;  806.125;  151.475;    0.000
369.900;  889.125;  180.475;    0.000
369.961;  845.125;  171.475;    0.000
370.023;  905.125;  143.475;    0.000
370.084;  819.125;  137.475;    0.000
370.145;  854.125;  152.475;    0.000
370.206;  893.125;  151.475;    0.000
370.267;  855.125;  134.475;    0.000
370.328;  835.125;  178.475;    0.000
370.389;  826.125;  181.475;    0.000
370.451;  870.125;  169.475;    0.000
370.512;  917.125;  172.475;    0.000
370.573;  830.125;  148.475;    0.000
370.634;  900.125;  156.475;    0.000
370.695;  860.125;  151.475;    0.000
370.756;  860.125;  185.475;    0.000
370.817;  855.125;  185.475;    0.000
370.878;  882.125;  191.475;    0.000
370.939;  845.125;  147.475;    0.000
371.000;  887.125;  162.475;    0.000
371.061;  887.125;  145.475;    0.000
371.122;  856.125;  179.475;    0.000
371.183;  878.125;  114.475;    0.000
371.244;  873.125;  180.475;    0.000
371.305;  860.125;  138.475;    0.000
371.366;  878.125;  157.475;    0.000
371.427;  871.125;  148.475;    0.000
371.488;  886.125;  138.475;    0.000
371.549;  857.125;  193.475;    0.000
371.610;  853.125;  158.475;    0.000
371.671;  820.125;  119.475;    0.000
371.732;  874.125;  159.475;    0.000
371.793;  872.125;  178.475;    0.000
371.853;  863.125;  155.475;    0.000
371.914;  889.125;  148.475;    0.000
371.975;  843.125;  124.475;    0.000
372.036;  828.125;  158.475;    0.000
372.097;  859.125;  136.475;    0.000
372.158;  926.125;  116.475;    0.000
372.219;  919.125;  157.475;    0.000
372.280;  904.125;  151.475;    0.000
372.340;  889.125;  190.475;    0.000
372.401;  868.125;  151.475;    0.000
372.462;  876.125;  129.475;    0.000
372.523;  852.125;  121.475;    0.000
372.584;  879.125;  152.475;    0.000
372.645;  921.125;  132.475;    0.000
372.705;  869.125;  190.475;    0.000
372.766;  915.125;  153.475;    0.000
372.827;  923.125;  133.475;    0.000
372.888;  878.125;  161.475;    0.000
372.948;  871.125;  159.475;    0.000
373.009;  903.125;  164.475;    0.000
373.070;  866.125;  139.475;    0.000
373.131;  868.125;  137.475;    0.000
373.191;  942.125;  181.475;    0.000
373.252;  850.125;  154.475;    0.000
373.313;  922.125;  179.475;    0.000
373.373;  890.125;  136.475;    0.000
373.434;  923.125;  169.475;    0.000
373.495;  940.125;   97.475;    0.000
373.555;  914.125;  142.475;    0.000
373.616;  910.125;  178.475;    0.000
373.677;  922.125;  167.475;    0.000
373.737;  886.125;  139.475;    0.000
373.798;  869.125;  155.475;    0.000
373.859;  888.125;  162.475;    0.000
373.919;  918.125;  174.475;    0.000
373.980;  940.125;  172.475;    0.000
374.041;  900.125;  166.475;    0.000
374.101;  933.125;  172.475;    0.000
374.162;  863.125;  188.475;    0.000
374.222;  958.125;  186.475;    0.000
374.283;  865.125;  195.475;    0.000
374.343;  937.125;  204.475;    0.000
374.404;  909.125;  187.475;    0.000
374.465;  906.125;  183.475;    0.000
374.525;  912.125;  136.475;    0.000
374.586;  949.125;  140.475;    0.000
374.646;  959.125;  191.475;    0.000
374.707;  993.125;  208.475;    0.000
374.767;  892.125;  178.475;    0.000
374.828;  963.125;  159.475;    0.000
374.888;  969.125;  143.475;    0.000
374.949;  956.125;  202.475;    0.000
375.009;  891.125;  151.475;    0.000
375.070;  933.125;  160.475;    0.000
375.130;  934.125;  160.475;    0.000
375.190;  939.125;  164.475;    0.000
375.251;  977.125;  196.475;    0.000
375.311;  908.125;  154.475;    0.000
375.372;  981.125;  197.475;    0.000
375.432;  938.125;  159.475;    0.000
375.493;  930.125;  197.475;    0.000
375.553;  915.125;  165.475;    0.000
375.613;  973.125;  174.475;    0.000
375.674;  927.125;  165.475;    0.000
375.734;  910.125;  128.475;    0.000
375.794;  906.125;  169.475;    0.000
375.855;  984.125;  193.475;    0.000
375.915; 1001.125;  162.475;    0.000
375.975;  948.125;  181.475;    0.000
376.036;  952.125;  161.475;    0.000
376.096;  980.125;  131.475;    0.000
376.156;  941.125;  165.475;    0.000
376.217;  913.125;  182.475;    0.000
376.277; 1009.125;  185.475;    0.000
376.337;  957.125;  177.475;    0.000
376.398;  913.125;  162.475;    0.000
376.458;  963.125;  179.475;    0.000
376.518;  965.125;  150.475;    0.000
376.578;  953.125;  165.475;    0.000
376.639;  939.125;  159.475;    0.000
376.699;  955.125;  180.475;    0.000
376.759;  966.125;  206.475;    0.000
376.819;  971.125;  146.475;    0.000
376.880;  991.125;  177.475;    0.000
376.940; 1014.125;  160.475;    0.000
377.000;  908.125;  149.475;    0.000
377.060; 1024.125;  180.475;    0.000
377.120;  994.125;  146.475;    0.000
377.180;  950.125;  137.475;    0.000
377.241;  934.125;  163.475;    0.000
377.301;  971.125;  169.475;    0.000
377.361; 1021.125;  137.475;    0.000
377.421; 1020.125;  184.475;    0.000
377.481;  944.125;  185.475;    0.000
377.541; 1000.125;  146.475;    0.000
377.601;  992.125;  179.475;    0.000
377.661; 1045.125;  181.475;    0.000
377.722;  961.125;  185.475;    0.000
377.782; 1035.125;  147.475;    0.000
377.842; 1009.125;  190.475;    0.000
377.902; 1009.125;  166.475;    0.000
377.962;  965.125;  153.475;    0.000
378.022; 1011.125;  163.475;    0.000
378.082; 1050.125;  146.475;    0.000
378.142; 1065.125;  152.475;    0.000
378.202; 1045.125;  164.475;    0.000
378.262; 1065.125;  195.475;    0.000
378.322; 1010.125;  190.475;    0.000
378.382; 1050.125;  152.475;    0.000
378.442; 1125.125;  175.475;    0.000
378.502;  991.125;  153.475;    0.000
378.562;  987.125;  142.475;    0.000
378.622; 1008.125;  166.475;    0.000
378.682; 1046.125;  173.475;    0.000
378.742; 1015.125;  182.475;    0.000
378.802;  998.125;  145.475;    0.000
378.862; 1060.125;  210.475;    0.000
378.921; 1041.125;  182.475;    0.000
378.981; 1084.125;  185.475;    0.000
379.041; 1120.125;  130.475;    0.000
379.101; 1094.125;  177.475;    0.000
379.161; 1057.125;  166.475;    0.000
379.221; 1049.125;  162.475;    0.000
379.281; 1099.125;  167.475;    0.000
379.341; 1091.125;  136.475;    0.000
379.401; 1050.125;  145.475;    0.000
379.460; 1113.125;  176.475;    0.000
379.520; 1115.125;  162.475;    0.000
379.580; 1110.125;  144.475;    0.000
379.640;  990.125;  163.475;    0.000
379.700; 1134.125;  157.475;    0.000
379.759; 1169.125;  165.475;    0.000
379.819; 1104.125;  190.475;    0.000
379.879; 1104.125;  143.475;    0.000
379.939; 1156.125;  188.475;    0.000
379.999; 1124.125;  141.475;    0.000
380.058; 1153.125;  169.475;    0.000
380.118; 1131.125;  158.475;    0.000
380.178; 1179.125;  114.475;    0.000
380.237; 1167.125;  157.475;    0.000
380.297; 1171.125;  177.475;    0.000
380.357; 1193.125;  189.475;    0.000
380.417; 1190.125;  182.475;    0.000
380.476; 1164.125;  178.475;    0.000
380.536; 1136.125;  189.475;    0.000
380.596; 1180.125;  183.475;    0.000
380.655; 1155.125;  195.475;    0.000
380.715; 1090.125;  170.475;    0.000
380.775; 1251.125;  170.475;    0.000
380.834; 1221.125;  179.475;    0.000
380.894; 1205.125;  188.475;    0.000
380.954; 1150.125;  142.475;    0.000
381.013; 1240.125;  178.475;    0.000
381.073; 1170.125;  164.475;    0.000
381.132; 1207.125;  192.475;    0.000
381.192; 1159.125;  187.475;    0.000
381.252; 1280.125;  176.475;    0.000
381.311; 1241.125;  206.475;    0.000
381.371; 1208.125;  167.475;    0.000
381.430; 1246.125;  131.475;    0.000
381.490; 1174.125;  150.475;    0.000
381.549; 1207.125;  129.475;    0.000
381.609; 1241.125;  178.475;    0.000
381.668; 1227.125;  194.475;    0.000
381.728; 1264.125;  210.475;    0.000
381.787; 1266.125;  190.475;    0.000
381.847; 1316.125;  181.475;    0.000
381.906; 1275.125;  156.475;    0.000
381.966; 1282.125;  176.475;    0.000
382.025; 1363.125;  186.475;    0.000
382.085; 1322.125;  192.475;    0.000
382.144; 1411.125;  173.475;    0.000
382.204; 1394.125;  207.475;    0.000
382.263; 1344.125;  193.475;    0.000
382.323; 1380.125;  164.475;    0.000
382.382; 1430.125;  161.475;    0.000
382.441; 1420.125;  199.475;    0.000
382.501; 1462.125;  208.475;    0.000
382.560; 1495.125;  173.475;    0.000
382.619; 1519.125;  179.475;    0.000
382.679; 1574.125;  177.475;    0.000
382.738; 1715.125;  190.475;    0.000
382.798; 1790.125;  213.475;    0.000
382.857; 1898.125;  195.475;    0.000
382.916; 2062.125;  184.475;    0.000
382.976; 2156.125;  169.475;    0.000
383.035; 1978.125;  194.475;    0.000
383.094; 1994.125;  185.475;    0.000
383.154; 2346.125;  198.475;    0.000
383.213; 2646.125;  147.475;    0.000
383.272; 2541.125;  175.475;    0.000
383.331; 2110.125;  122.475;    0.000
383.391; 1928.125;  185.475;    0.000
383.450; 1904.125;  160.475;    0.000
383.509; 1916.125;  168.475;    0.000
383.568; 1991.125;  196.475;    0.000
383.628; 2114.125;  156.475;    0.000
383.687; 2213.125;  171.475;    0.000
383.746; 2481.125;  155.475;    0.000
383.805; 2923.125;  201.475;    0.000
383.864; 2844.125;  125.475;    0.000
383.924; 2318.125;  213.475;    0.000
383.983; 1957.125;  188.475;    0.000
384.042; 1777.125;  162.475;    0.000
384.101; 1696.125;  183.475;    0.000
384.160; 1685.125;  155.475;    0.000
384.219; 1600.125;  155.475;    0.000
384.279; 1535.125;  189.475;    0.000
384.338; 1481.125;  156.475;    0.000
384.397; 1473.125;  148.475;    0.000
384.456; 1407.125;  154.475;    0.000
384.515; 1449.125;  160.475;    0.000
384.574; 1434.125;  223.475;    0.000
384.633; 1445.125;  133.475;    0.000
384.692; 1359.125;  163.475;    0.000
384.751; 1380.125;  186.475;    0.000
384.810; 1327.125;  187.475;    0.000
384.869; 1322.125;  172.475;    0.000
384.929; 1347.125;  153.475;    0.000
384.988; 1364.125;  174.475;    0.000
385.047; 1379.125;  154.475;    0.000
385.106; 1408.125;  164.475;    0.000
385.165; 1288.125;  151.475;    0.000
385.224; 1322.125;  147.475;    0.000
385.283; 1315.125;  176.475;    0.000
385.342; 1292.125;  142.475;    0.000
385.401; 1371.125;  175.475;    0.000
385.459; 1325.125;  150.475;    0.000
385.518; 1356.125;  124.475;    0.000
385.577; 1330.125;  115.475;    0.000
385.636; 1349.125;  174.475;    0.000
385.695; 1344.125;  158.475;    0.000
385.754; 1369.125;  150.475;    0.000
385.813; 1317.125;  129.475;    0.000
385.872; 1262.125;  146.475;    0.000
385.931; 1339.125;  194.475;    0.000
385.990; 1287.125;  174.475;    0.000
386.049; 1311.125;  176.475;    0.000
386.107; 1259.125;  151.475;    0.000
386.166; 1348.125;  178.475;    0.000
386.225; 1258.125;  162.475;    0.000
386.284; 1302.125;  180.475;    0.000
386.343; 1384.125;  171.475;    0.000
386.402; 1302.125;  176.475;    0.000
386.460; 1333.125;  144.475;    0.000
386.519; 1260.125;  140.475;    0.000
386.578; 1374.125;  145.475;    0.000
386.637; 1281.125;  164.475;    0.000
386.696; 1324.125;  189.475;    0.000
386.754; 1331.125;  135.475;    0.000
386.813; 1329.125;  139.475;    0.000
386.872; 1252.125;  121.475;    0.000
386.931; 1377.125;  153.475;    0.000
386.989; 1313.125;  211.475;    0.000
387.048; 1278.125;  156.475;    0.000
387.107; 1289.125;  210.475;    0.000
387.165; 1243.125;  129.475;    0.000
387.224; 1299.125;  205.475;    0.000
387.283; 1319.125;  130.475;    0.000
387.342; 1276.125;  171.475;    0.000
387.400; 1313.125;  156.475;    0.000
387.459; 1326.125;  141.475;    0.000
387.517; 1304.125;  219.475;    0.000
387.576; 1284.125;  166.475;    0.000
387.635; 1281.125;  136.475;    0.000
387.693; 1373.125;  191.475;    0.000
387.752; 1282.125;  165.475;    0.000
387.811; 1297.125;  158.475;    0.000
387.869; 1189.125;  204.475;    0.000
387.928; 1309.125;  149.475;    0.000
387.986; 1237.125;  156.475;    0.000
388.045; 1212.125;  123.475;    0.000
388.103; 1217.125;  150.475;    0.000
388.162; 1273.125;  173.475;    0.000
388.221; 1235.125;  143.475;    0.000
388.279; 1301.125;  129.475;    0.000
388.338; 1331.125;  212.475;    0.000
388.396; 1221.125;  150.475;    0.000
388.455; 1339.125;  167.475;    0.000
388.513; 1292.125;  116.475;    0.000
388.572; 1295.125;  181.475;    0.000
388.630; 1258.125;  187.475;    0.000
388.689; 1243.125;  180.475;    0.000
388.747; 1340.125;  154.475;    0.000
388.806; 1269.125;  161.475;    0.000
388.864; 1336.125;  167.475;    0.000
388.922; 1306.125;  184.475;    0.000
388.981; 1212.125;  169.475;    0.000
389.039; 1271.125;  102.475;    0.000
389.098; 1261.125;  183.475;    0.000
389.156; 1245.125;  182.475;    0.000
389.214; 1262.125;  173.475;    0.000
389.273; 1301.125;  167.475;    0.000
389.331; 1288.125;  170.475;    0.000
389.390; 1245.125;  150.475;    0.000
389.448; 1229.125;  156.475;    0.000
389.506; 1254.125;  149.475;    0.000
389.565; 1281.125;  162.475;    0.000
389.623; 1323.125;  188.475;    0.000
389.681; 1271.125;  204.475;    0.000
389.740; 1327.125;  187.475;    0.000
389.798; 1194.125;  153.475;    0.000
389.856; 1335.125;  214.475;    0.000
389.914; 1236.125;  177.475;    0.000
389.973; 1250.125;  189.475;    0.000
390.031; 1234.125;  178.475;    0.000
390.089; 1262.125;  163.475;    0.000
390.147; 1274.125;  170.475;    0.000
390.206; 1267.125;  183.475;    0.000
390.264; 1252.125;  161.475;    0.000
390.322; 1250.125;  148.475;    0.000
390.380; 1278.125;  138.475;    0.000
390.439; 1300.125;  194.475;    0.000
390.497; 1288.125;  170.475;    0.000
390.555; 1217.125;  165.475;    0.000
390.613; 1304.125;  177.475;    0.000
390.671; 1326.125;  170.475;    0.000
390.729; 1225.125;  158.475;    0.000
390.788; 1283.125;  162.475;    0.000
390.846; 1273.125;  161.475;    0.000
390.904; 1307.125;  197.475;    0.000
390.962; 1228.125;  212.475;    0.000
391.020; 1291.125;  224.475;    0.000
391.078; 1284.125;  184.475;    0.000
391.136; 1213.125;  191.475;    0.000
391.194; 1286.125;  187.475;    0.000
391.253; 1229.125;  197.475;    0.000
391.311; 1240.125;  185.475;    0.000
391.369; 1287.125;  207.475;    0.000
391.427; 1353.125;  222.475;    0.000
391.485; 1252.125;  184.475;    0.000
391.543; 1307.125;  203.475;    0.000
391.601; 1285.125;  151.475;    0.000
391.659; 1324.125;  176.475;    0.000
391.717; 1301.125;  190.475;    0.000
391.775; 1279.125;  159.475;    0.000
391.833; 1318.125;  186.475;    0.000
391.891; 1261.125;  154.475;    0.000
391.949; 1307.125;  181.475;    0.000
392.007; 1365.125;  190.475;    0.000
392.065; 1250.125;  182.475;    0.000
392.123; 1230.125;  158.475;    0.000
392.180; 1299.125;  198.475;    0.000
392.238; 1298.125;  191.475;    0.000
392.296; 1311.125;  164.475;    0.000
392.354; 1290.125;  172.475;    0.000
392.412; 1384.125;  194.475;    0.000
392.470; 1204.125;  154.475;    0.000
392.528; 1336.125;  172.475;    0.000
392.586; 1260.125;  179.475;    0.000
392.644; 1336.125;  173.475;    0.000
392.701; 1325.125;  202.475;    0.000
392.759; 1309.125;  180.475;    0.000
392.817; 1317.125;  181.475;    0.000
392.875; 1253.125;  168.475;    0.000
392.933; 1349.125;  161.475;    0.000
392.991; 1323.125;  216.475;    0.000
393.048; 1363.125;  197.475;    0.000
393.106; 1319.125;  199.475;    0.000
393.164; 1321.125;  173.475;    0.000
393.222; 1273.125;  179.475;    0.000
393.279; 1354.125;  209.475;    0.000
393.337; 1346.125;  185.475;    0.000
393.395; 1320.125;  174.475;    0.000
393.453; 1275.125;  181.475;    0.000
393.510; 1317.125;  188.475;    0.000
393.568; 1308.125;  191.475;    0.000
393.626; 1368.125;  151.475;    0.000
393.684; 1319.125;  208.475;    0.000
393.741; 1286.125;  179.475;    0.000
393.799; 1303.125;  149.475;    0.000
393.857; 1289.125;  136.475;    0.000
393.914; 1329.125;  190.475;    0.000
393.972; 1292.125;  155.475;    0.000
394.030; 1356.125;  170.475;    0.000
394.087; 1388.125;  213.475;    0.000
394.145; 1321.125;  191.475;    0.000
394.202; 1325.125;  188.475;    0.000
394.260; 1327.125;  168.475;    0.000
394.318; 1287.125;  176.475;    0.000
394.375; 1295.125;  159.475;    0.000
394.433; 1399.125;  168.475;    0.000
394.490; 1263.125;  163.475;    0.000
394.548; 1276.125;  163.475;    0.000
394.605; 1294.125;  181.475;    0.000
394.663; 1324.125;  180.475;    0.000
394.720; 1340.125;  193.475;    0.000
394.778; 1370.125;  168.475;    0.000
394.836; 1297.125;  128.475;    0.000
394.893; 1314.125;  151.475;    0.000
394.951; 1347.125;  173.475;    0.000
395.008; 1351.125;  201.475;    0.000
395.065; 1310.125;  139.475;    0.000
395.123; 1351.125;  173.475;    0.000
395.180; 1366.125;  144.475;    0.000
395.238; 1382.125;  135.475;    0.000
395.295; 1360.125;  167.475;    0.000
395.353; 1388.125;  150.475;    0.000
395.410; 1352.125;  165.475;    0.000
395.468; 1388.125;  223.475;    0.000
395.525; 1350.125;  156.475;    0.000
395.582; 1399.125;  178.475;    0.000
395.640; 1395.125;  178.475;    0.000
395.697; 1369.125;  173.475;    0.000
395.754; 1413.125;  154.475;    0.000
395.812; 1346.125;  169.475;    0.000
395.869; 1396.125;  196.475;    0.000
395.927; 1326.125;  190.475;    0.000
395.984; 1337.125;  195.475;    0.000
396.041; 1385.125;  160.475;    0.000
396.098; 1332.125;  161.475;    0.000
396.156; 1411.125;  187.475;    0.000
396.213; 1340.125;  200.475;    0.000
396.270; 1375.125;  160.475;    0.000
396.328; 1361.125;  113.475;    0.000
396.385; 1381.125;  165.475;    0.000
396.442; 1376.125;  168.475;    0.000
396.499; 1437.125;  117.475;    0.000
396.557; 1354.125;  203.475;    0.000
396.614; 1407.125;  155.475;    0.000
396.671; 1375.125;  187.475;    0.000
396.728; 1365.125;  169.475;    0.000
396.785; 1463.125;  167.475;    0.000
396.843; 1378.125;  154.475;    0.000
396.900; 1382.125;  172.475;    0.000
396.957; 1474.125;  176.475;    0.000
397.014; 1475.125;  193.475;    0.000
397.071; 1420.125;  170.475;    0.000
397.128; 1464.125;  172.475;    0.000
397.186; 1506.125;  205.475;    0.000
397.243; 1474.125;  163.475;    0.000
397.300; 1492.125;  193.475;    0.000
397.357; 1487.125;  166.475;    0.000
397.414; 1403.125;  149.475;    0.000
397.471; 1352.125;  157.475;    0.000
397.528; 1434.125;  180.475;    0.000
397.585; 1343.125;  203.475;    0.000
397.642; 1412.125;  156.475;    0.000
397.699; 1394.125;  229.475;    0.000
397.756; 1449.125;  185.475;    0.000
397.814; 1442.125;  191.475;    0.000
397.871; 1494.125;  170.475;    0.000
397.928; 1443.125;  191.475;    0.000
397.985; 1434.125;  183.475;    0.000
398.042; 1513.125;  161.475;    0.000
398.099; 1508.125;  192.475;    0.000
398.156; 1490.125;  176.475;    0.000
398.212; 1448.125;  170.475;    0.000
398.269; 1472.125;  158.475;    0.000
398.326; 1471.125;  175.475;    0.000
398.383; 1539.125;  177.475;    0.000
398.440; 1456.125;  169.475;    0.000
398.497; 1503.125;  184.475;    0.000
398.554; 1573.125;  196.475;    0.000
398.611; 1532.125;  198.475;    0.000
398.668; 1456.125;  135.475;    0.000
398.725; 1453.125;  181.475;    0.000
398.782; 1528.125;  195.475;    0.000
398.839; 1561.125;  179.475;    0.000
398.895; 1557.125;  188.475;    0.000
398.952; 1525.125;  176.475;    0.000
399.009; 1571.125;  183.475;    0.000
399.066; 1543.125;  190.475;    0.000
399.123; 1629.125;  174.475;    0.000
399.180; 1555.125;  191.475;    0.000
399.236; 1589.125;  217.475;    0.000
399.293; 1542.125;  154.475;    0.000
399.350; 1654.125;  210.475;    0.000
399.407; 1629.125;  202.475;    0.000
399.463; 1536.125;  162.475;    0.000
399.520; 1625.125;  207.475;    0.000
399.577; 1644.125;  174.475;    0.000
399.634; 1702.125;  170.475;    0.000
399.690; 1641.125;  186.475;    0.000
399.747; 1661.125;  218.475;    0.000
399.804; 1627.125;  200.475;    0.000
399.861; 1625.125;  190.475;    0.000
399.917; 1638.125;  218.475;    0.000
399.974; 1673.125;  200.475;    0.000
400.031; 1645.125;  200.475;    0.000
400.087; 1568.125;  153.475;    0.000
400.144; 1577.125;  188.475;    0.000
400.201; 1624.125;  198.475;    0.000
400.257; 1603.125;  205.475;    0.000
400.314; 1655.125;  183.475;    0.000
400.370; 1601.125;  227.475;    0.000
400.427; 1589.125;  177.475;    0.000
400.484; 1579.125;  202.475;    0.000
400.540; 1682.125;  173.475;    0.000
400.597; 1604.125;  212.475;    0.000
400.653; 1601.125;  182.475;    0.000
400.710; 1591.125;  201.475;    0.000
400.766; 1622.125;  188.475;    0.000
400.823; 1648.125;  205.475;    0.000
400.879; 1575.125;  165.475;    0.000
400.936; 1625.125;  180.475;    0.000
400.993; 1564.125;  181.475;    0.000
401.049; 1604.125;  147.475;    0.000
401.105; 1621.125;  205.475;    0.000
401.162; 1606.125;  197.475;    0.000
401.218; 1619.125;  177.475;    0.000
401.275; 1553.125;  183.475;    0.000
401.331; 1639.125;  198.475;    0.000
401.388; 1617.125;  209.475;    0.000
401.444; 1580.125;  211.475;    0.000
401.501; 1554.125;  185.475;    0.000
401.557; 1571.125;  190.475;    0.000
401.614; 1548.125;  172.475;    0.000
401.670; 1611.125;  185.475;    0.000
401.726; 1641.125;  196.475;    0.000
401.783; 1542.125;  187.475;    0.000
401.839; 1648.125;  192.475;    0.000
401.895; 1635.125;  173.475;    0.000
401.952; 1556.125;  145.475;    0.000
402.008; 1575.125;  197.475;    0.000
402.064; 1564.125;  146.475;    0.000
402.121; 1625.125;  197.475;    0.000
402.177; 1602.125;  173.475;    0.000
402.233; 1557.125;  185.475;    0.000
402.290; 1606.125;  175.475;    0.000
402.346; 1597.125;  164.475;    0.000
402.402; 1559.125;  173.475;    0.000
402.458; 1642.125;  183.475;    0.000
402.515; 1597.125;  147.475;    0.000
402.571; 1592.125;  210.475;    0.000
402.627; 1551.125;  181.475;    0.000
402.683; 1632.125;  177.475;    0.000
402.740; 1532.125;  162.475;    0.000
402.796; 1587.125;  178.475;    0.000
402.852; 1689.125;  138.475;    0.000
402.908; 1676.125;  181.475;    0.000
402.964; 1615.125;  151.475;    0.000
403.021; 1635.125;  170.475;    0.000
403.077; 1614.125;  204.475;    0.000
403.133; 1643.125;  144.475;    0.000
403.189; 1591.125;  207.475;    0.000
403.245; 1614.125;  184.475;    0.000
403.301; 1658.125;  170.475;    0.000
403.357; 1676.125;  201.475;    0.000
403.414; 1744.125;  205.475;    0.000
403.470; 1604.125;  170.475;    0.000
403.526; 1622.125;  135.475;    0.000
403.582; 1646.125;  180.475;    0.000
403.638; 1711.125;  185.475;    0.000
403.694; 1689.125;  169.475;    0.000
403.750; 1629.125;  210.475;    0.000
403.806; 1694.125;  210.475;    0.000
403.862; 1664.125;  219.475;    0.000
403.918; 1664.125;  191.475;    0.000
403.974; 1585.125;  193.475;    0.000
404.030; 1645.125;  154.475;    0.000
404.086; 1676.125;  170.475;    0.000
404.142; 1649.125;  194.475;    0.000
404.198; 1697.125;  224.475;    0.000
404.254; 1635.125;  177.475;    0.000
404.310; 1711.125;  204.475;    0.000
404.366; 1729.125;  170.475;    0.000
404.422; 1697.125;  172.475;    0.000
404.478; 1665.125;  153.475;    0.000
404.534; 1720.125;  159.475;    0.000
404.590; 1714.125;  203.475;    0.000
404.646; 1647.125;  164.475;    0.000
404.701; 1623.125;  141.475;    0.000
404.757; 1687.125;  195.475;    0.000
404.813; 1687.125;  152.475;    0.000
404.869; 1714.125;  174.475;    0.000
404.925; 1690.125;  167.475;    0.000
404.981; 1750.125;  175.475;    0.000
405.037; 1688.125;  170.475;    0.000
405.092; 1652.125;  155.475;    0.000
405.148; 1640.125;  160.475;    0.000
405.204; 1730.125;  158.475;    0.000
405.260; 1732.125;  128.475;    0.000
405.316; 1737.125;  168.475;    0.000
405.371; 1625.125;  162.475;    0.000
405.427; 1705.125;  187.475;    0.000
405.483; 1770.125;  214.475;    0.000
405.539; 1683.125;  163.475;    0.000
405.594; 1745.125;  191.475;    0.000
405.650; 1703.125;  124.475;    0.000
405.706; 1683.125;  188.475;    0.000
405.761; 1760.125;  204.475;    0.000
405.817; 1710.125;  150.475;    0.000
405.873; 1719.125;  152.475;    0.000
405.928; 1746.125;  135.475;    0.000
405.984; 1676.125;  209.475;    0.000
406.040; 1701.125;  165.475;    0.000
406.095; 1716.125;  146.475;    0.000
406.151; 1796.125;  169.475;    0.000
406.207; 1756.125;  174.475;    0.000
406.262; 1723.125;  189.475;    0.000
406.318; 1771.125;  141.475;    0.000
406.374; 1699.125;  178.475;    0.000
406.429; 1771.125;  197.475;    0.000
406.485; 1837.125;  194.475;    0.000
406.540; 1816.125;  149.475;    0.000
406.596; 1790.125;  173.475;    0.000
406.651; 1832.125;  154.475;    0.000
406.707; 1782.125;  183.475;    0.000
406.763; 1787.125;  156.475;    0.000
406.818; 1821.125;  181.475;    0.000
406.874; 1744.125;  135.475;    0.000
406.929; 1909.125;  194.475;    0.000
406.985; 1864.125;  166.475;    0.000
407.040; 1880.125;  207.475;    0.000
407.095; 1905.125;  213.475;    0.000
407.151; 1895.125;  198.475;    0.000
407.206; 1867.125;  186.475;    0.000
407.262; 1899.125;  148.475;    0.000
407.317; 1879.125;  212.475;    0.000
407.373; 1869.125;  209.475;    0.000
407.428; 1932.125;  218.475;    0.000
407.484; 1926.125;  158.475;    0.000
407.539; 1870.125;  165.475;    0.000
407.594; 1878.125;  197.475;    0.000
407.650; 1861.125;  177.475;    0.000
407.705; 1827.125;  154.475;    0.000
407.760; 1854.125;  198.475;    0.000
407.816; 1856.125;  181.475;    0.000
407.871; 1920.125;  185.475;    0.000
407.926; 1955.125;  167.475;    0.000
407.982; 1872.125;  172.475;    0.000
408.037; 1888.125;  202.475;    0.000
408.092; 1819.125;  201.475;    0.000
408.148; 1891.125;  199.475;    0.000
408.203; 1888.125;  174.475;    0.000
408.258; 1913.125;  157.475;    0.000
408.314; 1861.125;  194.475;    0.000
408.369; 1938.125;  189.475;    0.000
408.424; 1974.125;  204.475;    0.000
408.479; 1915.125;  192.475;    0.000
408.534; 1845.125;  215.475;    0.000
408.590; 1879.125;  190.475;    0.000
408.645; 1818.125;  159.475;    0.000
408.700; 1916.125;  191.475;    0.000
408.755; 1850.125;  217.475;    0.000
408.810; 1863.125;  158.475;    0.000
408.866; 1862.125;  166.475;    0.000
408.921; 1908.125;  214.475;    0.000
408.976; 1853.125;  158.475;    0.000
409.031; 1880.125;  185.475;    0.000
409.086; 1894.125;  158.475;    0.000
409.141; 1884.125;  180.475;    0.000
409.196; 1901.125;  188.475;    0.000
409.252; 1857.125;  186.475;    0.000
409.307; 1833.125;  135.475;    0.000
409.362; 1890.125;  162.475;    0.000
409.417; 1833.125;  149.475;    0.000
409.472; 1875.125;  205.475;    0.000
409.527; 1947.125;  184.475;    0.000
409.582; 1951.125;  174.475;    0.000
409.637; 1930.125;  188.475;    0.000
409.692; 1947.125;  211.475;    0.000
409.747; 1882.125;  159.475;    0.000
409.802; 1896.125;  199.475;    0.000
409.857; 1804.125;  118.475;    0.000
409.912; 1856.125;  177.475;    0.000
409.967; 1908.125;  182.475;    0.000
410.022; 1824.125;  188.475;    0.000
410.077; 1815.125;  204.475;    0.000
410.132; 1867.125;  174.475;    0.000
410.187; 1839.125;  169.475;    0.000
410.242; 1843.125;  178.475;    0.000
410.297; 1839.125;  185.475;    0.000
410.351; 1912.125;  203.475;    0.000
410.406; 1864.125;  180.475;    0.000
410.461; 1846.125;  213.475;    0.000
410.516; 1896.125;  198.475;    0.000
410.571; 1922.125;  171.475;    0.000
410.626; 1905.125;  186.475;    0.000
410.681; 1891.125;  187.475;    0.000
410.736; 1852.125;  147.475;    0.000
410.790; 1843.125;  186.475;    0.000
410.845; 1940.125;  152.475;    0.000
410.900; 1821.125;  202.475;    0.000
410.955; 1852.125;  196.475;    0.000
411.010; 1859.125;  150.475;    0.000
411.064; 1890.125;  200.475;    0.000
411.119; 1939.125;  203.475;    0.000
411.174; 1921.125;  176.475;    0.000
411.229; 1945.125;  203.475;    0.000
411.283; 1954.125;  176.475;    0.000
411.338; 1858.125;  153.475;    0.000
411.393; 1934.125;  168.475;    0.000
411.447; 1929.125;  223.475;    0.000
411.502; 1965.125;  238.475;    0.000
411.557; 1930.125;  179.475;    0.000
411.612; 1930.125;  159.475;    0.000
411.666; 1868.125;  189.475;    0.000
411.721; 1881.125;  212.475;    0.000
411.776; 1995.125;  242.475;    0.000
411.830; 1898.125;  194.475;    0.000
411.885; 1906.125;  188.475;    0.000
411.939; 1971.125;  245.475;    0.000
411.994; 1931.125;  177.475;    0.000
412.049; 1918.125;  170.475;    0.000
412.103; 1948.125;  196.475;    0.000
412.158; 1954.125;  215.475;    0.000
412.212; 1906.125;  199.475;    0.000
412.267; 1890.125;  191.475;    0.000
412.322; 1954.125;  238.475;    0.000
412.376; 1927.125;  243.475;    0.000
412.431; 1970.125;  214.475;    0.000
412.485; 1908.125;  210.475;    0.000
412.540; 1890.125;  200.475;    0.000
412.594; 1950.125;  174.475;    0.000
412.649; 1974.125;  246.475;    0.000
412.703; 2006.125;  182.475;    0.000
412.758; 1953.125;  222.475;    0.000
412.812; 1858.125;  201.475;    0.000
412.866; 1836.125;  162.475;    0.000
412.921; 1810.125;  202.475;    0.000
412.975; 1932.125;  212.475;    0.000
413.030; 1883.125;  238.475;    0.000
413.084; 1834.125;  201.475;    0.000
413.139; 1933.125;  210.475;    0.000
413.193; 1868.125;  218.475;    0.000
413.247; 1925.125;  203.475;    0.000
413.302; 1878.125;  176.475;    0.000
413.356; 1960.125;  215.475;    0.000
413.410; 1925.125;  204.475;    0.000
413.465; 1967.125;  186.475;    0.000
413.519; 1853.125;  196.475;    0.000
413.573; 1884.125;  181.475;    0.000
413.628; 1905.125;  200.475;    0.000
413.682; 1859.125;  157.475;    0.000
413.736; 1976.125;  194.475;    0.000
413.791; 1917.125;  193.475;    0.000
413.845; 1899.125;  225.475;    0.000
413.899; 1929.125;  195.475;    0.000
413.953; 1882.125;  173.475;    0.000
414.008; 1841.125;  186.475;    0.000
414.062; 1863.125;  217.475;    0.000
414.116; 1858.125;  169.475;    0.000
414.170; 1971.125;  228.475;    0.000
414.225; 1842.125;  177.475;    0.000
414.279; 1849.125;  210.475;    0.000
414.333; 1968.125;  207.475;    0.000
414.387; 1934.125;  217.475;    0.000
414.441; 1838.125;  187.475;    0.000
414.496; 2006.125;  215.475;    0.000
414.550; 1913.125;  204.475;    0.000
414.604; 1873.125;  206.475;    0.000
414.658; 1868.125;  139.475;    0.000
414.712; 1868.125;  198.475;    0.000
414.766; 1984.125;  208.475;    0.000
414.820; 1979.125;  199.475;    0.000
414.874; 1927.125;  216.475;    0.000
414.928; 1921.125;  186.475;    0.000
414.982; 1905.125;  176.475;    0.000
415.037; 1961.125;  181.475;    0.000
415.091; 1920.125;  208.475;    0.000
415.145; 1906.125;  209.475;    0.000
415.199; 1935.125;  186.475;    0.000
415.253; 1967.125;  203.475;    0.000
415.307; 1885.125;  197.475;    0.000
415.361; 1987.125;  223.475;    0.000
415.415; 1896.125;  213.475;    0.000
415.469; 1874.125;  226.475;    0.000
415.523; 1974.125;  222.475;    0.000
415.577; 1801.125;  205.475;    0.000
415.631; 1958.125;  224.475;    0.000
415.684; 1903.125;  193.475;    0.000
415.738; 1906.125;  224.475;    0.000
415.792; 1866.125;  204.475;    0.000
415.846; 1903.125;  189.475;    0.000
415.900; 1824.125;  223.475;    0.000
415.954; 1908.125;  187.475;    0.000
416.008; 1922.125;  237.475;    0.000
416.062; 1898.125;  195.475;    0.000
416.116; 1856.125;  223.475;    0.000
416.169; 1899.125;  210.475;    0.000
416.223; 1795.125;  232.475;    0.000
416.277; 1860.125;  227.475;    0.000
416.331; 1898.125;  216.475;    0.000
416.385; 1827.125;  186.475;    0.000
416.439; 1934.125;  226.475;    0.000
416.492; 1862.125;  229.475;    0.000
416.546; 1845.125;  216.475;    0.000
416.600; 1870.125;  211.475;    0.000
416.654; 1906.125;  226.475;    0.000
416.707; 1896.125;  248.475;    0.000
416.761; 1852.125;  217.475;    0.000
416.815; 1853.125;  207.475;    0.000
416.869; 1968.125;  226.475;    0.000
416.922; 1898.125;  192.475;    0.000
416.976; 1937.125;  205.475;    0.000
417.030; 1833.125;  233.475;    0.000
417.083; 1895.125;  226.475;    0.000
417.137; 1891.125;  222.475;    0.000
417.191; 1940.125;  217.475;    0.000
417.244; 1935.125;  221.475;    0.000
417.298; 1853.125;  201.475;    0.000
417.352; 1888.125;  170.475;    0.000
417.405; 1904.125;  234.475;    0.000
417.459; 1921.125;  241.475;    0.000
417.512; 1908.125;  247.475;    0.000
417.566; 1913.125;  219.475;    0.000
417.620; 1807.125;  228.475;    0.000
417.673; 1833.125;  192.475;    0.000
417.727; 1863.125;  203.475;    0.000
417.780; 1965.125;  204.475;    0.000
417.834; 1957.125;  234.475;    0.000
417.887; 1868.125;  245.475;    0.000
417.941; 1919.125;  211.475;    0.000
417.994; 1862.125;  244.475;    0.000
418.048; 1893.125;  203.475;    0.000
418.101; 1835.125;  212.475;    0.000
418.155; 1845.125;  251.475;    0.000
418.208; 1924.125;  286.475;    0.000
418.262; 1920.125;  243.475;    0.000
418.315; 1887.125;  214.475;    0.000
418.369; 1892.125;  269.475;    0.000
418.422; 1881.125;  222.475;    0.000
418.476; 1891.125;  226.475;    0.000
418.529; 1881.125;  238.475;    0.000
418.582; 1842.125;  210.475;    0.000
418.636; 1869.125;  221.475;    0.000
418.689; 2005.125;  224.475;    0.000
418.743; 1936.125;  228.475;    0.000
418.796; 1923.125;  192.475;    0.000
418.849; 1864.125;  230.475;    0.000
418.903; 1943.125;  257.475;    0.000
418.956; 1895.125;  241.475;    0.000
419.009; 1917.125;  247.475;    0.000
419.063; 1826.125;  235.475;    0.000
419.116; 1883.125;  218.475;    0.000
419.169; 1866.125;  219.475;    0.000
419.222; 1892.125;  215.475;    0.000
419.276; 1917.125;  202.475;    0.000
419.329; 1834.125;  210.475;    0.000
419.382; 1892.125;  188.475;    0.000
419.435; 1878.125;  222.475;    0.000
419.489; 1915.125;  232.475;    0.000
419.542; 1849.125;  250.475;    0.000
419.595; 1992.125;  240.475;    0.000
419.648; 1885.125;  261.475;    0.000
419.701; 1956.125;  222.475;    0.000
419.755; 1894.125;  233.475;    0.000
419.808; 1867.125;  178.475;    0.000
419.861; 1873.125;  207.475;    0.000
419.914; 1927.125;  223.475;    0.000
419.967; 1859.125;  216.475;    0.000
420.020; 1916.125;  211.475;    0.000
420.073; 1910.125;  200.475;    0.000
420.127; 1889.125;  248.475;    0.000
420.180; 1844.125;  220.475;    0.000
420.233; 1880.125;  215.475;    0.000
420.286; 1805.125;  222.475;    0.000
420.339; 1830.125;  229.475;    0.000
420.392; 1863.125;  245.475;    0.000
420.445; 1883.125;  221.475;    0.000
420.498; 1797.125;  224.475;    0.000
420.551; 1893.125;  170.475;    0.000
420.604; 1894.125;  237.475;    0.000
420.657; 1792.125;  235.475;    0.000
420.710; 1788.125;  223.475;    0.000
420.763; 1931.125;  219.475;    0.000
420.816; 1907.125;  200.475;    0.000
420.869; 1836.125;  197.475;    0.000
420.922; 1835.125;  212.475;    0.000
420.975; 1823.125;  274.475;    0.000
421.028; 1820.125;  228.475;    0.000
421.081; 1788.125;  243.475;    0.000
421.134; 1825.125;  227.475;    0.000
421.187; 1828.125;  245.475;    0.000
421.239; 1848.125;  210.475;    0.000
421.292; 1799.125;  193.475;    0.000
421.345; 1797.125;  226.475;    0.000
421.398; 1875.125;  226.475;    0.000
421.451; 1813.125;  259.475;    0.000
421.504; 1863.125;  204.475;    0.000
421.557; 1802.125;  215.475;    0.000
421.609; 1707.125;  194.475;    0.000
421.662; 1834.125;  216.475;    0.000
421.715; 1835.125;  226.475;    0.000
421.768; 1824.125;  177.475;    0.000
421.821; 1868.125;  210.475;    0.000
421.873; 1868.125;  208.475;    0.000
421.926; 1784.125;  223.475;    0.000
421.979; 1830.125;  230.475;    0.000
422.032; 1813.125;  227.475;    0.000
422.084; 1821.125;  234.475;    0.000
422.137; 1769.125;  207.475;    0.000
422.190; 1841.125;  228.475;    0.000
422.243; 1846.125;  206.475;    0.000
422.295; 1811.125;  236.475;    0.000
422.348; 1737.125;  232.475;    0.000
422.401; 1865.125;  228.475;    0.000
422.453; 1775.125;  239.475;    0.000
422.506; 1848.125;  226.475;    0.000
422.559; 1770.125;  205.475;    0.000
422.611; 1727.125;  235.475;    0.000
422.664; 1743.125;  231.475;    0.000
422.716; 1788.125;  228.475;    0.000
422.769; 1755.125;  204.475;    0.000
422.822; 1756.125;  205.475;    0.000
422.874; 1752.125;  228.475;    0.000
422.927; 1826.125;  266.475;    0.000
422.979; 1791.125;  223.475;    0.000
423.032; 1738.125;  207.475;    0.000
423.084; 1873.125;  211.475;    0.000
423.137; 1787.125;  205.475;    0.000
423.189; 1872.125;  254.475;    0.000
423.242; 1828.125;  208.475;    0.000
423.294; 1786.125;  240.475;    0.000
423.347; 1749.125;  218.475;    0.000
423.399; 1714.125;  237.475;    0.000
423.452; 1827.125;  242.475;    0.000
423.504; 1793.125;  225.475;    0.000
423.557; 1714.125;  195.475;    0.000
423.609; 1753.125;  206.475;    0.000
423.662; 1800.125;  211.475;    0.000
423.714; 1762.125;  252.475;    0.000
423.766; 1701.125;  181.475;    0.000
423.819; 1710.125;  216.475;    0.000
423.871; 1735.125;  216.475;    0.000
423.923; 1677.125;  222.475;    0.000
423.976; 1778.125;  223.475;    0.000
424.028; 1709.125;  229.475;    0.000
424.081; 1816.125;  267.475;    0.000
424.133; 1746.125;  251.475;    0.000
424.185; 1783.125;  238.475;    0.000
424.238; 1726.125;  220.475;    0.000
424.290; 1737.125;  259.475;    0.000
424.342; 1735.125;  248.475;    0.000
424.394; 1812.125;  234.475;    0.000
424.447; 1704.125;  248.475;    0.000
424.499; 1732.125;  233.475;    0.000
424.551; 1787.125;  236.475;    0.000
424.603; 1676.125;  207.475;    0.000
424.656; 1729.125;  210.475;    0.000
424.708; 1749.125;  251.475;    0.000
424.760; 1771.125;  221.475;    0.000
424.812; 1784.125;  275.475;    0.000
424.864; 1725.125;  206.475;    0.000
424.917; 1713.125;  198.475;    0.000
424.969; 1751.125;  246.475;    0.000
425.021; 1676.125;  209.475;    0.000
425.073; 1729.125;  242.475;    0.000
425.125; 1737.125;  254.475;    0.000
425.177; 1811.125;  224.475;    0.000
425.229; 1792.125;  256.475;    0.000
425.282; 1777.125;  265.475;    0.000
425.334; 1739.125;  266.475;    0.000
425.386; 1735.125;  242.475;    0.000
425.438; 1766.125;  205.475;    0.000
425.490; 1721.125;  227.475;    0.000
425.542; 1771.125;  235.475;    0.000
425.594; 1716.125;  210.475;    0.000
425.646; 1730.125;  232.475;    0.000
425.698; 1786.125;  243.475;    0.000
425.750; 1685.125;  230.475;    0.000
425.802; 1708.125;  218.475;    0.000
425.854; 1699.125;  222.475;    0.000
425.906; 1714.125;  235.475;    0.000
425.958; 1720.125;  220.475;    0.000
426.010; 1657.125;  236.475;    0.000
426.062; 1707.125;  230.475;    0.000
426.114; 1770.125;  216.475;    0.000
426.166; 1716.125;  230.475;    0.000
426.218; 1681.125;  237.475;    0.000
426.270; 1759.125;  217.475;    0.000
426.321; 1682.125;  224.475;    0.000
426.373; 1692.125;  207.475;    0.000
426.425; 1733.125;  278.475;    0.000
426.477; 1689.125;  243.475;    0.000
426.529; 1758.125;  247.475;    0.000
426.581; 1654.125;  229.475;    0.000
426.633; 1683.125;  212.475;    0.000
426.684; 1693.125;  244.475;    0.000
426.736; 1719.125;  250.475;    0.000
426.788; 1622.125;  210.475;    0.000
426.840; 1700.125;  201.475;    0.000
426.892; 1696.125;  225.475;    0.000
426.943; 1659.125;  215.475;    0.000
426.995; 1628.125;  216.475;    0.000
427.047; 1678.125;  216.475;    0.000
427.099; 1661.125;  203.475;    0.000
427.150; 1727.125;  195.475;    0.000
427.202; 1700.125;  212.475;    0.000
427.254; 1667.125;  233.475;    0.000
427.306; 1684.125;  211.475;    0.000
427.357; 1659.125;  210.475;    0.000
427.409; 1720.125;  244.475;    0.000
427.461; 1643.125;  187.475;    0.000
427.512; 1648.125;  227.475;    0.000
427.564; 1631.125;  210.475;    0.000
427.616; 1626.125;  202.475;    0.000
427.667; 1639.125;  185.475;    0.000
427.719; 1666.125;  222.475;    0.000
427.770; 1599.125;  230.475;    0.000
427.822; 1710.125;  254.475;    0.000
427.874; 1696.125;  222.475;    0.000
427.925; 1664.125;  199.475;    0.000
427.977; 1660.125;  228.475;    0.000
428.028; 1718.125;  226.475;    0.000
428.080; 1716.125;  236.475;    0.000
428.131; 1669.125;  220.475;    0.000
428.183; 1695.125;  256.475;    0.000
428.234; 1635.125;  217.475;    0.000
428.286; 1702.125;  234.475;    0.000
428.337; 1595.125;  209.475;    0.000
428.389; 1587.125;  219.475;    0.000
428.440; 1646.125;  249.475;    0.000
428.492; 1602.125;  255.475;    0.000
428.543; 1602.125;  224.475;    0.000
428.595; 1566.125;  225.475;    0.000
428.646; 1702.125;  240.475;    0.000
428.697; 1642.125;  211.475;    0.000
428.749; 1608.125;  200.475;    0.000
428.800; 1702.125;  235.475;    0.000
428.852; 1700.125;  265.475;    0.000
428.903; 1620.125;  201.475;    0.000
428.954; 1640.125;  242.475;    0.000
429.006; 1655.125;  245.475;    0.000
429.057; 1610.125;  252.475;    0.000
429.108; 1563.125;  211.475;    0.000
429.160; 1655.125;  217.475;    0.000
429.211; 1653.125;  234.475;    0.000
429.262; 1616.125;  205.475;    0.000
429.314; 1644.125;  211.475;    0.000
429.365; 1594.125;  240.475;    0.000
429.416; 1654.125;  263.475;    0.000
429.467; 1665.125;  244.475;    0.000
429.519; 1581.125;  223.475;    0.000
429.570; 1685.125;  214.475;    0.000
429.621; 1624.125;  235.475;    0.000
429.672; 1632.125;  202.475;    0.000
429.724; 1665.125;  189.475;    0.000
429.775; 1605.125;  214.475;    0.000
429.826; 1585.125;  178.475;    0.000
429.877; 1607.125;  224.475;    0.000
429.928; 1613.125;  230.475;    0.000
429.980; 1643.125;  199.475;    0.000
430.031; 1565.125;  208.475;    0.000
430.082; 1619.125;  224.475;    0.000
430.133; 1526.125;  193.475;    0.000
430.184; 1635.125;  220.475;    0.000
430.235; 1522.125;  184.475;    0.000
430.286; 1569.125;  197.475;    0.000
430.337; 1574.125;  199.475;    0.000
430.388; 1542.125;  207.475;    0.000
430.439; 1654.125;  227.475;    0.000
430.490; 1566.125;  215.475;    0.000
430.542; 1551.125;  211.475;    0.000
430.593; 1604.125;  230.475;    0.000
430.644; 1582.125;  186.475;    0.000
430.695; 1678.125;  232.475;    0.000
430.746; 1656.125;  214.475;    0.000
430.797; 1600.125;  260.475;    0.000
430.848; 1561.125;  214.475;    0.000
430.898; 1552.125;  204.475;    0.000
430.949; 1636.125;  189.475;    0.000
431.000; 1611.125;  240.475;    0.000
431.051; 1581.125;  201.475;    0.000
431.102; 1519.125;  188.475;    0.000
431.153; 1559.125;  209.475;    0.000
431.204; 1527.125;  187.475;    0.000
431.255; 1600.125;  171.475;    0.000
431.306; 1567.125;  181.475;    0.000
431.357; 1600.125;  221.475;    0.000
431.408; 1562.125;  217.475;    0.000
431.458; 1624.125;  206.475;    0.000
431.509; 1549.125;  194.475;    0.000
431.560; 1642.125;  235.475;    0.000
431.611; 1553.125;  213.475;    0.000
431.662; 1620.125;  237.475;    0.000
431.713; 1551.125;  220.475;    0.000
431.763; 1617.125;  212.475;    0.000
431.814; 1604.125;  238.475;    0.000
431.865; 1577.125;  213.475;    0.000
431.916; 1515.125;  191.475;    0.000
431.966; 1626.125;  171.475;    0.000
432.017; 1561.125;  263.475;    0.000
432.068; 1573.125;  240.475;    0.000
432.118; 1667.125;  235.475;    0.000
432.169; 1596.125;  212.475;    0.000
432.220; 1546.125;  188.475;    0.000
432.271; 1605.125;  216.475;    0.000
432.321; 1595.125;  223.475;    0.000
432.372; 1614.125;  254.475;    0.000
432.423; 1601.125;  193.475;    0.000
432.473; 1574.125;  219.475;    0.000
432.524; 1599.125;  215.475;    0.000
432.574; 1582.125;  234.475;    0.000
432.625; 1512.125;  226.475;    0.000
432.676; 1605.125;  219.475;    0.000
432.726; 1584.125;  254.475;    0.000
432.777; 1536.125;  210.475;    0.000
432.827; 1556.125;  234.475;    0.000
432.878; 1581.125;  212.475;    0.000
432.928; 1637.125;  238.475;    0.000
432.979; 1555.125;  252.475;    0.000
433.029; 1563.125;  222.475;    0.000
433.080; 1543.125;  188.475;    0.000
433.130; 1617.125;  223.475;    0.000
433.181; 1591.125;  254.475;    0.000
433.231; 1528.125;  237.475;    0.000
433.282; 1604.125;  242.475;    0.000
433.332; 1614.125;  261.475;    0.000
433.383; 1535.125;  266.475;    0.000
433.433; 1618.125;  286.475;    0.000
433.484; 1593.125;  231.475;    0.000
433.534; 1549.125;  256.475;    0.000
433.585; 1612.125;  253.475;    0.000
433.635; 1560.125;  228.475;    0.000
433.685; 1614.125;  226.475;    0.000
433.736; 1635.125;  276.475;    0.000
433.786; 1559.125;  253.475;    0.000
433.836; 1579.125;  289.475;    0.000
433.887; 1617.125;  241.475;    0.000
433.937; 1616.125;  252.475;    0.000
433.987; 1588.125;  223.475;    0.000
434.038; 1592.125;  241.475;    0.000
434.088; 1602.125;  231.475;    0.000
434.138; 1579.125;  259.475;    0.000
434.189; 1543.125;  263.475;    0.000
434.239; 1611.125;  194.475;    0.000
434.289; 1601.125;  273.475;    0.000
434.339; 1582.125;  212.475;    0.000
434.389; 1596.125;  248.475;    0.000
434.440; 1632.125;  250.475;    0.000
434.490; 1582.125;  278.475;    0.000
434.540; 1563.125;  241.475;    0.000
434.590; 1578.125;  251.475;    0.000
434.640; 1503.125;  207.475;    0.000
434.691; 1647.125;  242.475;    0.000
434.741; 1628.125;  218.475;    0.000
434.791; 1674.125;  267.475;    0.000
434.841; 1614.125;  272.475;    0.000
434.891; 1642.125;  260.475;    0.000
434.941; 1628.125;  258.475;    0.000
434.991; 1691.125;  264.475;    0.000
435.042; 1594.125;  264.475;    0.000
435.092; 1594.125;  271.475;    0.000
435.142; 1644.125;  229.475;    0.000
435.192; 1543.125;  226.475;    0.000
435.242; 1602.125;  253.475;    0.000
435.292; 1550.125;  215.475;    0.000
435.342; 1576.125;  240.475;    0.000
435.392; 1571.125;  235.475;    0.000
435.442; 1592.125;  230.475;    0.000
435.492; 1578.125;  235.475;    0.000
435.542; 1556.125;  230.475;    0.000
435.592; 1549.125;  239.475;    0.000
435.642; 1602.125;  244.475;    0.000
435.692; 1543.125;  236.475;    0.000
435.742; 1572.125;  236.475;    0.000
435.792; 1565.125;  230.475;    0.000
435.842; 1555.125;  248.475;    0.000
435.891; 1456.125;  233.475;    0.000
435.941; 1564.125;  243.475;    0.000
435.991; 1527.125;  279.475;    0.000
436.041; 1535.125;  204.475;    0.000
436.091; 1524.125;  217.475;    0.000
436.141; 1501.125;  205.475;    0.000
436.191; 1503.125;  220.475;    0.000
436.241; 1518.125;  248.475;    0.000
436.290; 1536.125;  255.475;    0.000
436.340; 1525.125;  235.475;    0.000
436.390; 1563.125;  207.475;    0.000
436.440; 1606.125;  207.475;    0.000
436.490; 1520.125;  251.475;    0.000
436.539; 1535.125;  240.475;    0.000
436.589; 1463.125;  198.475;    0.000
436.639; 1530.125;  240.475;    0.000
436.689; 1540.125;  216.475;    0.000
436.738; 1545.125;  246.475;    0.000
436.788; 1494.125;  203.475;    0.000
436.838; 1620.125;  230.475;    0.000
436.887; 1518.125;  235.475;    0.000
436.937; 1521.125;  249.475;    0.000
436.987; 1537.125;  208.475;    0.000
437.036; 1504.125;  232.475;    0.000
437.086; 1505.125;  238.475;    0.000
437.136; 1550.125;  228.475;    0.000
437.185; 1489.125;  219.475;    0.000
437.235; 1615.125;  227.475;    0.000
437.285; 1537.125;  241.475;    0.000
437.334; 1511.125;  216.475;    0.000
437.384; 1448.125;  243.475;    0.000
437.433; 1575.125;  214.475;    0.000
437.483; 1456.125;  246.475;    0.000
437.532; 1547.125;  261.475;    0.000
437.582; 1480.125;  205.475;    0.000
437.631; 1461.125;  218.475;    0.000
437.681; 1484.125;  240.475;    0.000
437.730; 1527.125;  258.475;    0.000
437.780; 1422.125;  237.475;    0.000
437.829; 1519.125;  209.475;    0.000
437.879; 1533.125;  214.475;    0.000
437.928; 1461.125;  223.475;    0.000
437.978; 1394.125;  220.475;    0.000
438.027; 1506.125;  239.475;    0.000
438.077; 1556.125;  231.475;    0.000
438.126; 1491.125;  266.475;    0.000
438.176; 1473.125;  234.475;    0.000
438.225; 1506.125;  237.475;    0.000
438.274; 1500.125;  234.475;    0.000
438.324; 1427.125;  244.475;    0.000
438.373; 1498.125;  232.475;    0.000
438.422; 1451.125;  218.475;    0.000
438.472; 1414.125;  221.475;    0.000
438.521; 1499.125;  190.475;    0.000
438.570; 1430.125;  243.475;    0.000
438.620; 1502.125;  255.475;    0.000
438.669; 1518.125;  210.475;    0.000
438.718; 1540.125;  237.475;    0.000
438.768; 1458.125;  220.475;    0.000
438.817; 1478.125;  218.475;    0.000
438.866; 1410.125;  198.475;    0.000
438.915; 1522.125;  256.475;    0.000
438.965; 1387.125;  221.475;    0.000
439.014; 1486.125;  255.475;    0.000
439.063; 1544.125;  276.475;    0.000
439.112; 1434.125;  220.475;    0.000
439.162; 1512.125;  253.475;    0.000
439.211; 1476.125;  247.475;    0.000
439.260; 1430.125;  220.475;    0.000
439.309; 1519.125;  235.475;    0.000
439.358; 1450.125;  205.475;    0.000
439.407; 1495.125;  207.475;    0.000
439.456; 1469.125;  216.475;    0.000
439.506; 1574.125;  245.475;    0.000
439.555; 1500.125;  264.475;    0.000
439.604; 1456.125;  227.475;    0.000
439.653; 1568.125;  220.475;    0.000
439.702; 1493.125;  223.475;    0.000
439.751; 1464.125;  197.475;    0.000
439.800; 1487.125;  207.475;    0.000
439.849; 1553.125;  238.475;    0.000
439.898; 1493.125;  209.475;    0.000
439.947; 1415.125;  170.475;    0.000
439.996; 1513.125;  233.475;    0.000
440.045; 1472.125;  222.475;    0.000
440.094; 1461.125;  240.475;    0.000
440.143; 1571.125;  249.475;    0.000
440.192; 1520.125;  252.475;    0.000
440.241; 1523.125;  239.475;    0.000
440.290; 1525.125;  234.475;    0.000
440.339; 1485.125;  241.475;    0.000
440.388; 1514.125;  239.475;    0.000
440.437; 1547.125;  231.475;    0.000
440.486; 1512.125;  254.475;    0.000
440.535; 1535.125;  266.475;    0.000
440.583; 1517.125;  205.475;    0.000
440.632; 1502.125;  234.475;    0.000
440.681; 1480.125;  218.475;    0.000
440.730; 1595.125;  248.475;    0.000
440.779; 1488.125;  246.475;    0.000
440.828; 1517.125;  235.475;    0.000
440.876; 1482.125;  218.475;    0.000
440.925; 1565.125;  228.475;    0.000
440.974; 1524.125;  249.475;    0.000
441.023; 1505.125;  192.475;    0.000
441.072; 1477.125;  226.475;    0.000
441.120; 1552.125;  238.475;    0.000
441.169; 1643.125;  255.475;    0.000
441.218; 1523.125;  233.475;    0.000
441.267; 1537.125;  231.475;    0.000
441.315; 1531.125;  214.475;    0.000
441.364; 1539.125;  250.475;    0.000
441.413; 1536.125;  228.475;    0.000
441.461; 1536.125;  209.475;    0.000
441.510; 1563.125;  260.475;    0.000
441.559; 1568.125;  230.475;    0.000
441.607; 1556.125;  220.475;    0.000
441.656; 1591.125;  251.475;    0.000
441.705; 1611.125;  237.475;    0.000
441.753; 1554.125;  257.475;    0.000
441.802; 1567.125;  256.475;    0.000
441.850; 1535.125;  253.475;    0.000
441.899; 1568.125;  212.475;    0.000
441.948; 1508.125;  251.475;    0.000
441.996; 1568.125;  239.475;    0.000
442.045; 1528.125;  223.475;    0.000
442.093; 1546.125;  211.475;    0.000
442.142; 1637.125;  235.475;    0.000
442.190; 1521.125;  254.475;    0.000
442.239; 1567.125;  226.475;    0.000
442.287; 1559.125;  242.475;    0.000
442.336; 1560.125;  256.475;    0.000
442.384; 1525.125;  252.475;    0.000
442.433; 1645.125;  262.475;    0.000
442.481; 1488.125;  246.475;    0.000
442.529; 1558.125;  290.475;    0.000
442.578; 1549.125;  247.475;    0.000
442.626; 1581.125;  247.475;    0.000
442.675; 1593.125;  272.475;    0.000
442.723; 1533.125;  230.475;    0.000
442.771; 1598.125;  234.475;    0.000
442.820; 1591.125;  224.475;    0.000
442.868; 1529.125;  246.475;    0.000
442.917; 1545.125;  249.475;    0.000
442.965; 1519.125;  260.475;    0.000
443.013; 1514.125;  258.475;    0.000
443.062; 1550.125;  259.475;    0.000
443.110; 1545.125;  226.475;    0.000
443.158; 1523.125;  213.475;    0.000
443.206; 1536.125;  201.475;    0.000
443.255; 1552.125;  280.475;    0.000
443.303; 1620.125;  292.475;    0.000
443.351; 1511.125;  256.475;    0.000
443.399; 1552.125;  215.475;    0.000
443.448; 1575.125;  243.475;    0.000
443.496; 1555.125;  249.475;    0.000
443.544; 1577.125;  231.475;    0.000
443.592; 1586.125;  243.475;    0.000
443.640; 1581.125;  252.475;    0.000
443.689; 1564.125;  220.475;    0.000
443.737; 1614.125;  231.475;    0.000
443.785; 1589.125;  256.475;    0.000
443.833; 1578.125;  268.475;    0.000
443.881; 1543.125;  181.475;    0.000
443.929; 1625.125;  245.475;    0.000
443.977; 1582.125;  278.475;    0.000
444.025; 1569.125;  245.475;    0.000
444.074; 1610.125;  233.475;    0.000
444.122; 1618.125;  267.475;    0.000
444.170; 1627.125;  247.475;    0.000
444.218; 1624.125;  246.475;    0.000
444.266; 1611.125;  275.475;    0.000
444.314; 1612.125;  263.475;    0.000
444.362; 1674.125;  240.475;    0.000
444.410; 1666.125;  220.475;    0.000
444.458; 1609.125;  258.475;    0.000
444.506; 1606.125;  258.475;    0.000
444.554; 1645.125;  224.475;    0.000
444.602; 1648.125;  245.475;    0.000
444.650; 1660.125;  261.475;    0.000
444.698; 1615.125;  232.475;    0.000
444.746; 1648.125;  206.475;    0.000
444.793; 1621.125;  249.475;    0.000
444.841; 1701.125;  261.475;    0.000
444.889; 1651.125;  221.475;    0.000
444.937; 1632.125;  215.475;    0.000
444.985; 1597.125;  244.475;    0.000
445.033; 1657.125;  211.475;    0.000
445.081; 1631.125;  225.475;    0.000
445.129; 1654.125;  217.475;    0.000
445.176; 1617.125;  196.475;    0.000
445.224; 1667.125;  211.475;    0.000
445.272; 1687.125;  242.475;    0.000
445.320; 1660.125;  225.475;    0.000
445.368; 1658.125;  249.475;    0.000
445.415; 1679.125;  243.475;    0.000
445.463; 1612.125;  242.475;    0.000
445.511; 1656.125;  248.475;    0.000
445.559; 1693.125;  219.475;    0.000
445.606; 1586.125;  221.475;    0.000
445.654; 1556.125;  202.475;    0.000
445.702; 1703.125;  210.475;    0.000
445.749; 1675.125;  249.475;    0.000
445.797; 1581.125;  206.475;    0.000
445.845; 1668.125;  213.475;    0.000
445.892; 1651.125;  224.475;    0.000
445.940; 1650.125;  214.475;    0.000
445.988; 1700.125;  247.475;    0.000
446.035; 1685.125;  204.475;    0.000
446.083; 1707.125;  235.475;    0.000
446.130; 1602.125;  195.475;    0.000
446.178; 1702.125;  236.475;    0.000
446.226; 1705.125;  218.475;    0.000
446.273; 1657.125;  215.475;    0.000
446.321; 1684.125;  222.475;    0.000
446.368; 1696.125;  228.475;    0.000
446.416; 1688.125;  223.475;    0.000
446.463; 1681.125;  220.475;    0.000
446.511; 1713.125;  198.475;    0.000
446.558; 1719.125;  208.475;    0.000
446.606; 1727.125;  253.475;    0.000
446.653; 1743.125;  198.475;    0.000
446.701; 1717.125;  231.475;    0.000
446.748; 1711.125;  224.475;    0.000
446.796; 1652.125;  201.475;    0.000
446.843; 1836.125;  257.475;    0.000
446.891; 1786.125;  218.475;    0.000
446.938; 1753.125;  232.475;    0.000
446.985; 1738.125;  229.475;    0.000
447.033; 1793.125;  251.475;    0.000
447.080; 1819.125;  257.475;    0.000
447.128; 1844.125;  232.475;    0.000
447.175; 1863.125;  269.475;    0.000
447.222; 1846.125;  185.475;    0.000
447.270; 1879.125;  264.475;    0.000
447.317; 1854.125;  225.475;    0.000
447.364; 1883.125;  243.475;    0.000
447.411; 1876.125;  263.475;    0.000
447.459; 1900.125;  257.475;    0.000
447.506; 1884.125;  175.475;    0.000
447.553; 1868.125;  203.475;    0.000
447.601; 1998.125;  238.475;    0.000
447.648; 1903.125;  244.475;    0.000
447.695; 1959.125;  249.475;    0.000
447.742; 2047.125;  234.475;    0.000
447.789; 1985.125;  228.475;    0.000
447.837; 2058.125;  258.475;    0.000
447.884; 2004.125;  243.475;    0.000
447.931; 2080.125;  235.475;    0.000
447.978; 2124.125;  224.475;    0.000
448.025; 2043.125;  245.475;    0.000
448.072; 2082.125;  212.475;    0.000
448.120; 2123.125;  256.475;    0.000
448.167; 2091.125;  240.475;    0.000
448.214; 2067.125;  247.475;    0.000
448.261; 2012.125;  245.475;    0.000
448.308; 2050.125;  273.475;    0.000
448.355; 2036.125;  257.475;    0.000
448.402; 1992.125;  259.475;    0.000
448.449; 1922.125;  238.475;    0.000
448.496; 1963.125;  245.475;    0.000
448.543; 1962.125;  217.475;    0.000
448.590; 1929.125;  269.475;    0.000
448.637; 1899.125;  250.475;    0.000
448.684; 1918.125;  250.475;    0.000
448.731; 1918.125;  235.475;    0.000
448.778; 1796.125;  265.475;    0.000
448.825; 1727.125;  257.475;    0.000
448.872; 1776.125;  234.475;    0.000
448.919; 1798.125;  216.475;    0.000
448.966; 1836.125;  274.475;    0.000
449.013; 1755.125;  263.475;    0.000
449.060; 1798.125;  247.475;    0.000
449.107; 1743.125;  218.475;    0.000
449.154; 1694.125;  225.475;    0.000
449.200; 1709.125;  212.475;    0.000
449.247; 1720.125;  242.475;    0.000
449.294; 1682.125;  228.475;    0.000
449.341; 1660.125;  232.475;    0.000
449.388; 1674.125;  247.475;    0.000
449.435; 1729.125;  227.475;    0.000
449.481; 1725.125;  270.475;    0.000
449.528; 1666.125;  265.475;    0.000
449.575; 1703.125;  255.475;    0.000
449.622; 1702.125;  210.475;    0.000
449.668; 1665.125;  234.475;    0.000
449.715; 1717.125;  262.475;    0.000
449.762; 1662.125;  247.475;    0.000
449.809; 1662.125;  286.475;    0.000
449.855; 1660.125;  246.475;    0.000
449.902; 1659.125;  224.475;    0.000
449.949; 1631.125;  244.475;    0.000
449.995; 1598.125;  274.475;    0.000
450.042; 1606.125;  272.475;    0.000
450.089; 1741.125;  274.475;    0.000
450.135; 1638.125;  285.475;    0.000
450.182; 1608.125;  251.475;    0.000
450.229; 1534.125;  242.475;    0.000
450.275; 1634.125;  277.475;    0.000
450.322; 1597.125;  260.475;    0.000
450.368; 1672.125;  257.475;    0.000
450.415; 1623.125;  276.475;    0.000
450.462; 1546.125;  298.475;    0.000
450.508; 1600.125;  255.475;    0.000
450.555; 1645.125;  271.475;    0.000
450.601; 1635.125;  281.475;    0.000
450.648; 1542.125;  249.475;    0.000
450.694; 1602.125;  270.475;    0.000
450.741; 1587.125;  256.475;    0.000
450.787; 1617.125;  292.475;    0.000
450.834; 1562.125;  221.475;    0.000
450.880; 1440.125;  265.475;    0.000
450.927; 1556.125;  242.475;    0.000
450.973; 1508.125;  259.475;    0.000
451.019; 1527.125;  221.475;    0.000
451.066; 1548.125;  257.475;    0.000
451.112; 1563.125;  251.475;    0.000
451.159; 1569.125;  278.475;    0.000
451.205; 1559.125;  274.475;    0.000
451.251; 1558.125;  281.475;    0.000
451.298; 1549.125;  273.475;    0.000
451.344; 1568.125;  246.475;    0.000
451.390; 1647.125;  286.475;    0.000
451.437; 1516.125;  268.475;    0.000
451.483; 1630.125;  315.475;    0.000
451.529; 1561.125;  251.475;    0.000
451.576; 1559.125;  306.475;    0.000
451.622; 1520.125;  234.475;    0.000
451.668; 1571.125;  243.475;    0.000
451.714; 1554.125;  256.475;    0.000
451.761; 1537.125;  264.475;    0.000
451.807; 1574.125;  284.475;    0.000
451.853; 1517.125;  282.475;    0.000
451.899; 1498.125;  240.475;    0.000
451.945; 1480.125;  263.475;    0.000
451.992; 1563.125;  255.475;    0.000
452.038; 1498.125;  273.475;    0.000
452.084; 1493.125;  274.475;    0.000
452.130; 1498.125;  261.475;    0.000
452.176; 1495.125;  246.475;    0.000
452.222; 1450.125;  238.475;    0.000
452.268; 1556.125;  267.475;    0.000
452.315; 1525.125;  274.475;    0.000
452.361; 1474.125;  241.475;    0.000
452.407; 1548.125;  274.475;    0.000
452.453; 1448.125;  260.475;    0.000
452.499; 1539.125;  232.475;    0.000
452.545; 1475.125;  252.475;    0.000
452.591; 1494.125;  263.475;    0.000
452.637; 1499.125;  208.475;    0.000
452.683; 1459.125;  237.475;    0.000
452.729; 1468.125;  263.475;    0.000
452.775; 1472.125;  291.475;    0.000
452.821; 1480.125;  238.475;    0.000
452.867; 1522.125;  223.475;    0.000
452.913; 1490.125;  257.475;    0.000
452.959; 1443.125;  238.475;    0.000
453.005; 1491.125;  252.475;    0.000
453.051; 1477.125;  260.475;    0.000
453.097; 1480.125;  268.475;    0.000
453.142; 1424.125;  231.475;    0.000
453.188; 1504.125;  266.475;    0.000
453.234; 1398.125;  233.475;    0.000
453.280; 1475.125;  219.475;    0.000
453.326; 1443.125;  265.475;    0.000
453.372; 1457.125;  238.475;    0.000
453.418; 1425.125;  240.475;    0.000
453.463; 1520.125;  219.475;    0.000
453.509; 1444.125;  264.475;    0.000
453.555; 1442.125;  247.475;    0.000
453.601; 1407.125;  230.475;    0.000
453.647; 1553.125;  285.475;    0.000
453.692; 1493.125;  240.475;    0.000
453.738; 1463.125;  233.475;    0.000
453.784; 1442.125;  230.475;    0.000
453.829; 1466.125;  246.475;    0.000
453.875; 1447.125;  261.475;    0.000
453.921; 1391.125;  203.475;    0.000
453.967; 1446.125;  241.475;    0.000
454.012; 1496.125;  250.475;    0.000
454.058; 1454.125;  252.475;    0.000
454.104; 1422.125;  239.475;    0.000
454.149; 1426.125;  250.475;    0.000
454.195; 1388.125;  243.475;    0.000
454.240; 1451.125;  252.475;    0.000
454.286; 1502.125;  245.475;    0.000
454.332; 1514.125;  286.475;    0.000
454.377; 1446.125;  254.475;    0.000
454.423; 1495.125;  246.475;    0.000
454.468; 1398.125;  235.475;    0.000
454.514; 1380.125;  231.475;    0.000
454.559; 1442.125;  246.475;    0.000
454.605; 1426.125;  204.475;    0.000
454.650; 1488.125;  272.475;    0.000
454.696; 1494.125;  222.475;    0.000
454.741; 1493.125;  290.475;    0.000
454.787; 1454.125;  262.475;    0.000
454.832; 1414.125;  227.475;    0.000
454.878; 1445.125;  241.475;    0.000
454.923; 1440.125;  272.475;    0.000
454.969; 1441.125;  290.475;    0.000
455.014; 1430.125;  278.475;    0.000
455.060; 1476.125;  246.475;    0.000
455.105; 1385.125;  231.475;    0.000
455.150; 1451.125;  265.475;    0.000
455.196; 1403.125;  266.475;    0.000
455.241; 1480.125;  258.475;    0.000
455.286; 1469.125;  266.475;    0.000
455.332; 1455.125;  252.475;    0.000
455.377; 1364.125;  219.475;    0.000
455.422; 1464.125;  262.475;    0.000
455.468; 1465.125;  260.475;    0.000
455.513; 1415.125;  212.475;    0.000
455.558; 1384.125;  197.475;    0.000
455.604; 1441.125;  262.475;    0.000
455.649; 1445.125;  238.475;    0.000
455.694; 1457.125;  221.475;    0.000
455.739; 1486.125;  251.475;    0.000
455.785; 1483.125;  287.475;    0.000
455.830; 1413.125;  284.475;    0.000
455.875; 1441.125;  234.475;    0.000
455.920; 1395.125;  215.475;    0.000
455.965; 1378.125;  256.475;    0.000
456.010; 1410.125;  266.475;    0.000
456.056; 1405.125;  263.475;    0.000
456.101; 1441.125;  240.475;    0.000
456.146; 1452.125;  258.475;    0.000
456.191; 1442.125;  241.475;    0.000
456.236; 1452.125;  252.475;    0.000
456.281; 1371.125;  218.475;    0.000
456.326; 1397.125;  251.475;    0.000
456.371; 1409.125;  256.475;    0.000
456.416; 1408.125;  301.475;    0.000
456.461; 1463.125;  233.475;    0.000
456.507; 1430.125;  218.475;    0.000
456.552; 1445.125;  278.475;    0.000
456.597; 1473.125;  223.475;    0.000
456.642; 1411.125;  203.475;    0.000
456.687; 1400.125;  245.475;    0.000
456.732; 1422.125;  256.475;    0.000
456.776; 1523.125;  244.475;    0.000
456.821; 1493.125;  276.475;    0.000
456.866; 1410.125;  232.475;    0.000
456.911; 1389.125;  225.475;    0.000
456.956; 1474.125;  237.475;    0.000
457.001; 1430.125;  261.475;    0.000
457.046; 1411.125;  205.475;    0.000
457.091; 1406.125;  241.475;    0.000
457.136; 1371.125;  217.475;    0.000
457.181; 1398.125;  251.475;    0.000
457.225; 1432.125;  241.475;    0.000
457.270; 1454.125;  237.475;    0.000
457.315; 1482.125;  279.475;    0.000
457.360; 1432.125;  245.475;    0.000
457.405; 1402.125;  202.475;    0.000
457.450; 1463.125;  247.475;    0.000
457.494; 1490.125;  243.475;    0.000
457.539; 1452.125;  222.475;    0.000
457.584; 1439.125;  239.475;    0.000
457.629; 1364.125;  236.475;    0.000
457.673; 1412.125;  234.475;    0.000
457.718; 1414.125;  202.475;    0.000
457.763; 1461.125;  274.475;    0.000
457.807; 1440.125;  236.475;    0.000
457.852; 1473.125;  265.475;    0.000
457.897; 1439.125;  252.475;    0.000
457.941; 1426.125;  264.475;    0.000
457.986; 1405.125;  280.475;    0.000
458.031; 1471.125;  217.475;    0.000
458.075; 1421.125;  249.475;    0.000
458.120; 1500.125;  257.475;    0.000
458.165; 1424.125;  183.475;    0.000
458.209; 1503.125;  245.475;    0.000
458.254; 1444.125;  245.475;    0.000
458.298; 1493.125;  265.475;    0.000
458.343; 1489.125;  241.475;    0.000
458.387; 1513.125;  262.475;    0.000
458.432; 1516.125;  245.475;    0.000
458.476; 1463.125;  255.475;    0.000
458.521; 1471.125;  269.475;    0.000
458.565; 1465.125;  265.475;    0.000
458.610; 1435.125;  222.475;    0.000
458.654; 1433.125;  257.475;    0.000
458.699; 1524.125;  296.475;    0.000
458.743; 1492.125;  203.475;    0.000
458.788; 1525.125;  267.475;    0.000
458.832; 1494.125;  274.475;    0.000
458.877; 1611.125;  251.475;    0.000
458.921; 1451.125;  237.475;    0.000
458.965; 1481.125;  264.475;    0.000
459.010; 1529.125;  256.475;    0.000
459.054; 1546.125;  280.475;    0.000
459.099; 1528.125;  240.475;    0.000
459.143; 1554.125;  287.475;    0.000
459.187; 1455.125;  257.475;    0.000
459.231; 1497.125;  273.475;    0.000
459.276; 1488.125;  231.475;    0.000
459.320; 1503.125;  261.475;    0.000
459.364; 1484.125;  278.475;    0.000
459.409; 1572.125;  249.475;    0.000
459.453; 1475.125;  235.475;    0.000
459.497; 1507.125;  262.475;    0.000
459.541; 1540.125;  269.475;    0.000
459.586; 1513.125;  240.475;    0.000
459.630; 1603.125;  261.475;    0.000
459.674; 1540.125;  276.475;    0.000
459.718; 1582.125;  236.475;    0.000
459.762; 1573.125;  263.475;    0.000
459.807; 1539.125;  263.475;    0.000
459.851; 1618.125;  225.475;    0.000
459.895; 1559.125;  247.475;    0.000
459.939; 1502.125;  231.475;    0.000
459.983; 1523.125;  242.475;    0.000
460.027; 1584.125;  248.475;    0.000
460.071; 1592.125;  273.475;    0.000
460.115; 1526.125;  282.475;    0.000
460.159; 1556.125;  264.475;    0.000
460.204; 1580.125;  288.475;    0.000
460.248; 1643.125;  293.475;    0.000
460.292; 1581.125;  277.475;    0.000
460.336; 1584.125;  250.475;    0.000
460.380; 1557.125;  275.475;    0.000
460.424; 1561.125;  243.475;    0.000
460.468; 1606.125;  277.475;    0.000
460.512; 1565.125;  261.475;    0.000
460.556; 1559.125;  266.475;    0.000
460.599; 1605.125;  246.475;    0.000
460.643; 1657.125;  256.475;    0.000
460.687; 1558.125;  257.475;    0.000
460.731; 1615.125;  235.475;    0.000
460.775; 1554.125;  278.475;    0.000
460.819; 1581.125;  268.475;    0.000
460.863; 1575.125;  257.475;    0.000
460.907; 1556.125;  213.475;    0.000
460.951; 1548.125;  274.475;    0.000
460.995; 1694.125;  258.475;    0.000
461.038; 1543.125;  219.475;    0.000
461.082; 1548.125;  253.475;    0.000
461.126; 1597.125;  281.475;    0.000
461.170; 1617.125;  244.475;    0.000
461.214; 1632.125;  262.475;    0.000
461.257; 1620.125;  284.475;    0.000
461.301; 1589.125;  275.475;    0.000
461.345; 1655.125;  267.475;    0.000
461.389; 1597.125;  255.475;    0.000
461.432; 1591.125;  282.475;    0.000
461.476; 1557.125;  263.475;    0.000
461.520; 1571.125;  260.475;    0.000
461.563; 1602.125;  278.475;    0.000
461.607; 1625.125;  236.475;    0.000
461.651; 1620.125;  262.475;    0.000
461.694; 1607.125;  236.475;    0.000
461.738; 1566.125;  295.475;    0.000
461.782; 1554.125;  252.475;    0.000
461.825; 1677.125;  271.475;    0.000
461.869; 1603.125;  278.475;    0.000
461.913; 1672.125;  255.475;    0.000
461.956; 1568.125;  254.475;    0.000
462.000; 1590.125;  299.475;    0.000
462.043; 1605.125;  282.475;    0.000
462.087; 1718.125;  274.475;    0.000
462.130; 1647.125;  270.475;    0.000
462.174; 1665.125;  274.475;    0.000
462.217; 1624.125;  272.475;    0.000
462.261; 1693.125;  286.475;    0.000
462.304; 1650.125;  236.475;    0.000
462.348; 1696.125;  262.475;    0.000
462.391; 1699.125;  244.475;    0.000
462.435; 1719.125;  321.475;    0.000
462.478; 1707.125;  230.475;    0.000
462.522; 1708.125;  245.475;    0.000
462.565; 1705.125;  278.475;    0.000
462.608; 1790.125;  303.475;    0.000
462.652; 1656.125;  275.475;    0.000
462.695; 1758.125;  314.475;    0.000
462.739; 1727.125;  307.475;    0.000
462.782; 1687.125;  286.475;    0.000
462.825; 1728.125;  312.475;    0.000
462.869; 1779.125;  338.475;    0.000
462.912; 1744.125;  304.475;    0.000
462.955; 1628.125;  288.475;    0.000
462.998; 1740.125;  292.475;    0.000
463.042; 1775.125;  309.475;    0.000
463.085; 1732.125;  292.475;    0.000
463.128; 1713.125;  317.475;    0.000
463.172; 1715.125;  287.475;    0.000
463.215;  367.125;  313.475;    0.000
463.258;  334.125;  295.475;    0.000
463.301;  289.125;  275.475;    0.000
463.344;  323.125;  311.475;    0.000
463.388;  308.125;  296.475;    0.000
463.431;  302.125;  277.475;    0.000
463.474;  346.125;  364.475;    0.000
463.517;  351.125;  306.475;    0.000
463.560;  352.125;  308.475;    0.000
463.603;  345.125;  343.475;    0.000
463.646;  358.125;  309.475;    0.000
463.690;  308.125;  309.475;    0.000
463.733;  326.125;  320.475;    0.000
463.776;  283.125;  299.475;    0.000
463.819;  317.125;  320.475;    0.000
463.862;  290.125;  283.475;    0.000

