
Integration time [ms]:   1.000
Averaging Nr. [scans]: 1
Smoothing Nr. [pixels]: 0
Data measured with spectrometer [name]: UV1
Wave   ;Sample   ;Dark     ;Reference
[nm]   ;[counts] ;[counts] ;[counts] 

236.381;  156.575;  175.825;    0.000
236.451;  170.575;  220.825;    0.000
236.520;  137.575;  178.825;    0.000
236.590;  225.575;  182.825;    0.000
236.660;  168.575;  180.825;    0.000
236.730;  198.575;  201.825;    0.000
236.799;  201.575;  168.825;    0.000
236.869;  162.575;  205.825;    0.000
236.939;  174.575;  175.825;    0.000
237.009;  174.575;  186.825;    0.000
237.078;  177.575;  200.825;    0.000
237.148;  156.575;  156.825;    0.000
237.218;  189.575;  190.825;    0.000
237.287;  179.575;  167.825;    0.000
237.357;  173.575;  213.825;    0.000
237.427;  182.575;  164.825;    0.000
237.496;  550.575;  210.825;    0.000
237.566;  568.575;  193.825;    0.000
237.636;  483.575;  179.825;    0.000
237.705;  594.575;  218.825;    0.000
237.775;  485.575;  160.825;    0.000
237.845;  499.575;  207.825;    0.000
237.914;  508.575;  180.825;    0.000
237.984;  507.575;  207.825;    0.000
238.054;  531.575;  149.825;    0.000
238.123;  546.575;  190.825;    0.000
238.193;  525.575;  167.825;    0.000
238.263;  552.575;  172.825;    0.000
238.332;  531.575;  173.825;    0.000
238.402;  545.575;  214.825;    0.000
238.471;  543.575;  181.825;    0.000
238.541;  540.575;  177.825;    0.000
238.611;  520.575;  138.825;    0.000
238.680;  525.575;  168.825;    0.000
238.750;  500.575;  171.825;    0.000
238.819;  549.575;  156.825;    0.000
238.889;  494.575;  194.825;    0.000
238.958;  536.575;  185.825;    0.000
239.028;  542.575;  170.825;    0.000
239.097;  562.575;  159.825;    0.000
239.167;  550.575;  208.825;    0.000
239.237;  515.575;  167.825;    0.000
239.306;  486.575;  154.825;    0.000
239.376;  539.575;  183.825;    0.000
239.445;  549.575;  221.825;    0.000
239.515;  505.575;  208.825;    0.000
239.584;  479.575;  177.825;    0.000
239.654;  497.575;  133.825;    0.000
239.723;  545.575;  167.825;    0.000
239.793;  540.575;  190.825;    0.000
239.862;  510.575;  192.825;    0.000
239.932;  495.575;  174.825;    0.000
240.001;  496.575;  166.825;    0.000
240.070;  540.575;  179.825;    0.000
240.140;  502.575;  191.825;    0.000
240.209;  517.575;  134.825;    0.000
240.279;  471.575;  185.825;    0.000
240.348;  482.575;  193.825;    0.000
240.418;  464.575;  149.825;    0.000
240.487;  543.575;  197.825;    0.000
240.556;  508.575;  193.825;    0.000
240.626;  503.575;  178.825;    0.000
240.695;  489.575;  194.825;    0.000
240.765;  502.575;  178.825;    0.000
240.834;  515.575;  190.825;    0.000
240.903;  502.575;  212.825;    0.000
240.973;  561.575;  153.825;    0.000
241.042;  520.575;  177.825;    0.000
241.112;  479.575;  193.825;    0.000
241.181;  499.575;  171.825;    0.000
241.250;  523.575;  152.825;    0.000
241.320;  540.575;  176.825;    0.000
241.389;  472.575;  186.825;    0.000
241.458;  517.575;  182.825;    0.000
241.528;  499.575;  175.825;    0.000
241.597;  517.575;  180.825;    0.000
241.666;  526.575;  162.825;    0.000
241.736;  546.575;  187.825;    0.000
241.805;  516.575;  173.825;    0.000
241.874;  503.575;  177.825;    0.000
241.943;  502.575;  208.825;    0.000
242.013;  503.575;  183.825;    0.000
242.082;  465.575;  171.825;    0.000
242.151;  524.575;  208.825;    0.000
242.221;  493.575;  160.825;    0.000
242.290;  545.575;  200.825;    0.000
242.359;  479.575;  167.825;    0.000
242.428;  544.575;  213.825;    0.000
242.498;  472.575;  156.825;    0.000
242.567;  544.575;  200.825;    0.000
242.636;  526.575;  178.825;    0.000
242.705;  501.575;  185.825;    0.000
242.774;  512.575;  190.825;    0.000
242.844;  480.575;  194.825;    0.000
242.913;  460.575;  162.825;    0.000
242.982;  485.575;  189.825;    0.000
243.051;  504.575;  176.825;    0.000
243.120;  474.575;  213.825;    0.000
243.190;  460.575;  155.825;    0.000
243.259;  494.575;  183.825;    0.000
243.328;  498.575;  170.825;    0.000
243.397;  438.575;  224.825;    0.000
243.466;  511.575;  172.825;    0.000
243.535;  516.575;  145.825;    0.000
243.605;  473.575;  157.825;    0.000
243.674;  529.575;  199.825;    0.000
243.743;  525.575;  196.825;    0.000
243.812;  459.575;  152.825;    0.000
243.881;  436.575;  188.825;    0.000
243.950;  470.575;  154.825;    0.000
244.019;  514.575;  195.825;    0.000
244.088;  500.575;  164.825;    0.000
244.158;  533.575;  220.825;    0.000
244.227;  474.575;  150.825;    0.000
244.296;  483.575;  153.825;    0.000
244.365;  513.575;  195.825;    0.000
244.434;  482.575;  136.825;    0.000
244.503;  478.575;  172.825;    0.000
244.572;  443.575;  129.825;    0.000
244.641;  481.575;  132.825;    0.000
244.710;  510.575;  185.825;    0.000
244.779;  505.575;  164.825;    0.000
244.848;  459.575;  132.825;    0.000
244.917;  469.575;  196.825;    0.000
244.986;  450.575;  148.825;    0.000
245.055;  485.575;  192.825;    0.000
245.124;  460.575;  170.825;    0.000
245.193;  509.575;  172.825;    0.000
245.262;  470.575;  146.825;    0.000
245.331;  445.575;  178.825;    0.000
245.400;  394.575;  108.825;    0.000
245.469;  500.575;  173.825;    0.000
245.538;  458.575;  180.825;    0.000
245.607;  455.575;  171.825;    0.000
245.676;  436.575;  149.825;    0.000
245.745;  511.575;  194.825;    0.000
245.814;  452.575;  186.825;    0.000
245.883;  479.575;  192.825;    0.000
245.952;  403.575;  169.825;    0.000
246.021;  466.575;  190.825;    0.000
246.090;  449.575;  181.825;    0.000
246.159;  424.575;  179.825;    0.000
246.227;  427.575;  182.825;    0.000
246.296;  437.575;  182.825;    0.000
246.365;  457.575;  171.825;    0.000
246.434;  468.575;  218.825;    0.000
246.503;  408.575;  147.825;    0.000
246.572;  469.575;  227.825;    0.000
246.641;  450.575;  193.825;    0.000
246.710;  456.575;  207.825;    0.000
246.779;  424.575;  181.825;    0.000
246.847;  434.575;  179.825;    0.000
246.916;  404.575;  155.825;    0.000
246.985;  449.575;  168.825;    0.000
247.054;  452.575;  137.825;    0.000
247.123;  402.575;  128.825;    0.000
247.192;  439.575;  163.825;    0.000
247.260;  442.575;  173.825;    0.000
247.329;  428.575;  174.825;    0.000
247.398;  452.575;  238.825;    0.000
247.467;  455.575;  168.825;    0.000
247.536;  465.575;  203.825;    0.000
247.604;  461.575;  194.825;    0.000
247.673;  416.575;  145.825;    0.000
247.742;  394.575;  167.825;    0.000
247.811;  443.575;  180.825;    0.000
247.879;  422.575;  187.825;    0.000
247.948;  420.575;  187.825;    0.000
248.017;  438.575;  170.825;    0.000
248.086;  431.575;  223.825;    0.000
248.154;  421.575;  160.825;    0.000
248.223;  443.575;  163.825;    0.000
248.292;  438.575;  201.825;    0.000
248.361;  475.575;  205.825;    0.000
248.429;  499.575;  191.825;    0.000
248.498;  434.575;  194.825;    0.000
248.567;  473.575;  217.825;    0.000
248.635;  429.575;  224.825;    0.000
248.704;  457.575;  204.825;    0.000
248.773;  385.575;  175.825;    0.000
248.841;  481.575;  157.825;    0.000
248.910;  444.575;  206.825;    0.000
248.979;  402.575;  170.825;    0.000
249.047;  434.575;  178.825;    0.000
249.116;  454.575;  183.825;    0.000
249.185;  460.575;  202.825;    0.000
249.253;  420.575;  159.825;    0.000
249.322;  441.575;  177.825;    0.000
249.390;  421.575;  157.825;    0.000
249.459;  421.575;  211.825;    0.000
249.528;  462.575;  181.825;    0.000
249.596;  430.575;  179.825;    0.000
249.665;  394.575;  176.825;    0.000
249.733;  438.575;  186.825;    0.000
249.802;  418.575;  185.825;    0.000
249.871;  453.575;  166.825;    0.000
249.939;  403.575;  163.825;    0.000
250.008;  483.575;  212.825;    0.000
250.076;  441.575;  227.825;    0.000
250.145;  437.575;  172.825;    0.000
250.213;  388.575;  173.825;    0.000
250.282;  411.575;  189.825;    0.000
250.350;  407.575;  166.825;    0.000
250.419;  454.575;  161.825;    0.000
250.487;  420.575;  178.825;    0.000
250.556;  448.575;  208.825;    0.000
250.624;  417.575;  190.825;    0.000
250.693;  373.575;  163.825;    0.000
250.761;  393.575;  194.825;    0.000
250.830;  428.575;  225.825;    0.000
250.898;  390.575;  140.825;    0.000
250.967;  394.575;  167.825;    0.000
251.035;  440.575;  155.825;    0.000
251.104;  424.575;  189.825;    0.000
251.172;  436.575;  136.825;    0.000
251.241;  387.575;  148.825;    0.000
251.309;  419.575;  201.825;    0.000
251.378;  420.575;  169.825;    0.000
251.446;  418.575;  178.825;    0.000
251.514;  442.575;  206.825;    0.000
251.583;  431.575;  178.825;    0.000
251.651;  397.575;  168.825;    0.000
251.720;  412.575;  190.825;    0.000
251.788;  485.575;  209.825;    0.000
251.856;  361.575;  173.825;    0.000
251.925;  345.575;  171.825;    0.000
251.993;  456.575;  188.825;    0.000
252.062;  428.575;  169.825;    0.000
252.130;  400.575;  196.825;    0.000
252.198;  426.575;  210.825;    0.000
252.267;  406.575;  181.825;    0.000
252.335;  398.575;  164.825;    0.000
252.403;  412.575;  152.825;    0.000
252.472;  388.575;  166.825;    0.000
252.540;  431.575;  189.825;    0.000
252.608;  441.575;  198.825;    0.000
252.677;  389.575;  156.825;    0.000
252.745;  424.575;  184.825;    0.000
252.813;  368.575;  163.825;    0.000
252.881;  359.575;  130.825;    0.000
252.950;  402.575;  189.825;    0.000
253.018;  390.575;  164.825;    0.000
253.086;  364.575;  172.825;    0.000
253.155;  368.575;  205.825;    0.000
253.223;  369.575;  175.825;    0.000
253.291;  357.575;  176.825;    0.000
253.359;  355.575;  182.825;    0.000
253.428;  394.575;  222.825;    0.000
253.496;  374.575;  166.825;    0.000
253.564;  330.575;  135.825;    0.000
253.632;  334.575;  184.825;    0.000
253.700;  373.575;  173.825;    0.000
253.769;  361.575;  163.825;    0.000
253.837;  377.575;  179.825;    0.000
253.905;  329.575;  157.825;    0.000
253.973;  317.575;  164.825;    0.000
254.041;  326.575;  170.825;    0.000
254.110;  314.575;  169.825;    0.000
254.178;  330.575;  165.825;    0.000
254.246;  340.575;  126.825;    0.000
254.314;  310.575;  166.825;    0.000
254.382;  353.575;  169.825;    0.000
254.450;  337.575;  170.825;    0.000
254.518;  309.575;  196.825;    0.000
254.587;  312.575;  161.825;    0.000
254.655;  317.575;  187.825;    0.000
254.723;  288.575;  144.825;    0.000
254.791;  350.575;  175.825;    0.000
254.859;  368.575;  168.825;    0.000
254.927;  352.575;  198.825;    0.000
254.995;  328.575;  165.825;    0.000
255.063;  350.575;  150.825;    0.000
255.131;  303.575;  181.825;    0.000
255.199;  344.575;  160.825;    0.000
255.267;  320.575;  131.825;    0.000
255.336;  360.575;  188.825;    0.000
255.404;  327.575;  163.825;    0.000
255.472;  339.575;  192.825;    0.000
255.540;  372.575;  158.825;    0.000
255.608;  316.575;  147.825;    0.000
255.676;  332.575;  166.825;    0.000
255.744;  361.575;  159.825;    0.000
255.812;  319.575;  164.825;    0.000
255.880;  404.575;  195.825;    0.000
255.948;  350.575;  167.825;    0.000
256.016;  348.575;  185.825;    0.000
256.084;  394.575;  191.825;    0.000
256.152;  415.575;  214.825;    0.000
256.220;  314.575;  195.825;    0.000
256.288;  381.575;  185.825;    0.000
256.356;  314.575;  168.825;    0.000
256.424;  331.575;  161.825;    0.000
256.491;  313.575;  161.825;    0.000
256.559;  365.575;  157.825;    0.000
256.627;  420.575;  164.825;    0.000
256.695;  371.575;  146.825;    0.000
256.763;  377.575;  194.825;    0.000
256.831;  384.575;  182.825;    0.000
256.899;  388.575;  192.825;    0.000
256.967;  344.575;  172.825;    0.000
257.035;  363.575;  169.825;    0.000
257.103;  452.575;  223.825;    0.000
257.171;  356.575;  141.825;    0.000
257.238;  366.575;  146.825;    0.000
257.306;  384.575;  180.825;    0.000
257.374;  395.575;  138.825;    0.000
257.442;  396.575;  135.825;    0.000
257.510;  384.575;  130.825;    0.000
257.578;  389.575;  123.825;    0.000
257.646;  422.575;  162.825;    0.000
257.713;  345.575;  149.825;    0.000
257.781;  424.575;  125.825;    0.000
257.849;  446.575;  149.825;    0.000
257.917;  450.575;  177.825;    0.000
257.985;  391.575;  143.825;    0.000
258.052;  424.575;  154.825;    0.000
258.120;  424.575;  162.825;    0.000
258.188;  453.575;  172.825;    0.000
258.256;  443.575;  160.825;    0.000
258.324;  479.575;  209.825;    0.000
258.391;  464.575;  153.825;    0.000
258.459;  494.575;  133.825;    0.000
258.527;  476.575;  160.825;    0.000
258.595;  475.575;  128.825;    0.000
258.662;  403.575;  114.825;    0.000
258.730;  502.575;  192.825;    0.000
258.798;  451.575;  144.825;    0.000
258.865;  512.575;  140.825;    0.000
258.933;  513.575;  150.825;    0.000
259.001;  503.575;  149.825;    0.000
259.069;  513.575;  110.825;    0.000
259.136;  505.575;  150.825;    0.000
259.204;  502.575;  156.825;    0.000
259.272;  498.575;  185.825;    0.000
259.339;  479.575;  148.825;    0.000
259.407;  512.575;  163.825;    0.000
259.475;  472.575;  129.825;    0.000
259.542;  537.575;  144.825;    0.000
259.610;  513.575;  164.825;    0.000
259.677;  557.575;  188.825;    0.000
259.745;  488.575;  113.825;    0.000
259.813;  596.575;  188.825;    0.000
259.880;  578.575;  174.825;    0.000
259.948;  570.575;  166.825;    0.000
260.016;  576.575;  150.825;    0.000
260.083;  624.575;  178.825;    0.000
260.151;  546.575;  120.825;    0.000
260.218;  541.575;  175.825;    0.000
260.286;  583.575;  155.825;    0.000
260.353;  580.575;  165.825;    0.000
260.421;  596.575;  169.825;    0.000
260.489;  595.575;  194.825;    0.000
260.556;  582.575;  161.825;    0.000
260.624;  563.575;  179.825;    0.000
260.691;  622.575;  174.825;    0.000
260.759;  584.575;  164.825;    0.000
260.826;  609.575;  125.825;    0.000
260.894;  617.575;  164.825;    0.000
260.961;  641.575;  147.825;    0.000
261.029;  641.575;  167.825;    0.000
261.096;  666.575;  136.825;    0.000
261.164;  658.575;  146.825;    0.000
261.231;  658.575;  190.825;    0.000
261.299;  646.575;  171.825;    0.000
261.366;  668.575;  165.825;    0.000
261.434;  641.575;  160.825;    0.000
261.501;  627.575;  149.825;    0.000
261.568;  713.575;  155.825;    0.000
261.636;  663.575;  137.825;    0.000
261.703;  754.575;  186.825;    0.000
261.771;  712.575;  162.825;    0.000
261.838;  685.575;  190.825;    0.000
261.906;  686.575;  133.825;    0.000
261.973;  675.575;  202.825;    0.000
262.040;  713.575;  179.825;    0.000
262.108;  704.575;  161.825;    0.000
262.175;  718.575;  155.825;    0.000
262.243;  709.575;  158.825;    0.000
262.310;  729.575;  129.825;    0.000
262.377;  716.575;  157.825;    0.000
262.445;  770.575;  132.825;    0.000
262.512;  807.575;  161.825;    0.000
262.579;  724.575;  151.825;    0.000
262.647;  780.575;  174.825;    0.000
262.714;  768.575;  174.825;    0.000
262.781;  743.575;  164.825;    0.000
262.849;  761.575;  168.825;    0.000
262.916;  816.575;  153.825;    0.000
262.983;  778.575;  201.825;    0.000
263.051;  786.575;  117.825;    0.000
263.118;  841.575;  150.825;    0.000
263.185;  774.575;  172.825;    0.000
263.252;  814.575;  154.825;    0.000
263.320;  837.575;  152.825;    0.000
263.387;  839.575;  136.825;    0.000
263.454;  792.575;  167.825;    0.000
263.522;  759.575;  122.825;    0.000
263.589;  801.575;  147.825;    0.000
263.656;  842.575;  130.825;    0.000
263.723;  791.575;  182.825;    0.000
263.790;  878.575;  163.825;    0.000
263.858;  857.575;  161.825;    0.000
263.925;  808.575;  153.825;    0.000
263.992;  793.575;  139.825;    0.000
264.059;  863.575;  141.825;    0.000
264.126;  861.575;  153.825;    0.000
264.194;  876.575;  144.825;    0.000
264.261;  800.575;  188.825;    0.000
264.328;  850.575;  161.825;    0.000
264.395;  891.575;  184.825;    0.000
264.462;  890.575;  162.825;    0.000
264.529;  900.575;  178.825;    0.000
264.597;  858.575;  160.825;    0.000
264.664;  915.575;  158.825;    0.000
264.731;  847.575;  176.825;    0.000
264.798;  919.575;  137.825;    0.000
264.865;  906.575;  175.825;    0.000
264.932;  841.575;  162.825;    0.000
264.999;  957.575;  153.825;    0.000
265.066;  889.575;  168.825;    0.000
265.133;  945.575;  142.825;    0.000
265.201; 1027.575;  163.825;    0.000
265.268;  916.575;  143.825;    0.000
265.335;  936.575;  156.825;    0.000
265.402;  900.575;  136.825;    0.000
265.469;  964.575;  127.825;    0.000
265.536;  945.575;  159.825;    0.000
265.603;  978.575;  191.825;    0.000
265.670;  914.575;  136.825;    0.000
265.737;  944.575;  186.825;    0.000
265.804;  976.575;  147.825;    0.000
265.871;  956.575;  147.825;    0.000
265.938;  937.575;  153.825;    0.000
266.005;  985.575;  172.825;    0.000
266.072;  958.575;  151.825;    0.000
266.139; 1034.575;  175.825;    0.000
266.206;  904.575;  165.825;    0.000
266.273;  962.575;  162.825;    0.000
266.340;  958.575;  150.825;    0.000
266.407;  989.575;  169.825;    0.000
266.474;  977.575;  151.825;    0.000
266.541; 1020.575;  164.825;    0.000
266.608;  987.575;  111.825;    0.000
266.675;  949.575;  173.825;    0.000
266.742; 1018.575;  148.825;    0.000
266.808; 1010.575;  185.825;    0.000
266.875; 1044.575;  188.825;    0.000
266.942; 1003.575;  131.825;    0.000
267.009; 1062.575;  184.825;    0.000
267.076; 1025.575;  200.825;    0.000
267.143; 1045.575;  216.825;    0.000
267.210; 1018.575;  138.825;    0.000
267.277; 1069.575;  143.825;    0.000
267.344; 1049.575;  172.825;    0.000
267.410; 1014.575;  172.825;    0.000
267.477; 1058.575;  160.825;    0.000
267.544; 1021.575;  175.825;    0.000
267.611; 1120.575;  189.825;    0.000
267.678; 1026.575;  162.825;    0.000
267.745; 1115.575;  206.825;    0.000
267.811; 1031.575;  146.825;    0.000
267.878; 1042.575;  147.825;    0.000
267.945; 1008.575;  170.825;    0.000
268.012; 1093.575;  153.825;    0.000
268.079; 1041.575;  185.825;    0.000
268.145; 1107.575;  197.825;    0.000
268.212; 1041.575;  167.825;    0.000
268.279; 1090.575;  145.825;    0.000
268.346; 1074.575;  182.825;    0.000
268.412; 1022.575;  144.825;    0.000
268.479; 1043.575;  186.825;    0.000
268.546; 1042.575;  147.825;    0.000
268.613; 1093.575;  188.825;    0.000
268.679; 1123.575;  173.825;    0.000
268.746; 1139.575;  204.825;    0.000
268.813; 1019.575;  199.825;    0.000
268.879; 1063.575;  157.825;    0.000
268.946; 1088.575;  192.825;    0.000
269.013; 1071.575;  136.825;    0.000
269.079;  985.575;  166.825;    0.000
269.146; 1099.575;  129.825;    0.000
269.213; 1049.575;  178.825;    0.000
269.280; 1032.575;  148.825;    0.000
269.346; 1047.575;  194.825;    0.000
269.413; 1100.575;  135.825;    0.000
269.479; 1049.575;  180.825;    0.000
269.546; 1040.575;  169.825;    0.000
269.613; 1028.575;  160.825;    0.000
269.679;  983.575;  161.825;    0.000
269.746;  996.575;  143.825;    0.000
269.813;  982.575;  172.825;    0.000
269.879; 1044.575;  152.825;    0.000
269.946; 1042.575;  156.825;    0.000
270.012; 1075.575;  190.825;    0.000
270.079; 1012.575;  143.825;    0.000
270.145; 1023.575;  148.825;    0.000
270.212; 1014.575;  176.825;    0.000
270.279; 1089.575;  168.825;    0.000
270.345; 1035.575;  143.825;    0.000
270.412; 1060.575;  155.825;    0.000
270.478;  999.575;  176.825;    0.000
270.545; 1021.575;  112.825;    0.000
270.611; 1116.575;  186.825;    0.000
270.678; 1009.575;  141.825;    0.000
270.744; 1034.575;  145.825;    0.000
270.811; 1023.575;  120.825;    0.000
270.877; 1002.575;  118.825;    0.000
270.944;  990.575;  135.825;    0.000
271.010; 1024.575;  128.825;    0.000
271.077;  963.575;  176.825;    0.000
271.143; 1081.575;  162.825;    0.000
271.210; 1031.575;  133.825;    0.000
271.276;  945.575;  107.825;    0.000
271.342; 1004.575;  202.825;    0.000
271.409; 1013.575;  160.825;    0.000
271.475;  958.575;  165.825;    0.000
271.542;  979.575;  152.825;    0.000
271.608; 1002.575;  163.825;    0.000
271.675;  974.575;  149.825;    0.000
271.741; 1038.575;  164.825;    0.000
271.807;  975.575;  128.825;    0.000
271.874; 1073.575;  148.825;    0.000
271.940; 1053.575;  179.825;    0.000
272.007;  989.575;  148.825;    0.000
272.073; 1039.575;  146.825;    0.000
272.139; 1045.575;  166.825;    0.000
272.206; 1024.575;  198.825;    0.000
272.272; 1032.575;  201.825;    0.000
272.338; 1124.575;  208.825;    0.000
272.405; 1019.575;  181.825;    0.000
272.471; 1036.575;  167.825;    0.000
272.537;  986.575;  189.825;    0.000
272.604; 1036.575;  162.825;    0.000
272.670;  984.575;  194.825;    0.000
272.736; 1029.575;  176.825;    0.000
272.802; 1018.575;  163.825;    0.000
272.869; 1009.575;  170.825;    0.000
272.935; 1036.575;  145.825;    0.000
273.001; 1032.575;  149.825;    0.000
273.068; 1036.575;  172.825;    0.000
273.134; 1075.575;  155.825;    0.000
273.200; 1050.575;  183.825;    0.000
273.266; 1010.575;  160.825;    0.000
273.333; 1100.575;  190.825;    0.000
273.399;  972.575;  132.825;    0.000
273.465; 1025.575;  179.825;    0.000
273.531; 1005.575;  161.825;    0.000
273.597; 1143.575;  194.825;    0.000
273.664; 1078.575;  193.825;    0.000
273.730; 1036.575;  180.825;    0.000
273.796; 1030.575;  145.825;    0.000
273.862; 1100.575;  176.825;    0.000
273.928; 1115.575;  169.825;    0.000
273.995; 1133.575;  202.825;    0.000
274.061; 1068.575;  176.825;    0.000
274.127; 1075.575;  178.825;    0.000
274.193; 1052.575;  106.825;    0.000
274.259; 1061.575;  186.825;    0.000
274.325; 1082.575;  163.825;    0.000
274.391; 1094.575;  162.825;    0.000
274.457; 1065.575;  145.825;    0.000
274.524; 1138.575;  189.825;    0.000
274.590; 1148.575;  161.825;    0.000
274.656; 1189.575;  157.825;    0.000
274.722; 1149.575;  143.825;    0.000
274.788; 1148.575;  166.825;    0.000
274.854; 1141.575;  200.825;    0.000
274.920; 1120.575;  132.825;    0.000
274.986; 1142.575;  184.825;    0.000
275.052; 1132.575;  169.825;    0.000
275.118; 1108.575;  153.825;    0.000
275.184; 1122.575;  182.825;    0.000
275.250; 1174.575;  124.825;    0.000
275.316; 1129.575;  154.825;    0.000
275.382; 1168.575;  150.825;    0.000
275.448; 1132.575;  180.825;    0.000
275.514; 1195.575;  143.825;    0.000
275.580; 1203.575;  120.825;    0.000
275.646; 1138.575;  127.825;    0.000
275.712; 1174.575;  109.825;    0.000
275.778; 1202.575;  126.825;    0.000
275.844; 1229.575;  155.825;    0.000
275.910; 1115.575;  164.825;    0.000
275.976; 1199.575;  161.825;    0.000
276.042; 1177.575;  152.825;    0.000
276.108; 1243.575;  159.825;    0.000
276.174; 1204.575;  149.825;    0.000
276.240; 1271.575;  112.825;    0.000
276.306; 1211.575;  142.825;    0.000
276.372; 1318.575;  136.825;    0.000
276.437; 1337.575;  141.825;    0.000
276.503; 1202.575;  150.825;    0.000
276.569; 1343.575;  178.825;    0.000
276.635; 1259.575;  117.825;    0.000
276.701; 1409.575;  174.825;    0.000
276.767; 1426.575;  136.825;    0.000
276.833; 1349.575;  119.825;    0.000
276.899; 1369.575;  171.825;    0.000
276.964; 1517.575;  146.825;    0.000
277.030; 1464.575;  157.825;    0.000
277.096; 1413.575;  124.825;    0.000
277.162; 1518.575;  185.825;    0.000
277.228; 1558.575;  125.825;    0.000
277.293; 1608.575;  159.825;    0.000
277.359; 1718.575;  186.825;    0.000
277.425; 1734.575;  176.825;    0.000
277.491; 1783.575;  140.825;    0.000
277.557; 2055.575;  172.825;    0.000
277.622; 2720.575;  187.825;    0.000
277.688; 2729.575;  203.825;    0.000
277.754; 2775.575;  170.825;    0.000
277.820; 3113.575;  142.825;    0.000
277.885; 3633.575;  182.825;    0.000
277.951; 4470.575;  171.825;    0.000
278.017; 3786.575;  173.825;    0.000
278.083; 3277.575;  151.825;    0.000
278.148; 3204.575;  159.825;    0.000
278.214; 3266.575;  173.825;    0.000
278.280; 3509.575;  137.825;    0.000
278.345; 2995.575;  190.825;    0.000
278.411; 2892.575;  149.825;    0.000
278.477; 3026.575;  157.825;    0.000
278.542; 3151.575;  136.825;    0.000
278.608; 3372.575;  144.825;    0.000
278.674; 3661.575;  215.825;    0.000
278.739; 4110.575;  148.825;    0.000
278.805; 4631.575;  152.825;    0.000
278.871; 5535.575;  170.825;    0.000
278.936; 6860.575;  180.825;    0.000
279.002;10306.575;  177.825;    0.000
279.067;13369.575;  172.825;    0.000
279.133;13397.575;  160.825;    0.000
279.199;12223.575;  165.825;    0.000
279.264;12898.575;  130.825;    0.000
279.330;14971.575;  154.825;    0.000
279.395;20278.574;  170.825;    0.000
279.461;27808.574;  136.825;    0.000
279.527;31879.574;  174.825;    0.000
279.592;29229.574;  179.825;    0.000
279.658;23295.574;  187.825;    0.000
279.723;22099.574;  201.825;    0.000
279.789;22800.574;  194.825;    0.000
279.854;20253.574;  171.825;    0.000
279.920;16732.574;  183.825;    0.000
279.985;15019.575;  173.825;    0.000
280.051;15147.575;  194.825;    0.000
280.116;18540.574;  197.825;    0.000
280.182;25286.574;  171.825;    0.000
280.247;29792.574;  131.825;    0.000
280.313;24513.574;  166.825;    0.000
280.378;16425.574;  159.825;    0.000
280.444;11686.575;  190.825;    0.000
280.509; 9197.575;  189.825;    0.000
280.574; 7694.575;  171.825;    0.000
280.640; 6410.575;  167.825;    0.000
280.705; 5740.575;  129.825;    0.000
280.771; 5213.575;  193.825;    0.000
280.836; 4930.575;  172.825;    0.000
280.902; 4509.575;  189.825;    0.000
280.967; 4263.575;  143.825;    0.000
281.032; 3940.575;  182.825;    0.000
281.098; 3616.575;  172.825;    0.000
281.163; 3507.575;  184.825;    0.000
281.229; 3278.575;  210.825;    0.000
281.294; 3145.575;  223.825;    0.000
281.359; 3096.575;  197.825;    0.000
281.425; 3052.575;  192.825;    0.000
281.490; 2877.575;  162.825;    0.000
281.555; 2851.575;  193.825;    0.000
281.621; 2658.575;  141.825;    0.000
281.686; 2604.575;  166.825;    0.000
281.751; 2538.575;  204.825;    0.000
281.816; 2416.575;  159.825;    0.000
281.882; 2461.575;  146.825;    0.000
281.947; 2327.575;  176.825;    0.000
282.012; 2264.575;  139.825;    0.000
282.078; 2263.575;  186.825;    0.000
282.143; 2154.575;  151.825;    0.000
282.208; 2216.575;  213.825;    0.000
282.273; 2119.575;  160.825;    0.000
282.339; 2006.575;  175.825;    0.000
282.404; 2049.575;  157.825;    0.000
282.469; 1921.575;  185.825;    0.000
282.534; 1966.575;  166.825;    0.000
282.600; 1919.575;  168.825;    0.000
282.665; 1913.575;  167.825;    0.000
282.730; 1906.575;  148.825;    0.000
282.795; 1856.575;  186.825;    0.000
282.860; 1941.575;  161.825;    0.000
282.926; 1863.575;  178.825;    0.000
282.991; 1824.575;  139.825;    0.000
283.056; 1901.575;  158.825;    0.000
283.121; 1834.575;  191.825;    0.000
283.186; 1810.575;  182.825;    0.000
283.251; 1817.575;  181.825;    0.000
283.316; 1822.575;  187.825;    0.000
283.382; 1758.575;  175.825;    0.000
283.447; 1771.575;  183.825;    0.000
283.512; 1681.575;  175.825;    0.000
283.577; 1822.575;  180.825;    0.000
283.642; 1759.575;  193.825;    0.000
283.707; 1691.575;  145.825;    0.000
283.772; 1651.575;  143.825;    0.000
283.837; 1690.575;  143.825;    0.000
283.902; 1661.575;  150.825;    0.000
283.967; 1667.575;  166.825;    0.000
284.032; 1677.575;  126.825;    0.000
284.097; 1723.575;  201.825;    0.000
284.163; 1671.575;  133.825;    0.000
284.228; 1760.575;  193.825;    0.000
284.293; 1727.575;  157.825;    0.000
284.358; 1734.575;  185.825;    0.000
284.423; 1707.575;  142.825;    0.000
284.488; 1703.575;  192.825;    0.000
284.553; 1786.575;  146.825;    0.000
284.618; 1797.575;  154.825;    0.000
284.683; 1839.575;  172.825;    0.000
284.748; 1859.575;  195.825;    0.000
284.812; 1975.575;  190.825;    0.000
284.877; 2113.575;  169.825;    0.000
284.942; 2476.575;  195.825;    0.000
285.007; 2971.575;  204.825;    0.000
285.072; 4315.575;  189.825;    0.000
285.137; 7645.575;  149.825;    0.000
285.202;10038.575;  164.825;    0.000
285.267; 8034.575;  161.825;    0.000
285.332; 4909.575;  140.825;    0.000
285.397; 3419.575;  142.825;    0.000
285.462; 2868.575;  146.825;    0.000
285.527; 2461.575;  132.825;    0.000
285.591; 2295.575;  160.825;    0.000
285.656; 2074.575;  136.825;    0.000
285.721; 1987.575;  135.825;    0.000
285.786; 1862.575;  171.825;    0.000
285.851; 1896.575;  168.825;    0.000
285.916; 1903.575;  178.825;    0.000
285.981; 1831.575;  152.825;    0.000
286.045; 1713.575;  167.825;    0.000
286.110; 1731.575;  187.825;    0.000
286.175; 1650.575;  162.825;    0.000
286.240; 1653.575;  163.825;    0.000
286.305; 1669.575;  190.825;    0.000
286.369; 1676.575;  143.825;    0.000
286.434; 1595.575;  185.825;    0.000
286.499; 1649.575;  195.825;    0.000
286.564; 1682.575;  173.825;    0.000
286.628; 1570.575;  159.825;    0.000
286.693; 1690.575;  175.825;    0.000
286.758; 1603.575;  170.825;    0.000
286.823; 1578.575;  129.825;    0.000
286.887; 1513.575;  172.825;    0.000
286.952; 1591.575;  163.825;    0.000
287.017; 1671.575;  217.825;    0.000
287.082; 1565.575;  165.825;    0.000
287.146; 1565.575;  176.825;    0.000
287.211; 1494.575;  192.825;    0.000
287.276; 1553.575;  147.825;    0.000
287.340; 1555.575;  162.825;    0.000
287.405; 1526.575;  196.825;    0.000
287.470; 1502.575;  148.825;    0.000
287.534; 1583.575;  166.825;    0.000
287.599; 1554.575;  193.825;    0.000
287.663; 1535.575;  191.825;    0.000
287.728; 1509.575;  146.825;    0.000
287.793; 1525.575;  234.825;    0.000
287.857; 1565.575;  177.825;    0.000
287.922; 1551.575;  166.825;    0.000
287.987; 1593.575;  169.825;    0.000
288.051; 1606.575;  169.825;    0.000
288.116; 1668.575;  187.825;    0.000
288.180; 1726.575;  200.825;    0.000
288.245; 1583.575;  201.825;    0.000
288.309; 1580.575;  176.825;    0.000
288.374; 1495.575;  162.825;    0.000
288.439; 1570.575;  195.825;    0.000
288.503; 1535.575;  162.825;    0.000
288.568; 1581.575;  228.825;    0.000
288.632; 1538.575;  194.825;    0.000
288.697; 1567.575;  173.825;    0.000
288.761; 1545.575;  153.825;    0.000
288.826; 1495.575;  151.825;    0.000
288.890; 1588.575;  208.825;    0.000
288.955; 1519.575;  159.825;    0.000
289.019; 1595.575;  198.825;    0.000
289.084; 1558.575;  152.825;    0.000
289.148; 1541.575;  171.825;    0.000
289.212; 1564.575;  184.825;    0.000
289.277; 1529.575;  165.825;    0.000
289.341; 1589.575;  207.825;    0.000
289.406; 1479.575;  156.825;    0.000
289.470; 1580.575;  191.825;    0.000
289.535; 1552.575;  222.825;    0.000
289.599; 1564.575;  214.825;    0.000
289.663; 1538.575;  183.825;    0.000
289.728; 1515.575;  192.825;    0.000
289.792; 1474.575;  197.825;    0.000
289.857; 1574.575;  221.825;    0.000
289.921; 1572.575;  177.825;    0.000
289.985; 1529.575;  177.825;    0.000
290.050; 1507.575;  178.825;    0.000
290.114; 1559.575;  112.825;    0.000
290.178; 1603.575;  170.825;    0.000
290.243; 1490.575;  162.825;    0.000
290.307; 1452.575;  178.825;    0.000
290.371; 1477.575;  141.825;    0.000
290.436; 1555.575;  178.825;    0.000
290.500; 1489.575;  135.825;    0.000
290.564; 1585.575;  199.825;    0.000
290.629; 1476.575;  165.825;    0.000
290.693; 1508.575;  154.825;    0.000
290.757; 1583.575;  159.825;    0.000
290.821; 1504.575;  179.825;    0.000
290.886; 1534.575;  141.825;    0.000
290.950; 1526.575;  166.825;    0.000
291.014; 1504.575;  169.825;    0.000
291.078; 1545.575;  191.825;    0.000
291.143; 1568.575;  169.825;    0.000
291.207; 1569.575;  164.825;    0.000
291.271; 1567.575;  193.825;    0.000
291.335; 1584.575;  150.825;    0.000
291.399; 1560.575;  175.825;    0.000
291.464; 1630.575;  128.825;    0.000
291.528; 1752.575;  162.825;    0.000
291.592; 1605.575;  152.825;    0.000
291.656; 1578.575;  175.825;    0.000
291.720; 1664.575;  173.825;    0.000
291.784; 1617.575;  192.825;    0.000
291.849; 1662.575;  159.825;    0.000
291.913; 1574.575;  174.825;    0.000
291.977; 1591.575;  177.825;    0.000
292.041; 1680.575;  188.825;    0.000
292.105; 1586.575;  174.825;    0.000
292.169; 1577.575;  143.825;    0.000
292.233; 1611.575;  149.825;    0.000
292.297; 1693.575;  176.825;    0.000
292.361; 1746.575;  178.825;    0.000
292.425; 1699.575;  153.825;    0.000
292.490; 1684.575;  185.825;    0.000
292.554; 1805.575;  144.825;    0.000
292.618; 1782.575;  166.825;    0.000
292.682; 2017.575;  181.825;    0.000
292.746; 2095.575;  152.825;    0.000
292.810; 2818.575;  208.825;    0.000
292.874; 3346.575;  142.825;    0.000
292.938; 3503.575;  195.825;    0.000
293.002; 3086.575;  156.825;    0.000
293.066; 2791.575;  108.825;    0.000
293.130; 2579.575;  136.825;    0.000
293.194; 2499.575;  135.825;    0.000
293.258; 2515.575;  187.825;    0.000
293.322; 2465.575;  148.825;    0.000
293.386; 2437.575;  186.825;    0.000
293.450; 2533.575;  196.825;    0.000
293.514; 2903.575;  175.825;    0.000
293.577; 3653.575;  137.825;    0.000
293.641; 4748.575;  142.825;    0.000
293.705; 5012.575;  201.825;    0.000
293.769; 4632.575;  150.825;    0.000
293.833; 4071.575;  147.825;    0.000
293.897; 3498.575;  170.825;    0.000
293.961; 3228.575;  121.825;    0.000
294.025; 2818.575;  172.825;    0.000
294.089; 2670.575;  167.825;    0.000
294.152; 2581.575;  167.825;    0.000
294.216; 2479.575;  165.825;    0.000
294.280; 2284.575;  168.825;    0.000
294.344; 2255.575;  160.825;    0.000
294.408; 2123.575;  187.825;    0.000
294.472; 2066.575;  141.825;    0.000
294.536; 2039.575;  184.825;    0.000
294.599; 2050.575;  176.825;    0.000
294.663; 1839.575;  120.825;    0.000
294.727; 1833.575;  159.825;    0.000
294.791; 1833.575;  190.825;    0.000
294.855; 1809.575;  148.825;    0.000
294.918; 1797.575;  160.825;    0.000
294.982; 1791.575;  156.825;    0.000
295.046; 1818.575;  177.825;    0.000
295.110; 1736.575;  149.825;    0.000
295.173; 1674.575;  156.825;    0.000
295.237; 1736.575;  174.825;    0.000
295.301; 1701.575;  152.825;    0.000
295.364; 1683.575;  204.825;    0.000
295.428; 1666.575;  196.825;    0.000
295.492; 1611.575;  178.825;    0.000
295.556; 1674.575;  161.825;    0.000
295.619; 1626.575;  178.825;    0.000
295.683; 1685.575;  152.825;    0.000
295.747; 1517.575;  148.825;    0.000
295.810; 1531.575;  177.825;    0.000
295.874; 1613.575;  146.825;    0.000
295.938; 1519.575;  115.825;    0.000
296.001; 1574.575;  172.825;    0.000
296.065; 1610.575;  146.825;    0.000
296.128; 1497.575;  164.825;    0.000
296.192; 1552.575;  137.825;    0.000
296.256; 1505.575;  143.825;    0.000
296.319; 1523.575;  156.825;    0.000
296.383; 1465.575;  165.825;    0.000
296.447; 1484.575;  170.825;    0.000
296.510; 1478.575;  174.825;    0.000
296.574; 1522.575;  127.825;    0.000
296.637; 1509.575;  132.825;    0.000
296.701; 1502.575;  206.825;    0.000
296.764; 1450.575;  179.825;    0.000
296.828; 1577.575;  213.825;    0.000
296.891; 1429.575;  149.825;    0.000
296.955; 1506.575;  170.825;    0.000
297.018; 1447.575;  185.825;    0.000
297.082; 1477.575;  205.825;    0.000
297.145; 1484.575;  154.825;    0.000
297.209; 1446.575;  200.825;    0.000
297.272; 1479.575;  157.825;    0.000
297.336; 1409.575;  164.825;    0.000
297.399; 1450.575;  166.825;    0.000
297.463; 1512.575;  195.825;    0.000
297.526; 1465.575;  176.825;    0.000
297.590; 1465.575;  198.825;    0.000
297.653; 1516.575;  146.825;    0.000
297.717; 1461.575;  175.825;    0.000
297.780; 1482.575;  139.825;    0.000
297.843; 1434.575;  174.825;    0.000
297.907; 1370.575;  149.825;    0.000
297.970; 1412.575;  161.825;    0.000
298.034; 1442.575;  185.825;    0.000
298.097; 1443.575;  167.825;    0.000
298.160; 1431.575;  195.825;    0.000
298.224; 1431.575;  178.825;    0.000
298.287; 1412.575;  164.825;    0.000
298.350; 1419.575;  194.825;    0.000
298.414; 1493.575;  191.825;    0.000
298.477; 1451.575;  155.825;    0.000
298.540; 1461.575;  139.825;    0.000
298.604; 1466.575;  198.825;    0.000
298.667; 1385.575;  183.825;    0.000
298.730; 1402.575;  185.825;    0.000
298.794; 1387.575;  153.825;    0.000
298.857; 1384.575;  169.825;    0.000
298.920; 1407.575;  159.825;    0.000
298.984; 1380.575;  179.825;    0.000
299.047; 1347.575;  174.825;    0.000
299.110; 1327.575;  144.825;    0.000
299.173; 1416.575;  190.825;    0.000
299.237; 1433.575;  163.825;    0.000
299.300; 1368.575;  153.825;    0.000
299.363; 1369.575;  145.825;    0.000
299.426; 1295.575;  160.825;    0.000
299.489; 1266.575;  173.825;    0.000
299.553; 1388.575;  209.825;    0.000
299.616; 1318.575;  172.825;    0.000
299.679; 1348.575;  204.825;    0.000
299.742; 1375.575;  162.825;    0.000
299.805; 1349.575;  198.825;    0.000
299.868; 1324.575;  176.825;    0.000
299.932; 1389.575;  166.825;    0.000
299.995; 1320.575;  162.825;    0.000
300.058; 1369.575;  175.825;    0.000
300.121; 1312.575;  197.825;    0.000
300.184; 1330.575;  188.825;    0.000
300.247; 1270.575;  181.825;    0.000
300.310; 1346.575;  161.825;    0.000
300.374; 1372.575;  201.825;    0.000
300.437; 1288.575;  156.825;    0.000
300.500; 1351.575;  180.825;    0.000
300.563; 1319.575;  174.825;    0.000
300.626; 1361.575;  206.825;    0.000
300.689; 1304.575;  218.825;    0.000
300.752; 1306.575;  192.825;    0.000
300.815; 1337.575;  172.825;    0.000
300.878; 1345.575;  207.825;    0.000
300.941; 1302.575;  163.825;    0.000
301.004; 1342.575;  171.825;    0.000
301.067; 1293.575;  198.825;    0.000
301.130; 1356.575;  156.825;    0.000
301.193; 1364.575;  173.825;    0.000
301.256; 1315.575;  167.825;    0.000
301.319; 1317.575;  211.825;    0.000
301.382; 1266.575;  167.825;    0.000
301.445; 1394.575;  224.825;    0.000
301.508; 1298.575;  168.825;    0.000
301.571; 1277.575;  161.825;    0.000
301.634; 1372.575;  177.825;    0.000
301.697; 1209.575;  203.825;    0.000
301.760; 1301.575;  190.825;    0.000
301.823; 1321.575;  182.825;    0.000
301.885; 1242.575;  202.825;    0.000
301.948; 1376.575;  200.825;    0.000
302.011; 1354.575;  157.825;    0.000
302.074; 1308.575;  205.825;    0.000
302.137; 1274.575;  149.825;    0.000
302.200; 1371.575;  201.825;    0.000
302.263; 1262.575;  178.825;    0.000
302.326; 1251.575;  184.825;    0.000
302.388; 1288.575;  176.825;    0.000
302.451; 1311.575;  146.825;    0.000
302.514; 1297.575;  192.825;    0.000
302.577; 1301.575;  181.825;    0.000
302.640; 1297.575;  186.825;    0.000
302.703; 1310.575;  164.825;    0.000
302.765; 1261.575;  197.825;    0.000
302.828; 1270.575;  208.825;    0.000
302.891; 1284.575;  168.825;    0.000
302.954; 1232.575;  177.825;    0.000
303.016; 1305.575;  190.825;    0.000
303.079; 1332.575;  216.825;    0.000
303.142; 1283.575;  228.825;    0.000
303.205; 1282.575;  192.825;    0.000
303.267; 1248.575;  182.825;    0.000
303.330; 1218.575;  201.825;    0.000
303.393; 1316.575;  196.825;    0.000
303.456; 1253.575;  184.825;    0.000
303.518; 1341.575;  194.825;    0.000
303.581; 1294.575;  195.825;    0.000
303.644; 1309.575;  184.825;    0.000
303.706; 1290.575;  150.825;    0.000
303.769; 1332.575;  182.825;    0.000
303.832; 1218.575;  143.825;    0.000
303.894; 1233.575;  207.825;    0.000
303.957; 1258.575;  178.825;    0.000
304.020; 1281.575;  203.825;    0.000
304.082; 1256.575;  175.825;    0.000
304.145; 1299.575;  171.825;    0.000
304.207; 1240.575;  157.825;    0.000
304.270; 1365.575;  195.825;    0.000
304.333; 1302.575;  195.825;    0.000
304.395; 1268.575;  197.825;    0.000
304.458; 1239.575;  231.825;    0.000
304.520; 1348.575;  218.825;    0.000
304.583; 1288.575;  177.825;    0.000
304.646; 1271.575;  177.825;    0.000
304.708; 1290.575;  178.825;    0.000
304.771; 1265.575;  143.825;    0.000
304.833; 1270.575;  241.825;    0.000
304.896; 1344.575;  200.825;    0.000
304.958; 1369.575;  176.825;    0.000
305.021; 1283.575;  159.825;    0.000
305.083; 1220.575;  159.825;    0.000
305.146; 1305.575;  190.825;    0.000
305.208; 1304.575;  152.825;    0.000
305.271; 1260.575;  162.825;    0.000
305.333; 1357.575;  219.825;    0.000
305.396; 1360.575;  163.825;    0.000
305.458; 1334.575;  215.825;    0.000
305.520; 1274.575;  174.825;    0.000
305.583; 1226.575;  161.825;    0.000
305.645; 1286.575;  203.825;    0.000
305.708; 1374.575;  163.825;    0.000
305.770; 1343.575;  215.825;    0.000
305.833; 1241.575;  207.825;    0.000
305.895; 1277.575;  166.825;    0.000
305.957; 1299.575;  175.825;    0.000
306.020; 1287.575;  169.825;    0.000
306.082; 1333.575;  203.825;    0.000
306.144; 1322.575;  181.825;    0.000
306.207; 1278.575;  199.825;    0.000
306.269; 1253.575;  177.825;    0.000
306.331; 1327.575;  160.825;    0.000
306.394; 1330.575;  193.825;    0.000
306.456; 1203.575;  136.825;    0.000
306.518; 1323.575;  189.825;    0.000
306.581; 1256.575;  156.825;    0.000
306.643; 1243.575;  190.825;    0.000
306.705; 1311.575;  190.825;    0.000
306.768; 1307.575;  172.825;    0.000
306.830; 1385.575;  214.825;    0.000
306.892; 1292.575;  198.825;    0.000
306.954; 1337.575;  177.825;    0.000
307.017; 1327.575;  183.825;    0.000
307.079; 1391.575;  170.825;    0.000
307.141; 1362.575;  173.825;    0.000
307.203; 1372.575;  171.825;    0.000
307.266; 1300.575;  166.825;    0.000
307.328; 1367.575;  207.825;    0.000
307.390; 1329.575;  201.825;    0.000
307.452; 1259.575;  182.825;    0.000
307.514; 1330.575;  213.825;    0.000
307.577; 1358.575;  213.825;    0.000
307.639; 1351.575;  197.825;    0.000
307.701; 1346.575;  174.825;    0.000
307.763; 1447.575;  181.825;    0.000
307.825; 1377.575;  186.825;    0.000
307.887; 1367.575;  198.825;    0.000
307.949; 1297.575;  158.825;    0.000
308.012; 1415.575;  209.825;    0.000
308.074; 1395.575;  176.825;    0.000
308.136; 1384.575;  227.825;    0.000
308.198; 1373.575;  187.825;    0.000
308.260; 1388.575;  211.825;    0.000
308.322; 1409.575;  206.825;    0.000
308.384; 1397.575;  186.825;    0.000
308.446; 1376.575;  175.825;    0.000
308.508; 1404.575;  211.825;    0.000
308.570; 1404.575;  191.825;    0.000
308.632; 1408.575;  195.825;    0.000
308.694; 1422.575;  173.825;    0.000
308.756; 1434.575;  185.825;    0.000
308.818; 1440.575;  195.825;    0.000
308.880; 1466.575;  189.825;    0.000
308.942; 1472.575;  231.825;    0.000
309.004; 1491.575;  188.825;    0.000
309.066; 1491.575;  196.825;    0.000
309.128; 1470.575;  155.825;    0.000
309.190; 1493.575;  176.825;    0.000
309.252; 1606.575;  191.825;    0.000
309.314; 1641.575;  236.825;    0.000
309.376; 1617.575;  212.825;    0.000
309.438; 1527.575;  201.825;    0.000
309.500; 1518.575;  206.825;    0.000
309.562; 1569.575;  213.825;    0.000
309.624; 1580.575;  196.825;    0.000
309.686; 1682.575;  198.825;    0.000
309.747; 1719.575;  186.825;    0.000
309.809; 1631.575;  215.825;    0.000
309.871; 1494.575;  242.825;    0.000
309.933; 1470.575;  162.825;    0.000
309.995; 1511.575;  163.825;    0.000
310.057; 1541.575;  145.825;    0.000
310.119; 1565.575;  205.825;    0.000
310.180; 1495.575;  195.825;    0.000
310.242; 1443.575;  167.825;    0.000
310.304; 1489.575;  213.825;    0.000
310.366; 1460.575;  224.825;    0.000
310.428; 1486.575;  170.825;    0.000
310.489; 1461.575;  195.825;    0.000
310.551; 1509.575;  207.825;    0.000
310.613; 1434.575;  168.825;    0.000
310.675; 1456.575;  188.825;    0.000
310.737; 1439.575;  211.825;    0.000
310.798; 1478.575;  221.825;    0.000
310.860; 1436.575;  201.825;    0.000
310.922; 1507.575;  206.825;    0.000
310.983; 1480.575;  222.825;    0.000
311.045; 1447.575;  235.825;    0.000
311.107; 1481.575;  184.825;    0.000
311.169; 1500.575;  148.825;    0.000
311.230; 1459.575;  211.825;    0.000
311.292; 1518.575;  235.825;    0.000
311.354; 1443.575;  183.825;    0.000
311.415; 1428.575;  196.825;    0.000
311.477; 1480.575;  200.825;    0.000
311.539; 1439.575;  171.825;    0.000
311.600; 1481.575;  169.825;    0.000
311.662; 1447.575;  231.825;    0.000
311.724; 1536.575;  204.825;    0.000
311.785; 1478.575;  214.825;    0.000
311.847; 1459.575;  193.825;    0.000
311.908; 1538.575;  180.825;    0.000
311.970; 1511.575;  233.825;    0.000
312.032; 1450.575;  192.825;    0.000
312.093; 1449.575;  195.825;    0.000
312.155; 1435.575;  194.825;    0.000
312.216; 1515.575;  238.825;    0.000
312.278; 1535.575;  146.825;    0.000
312.339; 1397.575;  184.825;    0.000
312.401; 1524.575;  201.825;    0.000
312.462; 1389.575;  173.825;    0.000
312.524; 1467.575;  205.825;    0.000
312.585; 1495.575;  199.825;    0.000
312.647; 1484.575;  168.825;    0.000
312.708; 1460.575;  180.825;    0.000
312.770; 1420.575;  180.825;    0.000
312.831; 1417.575;  176.825;    0.000
312.893; 1503.575;  211.825;    0.000
312.954; 1542.575;  178.825;    0.000
313.016; 1524.575;  204.825;    0.000
313.077; 1476.575;  216.825;    0.000
313.139; 1532.575;  172.825;    0.000
313.200; 1487.575;  197.825;    0.000
313.261; 1493.575;  227.825;    0.000
313.323; 1474.575;  204.825;    0.000
313.384; 1482.575;  182.825;    0.000
313.446; 1480.575;  204.825;    0.000
313.507; 1539.575;  164.825;    0.000
313.568; 1478.575;  197.825;    0.000
313.630; 1513.575;  190.825;    0.000
313.691; 1505.575;  185.825;    0.000
313.752; 1480.575;  192.825;    0.000
313.814; 1457.575;  176.825;    0.000
313.875; 1465.575;  210.825;    0.000
313.936; 1484.575;  165.825;    0.000
313.998; 1438.575;  162.825;    0.000
314.059; 1452.575;  178.825;    0.000
314.120; 1512.575;  176.825;    0.000
314.182; 1546.575;  167.825;    0.000
314.243; 1500.575;  204.825;    0.000
314.304; 1533.575;  197.825;    0.000
314.365; 1542.575;  183.825;    0.000
314.427; 1536.575;  176.825;    0.000
314.488; 1509.575;  149.825;    0.000
314.549; 1580.575;  218.825;    0.000
314.610; 1514.575;  160.825;    0.000
314.672; 1509.575;  187.825;    0.000
314.733; 1554.575;  184.825;    0.000
314.794; 1498.575;  164.825;    0.000
314.855; 1478.575;  191.825;    0.000
314.917; 1443.575;  172.825;    0.000
314.978; 1486.575;  185.825;    0.000
315.039; 1481.575;  194.825;    0.000
315.100; 1489.575;  190.825;    0.000
315.161; 1459.575;  185.825;    0.000
315.222; 1499.575;  204.825;    0.000
315.283; 1435.575;  166.825;    0.000
315.345; 1496.575;  133.825;    0.000
315.406; 1490.575;  191.825;    0.000
315.467; 1487.575;  166.825;    0.000
315.528; 1495.575;  194.825;    0.000
315.589; 1503.575;  193.825;    0.000
315.650; 1486.575;  190.825;    0.000
315.711; 1471.575;  219.825;    0.000
315.772; 1503.575;  159.825;    0.000
315.833; 1511.575;  191.825;    0.000
315.894; 1429.575;  202.825;    0.000
315.955; 1553.575;  167.825;    0.000
316.016; 1575.575;  177.825;    0.000
316.078; 1525.575;  185.825;    0.000
316.139; 1519.575;  219.825;    0.000
316.200; 1460.575;  163.825;    0.000
316.261; 1458.575;  183.825;    0.000
316.322; 1495.575;  230.825;    0.000
316.383; 1472.575;  198.825;    0.000
316.444; 1517.575;  209.825;    0.000
316.504; 1518.575;  179.825;    0.000
316.565; 1477.575;  185.825;    0.000
316.626; 1541.575;  155.825;    0.000
316.687; 1532.575;  211.825;    0.000
316.748; 1490.575;  192.825;    0.000
316.809; 1495.575;  183.825;    0.000
316.870; 1500.575;  196.825;    0.000
316.931; 1490.575;  173.825;    0.000
316.992; 1558.575;  179.825;    0.000
317.053; 1487.575;  186.825;    0.000
317.114; 1499.575;  189.825;    0.000
317.175; 1470.575;  226.825;    0.000
317.235; 1457.575;  206.825;    0.000
317.296; 1421.575;  191.825;    0.000
317.357; 1519.575;  173.825;    0.000
317.418; 1539.575;  212.825;    0.000
317.479; 1529.575;  247.825;    0.000
317.540; 1516.575;  205.825;    0.000
317.601; 1448.575;  205.825;    0.000
317.661; 1475.575;  150.825;    0.000
317.722; 1583.575;  198.825;    0.000
317.783; 1524.575;  153.825;    0.000
317.844; 1594.575;  202.825;    0.000
317.904; 1546.575;  180.825;    0.000
317.965; 1475.575;  205.825;    0.000
318.026; 1569.575;  223.825;    0.000
318.087; 1556.575;  218.825;    0.000
318.148; 1521.575;  207.825;    0.000
318.208; 1519.575;  212.825;    0.000
318.269; 1471.575;  174.825;    0.000
318.330; 1526.575;  191.825;    0.000
318.390; 1492.575;  197.825;    0.000
318.451; 1538.575;  167.825;    0.000
318.512; 1463.575;  174.825;    0.000
318.572; 1501.575;  199.825;    0.000
318.633; 1505.575;  233.825;    0.000
318.694; 1562.575;  232.825;    0.000
318.754; 1477.575;  181.825;    0.000
318.815; 1487.575;  199.825;    0.000
318.876; 1548.575;  207.825;    0.000
318.936; 1532.575;  202.825;    0.000
318.997; 1509.575;  182.825;    0.000
319.058; 1512.575;  180.825;    0.000
319.118; 1531.575;  199.825;    0.000
319.179; 1542.575;  199.825;    0.000
319.239; 1486.575;  229.825;    0.000
319.300; 1520.575;  223.825;    0.000
319.361; 1420.575;  210.825;    0.000
319.421; 1465.575;  205.825;    0.000
319.482; 1425.575;  205.825;    0.000
319.542; 1461.575;  176.825;    0.000
319.603; 1500.575;  191.825;    0.000
319.663; 1512.575;  183.825;    0.000
319.724; 1480.575;  174.825;    0.000
319.784; 1422.575;  198.825;    0.000
319.845; 1482.575;  218.825;    0.000
319.905; 1490.575;  217.825;    0.000
319.966; 1560.575;  197.825;    0.000
320.026; 1450.575;  209.825;    0.000
320.087; 1535.575;  225.825;    0.000
320.147; 1521.575;  201.825;    0.000
320.208; 1497.575;  176.825;    0.000
320.268; 1482.575;  168.825;    0.000
320.329; 1513.575;  238.825;    0.000
320.389; 1483.575;  220.825;    0.000
320.449; 1508.575;  230.825;    0.000
320.510; 1584.575;  234.825;    0.000
320.570; 1517.575;  210.825;    0.000
320.631; 1464.575;  207.825;    0.000
320.691; 1481.575;  222.825;    0.000
320.751; 1496.575;  195.825;    0.000
320.812; 1494.575;  193.825;    0.000
320.872; 1486.575;  237.825;    0.000
320.932; 1562.575;  213.825;    0.000
320.993; 1498.575;  185.825;    0.000
321.053; 1598.575;  245.825;    0.000
321.113; 1525.575;  206.825;    0.000
321.174; 1465.575;  202.825;    0.000
321.234; 1557.575;  244.825;    0.000
321.294; 1433.575;  228.825;    0.000
321.355; 1539.575;  208.825;    0.000
321.415; 1574.575;  223.825;    0.000
321.475; 1482.575;  203.825;    0.000
321.535; 1500.575;  230.825;    0.000
321.596; 1502.575;  186.825;    0.000
321.656; 1467.575;  216.825;    0.000
321.716; 1453.575;  207.825;    0.000
321.776; 1529.575;  181.825;    0.000
321.837; 1562.575;  207.825;    0.000
321.897; 1529.575;  225.825;    0.000
321.957; 1515.575;  222.825;    0.000
322.017; 1558.575;  215.825;    0.000
322.077; 1562.575;  250.825;    0.000
322.138; 1553.575;  189.825;    0.000
322.198; 1492.575;  200.825;    0.000
322.258; 1493.575;  217.825;    0.000
322.318; 1491.575;  183.825;    0.000
322.378; 1511.575;  231.825;    0.000
322.438; 1532.575;  228.825;    0.000
322.499; 1560.575;  248.825;    0.000
322.559; 1488.575;  198.825;    0.000
322.619; 1507.575;  221.825;    0.000
322.679; 1445.575;  217.825;    0.000
322.739; 1432.575;  204.825;    0.000
322.799; 1532.575;  236.825;    0.000
322.859; 1500.575;  213.825;    0.000
322.919; 1459.575;  210.825;    0.000
322.979; 1478.575;  244.825;    0.000
323.039; 1518.575;  218.825;    0.000
323.099; 1476.575;  232.825;    0.000
323.159; 1474.575;  216.825;    0.000
323.219; 1487.575;  169.825;    0.000
323.279; 1537.575;  236.825;    0.000
323.339; 1535.575;  243.825;    0.000
323.399; 1632.575;  208.825;    0.000
323.459; 1541.575;  220.825;    0.000
323.519; 1593.575;  228.825;    0.000
323.579; 1496.575;  164.825;    0.000
323.639; 1533.575;  209.825;    0.000
323.699; 1548.575;  188.825;    0.000
323.759; 1610.575;  206.825;    0.000
323.819; 1516.575;  204.825;    0.000
323.879; 1536.575;  222.825;    0.000
323.939; 1524.575;  206.825;    0.000
323.999; 1482.575;  202.825;    0.000
324.059; 1563.575;  245.825;    0.000
324.119; 1532.575;  214.825;    0.000
324.178; 1490.575;  183.825;    0.000
324.238; 1520.575;  193.825;    0.000
324.298; 1481.575;  207.825;    0.000
324.358; 1505.575;  196.825;    0.000
324.418; 1524.575;  193.825;    0.000
324.478; 1511.575;  191.825;    0.000
324.538; 1498.575;  224.825;    0.000
324.597; 1478.575;  187.825;    0.000
324.657; 1478.575;  208.825;    0.000
324.717; 1508.575;  198.825;    0.000
324.777; 1471.575;  159.825;    0.000
324.837; 1549.575;  180.825;    0.000
324.896; 1527.575;  215.825;    0.000
324.956; 1555.575;  210.825;    0.000
325.016; 1498.575;  187.825;    0.000
325.076; 1545.575;  197.825;    0.000
325.135; 1518.575;  226.825;    0.000
325.195; 1559.575;  201.825;    0.000
325.255; 1553.575;  167.825;    0.000
325.315; 1533.575;  217.825;    0.000
325.374; 1548.575;  196.825;    0.000
325.434; 1523.575;  167.825;    0.000
325.494; 1535.575;  214.825;    0.000
325.553; 1464.575;  203.825;    0.000
325.613; 1554.575;  206.825;    0.000
325.673; 1420.575;  148.825;    0.000
325.732; 1507.575;  207.825;    0.000
325.792; 1505.575;  151.825;    0.000
325.852; 1460.575;  195.825;    0.000
325.911; 1501.575;  201.825;    0.000
325.971; 1570.575;  224.825;    0.000
326.031; 1517.575;  201.825;    0.000
326.090; 1490.575;  203.825;    0.000
326.150; 1512.575;  183.825;    0.000
326.209; 1476.575;  226.825;    0.000
326.269; 1475.575;  194.825;    0.000
326.328; 1568.575;  200.825;    0.000
326.388; 1501.575;  177.825;    0.000
326.448; 1562.575;  239.825;    0.000
326.507; 1514.575;  197.825;    0.000
326.567; 1495.575;  161.825;    0.000
326.626; 1532.575;  220.825;    0.000
326.686; 1448.575;  178.825;    0.000
326.745; 1461.575;  167.825;    0.000
326.805; 1501.575;  176.825;    0.000
326.864; 1503.575;  204.825;    0.000
326.924; 1486.575;  218.825;    0.000
326.983; 1460.575;  201.825;    0.000
327.043; 1548.575;  219.825;    0.000
327.102; 1472.575;  202.825;    0.000
327.161; 1499.575;  228.825;    0.000
327.221; 1493.575;  217.825;    0.000
327.280; 1504.575;  188.825;    0.000
327.340; 1422.575;  209.825;    0.000
327.399; 1460.575;  189.825;    0.000
327.459; 1457.575;  216.825;    0.000
327.518; 1410.575;  200.825;    0.000
327.577; 1526.575;  194.825;    0.000
327.637; 1447.575;  180.825;    0.000
327.696; 1566.575;  208.825;    0.000
327.755; 1466.575;  218.825;    0.000
327.815; 1437.575;  234.825;    0.000
327.874; 1601.575;  259.825;    0.000
327.933; 1509.575;  192.825;    0.000
327.993; 1485.575;  208.825;    0.000
328.052; 1385.575;  221.825;    0.000
328.111; 1450.575;  203.825;    0.000
328.171; 1448.575;  221.825;    0.000
328.230; 1432.575;  222.825;    0.000
328.289; 1494.575;  254.825;    0.000
328.349; 1468.575;  232.825;    0.000
328.408; 1477.575;  223.825;    0.000
328.467; 1464.575;  198.825;    0.000
328.526; 1482.575;  217.825;    0.000
328.586; 1495.575;  185.825;    0.000
328.645; 1450.575;  210.825;    0.000
328.704; 1418.575;  211.825;    0.000
328.763; 1486.575;  231.825;    0.000
328.822; 1531.575;  254.825;    0.000
328.882; 1517.575;  216.825;    0.000
328.941; 1441.575;  239.825;    0.000
329.000; 1495.575;  251.825;    0.000
329.059; 1463.575;  227.825;    0.000
329.118; 1445.575;  233.825;    0.000
329.177; 1448.575;  188.825;    0.000
329.237; 1524.575;  257.825;    0.000
329.296; 1499.575;  265.825;    0.000
329.355; 1531.575;  245.825;    0.000
329.414; 1476.575;  236.825;    0.000
329.473; 1466.575;  242.825;    0.000
329.532; 1490.575;  228.825;    0.000
329.591; 1503.575;  206.825;    0.000
329.650; 1487.575;  250.825;    0.000
329.709; 1518.575;  278.825;    0.000
329.768; 1497.575;  219.825;    0.000
329.827; 1577.575;  254.825;    0.000
329.886; 1557.575;  221.825;    0.000
329.945; 1521.575;  239.825;    0.000
330.004; 1527.575;  245.825;    0.000
330.063; 1466.575;  201.825;    0.000
330.122; 1610.575;  227.825;    0.000
330.181; 1608.575;  196.825;    0.000
330.240; 1472.575;  203.825;    0.000
330.299; 1563.575;  214.825;    0.000
330.358; 1505.575;  196.825;    0.000
330.417; 1447.575;  201.825;    0.000
330.476; 1468.575;  248.825;    0.000
330.535; 1460.575;  253.825;    0.000
330.594; 1449.575;  231.825;    0.000
330.653; 1520.575;  210.825;    0.000
330.712; 1463.575;  242.825;    0.000
330.771; 1442.575;  240.825;    0.000
330.830; 1490.575;  230.825;    0.000
330.889; 1488.575;  217.825;    0.000
330.948; 1462.575;  211.825;    0.000
331.006; 1411.575;  217.825;    0.000
331.065; 1421.575;  170.825;    0.000
331.124; 1481.575;  211.825;    0.000
331.183; 1436.575;  192.825;    0.000
331.242; 1423.575;  227.825;    0.000
331.301; 1457.575;  240.825;    0.000
331.359; 1484.575;  223.825;    0.000
331.418; 1432.575;  215.825;    0.000
331.477; 1484.575;  230.825;    0.000
331.536; 1405.575;  221.825;    0.000
331.595; 1370.575;  198.825;    0.000
331.653; 1450.575;  207.825;    0.000
331.712; 1452.575;  217.825;    0.000
331.771; 1412.575;  221.825;    0.000
331.830; 1402.575;  222.825;    0.000
331.888; 1393.575;  213.825;    0.000
331.947; 1447.575;  233.825;    0.000
332.006; 1420.575;  212.825;    0.000
332.065; 1488.575;  200.825;    0.000
332.123; 1477.575;  223.825;    0.000
332.182; 1432.575;  180.825;    0.000
332.241; 1443.575;  192.825;    0.000
332.299; 1446.575;  172.825;    0.000
332.358; 1458.575;  216.825;    0.000
332.417; 1448.575;  211.825;    0.000
332.475; 1496.575;  222.825;    0.000
332.534; 1477.575;  238.825;    0.000
332.592; 1419.575;  216.825;    0.000
332.651; 1395.575;  196.825;    0.000
332.710; 1460.575;  215.825;    0.000
332.768; 1418.575;  193.825;    0.000
332.827; 1390.575;  201.825;    0.000
332.885; 1525.575;  226.825;    0.000
332.944; 1429.575;  174.825;    0.000
333.003; 1486.575;  187.825;    0.000
333.061; 1481.575;  208.825;    0.000
333.120; 1487.575;  202.825;    0.000
333.178; 1522.575;  227.825;    0.000
333.237; 1600.575;  215.825;    0.000
333.295; 1621.575;  245.825;    0.000
333.354; 1542.575;  194.825;    0.000
333.412; 1577.575;  165.825;    0.000
333.471; 1587.575;  219.825;    0.000
333.529; 1620.575;  255.825;    0.000
333.588; 1568.575;  264.825;    0.000
333.646; 1677.575;  231.825;    0.000
333.705; 1716.575;  232.825;    0.000
333.763; 1685.575;  233.825;    0.000
333.822; 1596.575;  221.825;    0.000
333.880; 1568.575;  180.825;    0.000
333.938; 1556.575;  229.825;    0.000
333.997; 1522.575;  194.825;    0.000
334.055; 1626.575;  230.825;    0.000
334.114; 1554.575;  230.825;    0.000
334.172; 1490.575;  170.825;    0.000
334.230; 1540.575;  192.825;    0.000
334.289; 1523.575;  225.825;    0.000
334.347; 1499.575;  233.825;    0.000
334.405; 1577.575;  207.825;    0.000
334.464; 1543.575;  175.825;    0.000
334.522; 1586.575;  180.825;    0.000
334.580; 1509.575;  172.825;    0.000
334.639; 1475.575;  230.825;    0.000
334.697; 1538.575;  217.825;    0.000
334.755; 1577.575;  217.825;    0.000
334.814; 1565.575;  210.825;    0.000
334.872; 1490.575;  170.825;    0.000
334.930; 1469.575;  167.825;    0.000
334.988; 1555.575;  244.825;    0.000
335.047; 1518.575;  202.825;    0.000
335.105; 1526.575;  181.825;    0.000
335.163; 1567.575;  195.825;    0.000
335.221; 1546.575;  203.825;    0.000
335.280; 1517.575;  216.825;    0.000
335.338; 1601.575;  197.825;    0.000
335.396; 1617.575;  232.825;    0.000
335.454; 1507.575;  211.825;    0.000
335.512; 1617.575;  221.825;    0.000
335.570; 1618.575;  216.825;    0.000
335.629; 1598.575;  244.825;    0.000
335.687; 1610.575;  244.825;    0.000
335.745; 1551.575;  189.825;    0.000
335.803; 1610.575;  198.825;    0.000
335.861; 1651.575;  236.825;    0.000
335.919; 1619.575;  234.825;    0.000
335.977; 1603.575;  214.825;    0.000
336.035; 1595.575;  242.825;    0.000
336.094; 1529.575;  219.825;    0.000
336.152; 1607.575;  196.825;    0.000
336.210; 1515.575;  221.825;    0.000
336.268; 1613.575;  257.825;    0.000
336.326; 1627.575;  211.825;    0.000
336.384; 1556.575;  217.825;    0.000
336.442; 1539.575;  176.825;    0.000
336.500; 1515.575;  242.825;    0.000
336.558; 1512.575;  238.825;    0.000
336.616; 1653.575;  261.825;    0.000
336.674; 1516.575;  200.825;    0.000
336.732; 1521.575;  208.825;    0.000
336.790; 1559.575;  183.825;    0.000
336.848; 1520.575;  199.825;    0.000
336.906; 1550.575;  240.825;    0.000
336.964; 1528.575;  234.825;    0.000
337.022; 1566.575;  282.825;    0.000
337.080; 1575.575;  265.825;    0.000
337.138; 1578.575;  255.825;    0.000
337.195; 1515.575;  200.825;    0.000
337.253; 1518.575;  199.825;    0.000
337.311; 1551.575;  233.825;    0.000
337.369; 1553.575;  250.825;    0.000
337.427; 1487.575;  201.825;    0.000
337.485; 1519.575;  228.825;    0.000
337.543; 1527.575;  221.825;    0.000
337.601; 1495.575;  232.825;    0.000
337.658; 1488.575;  215.825;    0.000
337.716; 1509.575;  198.825;    0.000
337.774; 1495.575;  262.825;    0.000
337.832; 1499.575;  220.825;    0.000
337.890; 1429.575;  194.825;    0.000
337.947; 1460.575;  205.825;    0.000
338.005; 1486.575;  229.825;    0.000
338.063; 1445.575;  237.825;    0.000
338.121; 1487.575;  220.825;    0.000
338.178; 1532.575;  227.825;    0.000
338.236; 1488.575;  238.825;    0.000
338.294; 1533.575;  242.825;    0.000
338.352; 1466.575;  230.825;    0.000
338.409; 1453.575;  222.825;    0.000
338.467; 1474.575;  233.825;    0.000
338.525; 1494.575;  253.825;    0.000
338.583; 1418.575;  221.825;    0.000
338.640; 1437.575;  225.825;    0.000
338.698; 1438.575;  229.825;    0.000
338.756; 1419.575;  238.825;    0.000
338.813; 1497.575;  260.825;    0.000
338.871; 1491.575;  246.825;    0.000
338.928; 1532.575;  240.825;    0.000
338.986; 1497.575;  228.825;    0.000
339.044; 1515.575;  265.825;    0.000
339.101; 1480.575;  224.825;    0.000
339.159; 1471.575;  235.825;    0.000
339.216; 1500.575;  244.825;    0.000
339.274; 1494.575;  266.825;    0.000
339.332; 1519.575;  248.825;    0.000
339.389; 1532.575;  246.825;    0.000
339.447; 1517.575;  237.825;    0.000
339.504; 1514.575;  244.825;    0.000
339.562; 1445.575;  249.825;    0.000
339.619; 1589.575;  266.825;    0.000
339.677; 1538.575;  263.825;    0.000
339.734; 1432.575;  216.825;    0.000
339.792; 1471.575;  276.825;    0.000
339.849; 1488.575;  240.825;    0.000
339.907; 1504.575;  275.825;    0.000
339.964; 1567.575;  243.825;    0.000
340.022; 1538.575;  224.825;    0.000
340.079; 1447.575;  230.825;    0.000
340.137; 1514.575;  232.825;    0.000
340.194; 1464.575;  261.825;    0.000
340.252; 1463.575;  219.825;    0.000
340.309; 1491.575;  212.825;    0.000
340.366; 1483.575;  231.825;    0.000
340.424; 1565.575;  244.825;    0.000
340.481; 1524.575;  238.825;    0.000
340.538; 1509.575;  217.825;    0.000
340.596; 1527.575;  224.825;    0.000
340.653; 1471.575;  225.825;    0.000
340.711; 1572.575;  276.825;    0.000
340.768; 1570.575;  239.825;    0.000
340.825; 1574.575;  216.825;    0.000
340.883; 1583.575;  264.825;    0.000
340.940; 1587.575;  256.825;    0.000
340.997; 1530.575;  230.825;    0.000
341.054; 1457.575;  229.825;    0.000
341.112; 1549.575;  220.825;    0.000
341.169; 1463.575;  276.825;    0.000
341.226; 1587.575;  224.825;    0.000
341.284; 1533.575;  235.825;    0.000
341.341; 1556.575;  226.825;    0.000
341.398; 1478.575;  200.825;    0.000
341.455; 1497.575;  242.825;    0.000
341.512; 1551.575;  226.825;    0.000
341.570; 1550.575;  299.825;    0.000
341.627; 1512.575;  221.825;    0.000
341.684; 1493.575;  204.825;    0.000
341.741; 1596.575;  285.825;    0.000
341.798; 1529.575;  237.825;    0.000
341.856; 1549.575;  223.825;    0.000
341.913; 1556.575;  232.825;    0.000
341.970; 1538.575;  250.825;    0.000
342.027; 1530.575;  272.825;    0.000
342.084; 1514.575;  242.825;    0.000
342.141; 1516.575;  207.825;    0.000
342.198; 1538.575;  252.825;    0.000
342.255; 1563.575;  189.825;    0.000
342.313; 1553.575;  222.825;    0.000
342.370; 1449.575;  203.825;    0.000
342.427; 1474.575;  261.825;    0.000
342.484; 1501.575;  230.825;    0.000
342.541; 1495.575;  224.825;    0.000
342.598; 1508.575;  245.825;    0.000
342.655; 1534.575;  235.825;    0.000
342.712; 1471.575;  238.825;    0.000
342.769; 1560.575;  235.825;    0.000
342.826; 1527.575;  232.825;    0.000
342.883; 1486.575;  212.825;    0.000
342.940; 1449.575;  189.825;    0.000
342.997; 1497.575;  241.825;    0.000
343.054; 1410.575;  235.825;    0.000
343.111; 1491.575;  216.825;    0.000
343.168; 1519.575;  202.825;    0.000
343.225; 1556.575;  228.825;    0.000
343.282; 1592.575;  208.825;    0.000
343.339; 1581.575;  241.825;    0.000
343.395; 1553.575;  206.825;    0.000
343.452; 1547.575;  227.825;    0.000
343.509; 1566.575;  212.825;    0.000
343.566; 1522.575;  266.825;    0.000
343.623; 1500.575;  240.825;    0.000
343.680; 1590.575;  215.825;    0.000
343.737; 1543.575;  231.825;    0.000
343.794; 1605.575;  256.825;    0.000
343.850; 1593.575;  235.825;    0.000
343.907; 1620.575;  246.825;    0.000
343.964; 1635.575;  241.825;    0.000
344.021; 1651.575;  237.825;    0.000
344.078; 1578.575;  248.825;    0.000
344.134; 1598.575;  225.825;    0.000
344.191; 1666.575;  209.825;    0.000
344.248; 1717.575;  234.825;    0.000
344.305; 1615.575;  224.825;    0.000
344.361; 1593.575;  194.825;    0.000
344.418; 1641.575;  240.825;    0.000
344.475; 1565.575;  252.825;    0.000
344.532; 1632.575;  251.825;    0.000
344.588; 1673.575;  240.825;    0.000
344.645; 1606.575;  253.825;    0.000
344.702; 1644.575;  216.825;    0.000
344.758; 1648.575;  258.825;    0.000
344.815; 1560.575;  239.825;    0.000
344.872; 1576.575;  216.825;    0.000
344.928; 1591.575;  236.825;    0.000
344.985; 1582.575;  238.825;    0.000
345.042; 1582.575;  211.825;    0.000
345.098; 1556.575;  223.825;    0.000
345.155; 1556.575;  266.825;    0.000
345.212; 1549.575;  266.825;    0.000
345.268; 1565.575;  245.825;    0.000
345.325; 1621.575;  225.825;    0.000
345.381; 1662.575;  223.825;    0.000
345.438; 1690.575;  259.825;    0.000
345.495; 1668.575;  233.825;    0.000
345.551; 1686.575;  254.825;    0.000
345.608; 1592.575;  212.825;    0.000
345.664; 1607.575;  225.825;    0.000
345.721; 1529.575;  223.825;    0.000
345.777; 1594.575;  226.825;    0.000
345.834; 1487.575;  215.825;    0.000
345.890; 1476.575;  230.825;    0.000
345.947; 1603.575;  232.825;    0.000
346.003; 1602.575;  241.825;    0.000
346.060; 1597.575;  241.825;    0.000
346.116; 1595.575;  231.825;    0.000
346.173; 1536.575;  229.825;    0.000
346.229; 1585.575;  262.825;    0.000
346.285; 1545.575;  232.825;    0.000
346.342; 1544.575;  228.825;    0.000
346.398; 1581.575;  203.825;    0.000
346.455; 1584.575;  214.825;    0.000
346.511; 1662.575;  245.825;    0.000
346.567; 1618.575;  192.825;    0.000
346.624; 1628.575;  206.825;    0.000
346.680; 1656.575;  209.825;    0.000
346.737; 1614.575;  239.825;    0.000
346.793; 1571.575;  234.825;    0.000
346.849; 1661.575;  252.825;    0.000
346.906; 1620.575;  247.825;    0.000
346.962; 1740.575;  274.825;    0.000
347.018; 1689.575;  225.825;    0.000
347.074; 1715.575;  261.825;    0.000
347.131; 1622.575;  230.825;    0.000
347.187; 1634.575;  269.825;    0.000
347.243; 1598.575;  261.825;    0.000
347.300; 1622.575;  236.825;    0.000
347.356; 1655.575;  284.825;    0.000
347.412; 1625.575;  243.825;    0.000
347.468; 1575.575;  276.825;    0.000
347.524; 1641.575;  232.825;    0.000
347.581; 1543.575;  242.825;    0.000
347.637; 1651.575;  270.825;    0.000
347.693; 1650.575;  269.825;    0.000
347.749; 1665.575;  278.825;    0.000
347.805; 1684.575;  224.825;    0.000
347.862; 1635.575;  207.825;    0.000
347.918; 1589.575;  259.825;    0.000
347.974; 1611.575;  244.825;    0.000
348.030; 1568.575;  219.825;    0.000
348.086; 1610.575;  250.825;    0.000
348.142; 1581.575;  251.825;    0.000
348.198; 1564.575;  267.825;    0.000
348.254; 1595.575;  230.825;    0.000
348.311; 1608.575;  261.825;    0.000
348.367; 1589.575;  259.825;    0.000
348.423; 1604.575;  251.825;    0.000
348.479; 1534.575;  251.825;    0.000
348.535; 1671.575;  269.825;    0.000
348.591; 1654.575;  238.825;    0.000
348.647; 1644.575;  273.825;    0.000
348.703; 1622.575;  291.825;    0.000
348.759; 1569.575;  231.825;    0.000
348.815; 1581.575;  286.825;    0.000
348.871; 1551.575;  265.825;    0.000
348.927; 1612.575;  234.825;    0.000
348.983; 1645.575;  267.825;    0.000
349.039; 1588.575;  233.825;    0.000
349.095; 1610.575;  225.825;    0.000
349.151; 1595.575;  242.825;    0.000
349.207; 1604.575;  223.825;    0.000
349.263; 1656.575;  219.825;    0.000
349.319; 1536.575;  226.825;    0.000
349.374; 1593.575;  232.825;    0.000
349.430; 1659.575;  235.825;    0.000
349.486; 1674.575;  227.825;    0.000
349.542; 1630.575;  253.825;    0.000
349.598; 1594.575;  227.825;    0.000
349.654; 1684.575;  270.825;    0.000
349.710; 1605.575;  233.825;    0.000
349.766; 1641.575;  245.825;    0.000
349.821; 1629.575;  242.825;    0.000
349.877; 1633.575;  229.825;    0.000
349.933; 1570.575;  229.825;    0.000
349.989; 1648.575;  230.825;    0.000
350.045; 1546.575;  236.825;    0.000
350.100; 1654.575;  237.825;    0.000
350.156; 1602.575;  230.825;    0.000
350.212; 1599.575;  254.825;    0.000
350.268; 1628.575;  239.825;    0.000
350.323; 1633.575;  204.825;    0.000
350.379; 1597.575;  246.825;    0.000
350.435; 1623.575;  249.825;    0.000
350.491; 1625.575;  217.825;    0.000
350.546; 1564.575;  231.825;    0.000
350.602; 1646.575;  240.825;    0.000
350.658; 1608.575;  235.825;    0.000
350.713; 1593.575;  234.825;    0.000
350.769; 1568.575;  218.825;    0.000
350.825; 1478.575;  227.825;    0.000
350.880; 1561.575;  226.825;    0.000
350.936; 1608.575;  247.825;    0.000
350.992; 1608.575;  213.825;    0.000
351.047; 1570.575;  207.825;    0.000
351.103; 1583.575;  271.825;    0.000
351.158; 1660.575;  251.825;    0.000
351.214; 1538.575;  199.825;    0.000
351.270; 1584.575;  214.825;    0.000
351.325; 1655.575;  235.825;    0.000
351.381; 1633.575;  223.825;    0.000
351.436; 1642.575;  237.825;    0.000
351.492; 1685.575;  221.825;    0.000
351.547; 1684.575;  237.825;    0.000
351.603; 1649.575;  239.825;    0.000
351.658; 1656.575;  209.825;    0.000
351.714; 1627.575;  226.825;    0.000
351.769; 1686.575;  238.825;    0.000
351.825; 1682.575;  226.825;    0.000
351.880; 1670.575;  217.825;    0.000
351.936; 1662.575;  246.825;    0.000
351.991; 1705.575;  233.825;    0.000
352.047; 1621.575;  215.825;    0.000
352.102; 1599.575;  243.825;    0.000
352.158; 1623.575;  234.825;    0.000
352.213; 1609.575;  201.825;    0.000
352.268; 1632.575;  234.825;    0.000
352.324; 1616.575;  211.825;    0.000
352.379; 1679.575;  221.825;    0.000
352.434; 1675.575;  259.825;    0.000
352.490; 1584.575;  250.825;    0.000
352.545; 1632.575;  251.825;    0.000
352.601; 1640.575;  283.825;    0.000
352.656; 1657.575;  236.825;    0.000
352.711; 1653.575;  237.825;    0.000
352.767; 1626.575;  201.825;    0.000
352.822; 1588.575;  209.825;    0.000
352.877; 1606.575;  239.825;    0.000
352.932; 1644.575;  228.825;    0.000
352.988; 1612.575;  202.825;    0.000
353.043; 1633.575;  268.825;    0.000
353.098; 1634.575;  208.825;    0.000
353.153; 1595.575;  219.825;    0.000
353.209; 1620.575;  252.825;    0.000
353.264; 1564.575;  225.825;    0.000
353.319; 1618.575;  234.825;    0.000
353.374; 1609.575;  236.825;    0.000
353.430; 1631.575;  245.825;    0.000
353.485; 1560.575;  238.825;    0.000
353.540; 1640.575;  238.825;    0.000
353.595; 1597.575;  215.825;    0.000
353.650; 1632.575;  238.825;    0.000
353.705; 1643.575;  274.825;    0.000
353.761; 1532.575;  229.825;    0.000
353.816; 1636.575;  275.825;    0.000
353.871; 1598.575;  245.825;    0.000
353.926; 1626.575;  253.825;    0.000
353.981; 1681.575;  269.825;    0.000
354.036; 1582.575;  246.825;    0.000
354.091; 1588.575;  257.825;    0.000
354.146; 1621.575;  278.825;    0.000
354.201; 1667.575;  276.825;    0.000
354.256; 1608.575;  224.825;    0.000
354.311; 1617.575;  287.825;    0.000
354.367; 1632.575;  210.825;    0.000
354.422; 1638.575;  231.825;    0.000
354.477; 1649.575;  226.825;    0.000
354.532; 1622.575;  262.825;    0.000
354.587; 1674.575;  275.825;    0.000
354.642; 1656.575;  247.825;    0.000
354.697; 1641.575;  251.825;    0.000
354.751; 1662.575;  249.825;    0.000
354.806; 1557.575;  217.825;    0.000
354.861; 1607.575;  247.825;    0.000
354.916; 1648.575;  259.825;    0.000
354.971; 1642.575;  241.825;    0.000
355.026; 1667.575;  250.825;    0.000
355.081; 1614.575;  244.825;    0.000
355.136; 1589.575;  203.825;    0.000
355.191; 1610.575;  241.825;    0.000
355.246; 1651.575;  248.825;    0.000
355.301; 1573.575;  259.825;    0.000
355.355; 1615.575;  236.825;    0.000
355.410; 1622.575;  221.825;    0.000
355.465; 1595.575;  206.825;    0.000
355.520; 1623.575;  258.825;    0.000
355.575; 1680.575;  273.825;    0.000
355.630; 1645.575;  252.825;    0.000
355.684; 1627.575;  246.825;    0.000
355.739; 1605.575;  251.825;    0.000
355.794; 1651.575;  247.825;    0.000
355.849; 1690.575;  246.825;    0.000
355.904; 1644.575;  262.825;    0.000
355.958; 1627.575;  249.825;    0.000
356.013; 1650.575;  213.825;    0.000
356.068; 1617.575;  255.825;    0.000
356.123; 1653.575;  205.825;    0.000
356.177; 1620.575;  239.825;    0.000
356.232; 1667.575;  258.825;    0.000
356.287; 1693.575;  248.825;    0.000
356.341; 1596.575;  221.825;    0.000
356.396; 1618.575;  220.825;    0.000
356.451; 1662.575;  231.825;    0.000
356.505; 1599.575;  231.825;    0.000
356.560; 1610.575;  254.825;    0.000
356.615; 1642.575;  234.825;    0.000
356.669; 1649.575;  250.825;    0.000
356.724; 1619.575;  261.825;    0.000
356.778; 1625.575;  207.825;    0.000
356.833; 1557.575;  205.825;    0.000
356.888; 1695.575;  235.825;    0.000
356.942; 1654.575;  205.825;    0.000
356.997; 1697.575;  276.825;    0.000
357.051; 1638.575;  243.825;    0.000
357.106; 1578.575;  242.825;    0.000
357.160; 1579.575;  241.825;    0.000
357.215; 1575.575;  212.825;    0.000
357.269; 1654.575;  238.825;    0.000
357.324; 1609.575;  223.825;    0.000
357.378; 1597.575;  221.825;    0.000
357.433; 1621.575;  262.825;    0.000
357.487; 1575.575;  246.825;    0.000
357.542; 1651.575;  221.825;    0.000
357.596; 1702.575;  225.825;    0.000
357.651; 1648.575;  244.825;    0.000
357.705; 1604.575;  269.825;    0.000
357.760; 1651.575;  209.825;    0.000
357.814; 1691.575;  250.825;    0.000
357.868; 1645.575;  266.825;    0.000
357.923; 1626.575;  248.825;    0.000
357.977; 1592.575;  262.825;    0.000
358.032; 1615.575;  228.825;    0.000
358.086; 1675.575;  257.825;    0.000
358.140; 1656.575;  217.825;    0.000
358.195; 1603.575;  246.825;    0.000
358.249; 1582.575;  255.825;    0.000
358.303; 1639.575;  252.825;    0.000
358.358; 1601.575;  278.825;    0.000
358.412; 1646.575;  276.825;    0.000
358.466; 1567.575;  275.825;    0.000
358.521; 1621.575;  229.825;    0.000
358.575; 1585.575;  270.825;    0.000
358.629; 1656.575;  239.825;    0.000
358.683; 1569.575;  254.825;    0.000
358.738; 1601.575;  239.825;    0.000
358.792; 1588.575;  272.825;    0.000
358.846; 1580.575;  289.825;    0.000
358.900; 1628.575;  299.825;    0.000
358.954; 1562.575;  247.825;    0.000
359.009; 1624.575;  245.825;    0.000
359.063; 1650.575;  272.825;    0.000
359.117; 1582.575;  242.825;    0.000
359.171; 1528.575;  279.825;    0.000
359.225; 1621.575;  221.825;    0.000
359.280; 1598.575;  238.825;    0.000
359.334; 1671.575;  264.825;    0.000
359.388; 1647.575;  273.825;    0.000
359.442; 1630.575;  233.825;    0.000
359.496; 1468.575;  226.825;    0.000
359.550; 1521.575;  271.825;    0.000
359.604; 1539.575;  296.825;    0.000
359.658; 1515.575;  252.825;    0.000
359.712; 1563.575;  256.825;    0.000
359.766; 1532.575;  257.825;    0.000
359.820; 1572.575;  239.825;    0.000
359.875; 1515.575;  252.825;    0.000
359.929; 1583.575;  258.825;    0.000
359.983; 1571.575;  232.825;    0.000
360.037; 1678.575;  268.825;    0.000
360.091; 1586.575;  303.825;    0.000
360.145; 1549.575;  232.825;    0.000
360.199; 1619.575;  255.825;    0.000
360.253; 1589.575;  252.825;    0.000
360.306; 1579.575;  278.825;    0.000
360.360; 1631.575;  249.825;    0.000
360.414; 1552.575;  274.825;    0.000
360.468; 1591.575;  247.825;    0.000
360.522; 1552.575;  268.825;    0.000
360.576; 1581.575;  263.825;    0.000
360.630; 1607.575;  296.825;    0.000
360.684; 1556.575;  253.825;    0.000
360.738; 1613.575;  301.825;    0.000
360.792; 1558.575;  282.825;    0.000
360.846; 1556.575;  277.825;    0.000
360.899; 1605.575;  292.825;    0.000
360.953; 1672.575;  266.825;    0.000
361.007; 1592.575;  240.825;    0.000
361.061; 1651.575;  247.825;    0.000
361.115; 1544.575;  276.825;    0.000
361.168; 1572.575;  288.825;    0.000
361.222; 1602.575;  271.825;    0.000
361.276; 1578.575;  270.825;    0.000
361.330; 1573.575;  295.825;    0.000
361.384; 1582.575;  276.825;    0.000
361.437; 1536.575;  280.825;    0.000
361.491; 1589.575;  261.825;    0.000
361.545; 1595.575;  273.825;    0.000
361.599; 1598.575;  269.825;    0.000
361.652; 1547.575;  258.825;    0.000
361.706; 1600.575;  270.825;    0.000
361.760; 1634.575;  294.825;    0.000
361.813; 1595.575;  244.825;    0.000
361.867; 1583.575;  294.825;    0.000
361.921; 1595.575;  285.825;    0.000
361.974; 1518.575;  269.825;    0.000
362.028; 1519.575;  275.825;    0.000
362.082; 1599.575;  270.825;    0.000
362.135; 1533.575;  259.825;    0.000
362.189; 1671.575;  302.825;    0.000
362.242; 1569.575;  296.825;    0.000
362.296; 1599.575;  285.825;    0.000
362.350; 1539.575;  303.825;    0.000
362.403; 1614.575;  271.825;    0.000
362.457; 1577.575;  285.825;    0.000
362.510; 1586.575;  288.825;    0.000
362.564; 1519.575;  268.825;    0.000
362.617; 1621.575;  285.825;    0.000
362.671; 1547.575;  277.825;    0.000
362.724; 1546.575;  242.825;    0.000
362.778; 1577.575;  274.825;    0.000
362.831; 1581.575;  280.825;    0.000
362.885; 1528.575;  284.825;    0.000
362.938; 1455.575;  276.825;    0.000
362.992;  335.575;  289.825;    0.000
363.045;  276.575;  247.825;    0.000
363.099;  246.575;  260.825;    0.000
363.152;  302.575;  258.825;    0.000
363.205;  279.575;  286.825;    0.000
363.259;  267.575;  236.825;    0.000
363.312;  288.575;  297.825;    0.000
363.366;  271.575;  266.825;    0.000
363.419;  269.575;  309.825;    0.000
363.472;  317.575;  293.825;    0.000
363.526;  315.575;  270.825;    0.000
363.579;  256.575;  276.825;    0.000
363.632;  253.575;  279.825;    0.000
363.686;  258.575;  292.825;    0.000
363.739;  282.575;  248.825;    0.000
363.792;  263.575;  287.825;    0.000

