
Integration time [ms]:   1.000
Averaging Nr. [scans]: 1
Smoothing Nr. [pixels]: 0
Data measured with spectrometer [name]: UV1
Wave   ;Sample   ;Dark     ;Reference
[nm]   ;[counts] ;[counts] ;[counts] 

236.381;  133.800;  175.825;    0.000
236.451;  163.800;  220.825;    0.000
236.520;  192.800;  178.825;    0.000
236.590;  203.800;  182.825;    0.000
236.660;  159.800;  180.825;    0.000
236.730;  175.800;  201.825;    0.000
236.799;  202.800;  168.825;    0.000
236.869;  180.800;  205.825;    0.000
236.939;  178.800;  175.825;    0.000
237.009;  178.800;  186.825;    0.000
237.078;  172.800;  200.825;    0.000
237.148;  167.800;  156.825;    0.000
237.218;  180.800;  190.825;    0.000
237.287;  185.800;  167.825;    0.000
237.357;  171.800;  213.825;    0.000
237.427;  218.800;  164.825;    0.000
237.496;  822.800;  210.825;    0.000
237.566;  786.800;  193.825;    0.000
237.636;  765.800;  179.825;    0.000
237.705;  792.800;  218.825;    0.000
237.775;  811.800;  160.825;    0.000
237.845;  819.800;  207.825;    0.000
237.914;  789.800;  180.825;    0.000
237.984;  829.800;  207.825;    0.000
238.054;  790.800;  149.825;    0.000
238.123;  774.800;  190.825;    0.000
238.193;  772.800;  167.825;    0.000
238.263;  795.800;  172.825;    0.000
238.332;  761.800;  173.825;    0.000
238.402;  799.800;  214.825;    0.000
238.471;  757.800;  181.825;    0.000
238.541;  840.800;  177.825;    0.000
238.611;  808.800;  138.825;    0.000
238.680;  761.800;  168.825;    0.000
238.750;  730.800;  171.825;    0.000
238.819;  809.800;  156.825;    0.000
238.889;  756.800;  194.825;    0.000
238.958;  790.800;  185.825;    0.000
239.028;  771.800;  170.825;    0.000
239.097;  769.800;  159.825;    0.000
239.167;  795.800;  208.825;    0.000
239.237;  826.800;  167.825;    0.000
239.306;  793.800;  154.825;    0.000
239.376;  842.800;  183.825;    0.000
239.445;  793.800;  221.825;    0.000
239.515;  774.800;  208.825;    0.000
239.584;  765.800;  177.825;    0.000
239.654;  835.800;  133.825;    0.000
239.723;  733.800;  167.825;    0.000
239.793;  773.800;  190.825;    0.000
239.862;  743.800;  192.825;    0.000
239.932;  787.800;  174.825;    0.000
240.001;  714.800;  166.825;    0.000
240.070;  777.800;  179.825;    0.000
240.140;  747.800;  191.825;    0.000
240.209;  728.800;  134.825;    0.000
240.279;  750.800;  185.825;    0.000
240.348;  805.800;  193.825;    0.000
240.418;  769.800;  149.825;    0.000
240.487;  772.800;  197.825;    0.000
240.556;  766.800;  193.825;    0.000
240.626;  733.800;  178.825;    0.000
240.695;  789.800;  194.825;    0.000
240.765;  749.800;  178.825;    0.000
240.834;  748.800;  190.825;    0.000
240.903;  757.800;  212.825;    0.000
240.973;  747.800;  153.825;    0.000
241.042;  759.800;  177.825;    0.000
241.112;  747.800;  193.825;    0.000
241.181;  794.800;  171.825;    0.000
241.250;  747.800;  152.825;    0.000
241.320;  752.800;  176.825;    0.000
241.389;  768.800;  186.825;    0.000
241.458;  758.800;  182.825;    0.000
241.528;  783.800;  175.825;    0.000
241.597;  798.800;  180.825;    0.000
241.666;  736.800;  162.825;    0.000
241.736;  778.800;  187.825;    0.000
241.805;  751.800;  173.825;    0.000
241.874;  746.800;  177.825;    0.000
241.943;  817.800;  208.825;    0.000
242.013;  798.800;  183.825;    0.000
242.082;  715.800;  171.825;    0.000
242.151;  720.800;  208.825;    0.000
242.221;  757.800;  160.825;    0.000
242.290;  775.800;  200.825;    0.000
242.359;  685.800;  167.825;    0.000
242.428;  804.800;  213.825;    0.000
242.498;  694.800;  156.825;    0.000
242.567;  767.800;  200.825;    0.000
242.636;  746.800;  178.825;    0.000
242.705;  745.800;  185.825;    0.000
242.774;  716.800;  190.825;    0.000
242.844;  767.800;  194.825;    0.000
242.913;  726.800;  162.825;    0.000
242.982;  753.800;  189.825;    0.000
243.051;  779.800;  176.825;    0.000
243.120;  774.800;  213.825;    0.000
243.190;  666.800;  155.825;    0.000
243.259;  697.800;  183.825;    0.000
243.328;  761.800;  170.825;    0.000
243.397;  754.800;  224.825;    0.000
243.466;  743.800;  172.825;    0.000
243.535;  749.800;  145.825;    0.000
243.605;  769.800;  157.825;    0.000
243.674;  773.800;  199.825;    0.000
243.743;  767.800;  196.825;    0.000
243.812;  700.800;  152.825;    0.000
243.881;  705.800;  188.825;    0.000
243.950;  701.800;  154.825;    0.000
244.019;  697.800;  195.825;    0.000
244.088;  766.800;  164.825;    0.000
244.158;  726.800;  220.825;    0.000
244.227;  691.800;  150.825;    0.000
244.296;  731.800;  153.825;    0.000
244.365;  713.800;  195.825;    0.000
244.434;  671.800;  136.825;    0.000
244.503;  761.800;  172.825;    0.000
244.572;  700.800;  129.825;    0.000
244.641;  704.800;  132.825;    0.000
244.710;  715.800;  185.825;    0.000
244.779;  714.800;  164.825;    0.000
244.848;  711.800;  132.825;    0.000
244.917;  740.800;  196.825;    0.000
244.986;  730.800;  148.825;    0.000
245.055;  736.800;  192.825;    0.000
245.124;  695.800;  170.825;    0.000
245.193;  698.800;  172.825;    0.000
245.262;  666.800;  146.825;    0.000
245.331;  693.800;  178.825;    0.000
245.400;  700.800;  108.825;    0.000
245.469;  702.800;  173.825;    0.000
245.538;  725.800;  180.825;    0.000
245.607;  723.800;  171.825;    0.000
245.676;  707.800;  149.825;    0.000
245.745;  650.800;  194.825;    0.000
245.814;  625.800;  186.825;    0.000
245.883;  703.800;  192.825;    0.000
245.952;  708.800;  169.825;    0.000
246.021;  690.800;  190.825;    0.000
246.090;  649.800;  181.825;    0.000
246.159;  631.800;  179.825;    0.000
246.227;  666.800;  182.825;    0.000
246.296;  642.800;  182.825;    0.000
246.365;  627.800;  171.825;    0.000
246.434;  659.800;  218.825;    0.000
246.503;  600.800;  147.825;    0.000
246.572;  723.800;  227.825;    0.000
246.641;  659.800;  193.825;    0.000
246.710;  664.800;  207.825;    0.000
246.779;  654.800;  181.825;    0.000
246.847;  630.800;  179.825;    0.000
246.916;  602.800;  155.825;    0.000
246.985;  660.800;  168.825;    0.000
247.054;  640.800;  137.825;    0.000
247.123;  635.800;  128.825;    0.000
247.192;  657.800;  163.825;    0.000
247.260;  623.800;  173.825;    0.000
247.329;  654.800;  174.825;    0.000
247.398;  632.800;  238.825;    0.000
247.467;  650.800;  168.825;    0.000
247.536;  647.800;  203.825;    0.000
247.604;  678.800;  194.825;    0.000
247.673;  631.800;  145.825;    0.000
247.742;  644.800;  167.825;    0.000
247.811;  627.800;  180.825;    0.000
247.879;  620.800;  187.825;    0.000
247.948;  617.800;  187.825;    0.000
248.017;  650.800;  170.825;    0.000
248.086;  628.800;  223.825;    0.000
248.154;  628.800;  160.825;    0.000
248.223;  584.800;  163.825;    0.000
248.292;  645.800;  201.825;    0.000
248.361;  649.800;  205.825;    0.000
248.429;  614.800;  191.825;    0.000
248.498;  598.800;  194.825;    0.000
248.567;  626.800;  217.825;    0.000
248.635;  645.800;  224.825;    0.000
248.704;  641.800;  204.825;    0.000
248.773;  627.800;  175.825;    0.000
248.841;  609.800;  157.825;    0.000
248.910;  653.800;  206.825;    0.000
248.979;  573.800;  170.825;    0.000
249.047;  657.800;  178.825;    0.000
249.116;  654.800;  183.825;    0.000
249.185;  681.800;  202.825;    0.000
249.253;  571.800;  159.825;    0.000
249.322;  597.800;  177.825;    0.000
249.390;  627.800;  157.825;    0.000
249.459;  621.800;  211.825;    0.000
249.528;  641.800;  181.825;    0.000
249.596;  584.800;  179.825;    0.000
249.665;  573.800;  176.825;    0.000
249.733;  606.800;  186.825;    0.000
249.802;  585.800;  185.825;    0.000
249.871;  625.800;  166.825;    0.000
249.939;  570.800;  163.825;    0.000
250.008;  611.800;  212.825;    0.000
250.076;  627.800;  227.825;    0.000
250.145;  619.800;  172.825;    0.000
250.213;  587.800;  173.825;    0.000
250.282;  613.800;  189.825;    0.000
250.350;  580.800;  166.825;    0.000
250.419;  616.800;  161.825;    0.000
250.487;  578.800;  178.825;    0.000
250.556;  608.800;  208.825;    0.000
250.624;  607.800;  190.825;    0.000
250.693;  604.800;  163.825;    0.000
250.761;  610.800;  194.825;    0.000
250.830;  607.800;  225.825;    0.000
250.898;  594.800;  140.825;    0.000
250.967;  630.800;  167.825;    0.000
251.035;  604.800;  155.825;    0.000
251.104;  599.800;  189.825;    0.000
251.172;  580.800;  136.825;    0.000
251.241;  575.800;  148.825;    0.000
251.309;  605.800;  201.825;    0.000
251.378;  560.800;  169.825;    0.000
251.446;  588.800;  178.825;    0.000
251.514;  582.800;  206.825;    0.000
251.583;  674.800;  178.825;    0.000
251.651;  561.800;  168.825;    0.000
251.720;  552.800;  190.825;    0.000
251.788;  606.800;  209.825;    0.000
251.856;  511.800;  173.825;    0.000
251.925;  527.800;  171.825;    0.000
251.993;  543.800;  188.825;    0.000
252.062;  608.800;  169.825;    0.000
252.130;  567.800;  196.825;    0.000
252.198;  614.800;  210.825;    0.000
252.267;  534.800;  181.825;    0.000
252.335;  564.800;  164.825;    0.000
252.403;  562.800;  152.825;    0.000
252.472;  552.800;  166.825;    0.000
252.540;  547.800;  189.825;    0.000
252.608;  545.800;  198.825;    0.000
252.677;  502.800;  156.825;    0.000
252.745;  571.800;  184.825;    0.000
252.813;  594.800;  163.825;    0.000
252.881;  480.800;  130.825;    0.000
252.950;  543.800;  189.825;    0.000
253.018;  519.800;  164.825;    0.000
253.086;  474.800;  172.825;    0.000
253.155;  481.800;  205.825;    0.000
253.223;  482.800;  175.825;    0.000
253.291;  500.800;  176.825;    0.000
253.359;  458.800;  182.825;    0.000
253.428;  559.800;  222.825;    0.000
253.496;  457.800;  166.825;    0.000
253.564;  415.800;  135.825;    0.000
253.632;  432.800;  184.825;    0.000
253.700;  457.800;  173.825;    0.000
253.769;  442.800;  163.825;    0.000
253.837;  483.800;  179.825;    0.000
253.905;  452.800;  157.825;    0.000
253.973;  470.800;  164.825;    0.000
254.041;  451.800;  170.825;    0.000
254.110;  467.800;  169.825;    0.000
254.178;  426.800;  165.825;    0.000
254.246;  412.800;  126.825;    0.000
254.314;  459.800;  166.825;    0.000
254.382;  478.800;  169.825;    0.000
254.450;  432.800;  170.825;    0.000
254.518;  457.800;  196.825;    0.000
254.587;  426.800;  161.825;    0.000
254.655;  458.800;  187.825;    0.000
254.723;  409.800;  144.825;    0.000
254.791;  466.800;  175.825;    0.000
254.859;  451.800;  168.825;    0.000
254.927;  457.800;  198.825;    0.000
254.995;  457.800;  165.825;    0.000
255.063;  449.800;  150.825;    0.000
255.131;  463.800;  181.825;    0.000
255.199;  476.800;  160.825;    0.000
255.267;  489.800;  131.825;    0.000
255.336;  499.800;  188.825;    0.000
255.404;  433.800;  163.825;    0.000
255.472;  476.800;  192.825;    0.000
255.540;  432.800;  158.825;    0.000
255.608;  415.800;  147.825;    0.000
255.676;  460.800;  166.825;    0.000
255.744;  467.800;  159.825;    0.000
255.812;  480.800;  164.825;    0.000
255.880;  496.800;  195.825;    0.000
255.948;  468.800;  167.825;    0.000
256.016;  518.800;  185.825;    0.000
256.084;  460.800;  191.825;    0.000
256.152;  498.800;  214.825;    0.000
256.220;  488.800;  195.825;    0.000
256.288;  456.800;  185.825;    0.000
256.356;  445.800;  168.825;    0.000
256.424;  476.800;  161.825;    0.000
256.491;  491.800;  161.825;    0.000
256.559;  506.800;  157.825;    0.000
256.627;  534.800;  164.825;    0.000
256.695;  485.800;  146.825;    0.000
256.763;  508.800;  194.825;    0.000
256.831;  516.800;  182.825;    0.000
256.899;  529.800;  192.825;    0.000
256.967;  481.800;  172.825;    0.000
257.035;  511.800;  169.825;    0.000
257.103;  566.800;  223.825;    0.000
257.171;  484.800;  141.825;    0.000
257.238;  523.800;  146.825;    0.000
257.306;  503.800;  180.825;    0.000
257.374;  504.800;  138.825;    0.000
257.442;  539.800;  135.825;    0.000
257.510;  570.800;  130.825;    0.000
257.578;  524.800;  123.825;    0.000
257.646;  574.800;  162.825;    0.000
257.713;  570.800;  149.825;    0.000
257.781;  576.800;  125.825;    0.000
257.849;  563.800;  149.825;    0.000
257.917;  584.800;  177.825;    0.000
257.985;  547.800;  143.825;    0.000
258.052;  595.800;  154.825;    0.000
258.120;  590.800;  162.825;    0.000
258.188;  570.800;  172.825;    0.000
258.256;  618.800;  160.825;    0.000
258.324;  626.800;  209.825;    0.000
258.391;  556.800;  153.825;    0.000
258.459;  665.800;  133.825;    0.000
258.527;  611.800;  160.825;    0.000
258.595;  655.800;  128.825;    0.000
258.662;  629.800;  114.825;    0.000
258.730;  640.800;  192.825;    0.000
258.798;  633.800;  144.825;    0.000
258.865;  712.800;  140.825;    0.000
258.933;  700.800;  150.825;    0.000
259.001;  721.800;  149.825;    0.000
259.069;  688.800;  110.825;    0.000
259.136;  673.800;  150.825;    0.000
259.204;  692.800;  156.825;    0.000
259.272;  740.800;  185.825;    0.000
259.339;  677.800;  148.825;    0.000
259.407;  766.800;  163.825;    0.000
259.475;  747.800;  129.825;    0.000
259.542;  700.800;  144.825;    0.000
259.610;  746.800;  164.825;    0.000
259.677;  737.800;  188.825;    0.000
259.745;  701.800;  113.825;    0.000
259.813;  800.800;  188.825;    0.000
259.880;  802.800;  174.825;    0.000
259.948;  755.800;  166.825;    0.000
260.016;  781.800;  150.825;    0.000
260.083;  855.800;  178.825;    0.000
260.151;  776.800;  120.825;    0.000
260.218;  815.800;  175.825;    0.000
260.286;  866.800;  155.825;    0.000
260.353;  845.800;  165.825;    0.000
260.421;  788.800;  169.825;    0.000
260.489;  860.800;  194.825;    0.000
260.556;  860.800;  161.825;    0.000
260.624;  901.800;  179.825;    0.000
260.691;  873.800;  174.825;    0.000
260.759;  936.800;  164.825;    0.000
260.826;  844.800;  125.825;    0.000
260.894;  910.800;  164.825;    0.000
260.961;  903.800;  147.825;    0.000
261.029;  917.800;  167.825;    0.000
261.096;  900.800;  136.825;    0.000
261.164;  894.800;  146.825;    0.000
261.231;  961.800;  190.825;    0.000
261.299;  962.800;  171.825;    0.000
261.366;  963.800;  165.825;    0.000
261.434;  942.800;  160.825;    0.000
261.501;  941.800;  149.825;    0.000
261.568; 1009.800;  155.825;    0.000
261.636; 1031.800;  137.825;    0.000
261.703; 1014.800;  186.825;    0.000
261.771; 1013.800;  162.825;    0.000
261.838;  973.800;  190.825;    0.000
261.906;  971.800;  133.825;    0.000
261.973; 1026.800;  202.825;    0.000
262.040; 1017.800;  179.825;    0.000
262.108; 1001.800;  161.825;    0.000
262.175;  969.800;  155.825;    0.000
262.243; 1108.800;  158.825;    0.000
262.310; 1105.800;  129.825;    0.000
262.377; 1055.800;  157.825;    0.000
262.445; 1095.800;  132.825;    0.000
262.512; 1025.800;  161.825;    0.000
262.579; 1090.800;  151.825;    0.000
262.647; 1153.800;  174.825;    0.000
262.714; 1108.800;  174.825;    0.000
262.781; 1078.800;  164.825;    0.000
262.849; 1145.800;  168.825;    0.000
262.916; 1123.800;  153.825;    0.000
262.983; 1183.800;  201.825;    0.000
263.051; 1118.800;  117.825;    0.000
263.118; 1153.800;  150.825;    0.000
263.185; 1171.800;  172.825;    0.000
263.252; 1156.800;  154.825;    0.000
263.320; 1102.800;  152.825;    0.000
263.387; 1149.800;  136.825;    0.000
263.454; 1179.800;  167.825;    0.000
263.522; 1212.800;  122.825;    0.000
263.589; 1162.800;  147.825;    0.000
263.656; 1187.800;  130.825;    0.000
263.723; 1189.800;  182.825;    0.000
263.790; 1140.800;  163.825;    0.000
263.858; 1206.800;  161.825;    0.000
263.925; 1243.800;  153.825;    0.000
263.992; 1216.800;  139.825;    0.000
264.059; 1249.800;  141.825;    0.000
264.126; 1286.800;  153.825;    0.000
264.194; 1217.800;  144.825;    0.000
264.261; 1284.800;  188.825;    0.000
264.328; 1228.800;  161.825;    0.000
264.395; 1303.800;  184.825;    0.000
264.462; 1257.800;  162.825;    0.000
264.529; 1279.800;  178.825;    0.000
264.597; 1290.800;  160.825;    0.000
264.664; 1312.800;  158.825;    0.000
264.731; 1362.800;  176.825;    0.000
264.798; 1291.800;  137.825;    0.000
264.865; 1294.800;  175.825;    0.000
264.932; 1367.800;  162.825;    0.000
264.999; 1306.800;  153.825;    0.000
265.066; 1283.800;  168.825;    0.000
265.133; 1320.800;  142.825;    0.000
265.201; 1329.800;  163.825;    0.000
265.268; 1286.800;  143.825;    0.000
265.335; 1281.800;  156.825;    0.000
265.402; 1366.800;  136.825;    0.000
265.469; 1460.800;  127.825;    0.000
265.536; 1431.800;  159.825;    0.000
265.603; 1405.800;  191.825;    0.000
265.670; 1357.800;  136.825;    0.000
265.737; 1485.800;  186.825;    0.000
265.804; 1426.800;  147.825;    0.000
265.871; 1494.800;  147.825;    0.000
265.938; 1409.800;  153.825;    0.000
266.005; 1511.800;  172.825;    0.000
266.072; 1357.800;  151.825;    0.000
266.139; 1425.800;  175.825;    0.000
266.206; 1405.800;  165.825;    0.000
266.273; 1513.800;  162.825;    0.000
266.340; 1570.800;  150.825;    0.000
266.407; 1465.800;  169.825;    0.000
266.474; 1405.800;  151.825;    0.000
266.541; 1517.800;  164.825;    0.000
266.608; 1475.800;  111.825;    0.000
266.675; 1479.800;  173.825;    0.000
266.742; 1521.800;  148.825;    0.000
266.808; 1565.800;  185.825;    0.000
266.875; 1499.800;  188.825;    0.000
266.942; 1474.800;  131.825;    0.000
267.009; 1586.800;  184.825;    0.000
267.076; 1555.800;  200.825;    0.000
267.143; 1533.800;  216.825;    0.000
267.210; 1494.800;  138.825;    0.000
267.277; 1495.800;  143.825;    0.000
267.344; 1563.800;  172.825;    0.000
267.410; 1552.800;  172.825;    0.000
267.477; 1561.800;  160.825;    0.000
267.544; 1603.800;  175.825;    0.000
267.611; 1612.800;  189.825;    0.000
267.678; 1550.800;  162.825;    0.000
267.745; 1664.800;  206.825;    0.000
267.811; 1563.800;  146.825;    0.000
267.878; 1540.800;  147.825;    0.000
267.945; 1592.800;  170.825;    0.000
268.012; 1555.800;  153.825;    0.000
268.079; 1558.800;  185.825;    0.000
268.145; 1582.800;  197.825;    0.000
268.212; 1500.800;  167.825;    0.000
268.279; 1542.800;  145.825;    0.000
268.346; 1588.800;  182.825;    0.000
268.412; 1643.800;  144.825;    0.000
268.479; 1483.800;  186.825;    0.000
268.546; 1612.800;  147.825;    0.000
268.613; 1591.800;  188.825;    0.000
268.679; 1620.800;  173.825;    0.000
268.746; 1596.800;  204.825;    0.000
268.813; 1566.800;  199.825;    0.000
268.879; 1626.800;  157.825;    0.000
268.946; 1630.800;  192.825;    0.000
269.013; 1544.800;  136.825;    0.000
269.079; 1580.800;  166.825;    0.000
269.146; 1591.800;  129.825;    0.000
269.213; 1615.800;  178.825;    0.000
269.280; 1643.800;  148.825;    0.000
269.346; 1602.800;  194.825;    0.000
269.413; 1500.800;  135.825;    0.000
269.479; 1592.800;  180.825;    0.000
269.546; 1582.800;  169.825;    0.000
269.613; 1534.800;  160.825;    0.000
269.679; 1611.800;  161.825;    0.000
269.746; 1616.800;  143.825;    0.000
269.813; 1530.800;  172.825;    0.000
269.879; 1675.800;  152.825;    0.000
269.946; 1645.800;  156.825;    0.000
270.012; 1544.800;  190.825;    0.000
270.079; 1476.800;  143.825;    0.000
270.145; 1547.800;  148.825;    0.000
270.212; 1668.800;  176.825;    0.000
270.279; 1545.800;  168.825;    0.000
270.345; 1522.800;  143.825;    0.000
270.412; 1566.800;  155.825;    0.000
270.478; 1514.800;  176.825;    0.000
270.545; 1634.800;  112.825;    0.000
270.611; 1625.800;  186.825;    0.000
270.678; 1555.800;  141.825;    0.000
270.744; 1595.800;  145.825;    0.000
270.811; 1609.800;  120.825;    0.000
270.877; 1495.800;  118.825;    0.000
270.944; 1559.800;  135.825;    0.000
271.010; 1568.800;  128.825;    0.000
271.077; 1526.800;  176.825;    0.000
271.143; 1631.800;  162.825;    0.000
271.210; 1490.800;  133.825;    0.000
271.276; 1564.800;  107.825;    0.000
271.342; 1524.800;  202.825;    0.000
271.409; 1605.800;  160.825;    0.000
271.475; 1554.800;  165.825;    0.000
271.542; 1551.800;  152.825;    0.000
271.608; 1618.800;  163.825;    0.000
271.675; 1516.800;  149.825;    0.000
271.741; 1641.800;  164.825;    0.000
271.807; 1561.800;  128.825;    0.000
271.874; 1562.800;  148.825;    0.000
271.940; 1539.800;  179.825;    0.000
272.007; 1544.800;  148.825;    0.000
272.073; 1615.800;  146.825;    0.000
272.139; 1589.800;  166.825;    0.000
272.206; 1561.800;  198.825;    0.000
272.272; 1576.800;  201.825;    0.000
272.338; 1648.800;  208.825;    0.000
272.405; 1588.800;  181.825;    0.000
272.471; 1569.800;  167.825;    0.000
272.537; 1661.800;  189.825;    0.000
272.604; 1556.800;  162.825;    0.000
272.670; 1634.800;  194.825;    0.000
272.736; 1618.800;  176.825;    0.000
272.802; 1635.800;  163.825;    0.000
272.869; 1611.800;  170.825;    0.000
272.935; 1582.800;  145.825;    0.000
273.001; 1667.800;  149.825;    0.000
273.068; 1623.800;  172.825;    0.000
273.134; 1630.800;  155.825;    0.000
273.200; 1674.800;  183.825;    0.000
273.266; 1603.800;  160.825;    0.000
273.333; 1618.800;  190.825;    0.000
273.399; 1590.800;  132.825;    0.000
273.465; 1641.800;  179.825;    0.000
273.531; 1629.800;  161.825;    0.000
273.597; 1646.800;  194.825;    0.000
273.664; 1717.800;  193.825;    0.000
273.730; 1695.800;  180.825;    0.000
273.796; 1673.800;  145.825;    0.000
273.862; 1621.800;  176.825;    0.000
273.928; 1713.800;  169.825;    0.000
273.995; 1761.800;  202.825;    0.000
274.061; 1700.800;  176.825;    0.000
274.127; 1623.800;  178.825;    0.000
274.193; 1587.800;  106.825;    0.000
274.259; 1767.800;  186.825;    0.000
274.325; 1677.800;  163.825;    0.000
274.391; 1656.800;  162.825;    0.000
274.457; 1736.800;  145.825;    0.000
274.524; 1824.800;  189.825;    0.000
274.590; 1696.800;  161.825;    0.000
274.656; 1769.800;  157.825;    0.000
274.722; 1812.800;  143.825;    0.000
274.788; 1792.800;  166.825;    0.000
274.854; 1828.800;  200.825;    0.000
274.920; 1718.800;  132.825;    0.000
274.986; 1787.800;  184.825;    0.000
275.052; 1848.800;  169.825;    0.000
275.118; 1812.800;  153.825;    0.000
275.184; 1886.800;  182.825;    0.000
275.250; 1819.800;  124.825;    0.000
275.316; 1856.800;  154.825;    0.000
275.382; 1902.800;  150.825;    0.000
275.448; 1912.800;  180.825;    0.000
275.514; 1925.800;  143.825;    0.000
275.580; 1834.800;  120.825;    0.000
275.646; 1974.800;  127.825;    0.000
275.712; 1971.800;  109.825;    0.000
275.778; 1890.800;  126.825;    0.000
275.844; 2031.800;  155.825;    0.000
275.910; 2119.800;  164.825;    0.000
275.976; 2089.800;  161.825;    0.000
276.042; 2136.800;  152.825;    0.000
276.108; 2129.800;  159.825;    0.000
276.174; 2196.800;  149.825;    0.000
276.240; 2132.800;  112.825;    0.000
276.306; 2221.800;  142.825;    0.000
276.372; 2226.800;  136.825;    0.000
276.437; 2363.800;  141.825;    0.000
276.503; 2232.800;  150.825;    0.000
276.569; 2442.800;  178.825;    0.000
276.635; 2397.800;  117.825;    0.000
276.701; 2443.800;  174.825;    0.000
276.767; 2480.800;  136.825;    0.000
276.833; 2540.800;  119.825;    0.000
276.899; 2623.800;  171.825;    0.000
276.964; 2593.800;  146.825;    0.000
277.030; 2804.800;  157.825;    0.000
277.096; 2770.800;  124.825;    0.000
277.162; 2806.800;  185.825;    0.000
277.228; 2888.800;  125.825;    0.000
277.293; 3029.800;  159.825;    0.000
277.359; 3072.800;  186.825;    0.000
277.425; 3271.800;  176.825;    0.000
277.491; 3587.800;  140.825;    0.000
277.557; 4170.800;  172.825;    0.000
277.622; 5165.800;  187.825;    0.000
277.688; 5320.800;  203.825;    0.000
277.754; 5412.800;  170.825;    0.000
277.820; 5954.800;  142.825;    0.000
277.885; 6975.800;  182.825;    0.000
277.951; 8545.800;  171.825;    0.000
278.017; 7576.800;  173.825;    0.000
278.083; 6642.800;  151.825;    0.000
278.148; 6479.800;  159.825;    0.000
278.214; 6494.800;  173.825;    0.000
278.280; 7037.800;  137.825;    0.000
278.345; 6368.800;  190.825;    0.000
278.411; 5965.800;  149.825;    0.000
278.477; 6308.800;  157.825;    0.000
278.542; 6705.800;  136.825;    0.000
278.608; 7351.800;  144.825;    0.000
278.674; 7872.800;  215.825;    0.000
278.739; 8887.800;  148.825;    0.000
278.805;10170.800;  152.825;    0.000
278.871;11887.800;  170.825;    0.000
278.936;14706.800;  180.825;    0.000
279.002;20882.801;  177.825;    0.000
279.067;26702.801;  172.825;    0.000
279.133;26443.801;  160.825;    0.000
279.199;24390.801;  165.825;    0.000
279.264;25195.801;  130.825;    0.000
279.330;28995.801;  154.825;    0.000
279.395;36337.801;  170.825;    0.000
279.461;43326.801;  136.825;    0.000
279.527;47069.801;  174.825;    0.000
279.592;45542.801;  179.825;    0.000
279.658;40966.801;  187.825;    0.000
279.723;39863.801;  201.825;    0.000
279.789;40827.801;  194.825;    0.000
279.854;36895.801;  171.825;    0.000
279.920;31313.801;  183.825;    0.000
279.985;28913.801;  173.825;    0.000
280.051;29330.801;  194.825;    0.000
280.116;34072.801;  197.825;    0.000
280.182;41538.801;  171.825;    0.000
280.247;45621.801;  131.825;    0.000
280.313;40707.801;  166.825;    0.000
280.378;31209.801;  159.825;    0.000
280.444;23764.801;  190.825;    0.000
280.509;19265.801;  189.825;    0.000
280.574;16393.801;  171.825;    0.000
280.640;13972.800;  167.825;    0.000
280.705;12673.800;  129.825;    0.000
280.771;11220.800;  193.825;    0.000
280.836;10271.800;  172.825;    0.000
280.902; 9845.800;  189.825;    0.000
280.967; 8774.800;  143.825;    0.000
281.032; 8299.800;  182.825;    0.000
281.098; 7856.800;  172.825;    0.000
281.163; 7510.800;  184.825;    0.000
281.229; 7005.800;  210.825;    0.000
281.294; 6637.800;  223.825;    0.000
281.359; 6362.800;  197.825;    0.000
281.425; 6234.800;  192.825;    0.000
281.490; 5929.800;  162.825;    0.000
281.555; 5649.800;  193.825;    0.000
281.621; 5455.800;  141.825;    0.000
281.686; 5263.800;  166.825;    0.000
281.751; 5067.800;  204.825;    0.000
281.816; 4831.800;  159.825;    0.000
281.882; 4801.800;  146.825;    0.000
281.947; 4742.800;  176.825;    0.000
282.012; 4456.800;  139.825;    0.000
282.078; 4344.800;  186.825;    0.000
282.143; 4248.800;  151.825;    0.000
282.208; 4073.800;  213.825;    0.000
282.273; 4183.800;  160.825;    0.000
282.339; 4056.800;  175.825;    0.000
282.404; 3954.800;  157.825;    0.000
282.469; 3892.800;  185.825;    0.000
282.534; 3809.800;  166.825;    0.000
282.600; 3664.800;  168.825;    0.000
282.665; 3742.800;  167.825;    0.000
282.730; 3669.800;  148.825;    0.000
282.795; 3592.800;  186.825;    0.000
282.860; 3555.800;  161.825;    0.000
282.926; 3408.800;  178.825;    0.000
282.991; 3439.800;  139.825;    0.000
283.056; 3409.800;  158.825;    0.000
283.121; 3366.800;  191.825;    0.000
283.186; 3402.800;  182.825;    0.000
283.251; 3344.800;  181.825;    0.000
283.316; 3298.800;  187.825;    0.000
283.382; 3205.800;  175.825;    0.000
283.447; 3327.800;  183.825;    0.000
283.512; 3233.800;  175.825;    0.000
283.577; 3138.800;  180.825;    0.000
283.642; 3181.800;  193.825;    0.000
283.707; 3059.800;  145.825;    0.000
283.772; 3096.800;  143.825;    0.000
283.837; 3019.800;  143.825;    0.000
283.902; 3015.800;  150.825;    0.000
283.967; 3037.800;  166.825;    0.000
284.032; 3006.800;  126.825;    0.000
284.097; 3074.800;  201.825;    0.000
284.163; 2980.800;  133.825;    0.000
284.228; 3008.800;  193.825;    0.000
284.293; 3069.800;  157.825;    0.000
284.358; 3069.800;  185.825;    0.000
284.423; 3163.800;  142.825;    0.000
284.488; 3154.800;  192.825;    0.000
284.553; 3158.800;  146.825;    0.000
284.618; 3221.800;  154.825;    0.000
284.683; 3269.800;  172.825;    0.000
284.748; 3408.800;  195.825;    0.000
284.812; 3687.800;  190.825;    0.000
284.877; 3991.800;  169.825;    0.000
284.942; 4479.800;  195.825;    0.000
285.007; 5255.800;  204.825;    0.000
285.072; 7094.800;  189.825;    0.000
285.137;11614.800;  149.825;    0.000
285.202;15326.800;  164.825;    0.000
285.267;13098.800;  161.825;    0.000
285.332; 8772.800;  140.825;    0.000
285.397; 6665.800;  142.825;    0.000
285.462; 5529.800;  146.825;    0.000
285.527; 4665.800;  132.825;    0.000
285.591; 4285.800;  160.825;    0.000
285.656; 3838.800;  136.825;    0.000
285.721; 3747.800;  135.825;    0.000
285.786; 3549.800;  171.825;    0.000
285.851; 3379.800;  168.825;    0.000
285.916; 3251.800;  178.825;    0.000
285.981; 3151.800;  152.825;    0.000
286.045; 3066.800;  167.825;    0.000
286.110; 3071.800;  187.825;    0.000
286.175; 3038.800;  162.825;    0.000
286.240; 2950.800;  163.825;    0.000
286.305; 2910.800;  190.825;    0.000
286.369; 2915.800;  143.825;    0.000
286.434; 2812.800;  185.825;    0.000
286.499; 2797.800;  195.825;    0.000
286.564; 2809.800;  173.825;    0.000
286.628; 2729.800;  159.825;    0.000
286.693; 2748.800;  175.825;    0.000
286.758; 2810.800;  170.825;    0.000
286.823; 2703.800;  129.825;    0.000
286.887; 2667.800;  172.825;    0.000
286.952; 2581.800;  163.825;    0.000
287.017; 2652.800;  217.825;    0.000
287.082; 2699.800;  165.825;    0.000
287.146; 2642.800;  176.825;    0.000
287.211; 2792.800;  192.825;    0.000
287.276; 2649.800;  147.825;    0.000
287.340; 2624.800;  162.825;    0.000
287.405; 2598.800;  196.825;    0.000
287.470; 2557.800;  148.825;    0.000
287.534; 2620.800;  166.825;    0.000
287.599; 2645.800;  193.825;    0.000
287.663; 2572.800;  191.825;    0.000
287.728; 2577.800;  146.825;    0.000
287.793; 2561.800;  234.825;    0.000
287.857; 2578.800;  177.825;    0.000
287.922; 2455.800;  166.825;    0.000
287.987; 2670.800;  169.825;    0.000
288.051; 2589.800;  169.825;    0.000
288.116; 2649.800;  187.825;    0.000
288.180; 2567.800;  200.825;    0.000
288.245; 2430.800;  201.825;    0.000
288.309; 2571.800;  176.825;    0.000
288.374; 2583.800;  162.825;    0.000
288.439; 2555.800;  195.825;    0.000
288.503; 2504.800;  162.825;    0.000
288.568; 2559.800;  228.825;    0.000
288.632; 2552.800;  194.825;    0.000
288.697; 2602.800;  173.825;    0.000
288.761; 2566.800;  153.825;    0.000
288.826; 2454.800;  151.825;    0.000
288.890; 2528.800;  208.825;    0.000
288.955; 2456.800;  159.825;    0.000
289.019; 2595.800;  198.825;    0.000
289.084; 2433.800;  152.825;    0.000
289.148; 2529.800;  171.825;    0.000
289.212; 2500.800;  184.825;    0.000
289.277; 2530.800;  165.825;    0.000
289.341; 2454.800;  207.825;    0.000
289.406; 2355.800;  156.825;    0.000
289.470; 2503.800;  191.825;    0.000
289.535; 2454.800;  222.825;    0.000
289.599; 2525.800;  214.825;    0.000
289.663; 2367.800;  183.825;    0.000
289.728; 2542.800;  192.825;    0.000
289.792; 2460.800;  197.825;    0.000
289.857; 2541.800;  221.825;    0.000
289.921; 2487.800;  177.825;    0.000
289.985; 2472.800;  177.825;    0.000
290.050; 2411.800;  178.825;    0.000
290.114; 2430.800;  112.825;    0.000
290.178; 2421.800;  170.825;    0.000
290.243; 2446.800;  162.825;    0.000
290.307; 2530.800;  178.825;    0.000
290.371; 2522.800;  141.825;    0.000
290.436; 2449.800;  178.825;    0.000
290.500; 2393.800;  135.825;    0.000
290.564; 2405.800;  199.825;    0.000
290.629; 2527.800;  165.825;    0.000
290.693; 2495.800;  154.825;    0.000
290.757; 2495.800;  159.825;    0.000
290.821; 2447.800;  179.825;    0.000
290.886; 2485.800;  141.825;    0.000
290.950; 2572.800;  166.825;    0.000
291.014; 2438.800;  169.825;    0.000
291.078; 2516.800;  191.825;    0.000
291.143; 2600.800;  169.825;    0.000
291.207; 2545.800;  164.825;    0.000
291.271; 2546.800;  193.825;    0.000
291.335; 2581.800;  150.825;    0.000
291.399; 2660.800;  175.825;    0.000
291.464; 2870.800;  128.825;    0.000
291.528; 2909.800;  162.825;    0.000
291.592; 2805.800;  152.825;    0.000
291.656; 2673.800;  175.825;    0.000
291.720; 2688.800;  173.825;    0.000
291.784; 2739.800;  192.825;    0.000
291.849; 2703.800;  159.825;    0.000
291.913; 2655.800;  174.825;    0.000
291.977; 2719.800;  177.825;    0.000
292.041; 2758.800;  188.825;    0.000
292.105; 2690.800;  174.825;    0.000
292.169; 2754.800;  143.825;    0.000
292.233; 2700.800;  149.825;    0.000
292.297; 2870.800;  176.825;    0.000
292.361; 2895.800;  178.825;    0.000
292.425; 2941.800;  153.825;    0.000
292.490; 2973.800;  185.825;    0.000
292.554; 3228.800;  144.825;    0.000
292.618; 3283.800;  166.825;    0.000
292.682; 3674.800;  181.825;    0.000
292.746; 4181.800;  152.825;    0.000
292.810; 5597.800;  208.825;    0.000
292.874; 6788.800;  142.825;    0.000
292.938; 7008.800;  195.825;    0.000
293.002; 6401.800;  156.825;    0.000
293.066; 5583.800;  108.825;    0.000
293.130; 5173.800;  136.825;    0.000
293.194; 5074.800;  135.825;    0.000
293.258; 4858.800;  187.825;    0.000
293.322; 4763.800;  148.825;    0.000
293.386; 4872.800;  186.825;    0.000
293.450; 5157.800;  196.825;    0.000
293.514; 5853.800;  175.825;    0.000
293.577; 7657.800;  137.825;    0.000
293.641;10358.800;  142.825;    0.000
293.705;10996.800;  201.825;    0.000
293.769; 9577.800;  150.825;    0.000
293.833; 8461.800;  147.825;    0.000
293.897; 7655.800;  170.825;    0.000
293.961; 6663.800;  121.825;    0.000
294.025; 5982.800;  172.825;    0.000
294.089; 5587.800;  167.825;    0.000
294.152; 5081.800;  167.825;    0.000
294.216; 4842.800;  165.825;    0.000
294.280; 4574.800;  168.825;    0.000
294.344; 4417.800;  160.825;    0.000
294.408; 4032.800;  187.825;    0.000
294.472; 3907.800;  141.825;    0.000
294.536; 3805.800;  184.825;    0.000
294.599; 3631.800;  176.825;    0.000
294.663; 3473.800;  120.825;    0.000
294.727; 3426.800;  159.825;    0.000
294.791; 3454.800;  190.825;    0.000
294.855; 3219.800;  148.825;    0.000
294.918; 3234.800;  160.825;    0.000
294.982; 3105.800;  156.825;    0.000
295.046; 3119.800;  177.825;    0.000
295.110; 3013.800;  149.825;    0.000
295.173; 3012.800;  156.825;    0.000
295.237; 2903.800;  174.825;    0.000
295.301; 2907.800;  152.825;    0.000
295.364; 2906.800;  204.825;    0.000
295.428; 2771.800;  196.825;    0.000
295.492; 2816.800;  178.825;    0.000
295.556; 2770.800;  161.825;    0.000
295.619; 2748.800;  178.825;    0.000
295.683; 2601.800;  152.825;    0.000
295.747; 2632.800;  148.825;    0.000
295.810; 2646.800;  177.825;    0.000
295.874; 2589.800;  146.825;    0.000
295.938; 2616.800;  115.825;    0.000
296.001; 2591.800;  172.825;    0.000
296.065; 2398.800;  146.825;    0.000
296.128; 2527.800;  164.825;    0.000
296.192; 2421.800;  137.825;    0.000
296.256; 2526.800;  143.825;    0.000
296.319; 2416.800;  156.825;    0.000
296.383; 2435.800;  165.825;    0.000
296.447; 2472.800;  170.825;    0.000
296.510; 2395.800;  174.825;    0.000
296.574; 2417.800;  127.825;    0.000
296.637; 2456.800;  132.825;    0.000
296.701; 2434.800;  206.825;    0.000
296.764; 2414.800;  179.825;    0.000
296.828; 2404.800;  213.825;    0.000
296.891; 2323.800;  149.825;    0.000
296.955; 2408.800;  170.825;    0.000
297.018; 2355.800;  185.825;    0.000
297.082; 2349.800;  205.825;    0.000
297.145; 2286.800;  154.825;    0.000
297.209; 2354.800;  200.825;    0.000
297.272; 2400.800;  157.825;    0.000
297.336; 2204.800;  164.825;    0.000
297.399; 2337.800;  166.825;    0.000
297.463; 2387.800;  195.825;    0.000
297.526; 2299.800;  176.825;    0.000
297.590; 2230.800;  198.825;    0.000
297.653; 2316.800;  146.825;    0.000
297.717; 2283.800;  175.825;    0.000
297.780; 2202.800;  139.825;    0.000
297.843; 2226.800;  174.825;    0.000
297.907; 2251.800;  149.825;    0.000
297.970; 2246.800;  161.825;    0.000
298.034; 2268.800;  185.825;    0.000
298.097; 2321.800;  167.825;    0.000
298.160; 2227.800;  195.825;    0.000
298.224; 2176.800;  178.825;    0.000
298.287; 2237.800;  164.825;    0.000
298.350; 2158.800;  194.825;    0.000
298.414; 2191.800;  191.825;    0.000
298.477; 2142.800;  155.825;    0.000
298.540; 2202.800;  139.825;    0.000
298.604; 2229.800;  198.825;    0.000
298.667; 2145.800;  183.825;    0.000
298.730; 2130.800;  185.825;    0.000
298.794; 2119.800;  153.825;    0.000
298.857; 2115.800;  169.825;    0.000
298.920; 2143.800;  159.825;    0.000
298.984; 2115.800;  179.825;    0.000
299.047; 2147.800;  174.825;    0.000
299.110; 2192.800;  144.825;    0.000
299.173; 2136.800;  190.825;    0.000
299.237; 2090.800;  163.825;    0.000
299.300; 2124.800;  153.825;    0.000
299.363; 2104.800;  145.825;    0.000
299.426; 2062.800;  160.825;    0.000
299.489; 2046.800;  173.825;    0.000
299.553; 2109.800;  209.825;    0.000
299.616; 2116.800;  172.825;    0.000
299.679; 2040.800;  204.825;    0.000
299.742; 1997.800;  162.825;    0.000
299.805; 2047.800;  198.825;    0.000
299.868; 2107.800;  176.825;    0.000
299.932; 2016.800;  166.825;    0.000
299.995; 2134.800;  162.825;    0.000
300.058; 2071.800;  175.825;    0.000
300.121; 2084.800;  197.825;    0.000
300.184; 2106.800;  188.825;    0.000
300.247; 1990.800;  181.825;    0.000
300.310; 2021.800;  161.825;    0.000
300.374; 1992.800;  201.825;    0.000
300.437; 2000.800;  156.825;    0.000
300.500; 2051.800;  180.825;    0.000
300.563; 1951.800;  174.825;    0.000
300.626; 2065.800;  206.825;    0.000
300.689; 2052.800;  218.825;    0.000
300.752; 2036.800;  192.825;    0.000
300.815; 2092.800;  172.825;    0.000
300.878; 2046.800;  207.825;    0.000
300.941; 2005.800;  163.825;    0.000
301.004; 2010.800;  171.825;    0.000
301.067; 2022.800;  198.825;    0.000
301.130; 1960.800;  156.825;    0.000
301.193; 1955.800;  173.825;    0.000
301.256; 1923.800;  167.825;    0.000
301.319; 1961.800;  211.825;    0.000
301.382; 2025.800;  167.825;    0.000
301.445; 2000.800;  224.825;    0.000
301.508; 1944.800;  168.825;    0.000
301.571; 1900.800;  161.825;    0.000
301.634; 1953.800;  177.825;    0.000
301.697; 1933.800;  203.825;    0.000
301.760; 2010.800;  190.825;    0.000
301.823; 1946.800;  182.825;    0.000
301.885; 1950.800;  202.825;    0.000
301.948; 1963.800;  200.825;    0.000
302.011; 2049.800;  157.825;    0.000
302.074; 2055.800;  205.825;    0.000
302.137; 1947.800;  149.825;    0.000
302.200; 1973.800;  201.825;    0.000
302.263; 1946.800;  178.825;    0.000
302.326; 1937.800;  184.825;    0.000
302.388; 1986.800;  176.825;    0.000
302.451; 2000.800;  146.825;    0.000
302.514; 1921.800;  192.825;    0.000
302.577; 1921.800;  181.825;    0.000
302.640; 1977.800;  186.825;    0.000
302.703; 1945.800;  164.825;    0.000
302.765; 1910.800;  197.825;    0.000
302.828; 1967.800;  208.825;    0.000
302.891; 1961.800;  168.825;    0.000
302.954; 1921.800;  177.825;    0.000
303.016; 1937.800;  190.825;    0.000
303.079; 1873.800;  216.825;    0.000
303.142; 1994.800;  228.825;    0.000
303.205; 2011.800;  192.825;    0.000
303.267; 1915.800;  182.825;    0.000
303.330; 1905.800;  201.825;    0.000
303.393; 1919.800;  196.825;    0.000
303.456; 1861.800;  184.825;    0.000
303.518; 1892.800;  194.825;    0.000
303.581; 1860.800;  195.825;    0.000
303.644; 1913.800;  184.825;    0.000
303.706; 1918.800;  150.825;    0.000
303.769; 2011.800;  182.825;    0.000
303.832; 1842.800;  143.825;    0.000
303.894; 1996.800;  207.825;    0.000
303.957; 2011.800;  178.825;    0.000
304.020; 1961.800;  203.825;    0.000
304.082; 1932.800;  175.825;    0.000
304.145; 1951.800;  171.825;    0.000
304.207; 1902.800;  157.825;    0.000
304.270; 1972.800;  195.825;    0.000
304.333; 1919.800;  195.825;    0.000
304.395; 1870.800;  197.825;    0.000
304.458; 1972.800;  231.825;    0.000
304.520; 1983.800;  218.825;    0.000
304.583; 1970.800;  177.825;    0.000
304.646; 1950.800;  177.825;    0.000
304.708; 1959.800;  178.825;    0.000
304.771; 1900.800;  143.825;    0.000
304.833; 1954.800;  241.825;    0.000
304.896; 1937.800;  200.825;    0.000
304.958; 1943.800;  176.825;    0.000
305.021; 1952.800;  159.825;    0.000
305.083; 1902.800;  159.825;    0.000
305.146; 1947.800;  190.825;    0.000
305.208; 1955.800;  152.825;    0.000
305.271; 1926.800;  162.825;    0.000
305.333; 1952.800;  219.825;    0.000
305.396; 1863.800;  163.825;    0.000
305.458; 1944.800;  215.825;    0.000
305.520; 1844.800;  174.825;    0.000
305.583; 1855.800;  161.825;    0.000
305.645; 1928.800;  203.825;    0.000
305.708; 1952.800;  163.825;    0.000
305.770; 1972.800;  215.825;    0.000
305.833; 1968.800;  207.825;    0.000
305.895; 1908.800;  166.825;    0.000
305.957; 1896.800;  175.825;    0.000
306.020; 1934.800;  169.825;    0.000
306.082; 1884.800;  203.825;    0.000
306.144; 1954.800;  181.825;    0.000
306.207; 2024.800;  199.825;    0.000
306.269; 1894.800;  177.825;    0.000
306.331; 1879.800;  160.825;    0.000
306.394; 1914.800;  193.825;    0.000
306.456; 1903.800;  136.825;    0.000
306.518; 1792.800;  189.825;    0.000
306.581; 1911.800;  156.825;    0.000
306.643; 1908.800;  190.825;    0.000
306.705; 1983.800;  190.825;    0.000
306.768; 1896.800;  172.825;    0.000
306.830; 1934.800;  214.825;    0.000
306.892; 1952.800;  198.825;    0.000
306.954; 1944.800;  177.825;    0.000
307.017; 2044.800;  183.825;    0.000
307.079; 1996.800;  170.825;    0.000
307.141; 2047.800;  173.825;    0.000
307.203; 1980.800;  171.825;    0.000
307.266; 1944.800;  166.825;    0.000
307.328; 1972.800;  207.825;    0.000
307.390; 2022.800;  201.825;    0.000
307.452; 1916.800;  182.825;    0.000
307.514; 2042.800;  213.825;    0.000
307.577; 2002.800;  213.825;    0.000
307.639; 2046.800;  197.825;    0.000
307.701; 2097.800;  174.825;    0.000
307.763; 2030.800;  181.825;    0.000
307.825; 2061.800;  186.825;    0.000
307.887; 2043.800;  198.825;    0.000
307.949; 1953.800;  158.825;    0.000
308.012; 2027.800;  209.825;    0.000
308.074; 1995.800;  176.825;    0.000
308.136; 2027.800;  227.825;    0.000
308.198; 2022.800;  187.825;    0.000
308.260; 2043.800;  211.825;    0.000
308.322; 2064.800;  206.825;    0.000
308.384; 2086.800;  186.825;    0.000
308.446; 2056.800;  175.825;    0.000
308.508; 2027.800;  211.825;    0.000
308.570; 2072.800;  191.825;    0.000
308.632; 2136.800;  195.825;    0.000
308.694; 2079.800;  173.825;    0.000
308.756; 2098.800;  185.825;    0.000
308.818; 2180.800;  195.825;    0.000
308.880; 2170.800;  189.825;    0.000
308.942; 2188.800;  231.825;    0.000
309.004; 2202.800;  188.825;    0.000
309.066; 2183.800;  196.825;    0.000
309.128; 2240.800;  155.825;    0.000
309.190; 2287.800;  176.825;    0.000
309.252; 2350.800;  191.825;    0.000
309.314; 2407.800;  236.825;    0.000
309.376; 2374.800;  212.825;    0.000
309.438; 2276.800;  201.825;    0.000
309.500; 2254.800;  206.825;    0.000
309.562; 2305.800;  213.825;    0.000
309.624; 2388.800;  196.825;    0.000
309.686; 2503.800;  198.825;    0.000
309.747; 2440.800;  186.825;    0.000
309.809; 2351.800;  215.825;    0.000
309.871; 2335.800;  242.825;    0.000
309.933; 2286.800;  162.825;    0.000
309.995; 2240.800;  163.825;    0.000
310.057; 2300.800;  145.825;    0.000
310.119; 2302.800;  205.825;    0.000
310.180; 2252.800;  195.825;    0.000
310.242; 2209.800;  167.825;    0.000
310.304; 2242.800;  213.825;    0.000
310.366; 2222.800;  224.825;    0.000
310.428; 2213.800;  170.825;    0.000
310.489; 2224.800;  195.825;    0.000
310.551; 2277.800;  207.825;    0.000
310.613; 2273.800;  168.825;    0.000
310.675; 2195.800;  188.825;    0.000
310.737; 2165.800;  211.825;    0.000
310.798; 2234.800;  221.825;    0.000
310.860; 2177.800;  201.825;    0.000
310.922; 2151.800;  206.825;    0.000
310.983; 2176.800;  222.825;    0.000
311.045; 2261.800;  235.825;    0.000
311.107; 2185.800;  184.825;    0.000
311.169; 2123.800;  148.825;    0.000
311.230; 2168.800;  211.825;    0.000
311.292; 2218.800;  235.825;    0.000
311.354; 2151.800;  183.825;    0.000
311.415; 2111.800;  196.825;    0.000
311.477; 2156.800;  200.825;    0.000
311.539; 2172.800;  171.825;    0.000
311.600; 2249.800;  169.825;    0.000
311.662; 2168.800;  231.825;    0.000
311.724; 2214.800;  204.825;    0.000
311.785; 2148.800;  214.825;    0.000
311.847; 2126.800;  193.825;    0.000
311.908; 2043.800;  180.825;    0.000
311.970; 2116.800;  233.825;    0.000
312.032; 2163.800;  192.825;    0.000
312.093; 2148.800;  195.825;    0.000
312.155; 2179.800;  194.825;    0.000
312.216; 2198.800;  238.825;    0.000
312.278; 2166.800;  146.825;    0.000
312.339; 2266.800;  184.825;    0.000
312.401; 2164.800;  201.825;    0.000
312.462; 2122.800;  173.825;    0.000
312.524; 2195.800;  205.825;    0.000
312.585; 2185.800;  199.825;    0.000
312.647; 2151.800;  168.825;    0.000
312.708; 2148.800;  180.825;    0.000
312.770; 2175.800;  180.825;    0.000
312.831; 2238.800;  176.825;    0.000
312.893; 2203.800;  211.825;    0.000
312.954; 2214.800;  178.825;    0.000
313.016; 2236.800;  204.825;    0.000
313.077; 2206.800;  216.825;    0.000
313.139; 2169.800;  172.825;    0.000
313.200; 2154.800;  197.825;    0.000
313.261; 2185.800;  227.825;    0.000
313.323; 2136.800;  204.825;    0.000
313.384; 2221.800;  182.825;    0.000
313.446; 2247.800;  204.825;    0.000
313.507; 2159.800;  164.825;    0.000
313.568; 2237.800;  197.825;    0.000
313.630; 2186.800;  190.825;    0.000
313.691; 2213.800;  185.825;    0.000
313.752; 2118.800;  192.825;    0.000
313.814; 2140.800;  176.825;    0.000
313.875; 2181.800;  210.825;    0.000
313.936; 2177.800;  165.825;    0.000
313.998; 2177.800;  162.825;    0.000
314.059; 2143.800;  178.825;    0.000
314.120; 2246.800;  176.825;    0.000
314.182; 2241.800;  167.825;    0.000
314.243; 2151.800;  204.825;    0.000
314.304; 2253.800;  197.825;    0.000
314.365; 2166.800;  183.825;    0.000
314.427; 2145.800;  176.825;    0.000
314.488; 2179.800;  149.825;    0.000
314.549; 2254.800;  218.825;    0.000
314.610; 2235.800;  160.825;    0.000
314.672; 2145.800;  187.825;    0.000
314.733; 2087.800;  184.825;    0.000
314.794; 2098.800;  164.825;    0.000
314.855; 2175.800;  191.825;    0.000
314.917; 2156.800;  172.825;    0.000
314.978; 2197.800;  185.825;    0.000
315.039; 2182.800;  194.825;    0.000
315.100; 2131.800;  190.825;    0.000
315.161; 2182.800;  185.825;    0.000
315.222; 2192.800;  204.825;    0.000
315.283; 2115.800;  166.825;    0.000
315.345; 2245.800;  133.825;    0.000
315.406; 2126.800;  191.825;    0.000
315.467; 2095.800;  166.825;    0.000
315.528; 2156.800;  194.825;    0.000
315.589; 2224.800;  193.825;    0.000
315.650; 2199.800;  190.825;    0.000
315.711; 2143.800;  219.825;    0.000
315.772; 2110.800;  159.825;    0.000
315.833; 2162.800;  191.825;    0.000
315.894; 2216.800;  202.825;    0.000
315.955; 2198.800;  167.825;    0.000
316.016; 2250.800;  177.825;    0.000
316.078; 2165.800;  185.825;    0.000
316.139; 2213.800;  219.825;    0.000
316.200; 2122.800;  163.825;    0.000
316.261; 2115.800;  183.825;    0.000
316.322; 2083.800;  230.825;    0.000
316.383; 2153.800;  198.825;    0.000
316.444; 2247.800;  209.825;    0.000
316.504; 2119.800;  179.825;    0.000
316.565; 2174.800;  185.825;    0.000
316.626; 2148.800;  155.825;    0.000
316.687; 2207.800;  211.825;    0.000
316.748; 2170.800;  192.825;    0.000
316.809; 2152.800;  183.825;    0.000
316.870; 2117.800;  196.825;    0.000
316.931; 2186.800;  173.825;    0.000
316.992; 2148.800;  179.825;    0.000
317.053; 2139.800;  186.825;    0.000
317.114; 2234.800;  189.825;    0.000
317.175; 2181.800;  226.825;    0.000
317.235; 2127.800;  206.825;    0.000
317.296; 2220.800;  191.825;    0.000
317.357; 2140.800;  173.825;    0.000
317.418; 2097.800;  212.825;    0.000
317.479; 2119.800;  247.825;    0.000
317.540; 2196.800;  205.825;    0.000
317.601; 2190.800;  205.825;    0.000
317.661; 2074.800;  150.825;    0.000
317.722; 2139.800;  198.825;    0.000
317.783; 2112.800;  153.825;    0.000
317.844; 2180.800;  202.825;    0.000
317.904; 2119.800;  180.825;    0.000
317.965; 2151.800;  205.825;    0.000
318.026; 2172.800;  223.825;    0.000
318.087; 2152.800;  218.825;    0.000
318.148; 2172.800;  207.825;    0.000
318.208; 2186.800;  212.825;    0.000
318.269; 2172.800;  174.825;    0.000
318.330; 2124.800;  191.825;    0.000
318.390; 2142.800;  197.825;    0.000
318.451; 2204.800;  167.825;    0.000
318.512; 2121.800;  174.825;    0.000
318.572; 2184.800;  199.825;    0.000
318.633; 2178.800;  233.825;    0.000
318.694; 2133.800;  232.825;    0.000
318.754; 2102.800;  181.825;    0.000
318.815; 2111.800;  199.825;    0.000
318.876; 2180.800;  207.825;    0.000
318.936; 2227.800;  202.825;    0.000
318.997; 2105.800;  182.825;    0.000
319.058; 2179.800;  180.825;    0.000
319.118; 2170.800;  199.825;    0.000
319.179; 2050.800;  199.825;    0.000
319.239; 2160.800;  229.825;    0.000
319.300; 2167.800;  223.825;    0.000
319.361; 2196.800;  210.825;    0.000
319.421; 2123.800;  205.825;    0.000
319.482; 2147.800;  205.825;    0.000
319.542; 2082.800;  176.825;    0.000
319.603; 2148.800;  191.825;    0.000
319.663; 2100.800;  183.825;    0.000
319.724; 1996.800;  174.825;    0.000
319.784; 2112.800;  198.825;    0.000
319.845; 2133.800;  218.825;    0.000
319.905; 2110.800;  217.825;    0.000
319.966; 2150.800;  197.825;    0.000
320.026; 2184.800;  209.825;    0.000
320.087; 2026.800;  225.825;    0.000
320.147; 2189.800;  201.825;    0.000
320.208; 2109.800;  176.825;    0.000
320.268; 2117.800;  168.825;    0.000
320.329; 2046.800;  238.825;    0.000
320.389; 2183.800;  220.825;    0.000
320.449; 2201.800;  230.825;    0.000
320.510; 2143.800;  234.825;    0.000
320.570; 2135.800;  210.825;    0.000
320.631; 2161.800;  207.825;    0.000
320.691; 2150.800;  222.825;    0.000
320.751; 2047.800;  195.825;    0.000
320.812; 2076.800;  193.825;    0.000
320.872; 2150.800;  237.825;    0.000
320.932; 2167.800;  213.825;    0.000
320.993; 2183.800;  185.825;    0.000
321.053; 2190.800;  245.825;    0.000
321.113; 2136.800;  206.825;    0.000
321.174; 2105.800;  202.825;    0.000
321.234; 2154.800;  244.825;    0.000
321.294; 2046.800;  228.825;    0.000
321.355; 2097.800;  208.825;    0.000
321.415; 2064.800;  223.825;    0.000
321.475; 2139.800;  203.825;    0.000
321.535; 2145.800;  230.825;    0.000
321.596; 2139.800;  186.825;    0.000
321.656; 2103.800;  216.825;    0.000
321.716; 2114.800;  207.825;    0.000
321.776; 2176.800;  181.825;    0.000
321.837; 2201.800;  207.825;    0.000
321.897; 2136.800;  225.825;    0.000
321.957; 2176.800;  222.825;    0.000
322.017; 2077.800;  215.825;    0.000
322.077; 2172.800;  250.825;    0.000
322.138; 2145.800;  189.825;    0.000
322.198; 2148.800;  200.825;    0.000
322.258; 2144.800;  217.825;    0.000
322.318; 2079.800;  183.825;    0.000
322.378; 2092.800;  231.825;    0.000
322.438; 2115.800;  228.825;    0.000
322.499; 2106.800;  248.825;    0.000
322.559; 2084.800;  198.825;    0.000
322.619; 2170.800;  221.825;    0.000
322.679; 2064.800;  217.825;    0.000
322.739; 2122.800;  204.825;    0.000
322.799; 2145.800;  236.825;    0.000
322.859; 2072.800;  213.825;    0.000
322.919; 2071.800;  210.825;    0.000
322.979; 2096.800;  244.825;    0.000
323.039; 2115.800;  218.825;    0.000
323.099; 2079.800;  232.825;    0.000
323.159; 2094.800;  216.825;    0.000
323.219; 2046.800;  169.825;    0.000
323.279; 2132.800;  236.825;    0.000
323.339; 2184.800;  243.825;    0.000
323.399; 2160.800;  208.825;    0.000
323.459; 2121.800;  220.825;    0.000
323.519; 2117.800;  228.825;    0.000
323.579; 2128.800;  164.825;    0.000
323.639; 2162.800;  209.825;    0.000
323.699; 2200.800;  188.825;    0.000
323.759; 2207.800;  206.825;    0.000
323.819; 2177.800;  204.825;    0.000
323.879; 2188.800;  222.825;    0.000
323.939; 2117.800;  206.825;    0.000
323.999; 2142.800;  202.825;    0.000
324.059; 2038.800;  245.825;    0.000
324.119; 2103.800;  214.825;    0.000
324.178; 2044.800;  183.825;    0.000
324.238; 2137.800;  193.825;    0.000
324.298; 2121.800;  207.825;    0.000
324.358; 2091.800;  196.825;    0.000
324.418; 2160.800;  193.825;    0.000
324.478; 2054.800;  191.825;    0.000
324.538; 2097.800;  224.825;    0.000
324.597; 2035.800;  187.825;    0.000
324.657; 2050.800;  208.825;    0.000
324.717; 2058.800;  198.825;    0.000
324.777; 2053.800;  159.825;    0.000
324.837; 2053.800;  180.825;    0.000
324.896; 2092.800;  215.825;    0.000
324.956; 2111.800;  210.825;    0.000
325.016; 2165.800;  187.825;    0.000
325.076; 2079.800;  197.825;    0.000
325.135; 2083.800;  226.825;    0.000
325.195; 2176.800;  201.825;    0.000
325.255; 2138.800;  167.825;    0.000
325.315; 2131.800;  217.825;    0.000
325.374; 2034.800;  196.825;    0.000
325.434; 2138.800;  167.825;    0.000
325.494; 2102.800;  214.825;    0.000
325.553; 2111.800;  203.825;    0.000
325.613; 2114.800;  206.825;    0.000
325.673; 2131.800;  148.825;    0.000
325.732; 2001.800;  207.825;    0.000
325.792; 2059.800;  151.825;    0.000
325.852; 2158.800;  195.825;    0.000
325.911; 2171.800;  201.825;    0.000
325.971; 2120.800;  224.825;    0.000
326.031; 2003.800;  201.825;    0.000
326.090; 2062.800;  203.825;    0.000
326.150; 2047.800;  183.825;    0.000
326.209; 2046.800;  226.825;    0.000
326.269; 2054.800;  194.825;    0.000
326.328; 2092.800;  200.825;    0.000
326.388; 2047.800;  177.825;    0.000
326.448; 2116.800;  239.825;    0.000
326.507; 2085.800;  197.825;    0.000
326.567; 2117.800;  161.825;    0.000
326.626; 2112.800;  220.825;    0.000
326.686; 1962.800;  178.825;    0.000
326.745; 1944.800;  167.825;    0.000
326.805; 2073.800;  176.825;    0.000
326.864; 2105.800;  204.825;    0.000
326.924; 2076.800;  218.825;    0.000
326.983; 1989.800;  201.825;    0.000
327.043; 2058.800;  219.825;    0.000
327.102; 2021.800;  202.825;    0.000
327.161; 2061.800;  228.825;    0.000
327.221; 2026.800;  217.825;    0.000
327.280; 1971.800;  188.825;    0.000
327.340; 2077.800;  209.825;    0.000
327.399; 2065.800;  189.825;    0.000
327.459; 2079.800;  216.825;    0.000
327.518; 2037.800;  200.825;    0.000
327.577; 1996.800;  194.825;    0.000
327.637; 1983.800;  180.825;    0.000
327.696; 1961.800;  208.825;    0.000
327.755; 2086.800;  218.825;    0.000
327.815; 1965.800;  234.825;    0.000
327.874; 2014.800;  259.825;    0.000
327.933; 2052.800;  192.825;    0.000
327.993; 2003.800;  208.825;    0.000
328.052; 1945.800;  221.825;    0.000
328.111; 2029.800;  203.825;    0.000
328.171; 1999.800;  221.825;    0.000
328.230; 2012.800;  222.825;    0.000
328.289; 2044.800;  254.825;    0.000
328.349; 2035.800;  232.825;    0.000
328.408; 1921.800;  223.825;    0.000
328.467; 2012.800;  198.825;    0.000
328.526; 2000.800;  217.825;    0.000
328.586; 2014.800;  185.825;    0.000
328.645; 2000.800;  210.825;    0.000
328.704; 1971.800;  211.825;    0.000
328.763; 2004.800;  231.825;    0.000
328.822; 1996.800;  254.825;    0.000
328.882; 2001.800;  216.825;    0.000
328.941; 1984.800;  239.825;    0.000
329.000; 2004.800;  251.825;    0.000
329.059; 1966.800;  227.825;    0.000
329.118; 2026.800;  233.825;    0.000
329.177; 1987.800;  188.825;    0.000
329.237; 1994.800;  257.825;    0.000
329.296; 2038.800;  265.825;    0.000
329.355; 1923.800;  245.825;    0.000
329.414; 1921.800;  236.825;    0.000
329.473; 2016.800;  242.825;    0.000
329.532; 1969.800;  228.825;    0.000
329.591; 1993.800;  206.825;    0.000
329.650; 2040.800;  250.825;    0.000
329.709; 2001.800;  278.825;    0.000
329.768; 2020.800;  219.825;    0.000
329.827; 1979.800;  254.825;    0.000
329.886; 2083.800;  221.825;    0.000
329.945; 2036.800;  239.825;    0.000
330.004; 2075.800;  245.825;    0.000
330.063; 2018.800;  201.825;    0.000
330.122; 1984.800;  227.825;    0.000
330.181; 2110.800;  196.825;    0.000
330.240; 2000.800;  203.825;    0.000
330.299; 2048.800;  214.825;    0.000
330.358; 1939.800;  196.825;    0.000
330.417; 1982.800;  201.825;    0.000
330.476; 2063.800;  248.825;    0.000
330.535; 2008.800;  253.825;    0.000
330.594; 2008.800;  231.825;    0.000
330.653; 2004.800;  210.825;    0.000
330.712; 1963.800;  242.825;    0.000
330.771; 2030.800;  240.825;    0.000
330.830; 1954.800;  230.825;    0.000
330.889; 2008.800;  217.825;    0.000
330.948; 1952.800;  211.825;    0.000
331.006; 2004.800;  217.825;    0.000
331.065; 1953.800;  170.825;    0.000
331.124; 1943.800;  211.825;    0.000
331.183; 1970.800;  192.825;    0.000
331.242; 2008.800;  227.825;    0.000
331.301; 1852.800;  240.825;    0.000
331.359; 1937.800;  223.825;    0.000
331.418; 1944.800;  215.825;    0.000
331.477; 1921.800;  230.825;    0.000
331.536; 1898.800;  221.825;    0.000
331.595; 1864.800;  198.825;    0.000
331.653; 1961.800;  207.825;    0.000
331.712; 1958.800;  217.825;    0.000
331.771; 1887.800;  221.825;    0.000
331.830; 1943.800;  222.825;    0.000
331.888; 1974.800;  213.825;    0.000
331.947; 1911.800;  233.825;    0.000
332.006; 1911.800;  212.825;    0.000
332.065; 1958.800;  200.825;    0.000
332.123; 1914.800;  223.825;    0.000
332.182; 1947.800;  180.825;    0.000
332.241; 1942.800;  192.825;    0.000
332.299; 1894.800;  172.825;    0.000
332.358; 1917.800;  216.825;    0.000
332.417; 1907.800;  211.825;    0.000
332.475; 1938.800;  222.825;    0.000
332.534; 1985.800;  238.825;    0.000
332.592; 1863.800;  216.825;    0.000
332.651; 1955.800;  196.825;    0.000
332.710; 1936.800;  215.825;    0.000
332.768; 1941.800;  193.825;    0.000
332.827; 1971.800;  201.825;    0.000
332.885; 1988.800;  226.825;    0.000
332.944; 2036.800;  174.825;    0.000
333.003; 1924.800;  187.825;    0.000
333.061; 2003.800;  208.825;    0.000
333.120; 1994.800;  202.825;    0.000
333.178; 1996.800;  227.825;    0.000
333.237; 2044.800;  215.825;    0.000
333.295; 2104.800;  245.825;    0.000
333.354; 1996.800;  194.825;    0.000
333.412; 1985.800;  165.825;    0.000
333.471; 2084.800;  219.825;    0.000
333.529; 2136.800;  255.825;    0.000
333.588; 2124.800;  264.825;    0.000
333.646; 2230.800;  231.825;    0.000
333.705; 2053.800;  232.825;    0.000
333.763; 2100.800;  233.825;    0.000
333.822; 2064.800;  221.825;    0.000
333.880; 2128.800;  180.825;    0.000
333.938; 2113.800;  229.825;    0.000
333.997; 2121.800;  194.825;    0.000
334.055; 2058.800;  230.825;    0.000
334.114; 2104.800;  230.825;    0.000
334.172; 2024.800;  170.825;    0.000
334.230; 2037.800;  192.825;    0.000
334.289; 2055.800;  225.825;    0.000
334.347; 2079.800;  233.825;    0.000
334.405; 2078.800;  207.825;    0.000
334.464; 2044.800;  175.825;    0.000
334.522; 2015.800;  180.825;    0.000
334.580; 2034.800;  172.825;    0.000
334.639; 2020.800;  230.825;    0.000
334.697; 1973.800;  217.825;    0.000
334.755; 2000.800;  217.825;    0.000
334.814; 2060.800;  210.825;    0.000
334.872; 1985.800;  170.825;    0.000
334.930; 1998.800;  167.825;    0.000
334.988; 1993.800;  244.825;    0.000
335.047; 1996.800;  202.825;    0.000
335.105; 2010.800;  181.825;    0.000
335.163; 2065.800;  195.825;    0.000
335.221; 2077.800;  203.825;    0.000
335.280; 2005.800;  216.825;    0.000
335.338; 1982.800;  197.825;    0.000
335.396; 2025.800;  232.825;    0.000
335.454; 2049.800;  211.825;    0.000
335.512; 2043.800;  221.825;    0.000
335.570; 1979.800;  216.825;    0.000
335.629; 2023.800;  244.825;    0.000
335.687; 2035.800;  244.825;    0.000
335.745; 2035.800;  189.825;    0.000
335.803; 2092.800;  198.825;    0.000
335.861; 2112.800;  236.825;    0.000
335.919; 2124.800;  234.825;    0.000
335.977; 2150.800;  214.825;    0.000
336.035; 2046.800;  242.825;    0.000
336.094; 2064.800;  219.825;    0.000
336.152; 2100.800;  196.825;    0.000
336.210; 2010.800;  221.825;    0.000
336.268; 2005.800;  257.825;    0.000
336.326; 2049.800;  211.825;    0.000
336.384; 1996.800;  217.825;    0.000
336.442; 2052.800;  176.825;    0.000
336.500; 2077.800;  242.825;    0.000
336.558; 2011.800;  238.825;    0.000
336.616; 2063.800;  261.825;    0.000
336.674; 2012.800;  200.825;    0.000
336.732; 1944.800;  208.825;    0.000
336.790; 1993.800;  183.825;    0.000
336.848; 2086.800;  199.825;    0.000
336.906; 2014.800;  240.825;    0.000
336.964; 2064.800;  234.825;    0.000
337.022; 2044.800;  282.825;    0.000
337.080; 2055.800;  265.825;    0.000
337.138; 2043.800;  255.825;    0.000
337.195; 1975.800;  200.825;    0.000
337.253; 2026.800;  199.825;    0.000
337.311; 2014.800;  233.825;    0.000
337.369; 2048.800;  250.825;    0.000
337.427; 1970.800;  201.825;    0.000
337.485; 1932.800;  228.825;    0.000
337.543; 1985.800;  221.825;    0.000
337.601; 2025.800;  232.825;    0.000
337.658; 2062.800;  215.825;    0.000
337.716; 1949.800;  198.825;    0.000
337.774; 1992.800;  262.825;    0.000
337.832; 1955.800;  220.825;    0.000
337.890; 1927.800;  194.825;    0.000
337.947; 1929.800;  205.825;    0.000
338.005; 1939.800;  229.825;    0.000
338.063; 1946.800;  237.825;    0.000
338.121; 1978.800;  220.825;    0.000
338.178; 1982.800;  227.825;    0.000
338.236; 1961.800;  238.825;    0.000
338.294; 2106.800;  242.825;    0.000
338.352; 1941.800;  230.825;    0.000
338.409; 2067.800;  222.825;    0.000
338.467; 1931.800;  233.825;    0.000
338.525; 1969.800;  253.825;    0.000
338.583; 1941.800;  221.825;    0.000
338.640; 1899.800;  225.825;    0.000
338.698; 1812.800;  229.825;    0.000
338.756; 1970.800;  238.825;    0.000
338.813; 1993.800;  260.825;    0.000
338.871; 1999.800;  246.825;    0.000
338.928; 1986.800;  240.825;    0.000
338.986; 2012.800;  228.825;    0.000
339.044; 2037.800;  265.825;    0.000
339.101; 2001.800;  224.825;    0.000
339.159; 1922.800;  235.825;    0.000
339.216; 1965.800;  244.825;    0.000
339.274; 1964.800;  266.825;    0.000
339.332; 2065.800;  248.825;    0.000
339.389; 1951.800;  246.825;    0.000
339.447; 1989.800;  237.825;    0.000
339.504; 1991.800;  244.825;    0.000
339.562; 1936.800;  249.825;    0.000
339.619; 2015.800;  266.825;    0.000
339.677; 2014.800;  263.825;    0.000
339.734; 1921.800;  216.825;    0.000
339.792; 2044.800;  276.825;    0.000
339.849; 1926.800;  240.825;    0.000
339.907; 2028.800;  275.825;    0.000
339.964; 1929.800;  243.825;    0.000
340.022; 1959.800;  224.825;    0.000
340.079; 1954.800;  230.825;    0.000
340.137; 1947.800;  232.825;    0.000
340.194; 2068.800;  261.825;    0.000
340.252; 1909.800;  219.825;    0.000
340.309; 1998.800;  212.825;    0.000
340.366; 1943.800;  231.825;    0.000
340.424; 1898.800;  244.825;    0.000
340.481; 1960.800;  238.825;    0.000
340.538; 1925.800;  217.825;    0.000
340.596; 1963.800;  224.825;    0.000
340.653; 2038.800;  225.825;    0.000
340.711; 2161.800;  276.825;    0.000
340.768; 2074.800;  239.825;    0.000
340.825; 1931.800;  216.825;    0.000
340.883; 2078.800;  264.825;    0.000
340.940; 2037.800;  256.825;    0.000
340.997; 1957.800;  230.825;    0.000
341.054; 1847.800;  229.825;    0.000
341.112; 1980.800;  220.825;    0.000
341.169; 1985.800;  276.825;    0.000
341.226; 1985.800;  224.825;    0.000
341.284; 1977.800;  235.825;    0.000
341.341; 2102.800;  226.825;    0.000
341.398; 1918.800;  200.825;    0.000
341.455; 2075.800;  242.825;    0.000
341.512; 1959.800;  226.825;    0.000
341.570; 2093.800;  299.825;    0.000
341.627; 1987.800;  221.825;    0.000
341.684; 2051.800;  204.825;    0.000
341.741; 2050.800;  285.825;    0.000
341.798; 1998.800;  237.825;    0.000
341.856; 1965.800;  223.825;    0.000
341.913; 1958.800;  232.825;    0.000
341.970; 1968.800;  250.825;    0.000
342.027; 2013.800;  272.825;    0.000
342.084; 2009.800;  242.825;    0.000
342.141; 2011.800;  207.825;    0.000
342.198; 2063.800;  252.825;    0.000
342.255; 2046.800;  189.825;    0.000
342.313; 1945.800;  222.825;    0.000
342.370; 1961.800;  203.825;    0.000
342.427; 2052.800;  261.825;    0.000
342.484; 1966.800;  230.825;    0.000
342.541; 1965.800;  224.825;    0.000
342.598; 2003.800;  245.825;    0.000
342.655; 1963.800;  235.825;    0.000
342.712; 1938.800;  238.825;    0.000
342.769; 1929.800;  235.825;    0.000
342.826; 1931.800;  232.825;    0.000
342.883; 2060.800;  212.825;    0.000
342.940; 1964.800;  189.825;    0.000
342.997; 2015.800;  241.825;    0.000
343.054; 1997.800;  235.825;    0.000
343.111; 1954.800;  216.825;    0.000
343.168; 1976.800;  202.825;    0.000
343.225; 2086.800;  228.825;    0.000
343.282; 2032.800;  208.825;    0.000
343.339; 2075.800;  241.825;    0.000
343.395; 2099.800;  206.825;    0.000
343.452; 2042.800;  227.825;    0.000
343.509; 2031.800;  212.825;    0.000
343.566; 2066.800;  266.825;    0.000
343.623; 2098.800;  240.825;    0.000
343.680; 2038.800;  215.825;    0.000
343.737; 2079.800;  231.825;    0.000
343.794; 2180.800;  256.825;    0.000
343.850; 2019.800;  235.825;    0.000
343.907; 2149.800;  246.825;    0.000
343.964; 2127.800;  241.825;    0.000
344.021; 2158.800;  237.825;    0.000
344.078; 2160.800;  248.825;    0.000
344.134; 2034.800;  225.825;    0.000
344.191; 2089.800;  209.825;    0.000
344.248; 2092.800;  234.825;    0.000
344.305; 2137.800;  224.825;    0.000
344.361; 2074.800;  194.825;    0.000
344.418; 2127.800;  240.825;    0.000
344.475; 2155.800;  252.825;    0.000
344.532; 2106.800;  251.825;    0.000
344.588; 2059.800;  240.825;    0.000
344.645; 2097.800;  253.825;    0.000
344.702; 2026.800;  216.825;    0.000
344.758; 2120.800;  258.825;    0.000
344.815; 2093.800;  239.825;    0.000
344.872; 2044.800;  216.825;    0.000
344.928; 2037.800;  236.825;    0.000
344.985; 2057.800;  238.825;    0.000
345.042; 2062.800;  211.825;    0.000
345.098; 2109.800;  223.825;    0.000
345.155; 2138.800;  266.825;    0.000
345.212; 2187.800;  266.825;    0.000
345.268; 2097.800;  245.825;    0.000
345.325; 1985.800;  225.825;    0.000
345.381; 2069.800;  223.825;    0.000
345.438; 2151.800;  259.825;    0.000
345.495; 2132.800;  233.825;    0.000
345.551; 2067.800;  254.825;    0.000
345.608; 2083.800;  212.825;    0.000
345.664; 2063.800;  225.825;    0.000
345.721; 2038.800;  223.825;    0.000
345.777; 2056.800;  226.825;    0.000
345.834; 1992.800;  215.825;    0.000
345.890; 2054.800;  230.825;    0.000
345.947; 2124.800;  232.825;    0.000
346.003; 2043.800;  241.825;    0.000
346.060; 2020.800;  241.825;    0.000
346.116; 2178.800;  231.825;    0.000
346.173; 2165.800;  229.825;    0.000
346.229; 2144.800;  262.825;    0.000
346.285; 2090.800;  232.825;    0.000
346.342; 2128.800;  228.825;    0.000
346.398; 2159.800;  203.825;    0.000
346.455; 2097.800;  214.825;    0.000
346.511; 2236.800;  245.825;    0.000
346.567; 2131.800;  192.825;    0.000
346.624; 2170.800;  206.825;    0.000
346.680; 2110.800;  209.825;    0.000
346.737; 2097.800;  239.825;    0.000
346.793; 2198.800;  234.825;    0.000
346.849; 2092.800;  252.825;    0.000
346.906; 2107.800;  247.825;    0.000
346.962; 2249.800;  274.825;    0.000
347.018; 2159.800;  225.825;    0.000
347.074; 2239.800;  261.825;    0.000
347.131; 2088.800;  230.825;    0.000
347.187; 2172.800;  269.825;    0.000
347.243; 2091.800;  261.825;    0.000
347.300; 2118.800;  236.825;    0.000
347.356; 2070.800;  284.825;    0.000
347.412; 2118.800;  243.825;    0.000
347.468; 2152.800;  276.825;    0.000
347.524; 2136.800;  232.825;    0.000
347.581; 2169.800;  242.825;    0.000
347.637; 2143.800;  270.825;    0.000
347.693; 2103.800;  269.825;    0.000
347.749; 2120.800;  278.825;    0.000
347.805; 2040.800;  224.825;    0.000
347.862; 2127.800;  207.825;    0.000
347.918; 2106.800;  259.825;    0.000
347.974; 2122.800;  244.825;    0.000
348.030; 2132.800;  219.825;    0.000
348.086; 2198.800;  250.825;    0.000
348.142; 2126.800;  251.825;    0.000
348.198; 2159.800;  267.825;    0.000
348.254; 2155.800;  230.825;    0.000
348.311; 2180.800;  261.825;    0.000
348.367; 2141.800;  259.825;    0.000
348.423; 2079.800;  251.825;    0.000
348.479; 2084.800;  251.825;    0.000
348.535; 2146.800;  269.825;    0.000
348.591; 2126.800;  238.825;    0.000
348.647; 2157.800;  273.825;    0.000
348.703; 2146.800;  291.825;    0.000
348.759; 2098.800;  231.825;    0.000
348.815; 2123.800;  286.825;    0.000
348.871; 2079.800;  265.825;    0.000
348.927; 2151.800;  234.825;    0.000
348.983; 2165.800;  267.825;    0.000
349.039; 2139.800;  233.825;    0.000
349.095; 2212.800;  225.825;    0.000
349.151; 2146.800;  242.825;    0.000
349.207; 2118.800;  223.825;    0.000
349.263; 2187.800;  219.825;    0.000
349.319; 2156.800;  226.825;    0.000
349.374; 2100.800;  232.825;    0.000
349.430; 2191.800;  235.825;    0.000
349.486; 2137.800;  227.825;    0.000
349.542; 2222.800;  253.825;    0.000
349.598; 2170.800;  227.825;    0.000
349.654; 2156.800;  270.825;    0.000
349.710; 2144.800;  233.825;    0.000
349.766; 2135.800;  245.825;    0.000
349.821; 2193.800;  242.825;    0.000
349.877; 2197.800;  229.825;    0.000
349.933; 2128.800;  229.825;    0.000
349.989; 2160.800;  230.825;    0.000
350.045; 2158.800;  236.825;    0.000
350.100; 2145.800;  237.825;    0.000
350.156; 2073.800;  230.825;    0.000
350.212; 2094.800;  254.825;    0.000
350.268; 2108.800;  239.825;    0.000
350.323; 2119.800;  204.825;    0.000
350.379; 2135.800;  246.825;    0.000
350.435; 2137.800;  249.825;    0.000
350.491; 2135.800;  217.825;    0.000
350.546; 2158.800;  231.825;    0.000
350.602; 2194.800;  240.825;    0.000
350.658; 2124.800;  235.825;    0.000
350.713; 2129.800;  234.825;    0.000
350.769; 2094.800;  218.825;    0.000
350.825; 2193.800;  227.825;    0.000
350.880; 2081.800;  226.825;    0.000
350.936; 2058.800;  247.825;    0.000
350.992; 2113.800;  213.825;    0.000
351.047; 2161.800;  207.825;    0.000
351.103; 2165.800;  271.825;    0.000
351.158; 2195.800;  251.825;    0.000
351.214; 2149.800;  199.825;    0.000
351.270; 2139.800;  214.825;    0.000
351.325; 2269.800;  235.825;    0.000
351.381; 2217.800;  223.825;    0.000
351.436; 2196.800;  237.825;    0.000
351.492; 2161.800;  221.825;    0.000
351.547; 2202.800;  237.825;    0.000
351.603; 2253.800;  239.825;    0.000
351.658; 2305.800;  209.825;    0.000
351.714; 2188.800;  226.825;    0.000
351.769; 2245.800;  238.825;    0.000
351.825; 2235.800;  226.825;    0.000
351.880; 2147.800;  217.825;    0.000
351.936; 2251.800;  246.825;    0.000
351.991; 2156.800;  233.825;    0.000
352.047; 2105.800;  215.825;    0.000
352.102; 2124.800;  243.825;    0.000
352.158; 2120.800;  234.825;    0.000
352.213; 2100.800;  201.825;    0.000
352.268; 2160.800;  234.825;    0.000
352.324; 2199.800;  211.825;    0.000
352.379; 2134.800;  221.825;    0.000
352.434; 2156.800;  259.825;    0.000
352.490; 2142.800;  250.825;    0.000
352.545; 2242.800;  251.825;    0.000
352.601; 2192.800;  283.825;    0.000
352.656; 2147.800;  236.825;    0.000
352.711; 2140.800;  237.825;    0.000
352.767; 2079.800;  201.825;    0.000
352.822; 2229.800;  209.825;    0.000
352.877; 2220.800;  239.825;    0.000
352.932; 2230.800;  228.825;    0.000
352.988; 2152.800;  202.825;    0.000
353.043; 2226.800;  268.825;    0.000
353.098; 2259.800;  208.825;    0.000
353.153; 2150.800;  219.825;    0.000
353.209; 2127.800;  252.825;    0.000
353.264; 2078.800;  225.825;    0.000
353.319; 2191.800;  234.825;    0.000
353.374; 2112.800;  236.825;    0.000
353.430; 2133.800;  245.825;    0.000
353.485; 2184.800;  238.825;    0.000
353.540; 2175.800;  238.825;    0.000
353.595; 2206.800;  215.825;    0.000
353.650; 2132.800;  238.825;    0.000
353.705; 2153.800;  274.825;    0.000
353.761; 2084.800;  229.825;    0.000
353.816; 2148.800;  275.825;    0.000
353.871; 2189.800;  245.825;    0.000
353.926; 2158.800;  253.825;    0.000
353.981; 2139.800;  269.825;    0.000
354.036; 2126.800;  246.825;    0.000
354.091; 2200.800;  257.825;    0.000
354.146; 2149.800;  278.825;    0.000
354.201; 2181.800;  276.825;    0.000
354.256; 2250.800;  224.825;    0.000
354.311; 2225.800;  287.825;    0.000
354.367; 2258.800;  210.825;    0.000
354.422; 2249.800;  231.825;    0.000
354.477; 2209.800;  226.825;    0.000
354.532; 2193.800;  262.825;    0.000
354.587; 2227.800;  275.825;    0.000
354.642; 2243.800;  247.825;    0.000
354.697; 2179.800;  251.825;    0.000
354.751; 2191.800;  249.825;    0.000
354.806; 2219.800;  217.825;    0.000
354.861; 2232.800;  247.825;    0.000
354.916; 2174.800;  259.825;    0.000
354.971; 2122.800;  241.825;    0.000
355.026; 2192.800;  250.825;    0.000
355.081; 2184.800;  244.825;    0.000
355.136; 2170.800;  203.825;    0.000
355.191; 2103.800;  241.825;    0.000
355.246; 2167.800;  248.825;    0.000
355.301; 2118.800;  259.825;    0.000
355.355; 2142.800;  236.825;    0.000
355.410; 2155.800;  221.825;    0.000
355.465; 2126.800;  206.825;    0.000
355.520; 2184.800;  258.825;    0.000
355.575; 2143.800;  273.825;    0.000
355.630; 2163.800;  252.825;    0.000
355.684; 2192.800;  246.825;    0.000
355.739; 2119.800;  251.825;    0.000
355.794; 2202.800;  247.825;    0.000
355.849; 2150.800;  246.825;    0.000
355.904; 2150.800;  262.825;    0.000
355.958; 2192.800;  249.825;    0.000
356.013; 2200.800;  213.825;    0.000
356.068; 2175.800;  255.825;    0.000
356.123; 2137.800;  205.825;    0.000
356.177; 2261.800;  239.825;    0.000
356.232; 2204.800;  258.825;    0.000
356.287; 2150.800;  248.825;    0.000
356.341; 2172.800;  221.825;    0.000
356.396; 2175.800;  220.825;    0.000
356.451; 2163.800;  231.825;    0.000
356.505; 2192.800;  231.825;    0.000
356.560; 2205.800;  254.825;    0.000
356.615; 2228.800;  234.825;    0.000
356.669; 2252.800;  250.825;    0.000
356.724; 2262.800;  261.825;    0.000
356.778; 2128.800;  207.825;    0.000
356.833; 2189.800;  205.825;    0.000
356.888; 2180.800;  235.825;    0.000
356.942; 2184.800;  205.825;    0.000
356.997; 2273.800;  276.825;    0.000
357.051; 2158.800;  243.825;    0.000
357.106; 2265.800;  242.825;    0.000
357.160; 2162.800;  241.825;    0.000
357.215; 2122.800;  212.825;    0.000
357.269; 2165.800;  238.825;    0.000
357.324; 2113.800;  223.825;    0.000
357.378; 2173.800;  221.825;    0.000
357.433; 2119.800;  262.825;    0.000
357.487; 2143.800;  246.825;    0.000
357.542; 2153.800;  221.825;    0.000
357.596; 2207.800;  225.825;    0.000
357.651; 2213.800;  244.825;    0.000
357.705; 2188.800;  269.825;    0.000
357.760; 2138.800;  209.825;    0.000
357.814; 2191.800;  250.825;    0.000
357.868; 2168.800;  266.825;    0.000
357.923; 2163.800;  248.825;    0.000
357.977; 2236.800;  262.825;    0.000
358.032; 2185.800;  228.825;    0.000
358.086; 2142.800;  257.825;    0.000
358.140; 2232.800;  217.825;    0.000
358.195; 2152.800;  246.825;    0.000
358.249; 2126.800;  255.825;    0.000
358.303; 2229.800;  252.825;    0.000
358.358; 2223.800;  278.825;    0.000
358.412; 2156.800;  276.825;    0.000
358.466; 2128.800;  275.825;    0.000
358.521; 2103.800;  229.825;    0.000
358.575; 2111.800;  270.825;    0.000
358.629; 2094.800;  239.825;    0.000
358.683; 2182.800;  254.825;    0.000
358.738; 2192.800;  239.825;    0.000
358.792; 2092.800;  272.825;    0.000
358.846; 2126.800;  289.825;    0.000
358.900; 2241.800;  299.825;    0.000
358.954; 2165.800;  247.825;    0.000
359.009; 2134.800;  245.825;    0.000
359.063; 2156.800;  272.825;    0.000
359.117; 2133.800;  242.825;    0.000
359.171; 2191.800;  279.825;    0.000
359.225; 2153.800;  221.825;    0.000
359.280; 2133.800;  238.825;    0.000
359.334; 2164.800;  264.825;    0.000
359.388; 2141.800;  273.825;    0.000
359.442; 2188.800;  233.825;    0.000
359.496; 2093.800;  226.825;    0.000
359.550; 2087.800;  271.825;    0.000
359.604; 2242.800;  296.825;    0.000
359.658; 2073.800;  252.825;    0.000
359.712; 2120.800;  256.825;    0.000
359.766; 2143.800;  257.825;    0.000
359.820; 2142.800;  239.825;    0.000
359.875; 2093.800;  252.825;    0.000
359.929; 2139.800;  258.825;    0.000
359.983; 2078.800;  232.825;    0.000
360.037; 2156.800;  268.825;    0.000
360.091; 2105.800;  303.825;    0.000
360.145; 2149.800;  232.825;    0.000
360.199; 2128.800;  255.825;    0.000
360.253; 2133.800;  252.825;    0.000
360.306; 2096.800;  278.825;    0.000
360.360; 2141.800;  249.825;    0.000
360.414; 2165.800;  274.825;    0.000
360.468; 2224.800;  247.825;    0.000
360.522; 2107.800;  268.825;    0.000
360.576; 2140.800;  263.825;    0.000
360.630; 2157.800;  296.825;    0.000
360.684; 2149.800;  253.825;    0.000
360.738; 2170.800;  301.825;    0.000
360.792; 2158.800;  282.825;    0.000
360.846; 2148.800;  277.825;    0.000
360.899; 2127.800;  292.825;    0.000
360.953; 2137.800;  266.825;    0.000
361.007; 2079.800;  240.825;    0.000
361.061; 2177.800;  247.825;    0.000
361.115; 2116.800;  276.825;    0.000
361.168; 2184.800;  288.825;    0.000
361.222; 2125.800;  271.825;    0.000
361.276; 2146.800;  270.825;    0.000
361.330; 2111.800;  295.825;    0.000
361.384; 2116.800;  276.825;    0.000
361.437; 2108.800;  280.825;    0.000
361.491; 2189.800;  261.825;    0.000
361.545; 2145.800;  273.825;    0.000
361.599; 2128.800;  269.825;    0.000
361.652; 2172.800;  258.825;    0.000
361.706; 2074.800;  270.825;    0.000
361.760; 2037.800;  294.825;    0.000
361.813; 2121.800;  244.825;    0.000
361.867; 2086.800;  294.825;    0.000
361.921; 2130.800;  285.825;    0.000
361.974; 2095.800;  269.825;    0.000
362.028; 2101.800;  275.825;    0.000
362.082; 2129.800;  270.825;    0.000
362.135; 2191.800;  259.825;    0.000
362.189; 2123.800;  302.825;    0.000
362.242; 2146.800;  296.825;    0.000
362.296; 2145.800;  285.825;    0.000
362.350; 2131.800;  303.825;    0.000
362.403; 2092.800;  271.825;    0.000
362.457; 2174.800;  285.825;    0.000
362.510; 2135.800;  288.825;    0.000
362.564; 2081.800;  268.825;    0.000
362.617; 2138.800;  285.825;    0.000
362.671; 2134.800;  277.825;    0.000
362.724; 2109.800;  242.825;    0.000
362.778; 2140.800;  274.825;    0.000
362.831; 2085.800;  280.825;    0.000
362.885; 2139.800;  284.825;    0.000
362.938; 2061.800;  276.825;    0.000
362.992;  341.800;  289.825;    0.000
363.045;  264.800;  247.825;    0.000
363.099;  255.800;  260.825;    0.000
363.152;  262.800;  258.825;    0.000
363.205;  267.800;  286.825;    0.000
363.259;  255.800;  236.825;    0.000
363.312;  300.800;  297.825;    0.000
363.366;  270.800;  266.825;    0.000
363.419;  299.800;  309.825;    0.000
363.472;  294.800;  293.825;    0.000
363.526;  288.800;  270.825;    0.000
363.579;  278.800;  276.825;    0.000
363.632;  267.800;  279.825;    0.000
363.686;  272.800;  292.825;    0.000
363.739;  269.800;  248.825;    0.000
363.792;  288.800;  287.825;    0.000

