
Integration time [ms]:   1.000
Averaging Nr. [scans]: 1
Smoothing Nr. [pixels]: 0
Data measured with spectrometer [name]: NIR
Wave   ;Sample   ;Dark     ;Reference
[nm]   ;[counts] ;[counts] ;[counts] 

691.496;   -2.050;  163.125;    0.000
691.696;    5.950;  208.125;    0.000
691.896;  -40.050;  111.125;    0.000
692.096;   -8.050;  178.125;    0.000
692.296;  -71.050;   93.125;    0.000
692.496;   15.950;  161.125;    0.000
692.695;  -28.050;  135.125;    0.000
692.895;   -1.050;  179.125;    0.000
693.095;  -37.050;  158.125;    0.000
693.295;  -16.050;  168.125;    0.000
693.495;  -13.050;  170.125;    0.000
693.695;  -31.050;  155.125;    0.000
693.894;  -47.050;  151.125;    0.000
694.094;  -47.050;  164.125;    0.000
694.294;  -51.050;  129.125;    0.000
694.494;  338.950;  170.125;    0.000
694.693; 3505.950;  137.125;    0.000
694.893; 3729.950;  163.125;    0.000
695.093; 3877.950;  121.125;    0.000
695.293; 3823.950;  144.125;    0.000
695.492; 3784.950;   88.125;    0.000
695.692; 3907.950;  148.125;    0.000
695.891; 3821.950;  125.125;    0.000
696.091; 3929.950;  184.125;    0.000
696.291; 3948.950;  153.125;    0.000
696.490; 3943.950;  131.125;    0.000
696.690; 4092.950;  123.125;    0.000
696.889; 3965.950;  180.125;    0.000
697.089; 3953.950;  147.125;    0.000
697.288; 4059.950;  164.125;    0.000
697.488; 4040.950;  133.125;    0.000
697.687; 4029.950;  153.125;    0.000
697.887; 4093.950;  119.125;    0.000
698.086; 3987.950;  143.125;    0.000
698.286; 4126.950;  125.125;    0.000
698.485; 3975.950;  120.125;    0.000
698.684; 3941.950;  116.125;    0.000
698.884; 3963.950;  131.125;    0.000
699.083; 3972.950;  115.125;    0.000
699.282; 4048.950;  144.125;    0.000
699.482; 4182.950;  109.125;    0.000
699.681; 4091.950;  115.125;    0.000
699.880; 4100.950;  125.125;    0.000
700.080; 4067.950;  139.125;    0.000
700.279; 3995.950;  111.125;    0.000
700.478; 4048.950;  146.125;    0.000
700.677; 4118.950;  131.125;    0.000
700.877; 4119.950;  156.125;    0.000
701.076; 4168.950;  153.125;    0.000
701.275; 4004.950;  123.125;    0.000
701.474; 4099.950;  150.125;    0.000
701.673; 4050.950;   97.125;    0.000
701.872; 4240.950;  139.125;    0.000
702.071; 4225.950;  108.125;    0.000
702.271; 4255.950;  125.125;    0.000
702.470; 4206.950;  108.125;    0.000
702.669; 4090.950;  102.125;    0.000
702.868; 4095.950;  153.125;    0.000
703.067; 4211.950;  145.125;    0.000
703.266; 4156.950;   96.125;    0.000
703.465; 4230.950;  165.125;    0.000
703.664; 4204.950;  106.125;    0.000
703.863; 4280.950;  144.125;    0.000
704.062; 4138.950;   86.125;    0.000
704.260; 4217.950;   99.125;    0.000
704.459; 4328.950;  112.125;    0.000
704.658; 4181.950;  106.125;    0.000
704.857; 4249.950;  129.125;    0.000
705.056; 4256.950;   98.125;    0.000
705.255; 4209.950;   97.125;    0.000
705.454; 4217.950;  101.125;    0.000
705.652; 4287.950;  142.125;    0.000
705.851; 4125.950;  100.125;    0.000
706.050; 4227.950;  162.125;    0.000
706.249; 4361.950;  146.125;    0.000
706.447; 4275.950;  120.125;    0.000
706.646; 4224.950;  114.125;    0.000
706.845; 4395.950;  117.125;    0.000
707.043; 4350.950;  136.125;    0.000
707.242; 4349.950;   90.125;    0.000
707.441; 4312.950;  131.125;    0.000
707.639; 4435.950;  120.125;    0.000
707.838; 4344.950;  122.125;    0.000
708.037; 4230.950;  109.125;    0.000
708.235; 4265.950;  122.125;    0.000
708.434; 4325.950;  109.125;    0.000
708.632; 4316.950;   47.125;    0.000
708.831; 4485.950;  122.125;    0.000
709.029; 4418.950;  130.125;    0.000
709.228; 4369.950;  112.125;    0.000
709.426; 4481.950;  128.125;    0.000
709.625; 4429.950;  129.125;    0.000
709.823; 4393.950;  130.125;    0.000
710.022; 4446.950;   90.125;    0.000
710.220; 4473.950;  131.125;    0.000
710.418; 4467.950;  133.125;    0.000
710.617; 4427.950;   82.125;    0.000
710.815; 4563.950;   90.125;    0.000
711.013; 4498.950;   86.125;    0.000
711.212; 4455.950;  117.125;    0.000
711.410; 4592.950;  106.125;    0.000
711.608; 4620.950;  138.125;    0.000
711.807; 4506.950;  116.125;    0.000
712.005; 4516.950;   82.125;    0.000
712.203; 4580.950;   90.125;    0.000
712.401; 4515.950;  124.125;    0.000
712.599; 4547.950;   64.125;    0.000
712.798; 4584.950;  113.125;    0.000
712.996; 4579.950;  100.125;    0.000
713.194; 4541.950;  130.125;    0.000
713.392; 4514.950;   89.125;    0.000
713.590; 4672.950;  105.125;    0.000
713.788; 4661.950;  100.125;    0.000
713.986; 4786.950;  117.125;    0.000
714.184; 4713.950;   72.125;    0.000
714.382; 4762.950;   88.125;    0.000
714.580; 4773.950;   88.125;    0.000
714.778; 4983.950;  129.125;    0.000
714.976; 4912.950;   90.125;    0.000
715.174; 4943.950;  119.125;    0.000
715.372; 5168.950;  117.125;    0.000
715.570; 5265.950;  101.125;    0.000
715.768; 5638.950;  122.125;    0.000
715.966; 5631.950;  114.125;    0.000
716.164; 5480.950;  135.125;    0.000
716.362; 5441.950;  126.125;    0.000
716.560; 5361.950;  126.125;    0.000
716.758; 5276.950;   98.125;    0.000
716.955; 5266.950;   76.125;    0.000
717.153; 5149.950;   45.125;    0.000
717.351; 5109.950;  106.125;    0.000
717.549; 5123.950;  108.125;    0.000
717.746; 5091.950;   66.125;    0.000
717.944; 5050.950;  127.125;    0.000
718.142; 5029.950;  148.125;    0.000
718.340; 4957.950;   94.125;    0.000
718.537; 5156.950;  107.125;    0.000
718.735; 5118.950;  130.125;    0.000
718.933; 5134.950;  111.125;    0.000
719.130; 5055.950;  107.125;    0.000
719.328; 5071.950;  128.125;    0.000
719.525; 5079.950;  141.125;    0.000
719.723; 5138.950;  122.125;    0.000
719.920; 5052.950;   85.125;    0.000
720.118; 5108.950;  115.125;    0.000
720.316; 5142.950;  153.125;    0.000
720.513; 4964.950;  120.125;    0.000
720.711; 5102.950;  134.125;    0.000
720.908; 5055.950;  126.125;    0.000
721.105; 5137.950;  119.125;    0.000
721.303; 5082.950;  112.125;    0.000
721.500; 5009.950;  125.125;    0.000
721.698; 4980.950;   94.125;    0.000
721.895; 5076.950;  118.125;    0.000
722.092; 4967.950;   77.125;    0.000
722.290; 4998.950;  135.125;    0.000
722.487; 4959.950;  154.125;    0.000
722.684; 5075.950;  122.125;    0.000
722.882; 4991.950;   90.125;    0.000
723.079; 5102.950;  132.125;    0.000
723.276; 5050.950;   95.125;    0.000
723.473; 5094.950;  106.125;    0.000
723.671; 5044.950;   80.125;    0.000
723.868; 5116.950;  112.125;    0.000
724.065; 5100.950;  107.125;    0.000
724.262; 5086.950;  119.125;    0.000
724.459; 5178.950;   80.125;    0.000
724.656; 5177.950;  109.125;    0.000
724.854; 5145.950;  107.125;    0.000
725.051; 5247.950;  103.125;    0.000
725.248; 5160.950;  101.125;    0.000
725.445; 5252.950;   93.125;    0.000
725.642; 5077.950;   92.125;    0.000
725.839; 5243.950;  157.125;    0.000
726.036; 5140.950;   71.125;    0.000
726.233; 5211.950;   80.125;    0.000
726.430; 5171.950;  146.125;    0.000
726.627; 5235.950;  103.125;    0.000
726.824; 5262.950;   46.125;    0.000
727.021; 5169.950;  149.125;    0.000
727.218; 5072.950;   87.125;    0.000
727.414; 5144.950;  112.125;    0.000
727.611; 5172.950;  111.125;    0.000
727.808; 5260.950;  122.125;    0.000
728.005; 5271.950;   58.125;    0.000
728.202; 5291.950;  129.125;    0.000
728.399; 5235.950;  111.125;    0.000
728.595; 5239.950;   93.125;    0.000
728.792; 5167.950;   78.125;    0.000
728.989; 5296.950;  104.125;    0.000
729.186; 5266.950;  110.125;    0.000
729.382; 5256.950;   93.125;    0.000
729.579; 5344.950;  102.125;    0.000
729.776; 5252.950;  112.125;    0.000
729.972; 5211.950;  101.125;    0.000
730.169; 5326.950;  150.125;    0.000
730.366; 5269.950;   92.125;    0.000
730.562; 5223.950;   74.125;    0.000
730.759; 5293.950;   97.125;    0.000
730.955; 5310.950;   86.125;    0.000
731.152; 5348.950;   88.125;    0.000
731.348; 5399.950;  117.125;    0.000
731.545; 5306.950;   62.125;    0.000
731.741; 5267.950;   84.125;    0.000
731.938; 5436.950;  108.125;    0.000
732.134; 5421.950;  115.125;    0.000
732.331; 5282.950;   88.125;    0.000
732.527; 5298.950;   96.125;    0.000
732.724; 5314.950;  103.125;    0.000
732.920; 5409.950;   93.125;    0.000
733.116; 5381.950;  109.125;    0.000
733.313; 5410.950;   77.125;    0.000
733.509; 5336.950;   81.125;    0.000
733.705; 5374.950;  141.125;    0.000
733.902; 5381.950;   88.125;    0.000
734.098; 5271.950;   56.125;    0.000
734.294; 5458.950;  122.125;    0.000
734.490; 5391.950;  102.125;    0.000
734.687; 5416.950;   70.125;    0.000
734.883; 5421.950;   73.125;    0.000
735.079; 5362.950;   65.125;    0.000
735.275; 5414.950;  112.125;    0.000
735.471; 5350.950;  124.125;    0.000
735.667; 5419.950;   94.125;    0.000
735.863; 5545.950;  106.125;    0.000
736.060; 5462.950;  106.125;    0.000
736.256; 5542.950;   95.125;    0.000
736.452; 5514.950;  103.125;    0.000
736.648; 5544.950;  106.125;    0.000
736.844; 5575.950;   98.125;    0.000
737.040; 5622.950;  118.125;    0.000
737.236; 5546.950;   95.125;    0.000
737.432; 5602.950;   59.125;    0.000
737.628; 5681.950;  120.125;    0.000
737.824; 5584.950;   78.125;    0.000
738.019; 5542.950;   98.125;    0.000
738.215; 5746.950;  127.125;    0.000
738.411; 5606.950;  111.125;    0.000
738.607; 5597.950;   69.125;    0.000
738.803; 5687.950;   40.125;    0.000
738.999; 5826.950;  128.125;    0.000
739.195; 5778.950;   81.125;    0.000
739.390; 5788.950;   97.125;    0.000
739.586; 5771.950;  100.125;    0.000
739.782; 5726.950;  135.125;    0.000
739.978; 5924.950;  121.125;    0.000
740.173; 5714.950;   92.125;    0.000
740.369; 5885.950;   92.125;    0.000
740.565; 5724.950;  119.125;    0.000
740.760; 5926.950;  139.125;    0.000
740.956; 5819.950;  134.125;    0.000
741.152; 5976.950;  107.125;    0.000
741.347; 6017.950;   63.125;    0.000
741.543; 5895.950;   99.125;    0.000
741.738; 6204.950;  119.125;    0.000
741.934; 6294.950;  156.125;    0.000
742.129; 6711.950;   87.125;    0.000
742.325; 7201.950;  143.125;    0.000
742.520; 7670.950;  109.125;    0.000
742.716; 7403.950;  135.125;    0.000
742.911; 7186.950;   77.125;    0.000
743.107; 7060.950;  117.125;    0.000
743.302; 6881.950;   93.125;    0.000
743.498; 6978.950;  118.125;    0.000
743.693; 7238.950;   95.125;    0.000
743.888; 7348.950;  122.125;    0.000
744.084; 8101.950;  104.125;    0.000
744.279; 9537.950;   94.125;    0.000
744.474; 9972.950;  138.125;    0.000
744.670; 8894.950;  113.125;    0.000
744.865; 8373.950;  116.125;    0.000
745.060; 7985.950;   89.125;    0.000
745.255; 7967.950;  144.125;    0.000
745.451; 7621.950;   98.125;    0.000
745.646; 7466.950;  110.125;    0.000
745.841; 7593.950;   87.125;    0.000
746.036; 7565.950;   98.125;    0.000
746.231; 7738.950;  153.125;    0.000
746.426; 8065.950;   90.125;    0.000
746.622; 8960.950;  154.125;    0.000
746.817;11349.950;  111.125;    0.000
747.012;12429.950;  110.125;    0.000
747.207;11402.950;   76.125;    0.000
747.402;10347.950;   94.125;    0.000
747.597; 9631.950;   68.125;    0.000
747.792; 9293.950;  125.125;    0.000
747.987; 8831.950;   92.125;    0.000
748.182; 8620.950;  113.125;    0.000
748.377; 8242.950;   72.125;    0.000
748.572; 8170.950;  135.125;    0.000
748.767; 7849.950;   98.125;    0.000
748.961; 7558.950;  123.125;    0.000
749.156; 7341.950;   96.125;    0.000
749.351; 7492.950;  121.125;    0.000
749.546; 7172.950;   95.125;    0.000
749.741; 7025.950;  144.125;    0.000
749.936; 7034.950;  105.125;    0.000
750.130; 6919.950;  101.125;    0.000
750.325; 6949.950;  126.125;    0.000
750.520; 6757.950;  113.125;    0.000
750.715; 6669.950;  135.125;    0.000
750.909; 6616.950;  138.125;    0.000
751.104; 6598.950;   96.125;    0.000
751.299; 6605.950;  118.125;    0.000
751.493; 6611.950;  124.125;    0.000
751.688; 6503.950;  131.125;    0.000
751.882; 6411.950;   96.125;    0.000
752.077; 6358.950;  123.125;    0.000
752.272; 6437.950;  112.125;    0.000
752.466; 6342.950;  143.125;    0.000
752.661; 6466.950;  107.125;    0.000
752.855; 6284.950;   97.125;    0.000
753.050; 6300.950;  125.125;    0.000
753.244; 6285.950;  161.125;    0.000
753.439; 6270.950;  101.125;    0.000
753.633; 6420.950;  129.125;    0.000
753.828; 6327.950;  114.125;    0.000
754.022; 6329.950;  118.125;    0.000
754.216; 6123.950;  126.125;    0.000
754.411; 6358.950;  148.125;    0.000
754.605; 6137.950;  100.125;    0.000
754.799; 6110.950;  146.125;    0.000
754.994; 6207.950;  116.125;    0.000
755.188; 6116.950;  146.125;    0.000
755.382; 6118.950;  103.125;    0.000
755.576; 6113.950;  119.125;    0.000
755.771; 6154.950;  100.125;    0.000
755.965; 6004.950;  129.125;    0.000
756.159; 6067.950;  100.125;    0.000
756.353; 6216.950;  153.125;    0.000
756.547; 6039.950;  113.125;    0.000
756.742; 6112.950;  129.125;    0.000
756.936; 6101.950;   70.125;    0.000
757.130; 6168.950;   91.125;    0.000
757.324; 6071.950;   92.125;    0.000
757.518; 6110.950;  128.125;    0.000
757.712; 6007.950;  146.125;    0.000
757.906; 6221.950;  114.125;    0.000
758.100; 6207.950;  153.125;    0.000
758.294; 6190.950;  133.125;    0.000
758.488; 6098.950;  149.125;    0.000
758.682; 6124.950;  132.125;    0.000
758.876; 6069.950;  128.125;    0.000
759.070; 6016.950;  178.125;    0.000
759.264; 6160.950;   98.125;    0.000
759.458; 5968.950;  168.125;    0.000
759.651; 6005.950;  131.125;    0.000
759.845; 6051.950;  133.125;    0.000
760.039; 5963.950;  120.125;    0.000
760.233; 6027.950;  116.125;    0.000
760.427; 5947.950;  121.125;    0.000
760.620; 6059.950;  163.125;    0.000
760.814; 6022.950;  106.125;    0.000
761.008; 6030.950;  119.125;    0.000
761.202; 5948.950;  121.125;    0.000
761.395; 6062.950;  136.125;    0.000
761.589; 6042.950;  111.125;    0.000
761.783; 5986.950;  116.125;    0.000
761.976; 6038.950;  139.125;    0.000
762.170; 6175.950;  140.125;    0.000
762.363; 6132.950;  115.125;    0.000
762.557; 6128.950;  129.125;    0.000
762.750; 6002.950;   85.125;    0.000
762.944; 6146.950;  107.125;    0.000
763.138; 6218.950;   99.125;    0.000
763.331; 6059.950;   97.125;    0.000
763.524; 6085.950;  100.125;    0.000
763.718; 6212.950;  130.125;    0.000
763.911; 6196.950;  127.125;    0.000
764.105; 6054.950;   69.125;    0.000
764.298; 6114.950;   94.125;    0.000
764.492; 6135.950;  129.125;    0.000
764.685; 6101.950;  114.125;    0.000
764.878; 6177.950;  145.125;    0.000
765.072; 6212.950;  124.125;    0.000
765.265; 6204.950;  124.125;    0.000
765.458; 6098.950;  108.125;    0.000
765.651; 6201.950;  132.125;    0.000
765.845; 6293.950;  106.125;    0.000
766.038; 6347.950;  155.125;    0.000
766.231; 7533.950;  153.125;    0.000
766.424;12540.950;  165.125;    0.000
766.617;12963.950;   85.125;    0.000
766.811; 7347.950;  140.125;    0.000
767.004; 6496.950;  151.125;    0.000
767.197; 6547.950;  178.125;    0.000
767.390; 6467.950;  112.125;    0.000
767.583; 6328.950;  134.125;    0.000
767.776; 6282.950;  101.125;    0.000
767.969; 6291.950;   99.125;    0.000
768.162; 6394.950;  152.125;    0.000
768.355; 6462.950;  115.125;    0.000
768.548; 6267.950;  154.125;    0.000
768.741; 6418.950;  124.125;    0.000
768.934; 6458.950;  129.125;    0.000
769.127; 6606.950;  137.125;    0.000
769.320; 6582.950;  115.125;    0.000
769.513; 6740.950;  144.125;    0.000
769.706; 8150.950;  107.125;    0.000
769.898;12556.950;  134.125;    0.000
770.091; 9356.950;  128.125;    0.000
770.284; 6948.950;   97.125;    0.000
770.477; 6865.950;  135.125;    0.000
770.670; 6756.950;  137.125;    0.000
770.862; 6797.950;  112.125;    0.000
771.055; 6671.950;  127.125;    0.000
771.248; 6953.950;  116.125;    0.000
771.441; 6933.950;  101.125;    0.000
771.633; 7009.950;  130.125;    0.000
771.826; 6961.950;  147.125;    0.000
772.018; 6924.950;  117.125;    0.000
772.211; 6969.950;  141.125;    0.000
772.404; 7099.950;  104.125;    0.000
772.596; 7173.950;  128.125;    0.000
772.789; 7369.950;  131.125;    0.000
772.981; 7365.950;  134.125;    0.000
773.174; 7341.950;  108.125;    0.000
773.366; 7432.950;  153.125;    0.000
773.559; 7477.950;  137.125;    0.000
773.751; 7627.950;  119.125;    0.000
773.944; 7821.950;  148.125;    0.000
774.136; 7955.950;  155.125;    0.000
774.329; 8081.950;  126.125;    0.000
774.521; 8331.950;  116.125;    0.000
774.713; 8496.950;  119.125;    0.000
774.906; 8685.950;  179.125;    0.000
775.098; 9252.950;  127.125;    0.000
775.290; 9679.950;  146.125;    0.000
775.483;10100.950;  123.125;    0.000
775.675;10485.950;  119.125;    0.000
775.867;11135.950;  119.125;    0.000
776.059;11797.950;  137.125;    0.000
776.251;12924.950;  154.125;    0.000
776.444;14645.950;  101.125;    0.000
776.636;16691.949;  153.125;    0.000
776.828;20600.949;  127.125;    0.000
777.020;27713.949;  140.125;    0.000
777.212;39295.949;  160.125;    0.000
777.404;43865.949;  170.125;    0.000
777.596;41036.949;  136.125;    0.000
777.788;31465.949;  137.125;    0.000
777.980;24827.949;  129.125;    0.000
778.172;20836.949;  139.125;    0.000
778.364;18079.949;  124.125;    0.000
778.556;16171.950;  163.125;    0.000
778.748;14551.950;  142.125;    0.000
778.940;13494.950;  178.125;    0.000
779.132;12633.950;  159.125;    0.000
779.324;11570.950;  109.125;    0.000
779.516;10930.950;  143.125;    0.000
779.708;10392.950;  158.125;    0.000
779.900; 9852.950;  142.125;    0.000
780.091; 9521.950;  131.125;    0.000
780.283; 9168.950;  176.125;    0.000
780.475; 8904.950;  151.125;    0.000
780.667; 8551.950;  120.125;    0.000
780.859; 8475.950;  134.125;    0.000
781.050; 8105.950;  183.125;    0.000
781.242; 7765.950;   95.125;    0.000
781.434; 7689.950;  127.125;    0.000
781.625; 7788.950;  163.125;    0.000
781.817; 7540.950;  170.125;    0.000
782.008; 7371.950;  123.125;    0.000
782.200; 7275.950;  141.125;    0.000
782.392; 7293.950;  149.125;    0.000
782.583; 7055.950;  155.125;    0.000
782.775; 7001.950;  140.125;    0.000
782.966; 6930.950;  167.125;    0.000
783.158; 6836.950;  164.125;    0.000
783.349; 6859.950;  174.125;    0.000
783.541; 6740.950;  141.125;    0.000
783.732; 6761.950;  115.125;    0.000
783.924; 6760.950;  135.125;    0.000
784.115; 6567.950;  157.125;    0.000
784.306; 6658.950;  102.125;    0.000
784.498; 6697.950;  124.125;    0.000
784.689; 6529.950;  171.125;    0.000
784.880; 6451.950;  165.125;    0.000
785.072; 6514.950;  152.125;    0.000
785.263; 6456.950;  146.125;    0.000
785.454; 6387.950;  145.125;    0.000
785.645; 6355.950;  127.125;    0.000
785.837; 6272.950;  138.125;    0.000
786.028; 6388.950;  151.125;    0.000
786.219; 6319.950;  142.125;    0.000
786.410; 6390.950;  140.125;    0.000
786.601; 6368.950;  137.125;    0.000
786.792; 6401.950;  158.125;    0.000
786.984; 6275.950;  139.125;    0.000
787.175; 6326.950;  140.125;    0.000
787.366; 6306.950;  145.125;    0.000
787.557; 6131.950;  156.125;    0.000
787.748; 6327.950;  148.125;    0.000
787.939; 6472.950;  157.125;    0.000
788.130; 6326.950;  179.125;    0.000
788.321; 6290.950;  142.125;    0.000
788.512; 6446.950;  167.125;    0.000
788.703; 6548.950;  145.125;    0.000
788.894; 6359.950;  132.125;    0.000
789.084; 6412.950;  113.125;    0.000
789.275; 6318.950;  134.125;    0.000
789.466; 6608.950;  151.125;    0.000
789.657; 6665.950;  138.125;    0.000
789.848; 6592.950;  145.125;    0.000
790.039; 6557.950;  130.125;    0.000
790.229; 6674.950;  140.125;    0.000
790.420; 6641.950;  135.125;    0.000
790.611; 6651.950;  156.125;    0.000
790.801; 6457.950;   64.125;    0.000
790.992; 6607.950;  150.125;    0.000
791.183; 6428.950;  177.125;    0.000
791.373; 6583.950;   91.125;    0.000
791.564; 6490.950;   85.125;    0.000
791.755; 6573.950;  125.125;    0.000
791.945; 6528.950;   94.125;    0.000
792.136; 6499.950;   98.125;    0.000
792.326; 6512.950;  105.125;    0.000
792.517; 6380.950;  136.125;    0.000
792.707; 6519.950;  140.125;    0.000
792.898; 6535.950;  164.125;    0.000
793.088; 6568.950;  116.125;    0.000
793.279; 6647.950;  112.125;    0.000
793.469; 6655.950;  105.125;    0.000
793.660; 6738.950;  161.125;    0.000
793.850; 6916.950;  133.125;    0.000
794.040; 6979.950;  121.125;    0.000
794.231; 7444.950;  115.125;    0.000
794.421; 7750.950;  152.125;    0.000
794.611; 8560.950;  132.125;    0.000
794.802; 9543.950;  144.125;    0.000
794.992;10014.950;  142.125;    0.000
795.182;10239.950;  179.125;    0.000
795.372; 9810.950;  167.125;    0.000
795.563; 9055.950;  149.125;    0.000
795.753; 8264.950;  117.125;    0.000
795.943; 7984.950;  146.125;    0.000
796.133; 7630.950;  119.125;    0.000
796.323; 7380.950;  141.125;    0.000
796.513; 7160.950;  134.125;    0.000
796.703; 6893.950;  116.125;    0.000
796.893; 6729.950;  120.125;    0.000
797.083; 6650.950;  131.125;    0.000
797.273; 6421.950;  118.125;    0.000
797.463; 6369.950;  130.125;    0.000
797.653; 6377.950;   87.125;    0.000
797.843; 6211.950;  123.125;    0.000
798.033; 6130.950;  115.125;    0.000
798.223; 6045.950;  142.125;    0.000
798.413; 6095.950;  148.125;    0.000
798.603; 5943.950;  147.125;    0.000
798.793; 5690.950;  107.125;    0.000
798.983; 5842.950;  121.125;    0.000
799.172; 5793.950;  120.125;    0.000
799.362; 5790.950;  145.125;    0.000
799.552; 5636.950;  101.125;    0.000
799.742; 5572.950;  149.125;    0.000
799.932; 5618.950;  104.125;    0.000
800.121; 5631.950;  175.125;    0.000
800.311; 5472.950;  132.125;    0.000
800.501; 5369.950;  118.125;    0.000
800.690; 5425.950;  162.125;    0.000
800.880; 5382.950;  141.125;    0.000
801.070; 5404.950;  151.125;    0.000
801.259; 5355.950;  167.125;    0.000
801.449; 5413.950;  108.125;    0.000
801.638; 5301.950;  176.125;    0.000
801.828; 5374.950;  118.125;    0.000
802.017; 5299.950;  179.125;    0.000
802.207; 5286.950;  127.125;    0.000
802.396; 5201.950;  167.125;    0.000
802.586; 5289.950;  129.125;    0.000
802.775; 5284.950;  142.125;    0.000
802.965; 5198.950;  147.125;    0.000
803.154; 5196.950;  179.125;    0.000
803.343; 5191.950;  117.125;    0.000
803.533; 5169.950;  120.125;    0.000
803.722; 5099.950;  122.125;    0.000
803.911; 5060.950;  155.125;    0.000
804.101; 5161.950;  147.125;    0.000
804.290; 5090.950;  160.125;    0.000
804.479; 5117.950;  139.125;    0.000
804.668; 5106.950;  180.125;    0.000
804.857; 5075.950;  131.125;    0.000
805.047; 5007.950;  119.125;    0.000
805.236; 5008.950;  139.125;    0.000
805.425; 5063.950;  163.125;    0.000
805.614; 4930.950;  103.125;    0.000
805.803; 5048.950;  133.125;    0.000
805.992; 5124.950;  147.125;    0.000
806.181; 5019.950;  109.125;    0.000
806.370; 4882.950;  133.125;    0.000
806.559; 5146.950;  119.125;    0.000
806.748; 5027.950;  144.125;    0.000
806.937; 4991.950;  147.125;    0.000
807.126; 4858.950;  134.125;    0.000
807.315; 5008.950;  132.125;    0.000
807.504; 4934.950;  141.125;    0.000
807.693; 5034.950;  145.125;    0.000
807.882; 4946.950;   91.125;    0.000
808.071; 4982.950;  116.125;    0.000
808.260; 4937.950;  105.125;    0.000
808.448; 4936.950;  184.125;    0.000
808.637; 5076.950;  146.125;    0.000
808.826; 5078.950;  153.125;    0.000
809.015; 4888.950;  113.125;    0.000
809.203; 5055.950;  166.125;    0.000
809.392; 5131.950;  117.125;    0.000
809.581; 5001.950;  186.125;    0.000
809.770; 4960.950;  122.125;    0.000
809.958; 5073.950;  140.125;    0.000
810.147; 5058.950;  130.125;    0.000
810.335; 5060.950;  112.125;    0.000
810.524; 4991.950;  106.125;    0.000
810.713; 5019.950;  154.125;    0.000
810.901; 5065.950;  131.125;    0.000
811.090; 5236.950;  164.125;    0.000
811.278; 5057.950;  159.125;    0.000
811.467; 5274.950;  194.125;    0.000
811.655; 5316.950;  164.125;    0.000
811.844; 5209.950;  149.125;    0.000
812.032; 5159.950;  169.125;    0.000
812.220; 5269.950;  163.125;    0.000
812.409; 5210.950;  134.125;    0.000
812.597; 5263.950;  165.125;    0.000
812.785; 5335.950;  180.125;    0.000
812.974; 5406.950;  166.125;    0.000
813.162; 5281.950;  171.125;    0.000
813.350; 5274.950;  142.125;    0.000
813.539; 5344.950;  126.125;    0.000
813.727; 5336.950;  153.125;    0.000
813.915; 5270.950;  138.125;    0.000
814.103; 5447.950;  191.125;    0.000
814.291; 5334.950;  142.125;    0.000
814.479; 5397.950;  156.125;    0.000
814.668; 5311.950;  152.125;    0.000
814.856; 5496.950;  150.125;    0.000
815.044; 5560.950;  165.125;    0.000
815.232; 5898.950;  172.125;    0.000
815.420; 5759.950;  147.125;    0.000
815.608; 5586.950;  143.125;    0.000
815.796; 5633.950;  126.125;    0.000
815.984; 5713.950;  152.125;    0.000
816.172; 5916.950;  129.125;    0.000
816.360; 6168.950;  177.125;    0.000
816.548; 6258.950;  141.125;    0.000
816.736; 6357.950;  142.125;    0.000
816.924; 6723.950;  161.125;    0.000
817.111; 6693.950;  138.125;    0.000
817.299; 7031.950;  112.125;    0.000
817.487; 7448.950;  180.125;    0.000
817.675; 7891.950;  138.125;    0.000
817.863; 9008.950;  172.125;    0.000
818.050;11333.950;  142.125;    0.000
818.238;19422.949;  151.125;    0.000
818.426;27391.949;  129.125;    0.000
818.613;19386.949;  124.125;    0.000
818.801;16673.949;  209.125;    0.000
818.989;16159.950;  178.125;    0.000
819.176;16820.949;  155.125;    0.000
819.364;23704.949;  174.125;    0.000
819.552;34418.949;  131.125;    0.000
819.739;24019.949;  184.125;    0.000
819.927;17278.949;  132.125;    0.000
820.114;15111.950;  173.125;    0.000
820.302;13543.950;  140.125;    0.000
820.489;12432.950;  133.125;    0.000
820.677;11938.950;  167.125;    0.000
820.864;11680.950;  161.125;    0.000
821.052;12058.950;  134.125;    0.000
821.239;12490.950;  149.125;    0.000
821.426;13159.950;  160.125;    0.000
821.614;15774.950;  143.125;    0.000
821.801;17127.949;  118.125;    0.000
821.988;15206.950;  154.125;    0.000
822.176;14380.950;  112.125;    0.000
822.363;14752.950;  131.125;    0.000
822.550;13894.950;  131.125;    0.000
822.737;12426.950;  104.125;    0.000
822.924;11574.950;  160.125;    0.000
823.112;11113.950;  161.125;    0.000
823.299;10303.950;  169.125;    0.000
823.486;10036.950;  129.125;    0.000
823.673; 9368.950;  135.125;    0.000
823.860; 9122.950;  169.125;    0.000
824.047; 9263.950;  124.125;    0.000
824.234;10156.950;  160.125;    0.000
824.421;10341.950;  114.125;    0.000
824.608; 9355.950;  191.125;    0.000
824.795; 8616.950;  160.125;    0.000
824.982; 8062.950;  139.125;    0.000
825.169; 7567.950;  121.125;    0.000
825.356; 7393.950;  148.125;    0.000
825.543; 6902.950;  167.125;    0.000
825.730; 6829.950;  103.125;    0.000
825.917; 6480.950;  113.125;    0.000
826.104; 6300.950;  188.125;    0.000
826.290; 6143.950;  193.125;    0.000
826.477; 6038.950;  175.125;    0.000
826.664; 5837.950;  151.125;    0.000
826.851; 5707.950;  122.125;    0.000
827.038; 5659.950;  121.125;    0.000
827.224; 5514.950;  124.125;    0.000
827.411; 5472.950;  155.125;    0.000
827.598; 5299.950;  127.125;    0.000
827.784; 5288.950;  140.125;    0.000
827.971; 5248.950;  114.125;    0.000
828.157; 5114.950;  135.125;    0.000
828.344; 5141.950;  173.125;    0.000
828.531; 5126.950;  113.125;    0.000
828.717; 4877.950;  137.125;    0.000
828.904; 5041.950;  158.125;    0.000
829.090; 4994.950;  199.125;    0.000
829.277; 4829.950;  156.125;    0.000
829.463; 4800.950;  154.125;    0.000
829.650; 4829.950;  174.125;    0.000
829.836; 4639.950;  136.125;    0.000
830.022; 4692.950;  143.125;    0.000
830.209; 4659.950;  157.125;    0.000
830.395; 4619.950;  156.125;    0.000
830.581; 4503.950;  148.125;    0.000
830.768; 4496.950;  169.125;    0.000
830.954; 4469.950;  169.125;    0.000
831.140; 4420.950;  124.125;    0.000
831.327; 4366.950;  157.125;    0.000
831.513; 4426.950;  163.125;    0.000
831.699; 4345.950;  176.125;    0.000
831.885; 4371.950;  154.125;    0.000
832.071; 4325.950;  159.125;    0.000
832.257; 4308.950;  142.125;    0.000
832.444; 4268.950;  159.125;    0.000
832.630; 4171.950;  129.125;    0.000
832.816; 4238.950;  132.125;    0.000
833.002; 4125.950;  125.125;    0.000
833.188; 4265.950;  144.125;    0.000
833.374; 4113.950;  131.125;    0.000
833.560; 4036.950;  154.125;    0.000
833.746; 4034.950;  171.125;    0.000
833.932; 4119.950;  162.125;    0.000
834.118; 4049.950;  131.125;    0.000
834.303; 4067.950;  113.125;    0.000
834.489; 4005.950;  170.125;    0.000
834.675; 4042.950;  177.125;    0.000
834.861; 3878.950;  154.125;    0.000
835.047; 3987.950;  171.125;    0.000
835.233; 4042.950;   98.125;    0.000
835.418; 3951.950;  138.125;    0.000
835.604; 3950.950;  140.125;    0.000
835.790; 3844.950;  130.125;    0.000
835.976; 3892.950;  129.125;    0.000
836.161; 3838.950;  142.125;    0.000
836.347; 3908.950;  128.125;    0.000
836.533; 3898.950;  143.125;    0.000
836.718; 3903.950;  164.125;    0.000
836.904; 3927.950;  172.125;    0.000
837.089; 3936.950;  152.125;    0.000
837.275; 3875.950;  143.125;    0.000
837.460; 3838.950;  125.125;    0.000
837.646; 3824.950;  137.125;    0.000
837.831; 3906.950;  153.125;    0.000
838.017; 3915.950;  171.125;    0.000
838.202; 3876.950;  111.125;    0.000
838.388; 3824.950;  140.125;    0.000
838.573; 3787.950;  158.125;    0.000
838.759; 3910.950;  188.125;    0.000
838.944; 3812.950;  125.125;    0.000
839.129; 3819.950;  123.125;    0.000
839.315; 3909.950;  181.125;    0.000
839.500; 3912.950;  150.125;    0.000
839.685; 3740.950;  109.125;    0.000
839.870; 3855.950;  202.125;    0.000
840.056; 3882.950;  101.125;    0.000
840.241; 3905.950;  184.125;    0.000
840.426; 3965.950;  192.125;    0.000
840.611; 3915.950;  180.125;    0.000
840.796; 4044.950;  156.125;    0.000
840.981; 4002.950;  142.125;    0.000
841.166; 3971.950;  161.125;    0.000
841.352; 4153.950;  185.125;    0.000
841.537; 4152.950;  139.125;    0.000
841.722; 4121.950;  143.125;    0.000
841.907; 4108.950;  140.125;    0.000
842.092; 4204.950;  176.125;    0.000
842.277; 4205.950;  136.125;    0.000
842.461; 4251.950;  155.125;    0.000
842.646; 4357.950;  163.125;    0.000
842.831; 4579.950;  153.125;    0.000
843.016; 4589.950;  187.125;    0.000
843.201; 4685.950;  179.125;    0.000
843.386; 4906.950;  167.125;    0.000
843.571; 5085.950;  129.125;    0.000
843.755; 5418.950;  136.125;    0.000
843.940; 5719.950;  121.125;    0.000
844.125; 6359.950;  157.125;    0.000
844.310; 7276.950;  175.125;    0.000
844.494; 9391.950;  164.125;    0.000
844.679;12584.950;  167.125;    0.000
844.864;12400.950;  166.125;    0.000
845.048;10302.950;  132.125;    0.000
845.233; 8905.950;  175.125;    0.000
845.418; 7888.950;  159.125;    0.000
845.602; 7087.950;  147.125;    0.000
845.787; 6431.950;  132.125;    0.000
845.971; 6068.950;  187.125;    0.000
846.156; 5561.950;  141.125;    0.000
846.340; 5473.950;  153.125;    0.000
846.525; 5118.950;  157.125;    0.000
846.709; 4900.950;  117.125;    0.000
846.893; 4679.950;  147.125;    0.000
847.078; 4619.950;  170.125;    0.000
847.262; 4441.950;  150.125;    0.000
847.447; 4248.950;  132.125;    0.000
847.631; 4149.950;  144.125;    0.000
847.815; 4106.950;  157.125;    0.000
848.000; 4164.950;  164.125;    0.000
848.184; 3919.950;  174.125;    0.000
848.368; 3991.950;  149.125;    0.000
848.552; 3869.950;  143.125;    0.000
848.736; 3858.950;  132.125;    0.000
848.921; 3793.950;  147.125;    0.000
849.105; 3812.950;  150.125;    0.000
849.289; 3892.950;  146.125;    0.000
849.473; 3765.950;  167.125;    0.000
849.657; 3712.950;  149.125;    0.000
849.841; 3607.950;  181.125;    0.000
850.025; 3673.950;  154.125;    0.000
850.209; 3611.950;  152.125;    0.000
850.393; 3495.950;  139.125;    0.000
850.577; 3515.950;  128.125;    0.000
850.761; 3520.950;  194.125;    0.000
850.945; 3535.950;  152.125;    0.000
851.129; 3484.950;  157.125;    0.000
851.313; 3468.950;  181.125;    0.000
851.497; 3494.950;  145.125;    0.000
851.680; 3471.950;  168.125;    0.000
851.864; 3446.950;  185.125;    0.000
852.048; 3401.950;  170.125;    0.000
852.232; 3435.950;  192.125;    0.000
852.416; 3460.950;  182.125;    0.000
852.599; 3452.950;  169.125;    0.000
852.783; 3456.950;  168.125;    0.000
852.967; 3383.950;  184.125;    0.000
853.150; 3408.950;  163.125;    0.000
853.334; 3443.950;  164.125;    0.000
853.518; 3437.950;  190.125;    0.000
853.701; 3153.950;  137.125;    0.000
853.885; 3330.950;  177.125;    0.000
854.068; 3269.950;  163.125;    0.000
854.252; 3354.950;  139.125;    0.000
854.435; 3329.950;  152.125;    0.000
854.619; 3231.950;  148.125;    0.000
854.802; 3342.950;  168.125;    0.000
854.986; 3273.950;  157.125;    0.000
855.169; 3262.950;  147.125;    0.000
855.353; 3481.950;  173.125;    0.000
855.536; 3296.950;  127.125;    0.000
855.719; 3358.950;  191.125;    0.000
855.903; 3387.950;  186.125;    0.000
856.086; 3406.950;  145.125;    0.000
856.269; 3329.950;  130.125;    0.000
856.452; 3507.950;  153.125;    0.000
856.636; 3536.950;  129.125;    0.000
856.819; 3758.950;  134.125;    0.000
857.002; 3830.950;  152.125;    0.000
857.185; 3749.950;  140.125;    0.000
857.368; 3710.950;  170.125;    0.000
857.552; 3503.950;  132.125;    0.000
857.735; 3592.950;  160.125;    0.000
857.918; 3488.950;  139.125;    0.000
858.101; 3521.950;  159.125;    0.000
858.284; 3578.950;  136.125;    0.000
858.467; 3582.950;  147.125;    0.000
858.650; 3639.950;  153.125;    0.000
858.833; 3733.950;  113.125;    0.000
859.016; 3725.950;  167.125;    0.000
859.199; 3860.950;  141.125;    0.000
859.382; 4110.950;  155.125;    0.000
859.564; 4464.950;  136.125;    0.000
859.747; 4249.950;  142.125;    0.000
859.930; 4203.950;  141.125;    0.000
860.113; 4147.950;  156.125;    0.000
860.296; 4014.950;  167.125;    0.000
860.478; 3985.950;  121.125;    0.000
860.661; 3915.950;  230.125;    0.000
860.844; 3890.950;  186.125;    0.000
861.027; 3844.950;  155.125;    0.000
861.209; 3820.950;  151.125;    0.000
861.392; 3861.950;  162.125;    0.000
861.575; 3808.950;  150.125;    0.000
861.757; 3836.950;  162.125;    0.000
861.940; 3899.950;  207.125;    0.000
862.122; 4071.950;  113.125;    0.000
862.305; 4043.950;  114.125;    0.000
862.487; 4307.950;  162.125;    0.000
862.670; 4419.950;  148.125;    0.000
862.852; 5146.950;  131.125;    0.000
863.035; 5998.950;  174.125;    0.000
863.217; 5962.950;  170.125;    0.000
863.400; 5462.950;  148.125;    0.000
863.582; 5164.950;  129.125;    0.000
863.764; 4972.950;  181.125;    0.000
863.947; 4724.950;  152.125;    0.000
864.129; 4574.950;  178.125;    0.000
864.311; 4606.950;  139.125;    0.000
864.493; 4539.950;  166.125;    0.000
864.676; 4465.950;  148.125;    0.000
864.858; 4341.950;  123.125;    0.000
865.040; 4340.950;  180.125;    0.000
865.222; 4434.950;  131.125;    0.000
865.404; 4398.950;  146.125;    0.000
865.587; 4613.950;  175.125;    0.000
865.769; 4777.950;  183.125;    0.000
865.951; 4631.950;  171.125;    0.000
866.133; 4782.950;  165.125;    0.000
866.315; 4786.950;  138.125;    0.000
866.497; 4829.950;  139.125;    0.000
866.679; 4929.950;  167.125;    0.000
866.861; 5000.950;  151.125;    0.000
867.043; 5420.950;  190.125;    0.000
867.225; 5520.950;  140.125;    0.000
867.407; 5977.950;  125.125;    0.000
867.589; 6739.950;  141.125;    0.000
867.770; 7963.950;  149.125;    0.000
867.952;10659.950;  138.125;    0.000
868.134;13931.950;  153.125;    0.000
868.316;13871.950;  148.125;    0.000
868.498;13322.950;  180.125;    0.000
868.679;11914.950;  152.125;    0.000
868.861;10058.950;  174.125;    0.000
869.043; 8734.950;  152.125;    0.000
869.224; 7578.950;  177.125;    0.000
869.406; 7110.950;  171.125;    0.000
869.588; 6604.950;  177.125;    0.000
869.769; 6286.950;  174.125;    0.000
869.951; 6080.950;  167.125;    0.000
870.132; 6194.950;  144.125;    0.000
870.314; 6754.950;  143.125;    0.000
870.495; 6979.950;  162.125;    0.000
870.677; 6322.950;  136.125;    0.000
870.858; 6091.950;  155.125;    0.000
871.040; 6388.950;  179.125;    0.000
871.221; 7056.950;  177.125;    0.000
871.403; 6872.950;  180.125;    0.000
871.584; 6390.950;  157.125;    0.000
871.765; 6378.950;  183.125;    0.000
871.947; 6567.950;  169.125;    0.000
872.128; 6025.950;  162.125;    0.000
872.309; 5409.950;  159.125;    0.000
872.491; 5048.950;  148.125;    0.000
872.672; 4796.950;  163.125;    0.000
872.853; 4572.950;  152.125;    0.000
873.034; 4437.950;  166.125;    0.000
873.215; 4309.950;  155.125;    0.000
873.396; 4145.950;  147.125;    0.000
873.578; 4023.950;  147.125;    0.000
873.759; 3865.950;  153.125;    0.000
873.940; 3755.950;  194.125;    0.000
874.121; 3767.950;  179.125;    0.000
874.302; 3689.950;  155.125;    0.000
874.483; 3582.950;  131.125;    0.000
874.664; 3653.950;  106.125;    0.000
874.845; 3452.950;  122.125;    0.000
875.026; 3406.950;  127.125;    0.000
875.207; 3455.950;  151.125;    0.000
875.388; 3378.950;  149.125;    0.000
875.568; 3275.950;  164.125;    0.000
875.749; 3243.950;  176.125;    0.000
875.930; 3206.950;  207.125;    0.000
876.111; 3126.950;  177.125;    0.000
876.292; 3194.950;  178.125;    0.000
876.472; 3170.950;  163.125;    0.000
876.653; 3164.950;  159.125;    0.000
876.834; 3100.950;  177.125;    0.000
877.015; 3048.950;  212.125;    0.000
877.195; 3084.950;  166.125;    0.000
877.376; 3052.950;  157.125;    0.000
877.556; 3023.950;  175.125;    0.000
877.737; 2993.950;  220.125;    0.000
877.918; 2883.950;  163.125;    0.000
878.098; 2917.950;  166.125;    0.000
878.279; 2937.950;  136.125;    0.000
878.459; 2944.950;  167.125;    0.000
878.640; 2883.950;  167.125;    0.000
878.820; 2868.950;  155.125;    0.000
879.000; 2861.950;  158.125;    0.000
879.181; 2859.950;  155.125;    0.000
879.361; 2919.950;  181.125;    0.000
879.542; 2808.950;  181.125;    0.000
879.722; 2925.950;  117.125;    0.000
879.902; 2905.950;  180.125;    0.000
880.083; 3024.950;  139.125;    0.000
880.263; 3024.950;  168.125;    0.000
880.443; 3213.950;  206.125;    0.000
880.623; 3927.950;  132.125;    0.000
880.803; 4423.950;  149.125;    0.000
880.984; 3819.950;  189.125;    0.000
881.164; 3369.950;  171.125;    0.000
881.344; 3313.950;  150.125;    0.000
881.524; 3294.950;  185.125;    0.000
881.704; 3212.950;  152.125;    0.000
881.884; 3186.950;  188.125;    0.000
882.064; 3359.950;  155.125;    0.000
882.244; 3401.950;  182.125;    0.000
882.424; 3302.950;  154.125;    0.000
882.604; 3203.950;  175.125;    0.000
882.784; 3056.950;  137.125;    0.000
882.964; 3052.950;  135.125;    0.000
883.144; 2945.950;  142.125;    0.000
883.324; 2942.950;  192.125;    0.000
883.504; 2896.950;  193.125;    0.000
883.683; 2755.950;  208.125;    0.000
883.863; 2707.950;  127.125;    0.000
884.043; 2745.950;  140.125;    0.000
884.223; 2756.950;  167.125;    0.000
884.402; 2629.950;  156.125;    0.000
884.582; 2670.950;  185.125;    0.000
884.762; 2674.950;  187.125;    0.000
884.941; 2659.950;  201.125;    0.000
885.121; 2643.950;  157.125;    0.000
885.301; 2631.950;  173.125;    0.000
885.480; 2640.950;  158.125;    0.000
885.660; 2584.950;  153.125;    0.000
885.839; 2762.950;  144.125;    0.000
886.019; 2640.950;  184.125;    0.000
886.198; 2572.950;  132.125;    0.000
886.378; 2629.950;  124.125;    0.000
886.557; 2509.950;  146.125;    0.000
886.737; 2600.950;  157.125;    0.000
886.916; 2527.950;  203.125;    0.000
887.095; 2555.950;  151.125;    0.000
887.275; 2543.950;  143.125;    0.000
887.454; 2513.950;  140.125;    0.000
887.633; 2583.950;  196.125;    0.000
887.813; 2544.950;  161.125;    0.000
887.992; 2544.950;  183.125;    0.000
888.171; 2490.950;  153.125;    0.000
888.350; 2543.950;  185.125;    0.000
888.530; 2562.950;  163.125;    0.000
888.709; 2499.950;  174.125;    0.000
888.888; 2555.950;  179.125;    0.000
889.067; 2460.950;  178.125;    0.000
889.246; 2548.950;  184.125;    0.000
889.425; 2530.950;  169.125;    0.000
889.604; 2522.950;  210.125;    0.000
889.783; 2516.950;  183.125;    0.000
889.962; 2477.950;  116.125;    0.000
890.141; 2529.950;  179.125;    0.000
890.320; 2422.950;  182.125;    0.000
890.499; 2552.950;  188.125;    0.000
890.678; 2469.950;  167.125;    0.000
890.857; 2571.950;  141.125;    0.000
891.036; 2439.950;  179.125;    0.000
891.214; 2470.950;  156.125;    0.000
891.393; 2551.950;  209.125;    0.000
891.572; 2501.950;  181.125;    0.000
891.751; 2486.950;  172.125;    0.000
891.930; 2432.950;  169.125;    0.000
892.108; 2524.950;  131.125;    0.000
892.287; 2466.950;  162.125;    0.000
892.466; 2455.950;  178.125;    0.000
892.644; 2492.950;  161.125;    0.000
892.823; 2417.950;  180.125;    0.000
893.001; 2415.950;  179.125;    0.000
893.180; 2394.950;  152.125;    0.000
893.359; 2484.950;  184.125;    0.000
893.537; 2459.950;  178.125;    0.000
893.716; 2461.950;  169.125;    0.000
893.894; 2466.950;  159.125;    0.000
894.073; 2470.950;  179.125;    0.000
894.251; 2463.950;  167.125;    0.000
894.429; 2476.950;  142.125;    0.000
894.608; 2433.950;  166.125;    0.000
894.786; 2508.950;  153.125;    0.000
894.964; 2546.950;  181.125;    0.000
895.143; 2410.950;  161.125;    0.000
895.321; 2433.950;  198.125;    0.000
895.499; 2491.950;  184.125;    0.000
895.677; 2457.950;  178.125;    0.000
895.856; 2410.950;  226.125;    0.000
896.034; 2540.950;  180.125;    0.000
896.212; 2509.950;  200.125;    0.000
896.390; 2442.950;  161.125;    0.000
896.568; 2485.950;  204.125;    0.000
896.746; 2490.950;  136.125;    0.000
896.924; 2417.950;  171.125;    0.000
897.102; 2519.950;  203.125;    0.000
897.280; 2456.950;  142.125;    0.000
897.458; 2537.950;  159.125;    0.000
897.636; 2426.950;  163.125;    0.000
897.814; 2487.950;  137.125;    0.000
897.992; 2564.950;  199.125;    0.000
898.170; 2559.950;  176.125;    0.000
898.348; 2523.950;  195.125;    0.000
898.526; 2550.950;  199.125;    0.000
898.704; 2574.950;  260.125;    0.000
898.882; 2607.950;  185.125;    0.000
899.059; 2446.950;  169.125;    0.000
899.237; 2520.950;  197.125;    0.000
899.415; 2608.950;  207.125;    0.000
899.593; 2522.950;  169.125;    0.000
899.770; 2574.950;  182.125;    0.000
899.948; 2562.950;  198.125;    0.000
900.125; 2597.950;  200.125;    0.000
900.303; 2589.950;  165.125;    0.000
900.481; 2652.950;  182.125;    0.000
900.658; 2622.950;  206.125;    0.000
900.836; 2610.950;  188.125;    0.000
901.013; 2695.950;  169.125;    0.000
901.191; 2615.950;  172.125;    0.000
901.368; 2649.950;  170.125;    0.000
901.546; 2684.950;  234.125;    0.000
901.723; 2754.950;  173.125;    0.000
901.901; 2768.950;  190.125;    0.000
902.078; 2892.950;  145.125;    0.000
902.255; 2829.950;  204.125;    0.000
902.433; 2807.950;  198.125;    0.000
902.610; 2976.950;  190.125;    0.000
902.787; 2853.950;  204.125;    0.000
902.964; 2853.950;  208.125;    0.000
903.142; 2967.950;  187.125;    0.000
903.319; 3038.950;  216.125;    0.000
903.496; 3029.950;  186.125;    0.000
903.673; 3227.950;  201.125;    0.000
903.850; 3147.950;  195.125;    0.000
904.027; 3298.950;  211.125;    0.000
904.204; 3374.950;  197.125;    0.000
904.381; 3587.950;  198.125;    0.000
904.558; 4090.950;  188.125;    0.000
904.735; 4502.950;  207.125;    0.000
904.912; 4526.950;  217.125;    0.000
905.089; 4552.950;  188.125;    0.000
905.266; 4366.950;  160.125;    0.000
905.443; 4046.950;  221.125;    0.000
905.620; 3756.950;  163.125;    0.000
905.797; 3724.950;  186.125;    0.000
905.974; 3529.950;  205.125;    0.000
906.151; 3486.950;  159.125;    0.000
906.327; 3478.950;  206.125;    0.000
906.504; 3405.950;  201.125;    0.000
906.681; 3249.950;  202.125;    0.000
906.858; 3271.950;  188.125;    0.000
907.034; 3174.950;  207.125;    0.000
907.211; 3094.950;  182.125;    0.000
907.388; 3125.950;  184.125;    0.000
907.564; 2973.950;  148.125;    0.000
907.741; 2924.950;  181.125;    0.000
907.917; 2974.950;  191.125;    0.000
908.094; 2952.950;  210.125;    0.000
908.271; 2865.950;  171.125;    0.000
908.447; 2917.950;  241.125;    0.000
908.623; 2829.950;  188.125;    0.000
908.800; 2756.950;  205.125;    0.000
908.976; 2775.950;  210.125;    0.000
909.153; 2789.950;  193.125;    0.000
909.329; 2793.950;  206.125;    0.000
909.505; 2709.950;  181.125;    0.000
909.682; 2695.950;  192.125;    0.000
909.858; 2666.950;  134.125;    0.000
910.034; 2715.950;  214.125;    0.000
910.211; 2647.950;  182.125;    0.000
910.387; 2705.950;  194.125;    0.000
910.563; 2718.950;  199.125;    0.000
910.739; 2632.950;  188.125;    0.000
910.915; 2650.950;  192.125;    0.000
911.091; 2618.950;  198.125;    0.000
911.268; 2679.950;  178.125;    0.000
911.444; 2546.950;  201.125;    0.000
911.620; 2631.950;  181.125;    0.000
911.796; 2706.950;  185.125;    0.000
911.972; 2676.950;  176.125;    0.000
912.148; 2592.950;  196.125;    0.000
912.324; 2626.950;  192.125;    0.000
912.500; 2608.950;  204.125;    0.000
912.676; 2628.950;  164.125;    0.000
912.851; 2627.950;  193.125;    0.000
913.027; 2589.950;  175.125;    0.000
913.203; 2536.950;  193.125;    0.000
913.379; 2611.950;  213.125;    0.000
913.555; 2531.950;  211.125;    0.000
913.730; 2578.950;  194.125;    0.000
913.906; 2535.950;  153.125;    0.000
914.082; 2585.950;  212.125;    0.000
914.258; 2610.950;  194.125;    0.000
914.433; 2572.950;  191.125;    0.000
914.609; 2590.950;  208.125;    0.000
914.784; 2522.950;  176.125;    0.000
914.960; 2597.950;  227.125;    0.000
915.136; 2554.950;  152.125;    0.000
915.311; 2629.950;  171.125;    0.000
915.487; 2636.950;  173.125;    0.000
915.662; 2664.950;  189.125;    0.000
915.838; 2575.950;  179.125;    0.000
916.013; 2570.950;  191.125;    0.000
916.189; 2617.950;  207.125;    0.000
916.364; 2605.950;  194.125;    0.000
916.539; 2625.950;  174.125;    0.000
916.715; 2628.950;  207.125;    0.000
916.890; 2608.950;  193.125;    0.000
917.065; 2557.950;  199.125;    0.000
917.240; 2601.950;  214.125;    0.000
917.416; 2671.950;  194.125;    0.000
917.591; 2719.950;  213.125;    0.000
917.766; 2697.950;  194.125;    0.000
917.941; 2567.950;  201.125;    0.000
918.116; 2601.950;  198.125;    0.000
918.292; 2558.950;  176.125;    0.000
918.467; 2638.950;  190.125;    0.000
918.642; 2709.950;  200.125;    0.000
918.817; 2696.950;  186.125;    0.000
918.992; 2677.950;  174.125;    0.000
919.167; 2754.950;  197.125;    0.000
919.342; 2732.950;  188.125;    0.000
919.517; 2759.950;  179.125;    0.000
919.692; 2759.950;  182.125;    0.000
919.867; 2751.950;  216.125;    0.000
920.041; 2792.950;  208.125;    0.000
920.216; 2847.950;  223.125;    0.000
920.391; 2858.950;  203.125;    0.000
920.566; 2924.950;  202.125;    0.000
920.741; 2988.950;  197.125;    0.000
920.915; 3129.950;  223.125;    0.000
921.090; 3140.950;  183.125;    0.000
921.265; 3566.950;  169.125;    0.000
921.439; 3987.950;  212.125;    0.000
921.614; 3621.950;  190.125;    0.000
921.789; 3553.950;  177.125;    0.000
921.963; 3455.950;  233.125;    0.000
922.138; 3198.950;  156.125;    0.000
922.312; 3164.950;  193.125;    0.000
922.487; 3197.950;  208.125;    0.000
922.661; 3243.950;  212.125;    0.000
922.836; 3538.950;  210.125;    0.000
923.010; 3542.950;  183.125;    0.000
923.185; 3397.950;  228.125;    0.000
923.359; 3275.950;  227.125;    0.000
923.534; 3248.950;  189.125;    0.000
923.708; 3406.950;  210.125;    0.000
923.882; 3434.950;  217.125;    0.000
924.057; 3509.950;  195.125;    0.000
924.231; 3204.950;  201.125;    0.000
924.405; 3225.950;  188.125;    0.000
924.579; 3290.950;  188.125;    0.000
924.753; 3142.950;  174.125;    0.000
924.928; 3105.950;  179.125;    0.000
925.102; 3091.950;  186.125;    0.000
925.276; 3103.950;  201.125;    0.000
925.450; 3024.950;  211.125;    0.000
925.624; 3218.950;  238.125;    0.000
925.798; 3205.950;  191.125;    0.000
925.972; 3418.950;  192.125;    0.000
926.146; 3496.950;  198.125;    0.000
926.320; 3791.950;  151.125;    0.000
926.494; 3980.950;  202.125;    0.000
926.668; 4055.950;  197.125;    0.000
926.842; 4214.950;  177.125;    0.000
927.016; 4223.950;  202.125;    0.000
927.190; 4200.950;  207.125;    0.000
927.363; 4123.950;  180.125;    0.000
927.537; 4030.950;  212.125;    0.000
927.711; 3808.950;  148.125;    0.000
927.885; 3828.950;  196.125;    0.000
928.058; 3703.950;  173.125;    0.000
928.232; 3642.950;  219.125;    0.000
928.406; 3518.950;  141.125;    0.000
928.579; 3547.950;  157.125;    0.000
928.753; 3481.950;  205.125;    0.000
928.927; 3468.950;  196.125;    0.000
929.100; 3384.950;  237.125;    0.000
929.274; 3220.950;  166.125;    0.000
929.447; 3216.950;  150.125;    0.000
929.621; 3279.950;  188.125;    0.000
929.794; 3203.950;  169.125;    0.000
929.968; 3127.950;  194.125;    0.000
930.141; 3111.950;  226.125;    0.000
930.315; 3083.950;  196.125;    0.000
930.488; 3138.950;  233.125;    0.000
930.661; 2988.950;  188.125;    0.000
930.835; 2998.950;  170.125;    0.000
931.008; 2994.950;  176.125;    0.000
931.181; 2928.950;  175.125;    0.000
931.354; 2928.950;  212.125;    0.000
931.528; 2937.950;  177.125;    0.000
931.701; 2770.950;  218.125;    0.000
931.874; 2840.950;  175.125;    0.000
932.047; 2831.950;  157.125;    0.000
932.220; 2727.950;  187.125;    0.000
932.393; 2741.950;  166.125;    0.000
932.566; 2662.950;  168.125;    0.000
932.739; 2739.950;  203.125;    0.000
932.912; 2718.950;  202.125;    0.000
933.085; 2796.950;  209.125;    0.000
933.258; 2653.950;  196.125;    0.000
933.431; 2574.950;  207.125;    0.000
933.604; 2682.950;  201.125;    0.000
933.777; 2674.950;  202.125;    0.000
933.950; 2653.950;  184.125;    0.000
934.123; 2561.950;  167.125;    0.000
934.296; 2676.950;  209.125;    0.000
934.468; 2646.950;  216.125;    0.000
934.641; 2512.950;  156.125;    0.000
934.814; 2597.950;  215.125;    0.000
934.987; 2609.950;  201.125;    0.000
935.159; 2583.950;  176.125;    0.000
935.332; 2546.950;  203.125;    0.000
935.505; 2583.950;  163.125;    0.000
935.677; 2589.950;  169.125;    0.000
935.850; 2531.950;  178.125;    0.000
936.022; 2624.950;  187.125;    0.000
936.195; 2588.950;  207.125;    0.000
936.367; 2580.950;  191.125;    0.000
936.540; 2617.950;  214.125;    0.000
936.712; 2578.950;  202.125;    0.000
936.885; 2707.950;  195.125;    0.000
937.057; 2563.950;  173.125;    0.000
937.229; 2625.950;  179.125;    0.000
937.402; 2735.950;  174.125;    0.000
937.574; 2694.950;  140.125;    0.000
937.746; 2694.950;  153.125;    0.000
937.919; 2858.950;  196.125;    0.000
938.091; 2883.950;  173.125;    0.000
938.263; 3122.950;  206.125;    0.000
938.435; 3368.950;  213.125;    0.000
938.608; 3740.950;  204.125;    0.000
938.780; 4110.950;  199.125;    0.000
938.952; 4302.950;  190.125;    0.000
939.124; 4318.950;  182.125;    0.000
939.296; 5003.950;  188.125;    0.000
939.468; 5119.950;  119.125;    0.000
939.640; 4468.950;  171.125;    0.000
939.812; 4134.950;  222.125;    0.000
939.984; 3844.950;  172.125;    0.000
940.156; 3634.950;  171.125;    0.000
940.328; 3452.950;  215.125;    0.000
940.500; 3267.950;  179.125;    0.000
940.672; 3158.950;  178.125;    0.000
940.843; 3067.950;  193.125;    0.000
941.015; 2962.950;  207.125;    0.000
941.187; 2829.950;  179.125;    0.000
941.359; 2924.950;  191.125;    0.000
941.531; 2866.950;  160.125;    0.000
941.702; 2840.950;  208.125;    0.000
941.874; 2656.950;  143.125;    0.000
942.046; 2653.950;  189.125;    0.000
942.217; 2627.950;  167.125;    0.000
942.389; 2630.950;  199.125;    0.000
942.560; 2557.950;  179.125;    0.000
942.732; 2619.950;  209.125;    0.000
942.904; 2475.950;  180.125;    0.000
943.075; 2484.950;  197.125;    0.000
943.247; 2436.950;  207.125;    0.000
943.418; 2395.950;  183.125;    0.000
943.589; 2500.950;  176.125;    0.000
943.761; 2450.950;  165.125;    0.000
943.932; 2383.950;  170.125;    0.000
944.104; 2483.950;  147.125;    0.000
944.275; 2314.950;  149.125;    0.000
944.446; 2385.950;  191.125;    0.000
944.617; 2266.950;  128.125;    0.000
944.789; 2312.950;  166.125;    0.000
944.960; 2282.950;  195.125;    0.000
945.131; 2346.950;  164.125;    0.000
945.302; 2385.950;  229.125;    0.000
945.473; 2240.950;  153.125;    0.000
945.645; 2369.950;  166.125;    0.000
945.816; 2442.950;  187.125;    0.000
945.987; 2370.950;  193.125;    0.000
946.158; 2407.950;  166.125;    0.000
946.329; 2437.950;  196.125;    0.000
946.500; 2317.950;  152.125;    0.000
946.671; 2264.950;  161.125;    0.000
946.842; 2284.950;  176.125;    0.000
947.013; 2278.950;  188.125;    0.000
947.183; 2285.950;  213.125;    0.000
947.354; 2185.950;  163.125;    0.000
947.525; 2243.950;  204.125;    0.000
947.696; 2285.950;  159.125;    0.000
947.867; 2206.950;  197.125;    0.000
948.037; 2253.950;  174.125;    0.000
948.208; 2255.950;  163.125;    0.000
948.379; 2252.950;  189.125;    0.000
948.550; 2127.950;  173.125;    0.000
948.720; 2178.950;  186.125;    0.000
948.891; 2233.950;  166.125;    0.000
949.061; 2104.950;  197.125;    0.000
949.232; 2119.950;  168.125;    0.000
949.403; 2166.950;  188.125;    0.000
949.573; 2158.950;  164.125;    0.000
949.744; 2139.950;  194.125;    0.000
949.914; 2183.950;  154.125;    0.000
950.085; 2210.950;  197.125;    0.000
950.255; 2158.950;  187.125;    0.000
950.425; 2154.950;  193.125;    0.000
950.596; 2132.950;  182.125;    0.000
950.766; 2158.950;  202.125;    0.000
950.936; 2168.950;  230.125;    0.000
951.107; 2112.950;  133.125;    0.000
951.277; 2068.950;  234.125;    0.000
951.447; 2125.950;  200.125;    0.000
951.617; 2150.950;  212.125;    0.000
951.788; 2115.950;  176.125;    0.000
951.958; 2103.950;  218.125;    0.000
952.128; 2067.950;  198.125;    0.000
952.298; 2119.950;  185.125;    0.000
952.468; 2084.950;  231.125;    0.000
952.638; 2020.950;  213.125;    0.000
952.808; 2082.950;  218.125;    0.000
952.978; 2144.950;  252.125;    0.000
953.148; 2138.950;  200.125;    0.000
953.318; 2059.950;  243.125;    0.000
953.488; 2077.950;  140.125;    0.000
953.658; 2096.950;  208.125;    0.000
953.828; 1993.950;  179.125;    0.000
953.998; 2036.950;  211.125;    0.000
954.167; 1996.950;  197.125;    0.000
954.337; 2039.950;  217.125;    0.000
954.507; 2129.950;  219.125;    0.000
954.677; 1983.950;  201.125;    0.000
954.846; 2021.950;  241.125;    0.000
955.016; 2019.950;  222.125;    0.000
955.186; 1984.950;  200.125;    0.000
955.355; 2007.950;  247.125;    0.000
955.525; 2006.950;  212.125;    0.000
955.695; 1983.950;  200.125;    0.000
955.864; 1952.950;  196.125;    0.000
956.034; 1937.950;  195.125;    0.000
956.203; 1966.950;  243.125;    0.000
956.373; 1906.950;  197.125;    0.000
956.542; 2012.950;  237.125;    0.000
956.711; 1885.950;  249.125;    0.000
956.881; 1955.950;  235.125;    0.000
957.050; 2008.950;  259.125;    0.000
957.220; 2068.950;  234.125;    0.000
957.389; 1919.950;  250.125;    0.000
957.558; 1911.950;  214.125;    0.000
957.727; 1992.950;  225.125;    0.000
957.897; 1829.950;  211.125;    0.000
958.066; 1879.950;  200.125;    0.000
958.235; 1912.950;  202.125;    0.000
958.404; 1870.950;  242.125;    0.000
958.573; 1983.950;  222.125;    0.000
958.743; 1859.950;  191.125;    0.000
958.912; 1886.950;  183.125;    0.000
959.081; 1899.950;  212.125;    0.000
959.250; 1872.950;  192.125;    0.000
959.419; 1934.950;  238.125;    0.000
959.588; 1982.950;  205.125;    0.000
959.757; 1854.950;  213.125;    0.000
959.926; 1852.950;  217.125;    0.000
960.094; 1915.950;  215.125;    0.000
960.263; 1872.950;  220.125;    0.000
960.432; 1894.950;  164.125;    0.000
960.601; 1740.950;  228.125;    0.000
960.770; 1821.950;  176.125;    0.000
960.939; 1836.950;  201.125;    0.000
961.107; 1869.950;  183.125;    0.000
961.276; 1818.950;  199.125;    0.000
961.445; 1925.950;  205.125;    0.000
961.613; 1831.950;  183.125;    0.000
961.782; 1825.950;  216.125;    0.000
961.951; 1881.950;  169.125;    0.000
962.119; 1798.950;  211.125;    0.000
962.288; 1869.950;  204.125;    0.000
962.456; 1858.950;  187.125;    0.000
962.625; 1897.950;  223.125;    0.000
962.793; 1833.950;  200.125;    0.000
962.962; 1722.950;  185.125;    0.000
963.130; 1821.950;  195.125;    0.000
963.298; 1804.950;  187.125;    0.000
963.467; 1823.950;  247.125;    0.000
963.635; 1787.950;  165.125;    0.000
963.803; 1816.950;  192.125;    0.000
963.972; 1823.950;  191.125;    0.000
964.140; 1795.950;  163.125;    0.000
964.308; 1838.950;  161.125;    0.000
964.477; 1832.950;  182.125;    0.000
964.645; 1827.950;  195.125;    0.000
964.813; 1848.950;  165.125;    0.000
964.981; 1810.950;  193.125;    0.000
965.149; 1888.950;  174.125;    0.000
965.317; 1803.950;  194.125;    0.000
965.485; 1782.950;  209.125;    0.000
965.653; 1713.950;  210.125;    0.000
965.821; 1704.950;  194.125;    0.000
965.989; 1773.950;  182.125;    0.000
966.157; 1826.950;  180.125;    0.000
966.325; 1810.950;  198.125;    0.000
966.493; 1777.950;  182.125;    0.000
966.661; 1765.950;  200.125;    0.000
966.829; 1797.950;  190.125;    0.000
966.996; 1808.950;  221.125;    0.000
967.164; 1820.950;  176.125;    0.000
967.332; 1903.950;  228.125;    0.000
967.500; 1785.950;  177.125;    0.000
967.667; 1813.950;  202.125;    0.000
967.835; 1845.950;  220.125;    0.000
968.003; 1859.950;  183.125;    0.000
968.170; 1870.950;  163.125;    0.000
968.338; 1833.950;  162.125;    0.000
968.505; 1859.950;  198.125;    0.000
968.673; 1835.950;  213.125;    0.000
968.841; 1766.950;  131.125;    0.000
969.008; 1766.950;  225.125;    0.000
969.175; 1745.950;  202.125;    0.000
969.343; 1776.950;  222.125;    0.000
969.510; 1782.950;  230.125;    0.000
969.678; 1762.950;  161.125;    0.000
969.845; 1766.950;  208.125;    0.000
970.012; 1823.950;  186.125;    0.000
970.180; 1773.950;  226.125;    0.000
970.347; 1814.950;  222.125;    0.000
970.514; 1818.950;  206.125;    0.000
970.681; 1816.950;  173.125;    0.000
970.849; 1760.950;  190.125;    0.000
971.016; 1775.950;  220.125;    0.000
971.183; 1876.950;  202.125;    0.000
971.350; 1784.950;  196.125;    0.000
971.517; 1775.950;  218.125;    0.000
971.684; 1799.950;  228.125;    0.000
971.851; 1802.950;  235.125;    0.000
972.018; 1857.950;  200.125;    0.000
972.185; 1741.950;  183.125;    0.000
972.352; 1784.950;  216.125;    0.000
972.519; 1790.950;  227.125;    0.000
972.686; 1772.950;  209.125;    0.000
972.853; 1707.950;  157.125;    0.000
973.020; 1755.950;  179.125;    0.000
973.186; 1781.950;  173.125;    0.000
973.353; 1770.950;  189.125;    0.000
973.520; 1779.950;  228.125;    0.000
973.687; 1764.950;  190.125;    0.000
973.853; 1746.950;  197.125;    0.000
974.020; 1769.950;  208.125;    0.000
974.187; 1744.950;  158.125;    0.000
974.353; 1812.950;  201.125;    0.000
974.520; 1751.950;  158.125;    0.000
974.687; 1776.950;  192.125;    0.000
974.853; 1721.950;  177.125;    0.000
975.020; 1689.950;  212.125;    0.000
975.186; 1705.950;  200.125;    0.000
975.353; 1770.950;  208.125;    0.000
975.519; 1795.950;  169.125;    0.000
975.685; 1851.950;  176.125;    0.000
975.852; 1771.950;  201.125;    0.000
976.018; 1771.950;  209.125;    0.000
976.184; 1750.950;  197.125;    0.000
976.351; 1748.950;  196.125;    0.000
976.517; 1746.950;  243.125;    0.000
976.683; 1752.950;  210.125;    0.000
976.849; 1672.950;  226.125;    0.000
977.016; 1692.950;  218.125;    0.000
977.182; 1757.950;  213.125;    0.000
977.348; 1812.950;  205.125;    0.000
977.514; 1717.950;  210.125;    0.000
977.680; 1699.950;  226.125;    0.000
977.846; 1705.950;  206.125;    0.000
978.012; 1703.950;  222.125;    0.000
978.178; 1679.950;  216.125;    0.000
978.344; 1705.950;  172.125;    0.000
978.510; 1688.950;  210.125;    0.000
978.676; 1703.950;  184.125;    0.000
978.842; 1636.950;  190.125;    0.000
979.008; 1746.950;  203.125;    0.000
979.174; 1691.950;  211.125;    0.000
979.340; 1711.950;  190.125;    0.000
979.505; 1720.950;  235.125;    0.000
979.671; 1693.950;  182.125;    0.000
979.837; 1772.950;  235.125;    0.000
980.003; 1702.950;  183.125;    0.000
980.168; 1724.950;  220.125;    0.000
980.334; 1683.950;  161.125;    0.000
980.499; 1781.950;  212.125;    0.000
980.665; 1675.950;  219.125;    0.000
980.831; 1796.950;  201.125;    0.000
980.996; 1737.950;  189.125;    0.000
981.162; 1748.950;  222.125;    0.000
981.327; 1775.950;  173.125;    0.000
981.493; 1756.950;  197.125;    0.000
981.658; 1699.950;  178.125;    0.000
981.823; 1777.950;  196.125;    0.000
981.989; 1785.950;  248.125;    0.000
982.154; 1762.950;  222.125;    0.000
982.319; 1801.950;  226.125;    0.000
982.485; 1888.950;  188.125;    0.000
982.650; 1799.950;  203.125;    0.000
982.815; 1717.950;  237.125;    0.000
982.980; 1778.950;  210.125;    0.000
983.146; 1747.950;  202.125;    0.000
983.311; 1771.950;  195.125;    0.000
983.476; 1738.950;  207.125;    0.000
983.641; 1735.950;  198.125;    0.000
983.806; 1628.950;  136.125;    0.000
983.971; 1770.950;  248.125;    0.000
984.136; 1790.950;  213.125;    0.000
984.301; 1734.950;  181.125;    0.000
984.466; 1694.950;  210.125;    0.000
984.631; 1725.950;  219.125;    0.000
984.796; 1738.950;  207.125;    0.000
984.961; 1702.950;  214.125;    0.000
985.126; 1760.950;  218.125;    0.000
985.291; 1794.950;  214.125;    0.000
985.455; 1679.950;  187.125;    0.000
985.620; 1724.950;  191.125;    0.000
985.785; 1712.950;  190.125;    0.000
985.950; 1701.950;  184.125;    0.000
986.114; 1716.950;  242.125;    0.000
986.279; 1692.950;  251.125;    0.000
986.444; 1773.950;  177.125;    0.000
986.608; 1791.950;  216.125;    0.000
986.773; 1825.950;  211.125;    0.000
986.937; 1803.950;  244.125;    0.000
987.102; 1813.950;  187.125;    0.000
987.266; 1717.950;  178.125;    0.000
987.431; 1794.950;  205.125;    0.000
987.595; 1745.950;  221.125;    0.000
987.760; 1724.950;  205.125;    0.000
987.924; 1743.950;  195.125;    0.000
988.088; 1741.950;  184.125;    0.000
988.253; 1778.950;  188.125;    0.000
988.417; 1805.950;  196.125;    0.000
988.581; 1825.950;  218.125;    0.000
988.746; 1796.950;  203.125;    0.000
988.910; 1637.950;  195.125;    0.000
989.074; 1764.950;  187.125;    0.000
989.238; 1777.950;  243.125;    0.000
989.402; 1723.950;  242.125;    0.000
989.566; 1779.950;  205.125;    0.000
989.731; 1741.950;  195.125;    0.000
989.895; 1701.950;  211.125;    0.000
990.059; 1585.950;  175.125;    0.000
990.223; 1670.950;  176.125;    0.000
990.387; 1732.950;  234.125;    0.000
990.551; 1767.950;  231.125;    0.000
990.714; 1735.950;  209.125;    0.000
990.878; 1689.950;  187.125;    0.000
991.042; 1716.950;  183.125;    0.000
991.206; 1713.950;  216.125;    0.000
991.370; 1744.950;  257.125;    0.000
991.534; 1748.950;  188.125;    0.000
991.697; 1757.950;  203.125;    0.000
991.861; 1643.950;  219.125;    0.000
992.025; 1751.950;  221.125;    0.000
992.188; 1673.950;  188.125;    0.000
992.352; 1671.950;  205.125;    0.000
992.516; 1769.950;  189.125;    0.000
992.679; 1708.950;  207.125;    0.000
992.843; 1708.950;  210.125;    0.000
993.006; 1655.950;  191.125;    0.000
993.170; 1730.950;  228.125;    0.000
993.333; 1553.950;  142.125;    0.000
993.497; 1715.950;  175.125;    0.000
993.660; 1671.950;  220.125;    0.000
993.824; 1710.950;  193.125;    0.000
993.987; 1696.950;  219.125;    0.000
994.150; 1639.950;  166.125;    0.000
994.314; 1692.950;  207.125;    0.000
994.477; 1632.950;  227.125;    0.000
994.640; 1690.950;  210.125;    0.000
994.803; 1727.950;  219.125;    0.000
994.967; 1704.950;  192.125;    0.000
995.130; 1669.950;  197.125;    0.000
995.293; 1673.950;  189.125;    0.000
995.456; 1694.950;  180.125;    0.000
995.619; 1694.950;  239.125;    0.000
995.782; 1617.950;  209.125;    0.000
995.945; 1673.950;  216.125;    0.000
996.108; 1711.950;  198.125;    0.000
996.271; 1664.950;  205.125;    0.000
996.434; 1714.950;  205.125;    0.000
996.597; 1631.950;  208.125;    0.000
996.760; 1691.950;  205.125;    0.000
996.923; 1784.950;  174.125;    0.000
997.086; 1633.950;  198.125;    0.000
997.248; 1704.950;  214.125;    0.000
997.411; 1650.950;  237.125;    0.000
997.574; 1618.950;  182.125;    0.000
997.737; 1729.950;  188.125;    0.000
997.899; 1659.950;  216.125;    0.000
998.062; 1597.950;  210.125;    0.000
998.225; 1672.950;  202.125;    0.000
998.387; 1594.950;  202.125;    0.000
998.550; 1653.950;  193.125;    0.000
998.712; 1686.950;  225.125;    0.000
998.875; 1743.950;  228.125;    0.000
999.037; 1643.950;  186.125;    0.000
999.200; 1646.950;  212.125;    0.000
999.362; 1769.950;  234.125;    0.000
999.525; 1638.950;  170.125;    0.000
999.687; 1568.950;  191.125;    0.000
999.849; 1704.950;  218.125;    0.000
1000.012; 1702.950;  187.125;    0.000
1000.174; 1741.950;  216.125;    0.000
1000.336; 1714.950;  194.125;    0.000
1000.499; 1667.950;  209.125;    0.000
1000.661; 1719.950;  208.125;    0.000
1000.823; 1658.950;  197.125;    0.000
1000.985; 1651.950;  201.125;    0.000
1001.147; 1746.950;  234.125;    0.000
1001.309; 1644.950;  180.125;    0.000
1001.471; 1796.950;  223.125;    0.000
1001.633; 1734.950;  198.125;    0.000
1001.796; 1688.950;  200.125;    0.000
1001.958; 1732.950;  204.125;    0.000
1002.119; 1717.950;  193.125;    0.000
1002.281; 1867.950;  205.125;    0.000
1002.443; 1944.950;  236.125;    0.000
1002.605; 1919.950;  197.125;    0.000
1002.767; 2021.950;  223.125;    0.000
1002.929; 2039.950;  220.125;    0.000
1003.091; 2136.950;  214.125;    0.000
1003.252; 2239.950;  233.125;    0.000
1003.414; 2324.950;  230.125;    0.000
1003.576; 2405.950;  203.125;    0.000
1003.738; 2472.950;  201.125;    0.000
1003.899; 2599.950;  222.125;    0.000
1004.061; 2780.950;  208.125;    0.000
1004.222; 2759.950;  194.125;    0.000
1004.384; 2865.950;  205.125;    0.000
1004.546; 2969.950;  162.125;    0.000
1004.707; 2972.950;  232.125;    0.000
1004.869; 3139.950;  223.125;    0.000
1005.030; 3014.950;  204.125;    0.000
1005.191; 2921.950;  214.125;    0.000
1005.353; 2933.950;  226.125;    0.000
1005.514; 2745.950;  201.125;    0.000
1005.675; 2722.950;  205.125;    0.000
1005.837; 2630.950;  235.125;    0.000
1005.998; 2517.950;  210.125;    0.000
1006.159; 2543.950;  214.125;    0.000
1006.321; 2503.950;  236.125;    0.000
1006.482; 2662.950;  214.125;    0.000
1006.643; 2670.950;  213.125;    0.000
1006.804; 2667.950;  204.125;    0.000
1006.965; 2818.950;  212.125;    0.000
1007.126; 2932.950;  251.125;    0.000
1007.287; 2990.950;  238.125;    0.000
1007.448; 2766.950;  198.125;    0.000
1007.609; 2760.950;  241.125;    0.000
1007.770; 2646.950;  213.125;    0.000
1007.931; 2779.950;  225.125;    0.000
1008.092; 2708.950;  204.125;    0.000
1008.253; 2806.950;  220.125;    0.000
1008.414; 2775.950;  180.125;    0.000
1008.575; 2910.950;  224.125;    0.000
1008.736; 2844.950;  164.125;    0.000
1008.896; 2983.950;  247.125;    0.000
1009.057; 2814.950;  263.125;    0.000
1009.218; 2934.950;  233.125;    0.000
1009.379; 2870.950;  207.125;    0.000
1009.539; 2821.950;  221.125;    0.000
1009.700; 3020.950;  209.125;    0.000
1009.860; 3008.950;  217.125;    0.000
1010.021; 2966.950;  182.125;    0.000
1010.182; 2924.950;  233.125;    0.000
1010.342; 3025.950;  210.125;    0.000
1010.503; 3093.950;  232.125;    0.000
1010.663; 3139.950;  228.125;    0.000
1010.823; 3164.950;  212.125;    0.000
1010.984; 3305.950;  244.125;    0.000
1011.144; 3241.950;  200.125;    0.000
1011.305; 3321.950;  237.125;    0.000
1011.465; 3440.950;  225.125;    0.000
1011.625; 3545.950;  215.125;    0.000
1011.785; 3637.950;  235.125;    0.000
1011.946; 3545.950;  231.125;    0.000
1012.106; 3491.950;  206.125;    0.000
1012.266; 3607.950;  218.125;    0.000
1012.426; 3461.950;  249.125;    0.000
1012.586; 3577.950;  217.125;    0.000
1012.746; 3379.950;  231.125;    0.000
1012.906; 3480.950;  230.125;    0.000
1013.066; 3394.950;  260.125;    0.000
1013.226; 3503.950;  206.125;    0.000
1013.386; 3419.950;  220.125;    0.000
1013.546; 3366.950;  233.125;    0.000
1013.706; 3397.950;  194.125;    0.000
1013.866; 3380.950;  209.125;    0.000
1014.026; 3338.950;  204.125;    0.000
1014.186; 3402.950;  203.125;    0.000
1014.346; 3444.950;  244.125;    0.000
1014.505; 3489.950;  206.125;    0.000
1014.665; 3563.950;  210.125;    0.000
1014.825; 3448.950;  235.125;    0.000
1014.985; 3480.950;  227.125;    0.000
1015.144; 3549.950;  237.125;    0.000
1015.304; 3765.950;  196.125;    0.000
1015.464; 3800.950;  228.125;    0.000
1015.623; 3667.950;  235.125;    0.000
1015.783; 3823.950;  187.125;    0.000
1015.942; 4273.950;  184.125;    0.000
1016.102; 4263.950;  245.125;    0.000
1016.261; 4193.950;  203.125;    0.000
1016.420; 4388.950;  209.125;    0.000
1016.580; 4942.950;  235.125;    0.000
1016.739; 4849.950;  175.125;    0.000
1016.899; 4634.950;  220.125;    0.000
1017.058; 4845.950;  219.125;    0.000
1017.217; 5223.950;  238.125;    0.000
1017.376; 4762.950;  235.125;    0.000
1017.536; 4457.950;  195.125;    0.000
1017.695; 4374.950;  215.125;    0.000
1017.854; 4469.950;  231.125;    0.000
1018.013; 4502.950;  184.125;    0.000
1018.172; 4116.950;  179.125;    0.000
1018.331; 4137.950;  205.125;    0.000
1018.490; 4404.950;  203.125;    0.000
1018.649; 4695.950;  261.125;    0.000
1018.808; 4920.950;  253.125;    0.000
1018.967; 4781.950;  201.125;    0.000
1019.126; 4731.950;  216.125;    0.000
1019.285; 4931.950;  169.125;    0.000
1019.444; 4836.950;  226.125;    0.000
1019.603; 4641.950;  252.125;    0.000
1019.762; 4511.950;  206.125;    0.000
1019.921; 4604.950;  235.125;    0.000
1020.079; 4848.950;  192.125;    0.000
1020.238; 5005.950;  226.125;    0.000
1020.397; 4975.950;  231.125;    0.000
1020.555; 4694.950;  218.125;    0.000
1020.714; 4791.950;  235.125;    0.000
1020.873; 5061.950;  229.125;    0.000
1021.031; 5173.950;  234.125;    0.000
1021.190; 4712.950;  223.125;    0.000
1021.348; 4926.950;  186.125;    0.000
1021.507; 5190.950;  201.125;    0.000
1021.665; 5443.950;  222.125;    0.000
1021.824; 5121.950;  208.125;    0.000
1021.982; 4819.950;  209.125;    0.000
1022.141; 4870.950;  224.125;    0.000
1022.299; 5508.950;  214.125;    0.000
1022.457; 5556.950;  176.125;    0.000
1022.616; 5129.950;  211.125;    0.000
1022.774; 4798.950;  218.125;    0.000
1022.932; 5088.950;  205.125;    0.000
1023.090; 5775.950;  246.125;    0.000
1023.249; 5757.950;  249.125;    0.000
1023.407; 5253.950;  235.125;    0.000
1023.565; 4792.950;  202.125;    0.000
1023.723; 5099.950;  210.125;    0.000
1023.881; 5842.950;  206.125;    0.000
1024.039; 5843.950;  240.125;    0.000
1024.197; 5327.950;  275.125;    0.000
1024.355; 4923.950;  228.125;    0.000
1024.513; 5366.950;  234.125;    0.000
1024.671; 6002.950;  222.125;    0.000
1024.829; 6054.950;  241.125;    0.000
1024.987; 5418.950;  209.125;    0.000
1025.145; 5086.950;  227.125;    0.000
1025.302; 5226.950;  208.125;    0.000
1025.460; 5744.950;  210.125;    0.000
1025.618; 6032.950;  192.125;    0.000
1025.776; 5760.950;  220.125;    0.000
1025.933; 5106.950;  223.125;    0.000
1026.091; 5178.950;  189.125;    0.000
1026.249; 5755.950;  210.125;    0.000
1026.406; 6253.950;  231.125;    0.000
1026.564; 6023.950;  247.125;    0.000
1026.721; 5542.950;  213.125;    0.000
1026.879; 5192.950;  208.125;    0.000
1027.036; 5614.950;  222.125;    0.000
1027.194; 6059.950;  253.125;    0.000
1027.351; 6374.950;  239.125;    0.000
1027.509; 6018.950;  232.125;    0.000
1027.666; 5409.950;  251.125;    0.000
1027.823; 5740.950;  212.125;    0.000
1027.981; 6020.950;  260.125;    0.000
1028.138; 6320.950;  263.125;    0.000
1028.295; 6240.950;  251.125;    0.000
1028.452; 5917.950;  249.125;    0.000
1028.609; 5645.950;  259.125;    0.000
1028.767; 5781.950;  255.125;    0.000
1028.924; 6187.950;  201.125;    0.000
1029.081; 6263.950;  217.125;    0.000
1029.238; 6415.950;  230.125;    0.000
1029.395; 5935.950;  263.125;    0.000
1029.552; 6047.950;  207.125;    0.000
1029.709; 6302.950;  220.125;    0.000
1029.866; 6286.950;  214.125;    0.000
1030.023; 6176.950;  224.125;    0.000
1030.180; 5964.950;  209.125;    0.000
1030.337; 6172.950;  269.125;    0.000
1030.494; 6324.950;  207.125;    0.000
1030.650; 6332.950;  230.125;    0.000
1030.807; 6451.950;  217.125;    0.000
1030.964; 6081.950;  212.125;    0.000
1031.121; 6219.950;  220.125;    0.000
1031.277; 6227.950;  233.125;    0.000
1031.434; 6359.950;  266.125;    0.000
1031.591; 6764.950;  270.125;    0.000
1031.747; 6525.950;  229.125;    0.000
1031.904; 6456.950;  227.125;    0.000
1032.060; 6232.950;  210.125;    0.000
1032.217; 6348.950;  218.125;    0.000
1032.373; 7063.950;  190.125;    0.000
1032.530; 7107.950;  236.125;    0.000
1032.686; 7639.950;  199.125;    0.000
1032.843; 7385.950;  216.125;    0.000
1032.999; 6945.950;  204.125;    0.000
1033.155; 7496.950;  208.125;    0.000
1033.312; 7624.950;  231.125;    0.000
1033.468; 8926.950;  213.125;    0.000
1033.624; 9151.950;  235.125;    0.000
1033.780; 9463.950;  233.125;    0.000
1033.937; 9273.950;  201.125;    0.000
1034.093; 8445.950;  233.125;    0.000
1034.249; 9126.950;  214.125;    0.000
1034.405; 9200.950;  245.125;    0.000
1034.561; 9878.950;  228.125;    0.000
1034.717;10185.950;  234.125;    0.000
1034.873;10039.950;  248.125;    0.000
1035.029; 9990.950;  220.125;    0.000
1035.185; 9539.950;  294.125;    0.000
1035.341; 9438.950;  231.125;    0.000
1035.497;10597.950;  254.125;    0.000
1035.653;10724.950;  225.125;    0.000
1035.809;11406.950;  243.125;    0.000
1035.964;12118.950;  216.125;    0.000
1036.120;10942.950;  199.125;    0.000
1036.276;10951.950;  220.125;    0.000
1036.432;10815.950;  210.125;    0.000
1036.587;10266.950;  225.125;    0.000
1036.743;11564.950;  245.125;    0.000
1036.899;12150.950;  219.125;    0.000
1037.054;12810.950;  157.125;    0.000
1037.210;13910.950;  208.125;    0.000
1037.365;13846.950;  230.125;    0.000
1037.521;12575.950;  236.125;    0.000
1037.676;12708.950;  193.125;    0.000
1037.832;11472.950;  246.125;    0.000
1037.987;11970.950;  231.125;    0.000
1038.143;12054.950;  234.125;    0.000
1038.298;14162.950;  219.125;    0.000
1038.453;13701.950;  230.125;    0.000
1038.609;14615.950;  254.125;    0.000
1038.764;15120.950;  249.125;    0.000
1038.919;13078.950;  224.125;    0.000
1039.074;13694.950;  209.125;    0.000
1039.229;12565.950;  214.125;    0.000
1039.385;12802.950;  268.125;    0.000
1039.540;13263.950;  268.125;    0.000
1039.695;14092.950;  229.125;    0.000
1039.850;15824.950;  252.125;    0.000
1040.005;16621.949;  248.125;    0.000
1040.160;17578.949;  215.125;    0.000
1040.315;17396.949;  239.125;    0.000
1040.470;16045.950;  210.125;    0.000
1040.625;15595.950;  239.125;    0.000
1040.780;14825.950;  251.125;    0.000
1040.935;14960.950;  247.125;    0.000
1041.089;15787.950;  215.125;    0.000
1041.244;18203.949;  210.125;    0.000
1041.399;19080.949;  237.125;    0.000
1041.554;19883.949;  253.125;    0.000
1041.708;22315.949;  227.125;    0.000
1041.863;22750.949;  219.125;    0.000
1042.018;20304.949;  246.125;    0.000
1042.172;19819.949;  236.125;    0.000
1042.327;18774.949;  272.125;    0.000
1042.481;19064.949;  197.125;    0.000
1042.636;19580.949;  213.125;    0.000
1042.791;19813.949;  250.125;    0.000
1042.945;22996.949;  267.125;    0.000
1043.099;25548.949;  257.125;    0.000
1043.254;24639.949;  206.125;    0.000
1043.408;25475.949;  266.125;    0.000
1043.563;27251.949;  232.125;    0.000
1043.717;26145.949;  241.125;    0.000
1043.871;23901.949;  248.125;    0.000
1044.025;23036.949;  234.125;    0.000
1044.180;22908.949;  222.125;    0.000
1044.334;22780.949;  235.125;    0.000
1044.488;24197.949;  270.125;    0.000
1044.642;25115.949;  215.125;    0.000
1044.796;27565.949;  212.125;    0.000
1044.950;32285.949;  228.125;    0.000
1045.104;34717.949;  223.125;    0.000
1045.258;34243.949;  236.125;    0.000
1045.412;33210.949;  225.125;    0.000
1045.566;32221.949;  245.125;    0.000
1045.720;31265.949;  201.125;    0.000
1045.874;29185.949;  229.125;    0.000
1046.028;27474.949;  243.125;    0.000
1046.182;27174.949;  212.125;    0.000
1046.336;28477.949;  256.125;    0.000
1046.489;29437.949;  234.125;    0.000
1046.643;31123.949;  246.125;    0.000
1046.797;32754.949;  219.125;    0.000
1046.951;32734.949;  231.125;    0.000
1047.104;34767.949;  285.125;    0.000
1047.258;37095.949;  256.125;    0.000
1047.411;38470.949;  232.125;    0.000
1047.565;36596.949;  269.125;    0.000
1047.719;36764.949;  213.125;    0.000
1047.872;35864.949;  210.125;    0.000
1048.026;33598.949;  251.125;    0.000
1048.179;33024.949;  213.125;    0.000
1048.332;33361.949;  212.125;    0.000
1048.486;32283.949;  218.125;    0.000
1048.639;33647.949;  218.125;    0.000
1048.792;33630.949;  247.125;    0.000
1048.946;37029.949;  208.125;    0.000
1049.099;40231.949;  247.125;    0.000
1049.252;39934.949;  274.125;    0.000
1049.406;38090.949;  232.125;    0.000
1049.559;40438.949;  251.125;    0.000
1049.712;44441.949;  243.125;    0.000
1049.865;48070.949;  219.125;    0.000
1050.018;46560.949;  216.125;    0.000
1050.171;40134.949;  237.125;    0.000
1050.324;40114.949;  291.125;    0.000
1050.477;42193.949;  241.125;    0.000
1050.630;45656.949;  245.125;    0.000
1050.783;48457.949;  213.125;    0.000
1050.936;45546.949;  246.125;    0.000
1051.089;41302.949;  255.125;    0.000
1051.242;40871.949;  228.125;    0.000
1051.394;47943.949;  276.125;    0.000
1051.547;50941.949;  246.125;    0.000
1051.700;47256.949;  252.125;    0.000
1051.853;44256.949;  267.125;    0.000
1052.005;46586.949;  261.125;    0.000
1052.158;51474.949;  313.125;    0.000
1052.311;55931.949;  264.125;    0.000
1052.463;54025.949;  271.125;    0.000
1052.616;48757.949;  291.125;    0.000
1052.768;43878.949;  298.125;    0.000
1052.921;42492.949;  262.125;    0.000
1053.073;46486.949;  307.125;    0.000
1053.226;52993.949;  301.125;    0.000
1053.378;60051.949;  309.125;    0.000
1053.531;63414.949;  280.125;    0.000
1053.683;59813.949;  258.125;    0.000
1053.835;51500.949;  267.125;    0.000
1053.988;39515.949;  294.125;    0.000
1054.140; 6994.950;  292.125;    0.000
1054.292; 1778.950;  249.125;    0.000
1054.444; 1307.950;  288.125;    0.000
1054.596; 1155.950;  275.125;    0.000
1054.749; 1112.950;  284.125;    0.000
1054.901; 1010.950;  291.125;    0.000
1055.053;  954.950;  274.125;    0.000
1055.205;  902.950;  313.125;    0.000
1055.357;  882.950;  309.125;    0.000
1055.509;  823.950;  283.125;    0.000
1055.661;  830.950;  341.125;    0.000
1055.813;  774.950;  288.125;    0.000
1055.965;  834.950;  300.125;    0.000
1056.116;  776.950;  296.125;    0.000
1056.268;  756.950;  319.125;    0.000
1056.420;  742.950;  298.125;    0.000

