
Integration time [ms]:   1.000
Averaging Nr. [scans]: 1
Smoothing Nr. [pixels]: 0
Data measured with spectrometer [name]: UV2
Wave   ;Sample   ;Dark     ;Reference
[nm]   ;[counts] ;[counts] ;[counts] 

353.533;  223.125;  216.475;    0.000
353.597;  248.125;  244.475;    0.000
353.660;  180.125;  181.475;    0.000
353.723;  186.125;  203.475;    0.000
353.786;  178.125;  180.475;    0.000
353.850;  188.125;  213.475;    0.000
353.913;  188.125;  191.475;    0.000
353.976;  196.125;  195.475;    0.000
354.039;  215.125;  158.475;    0.000
354.102;  189.125;  199.475;    0.000
354.166;  242.125;  185.475;    0.000
354.229;  204.125;  188.475;    0.000
354.292;  190.125;  188.475;    0.000
354.355;  216.125;  226.475;    0.000
354.418;  151.125;  158.475;    0.000
354.481;  189.125;  185.475;    0.000
354.545;  586.125;  191.475;    0.000
354.608;  621.125;  247.475;    0.000
354.671;  626.125;  176.475;    0.000
354.734;  662.125;  198.475;    0.000
354.797;  653.125;  195.475;    0.000
354.860;  683.125;  212.475;    0.000
354.923;  627.125;  184.475;    0.000
354.986;  631.125;  169.475;    0.000
355.050;  631.125;  206.475;    0.000
355.113;  685.125;  210.475;    0.000
355.176;  698.125;  217.475;    0.000
355.239;  660.125;  201.475;    0.000
355.302;  742.125;  193.475;    0.000
355.365;  726.125;  234.475;    0.000
355.428;  771.125;  182.475;    0.000
355.491;  753.125;  233.475;    0.000
355.554;  774.125;  167.475;    0.000
355.617;  779.125;  195.475;    0.000
355.680;  751.125;  198.475;    0.000
355.743;  746.125;  186.475;    0.000
355.806;  787.125;  171.475;    0.000
355.869;  775.125;  244.475;    0.000
355.932;  838.125;  164.475;    0.000
355.995;  818.125;  220.475;    0.000
356.058;  767.125;  172.475;    0.000
356.121;  816.125;  228.475;    0.000
356.184;  856.125;  225.475;    0.000
356.247;  765.125;  161.475;    0.000
356.310;  705.125;  195.475;    0.000
356.373;  842.125;  191.475;    0.000
356.436;  828.125;  147.475;    0.000
356.498;  862.125;  183.475;    0.000
356.561;  865.125;  137.475;    0.000
356.624;  823.125;  186.475;    0.000
356.687;  855.125;  158.475;    0.000
356.750;  900.125;  194.475;    0.000
356.813;  831.125;  186.475;    0.000
356.876;  847.125;  161.475;    0.000
356.939;  836.125;  188.475;    0.000
357.001;  856.125;  200.475;    0.000
357.064;  842.125;  182.475;    0.000
357.127;  848.125;  168.475;    0.000
357.190;  788.125;  157.475;    0.000
357.253;  804.125;  199.475;    0.000
357.316;  852.125;  187.475;    0.000
357.378;  865.125;  174.475;    0.000
357.441;  852.125;  165.475;    0.000
357.504;  858.125;  189.475;    0.000
357.567;  778.125;  116.475;    0.000
357.629;  870.125;  176.475;    0.000
357.692;  849.125;  134.475;    0.000
357.755;  830.125;  175.475;    0.000
357.818;  877.125;  159.475;    0.000
357.880;  867.125;  185.475;    0.000
357.943;  843.125;  159.475;    0.000
358.006;  875.125;  176.475;    0.000
358.069;  853.125;  156.475;    0.000
358.131;  869.125;  170.475;    0.000
358.194;  824.125;  125.475;    0.000
358.257;  892.125;  186.475;    0.000
358.319;  852.125;  139.475;    0.000
358.382;  907.125;  175.475;    0.000
358.445;  913.125;  170.475;    0.000
358.507;  864.125;  129.475;    0.000
358.570;  884.125;  168.475;    0.000
358.633;  834.125;  152.475;    0.000
358.695;  912.125;  194.475;    0.000
358.758;  885.125;  154.475;    0.000
358.821;  896.125;  147.475;    0.000
358.883;  842.125;  163.475;    0.000
358.946;  927.125;  155.475;    0.000
359.008;  922.125;  208.475;    0.000
359.071;  907.125;  182.475;    0.000
359.134;  884.125;  126.475;    0.000
359.196;  867.125;  142.475;    0.000
359.259;  846.125;  138.475;    0.000
359.321;  921.125;  153.475;    0.000
359.384;  930.125;  186.475;    0.000
359.446;  902.125;  152.475;    0.000
359.509;  930.125;  144.475;    0.000
359.571;  919.125;  164.475;    0.000
359.634;  901.125;  171.475;    0.000
359.696;  917.125;  144.475;    0.000
359.759;  971.125;  171.475;    0.000
359.821;  889.125;  161.475;    0.000
359.884;  920.125;  159.475;    0.000
359.946;  955.125;  186.475;    0.000
360.009;  955.125;  171.475;    0.000
360.071;  888.125;  166.475;    0.000
360.134;  937.125;  215.475;    0.000
360.196;  950.125;  138.475;    0.000
360.259;  974.125;  196.475;    0.000
360.321;  894.125;  148.475;    0.000
360.384;  942.125;  150.475;    0.000
360.446; 1001.125;  148.475;    0.000
360.508; 1011.125;  172.475;    0.000
360.571; 1001.125;  155.475;    0.000
360.633;  965.125;  153.475;    0.000
360.696;  985.125;  142.475;    0.000
360.758;  997.125;  165.475;    0.000
360.820;  940.125;  155.475;    0.000
360.883;  903.125;  156.475;    0.000
360.945;  957.125;  171.475;    0.000
361.007;  951.125;  138.475;    0.000
361.070;  987.125;  129.475;    0.000
361.132;  956.125;  166.475;    0.000
361.194; 1008.125;  143.475;    0.000
361.257;  937.125;  154.475;    0.000
361.319;  996.125;  176.475;    0.000
361.381;  970.125;  143.475;    0.000
361.443;  932.125;  136.475;    0.000
361.506;  986.125;  160.475;    0.000
361.568; 1017.125;  140.475;    0.000
361.630; 1030.125;  159.475;    0.000
361.693;  979.125;  162.475;    0.000
361.755;  984.125;  185.475;    0.000
361.817; 1059.125;  209.475;    0.000
361.879; 1045.125;  161.475;    0.000
361.941;  947.125;  152.475;    0.000
362.004; 1060.125;  132.475;    0.000
362.066; 1042.125;  159.475;    0.000
362.128; 1088.125;  143.475;    0.000
362.190; 1061.125;  131.475;    0.000
362.252; 1014.125;  131.475;    0.000
362.315;  948.125;  175.475;    0.000
362.377; 1031.125;  140.475;    0.000
362.439; 1004.125;  140.475;    0.000
362.501; 1037.125;  140.475;    0.000
362.563; 1015.125;  152.475;    0.000
362.625; 1030.125;  174.475;    0.000
362.688; 1120.125;  195.475;    0.000
362.750; 1026.125;  221.475;    0.000
362.812; 1065.125;  171.475;    0.000
362.874; 1078.125;  117.475;    0.000
362.936; 1083.125;  162.475;    0.000
362.998; 1066.125;  142.475;    0.000
363.060; 1053.125;  143.475;    0.000
363.122; 1061.125;  148.475;    0.000
363.184; 1049.125;  179.475;    0.000
363.246; 1062.125;  186.475;    0.000
363.308; 1047.125;  180.475;    0.000
363.370; 1023.125;  200.475;    0.000
363.432; 1047.125;  139.475;    0.000
363.494; 1051.125;  138.475;    0.000
363.556;  993.125;  114.475;    0.000
363.618; 1000.125;  153.475;    0.000
363.680; 1016.125;  153.475;    0.000
363.742; 1090.125;  178.475;    0.000
363.804; 1078.125;  214.475;    0.000
363.866; 1061.125;  170.475;    0.000
363.928; 1032.125;  145.475;    0.000
363.990; 1146.125;  215.475;    0.000
364.052; 1069.125;  166.475;    0.000
364.114; 1037.125;  168.475;    0.000
364.176; 1079.125;  176.475;    0.000
364.238; 1074.125;  203.475;    0.000
364.300; 1077.125;  158.475;    0.000
364.362; 1083.125;  152.475;    0.000
364.424; 1063.125;  119.475;    0.000
364.486; 1050.125;  187.475;    0.000
364.548; 1067.125;  180.475;    0.000
364.609; 1143.125;  212.475;    0.000
364.671; 1094.125;  165.475;    0.000
364.733; 1058.125;  190.475;    0.000
364.795; 1053.125;  148.475;    0.000
364.857; 1072.125;  159.475;    0.000
364.919; 1066.125;  159.475;    0.000
364.981; 1035.125;  191.475;    0.000
365.042; 1111.125;  170.475;    0.000
365.104; 1091.125;  145.475;    0.000
365.166; 1066.125;  134.475;    0.000
365.228; 1065.125;  150.475;    0.000
365.290; 1106.125;  158.475;    0.000
365.351; 1096.125;  168.475;    0.000
365.413; 1008.125;  173.475;    0.000
365.475; 1077.125;  172.475;    0.000
365.537; 1093.125;  126.475;    0.000
365.598; 1099.125;  160.475;    0.000
365.660; 1080.125;  127.475;    0.000
365.722; 1156.125;  189.475;    0.000
365.784; 1109.125;  161.475;    0.000
365.845; 1079.125;  152.475;    0.000
365.907; 1044.125;  117.475;    0.000
365.969; 1068.125;  146.475;    0.000
366.030; 1096.125;  171.475;    0.000
366.092; 1133.125;  155.475;    0.000
366.154; 1170.125;  137.475;    0.000
366.215; 1070.125;  147.475;    0.000
366.277; 1040.125;  148.475;    0.000
366.339; 1158.125;  158.475;    0.000
366.400; 1063.125;  140.475;    0.000
366.462; 1093.125;  159.475;    0.000
366.524; 1137.125;  160.475;    0.000
366.585; 1090.125;  157.475;    0.000
366.647; 1089.125;  170.475;    0.000
366.708; 1078.125;  123.475;    0.000
366.770; 1141.125;  194.475;    0.000
366.832; 1123.125;  191.475;    0.000
366.893; 1157.125;  155.475;    0.000
366.955; 1051.125;  132.475;    0.000
367.016; 1121.125;  126.475;    0.000
367.078; 1113.125;  202.475;    0.000
367.139; 1098.125;  116.475;    0.000
367.201; 1103.125;  134.475;    0.000
367.262; 1096.125;  157.475;    0.000
367.324; 1141.125;  202.475;    0.000
367.385; 1079.125;  118.475;    0.000
367.447; 1109.125;  155.475;    0.000
367.508; 1170.125;  134.475;    0.000
367.570; 1178.125;  165.475;    0.000
367.631; 1089.125;  118.475;    0.000
367.693; 1128.125;  170.475;    0.000
367.754; 1157.125;  154.475;    0.000
367.816; 1125.125;  146.475;    0.000
367.877; 1147.125;  175.475;    0.000
367.939; 1193.125;  200.475;    0.000
368.000; 1208.125;  168.475;    0.000
368.062; 1115.125;  138.475;    0.000
368.123; 1119.125;  170.475;    0.000
368.184; 1138.125;  188.475;    0.000
368.246; 1135.125;  145.475;    0.000
368.307; 1154.125;  163.475;    0.000
368.369; 1130.125;  144.475;    0.000
368.430; 1100.125;  140.475;    0.000
368.491; 1113.125;  133.475;    0.000
368.553; 1170.125;  145.475;    0.000
368.614; 1141.125;  158.475;    0.000
368.675; 1091.125;  147.475;    0.000
368.737; 1164.125;  157.475;    0.000
368.798; 1097.125;  163.475;    0.000
368.859; 1187.125;  173.475;    0.000
368.921; 1157.125;  122.475;    0.000
368.982; 1184.125;  184.475;    0.000
369.043; 1186.125;  169.475;    0.000
369.104; 1151.125;  142.475;    0.000
369.166; 1204.125;  169.475;    0.000
369.227; 1219.125;  156.475;    0.000
369.288; 1124.125;  151.475;    0.000
369.349; 1137.125;  191.475;    0.000
369.411; 1152.125;  168.475;    0.000
369.472; 1178.125;  155.475;    0.000
369.533; 1226.125;  149.475;    0.000
369.594; 1152.125;  174.475;    0.000
369.656; 1149.125;  188.475;    0.000
369.717; 1120.125;  113.475;    0.000
369.778; 1199.125;  184.475;    0.000
369.839; 1243.125;  151.475;    0.000
369.900; 1200.125;  180.475;    0.000
369.961; 1089.125;  171.475;    0.000
370.023; 1202.125;  143.475;    0.000
370.084; 1162.125;  137.475;    0.000
370.145; 1184.125;  152.475;    0.000
370.206; 1208.125;  151.475;    0.000
370.267; 1193.125;  134.475;    0.000
370.328; 1193.125;  178.475;    0.000
370.389; 1233.125;  181.475;    0.000
370.451; 1198.125;  169.475;    0.000
370.512; 1172.125;  172.475;    0.000
370.573; 1213.125;  148.475;    0.000
370.634; 1203.125;  156.475;    0.000
370.695; 1177.125;  151.475;    0.000
370.756; 1199.125;  185.475;    0.000
370.817; 1154.125;  185.475;    0.000
370.878; 1199.125;  191.475;    0.000
370.939; 1212.125;  147.475;    0.000
371.000; 1251.125;  162.475;    0.000
371.061; 1186.125;  145.475;    0.000
371.122; 1135.125;  179.475;    0.000
371.183; 1170.125;  114.475;    0.000
371.244; 1188.125;  180.475;    0.000
371.305; 1142.125;  138.475;    0.000
371.366; 1181.125;  157.475;    0.000
371.427; 1226.125;  148.475;    0.000
371.488; 1277.125;  138.475;    0.000
371.549; 1234.125;  193.475;    0.000
371.610; 1207.125;  158.475;    0.000
371.671; 1181.125;  119.475;    0.000
371.732; 1185.125;  159.475;    0.000
371.793; 1247.125;  178.475;    0.000
371.853; 1193.125;  155.475;    0.000
371.914; 1220.125;  148.475;    0.000
371.975; 1237.125;  124.475;    0.000
372.036; 1173.125;  158.475;    0.000
372.097; 1166.125;  136.475;    0.000
372.158; 1229.125;  116.475;    0.000
372.219; 1238.125;  157.475;    0.000
372.280; 1243.125;  151.475;    0.000
372.340; 1249.125;  190.475;    0.000
372.401; 1209.125;  151.475;    0.000
372.462; 1215.125;  129.475;    0.000
372.523; 1261.125;  121.475;    0.000
372.584; 1210.125;  152.475;    0.000
372.645; 1201.125;  132.475;    0.000
372.705; 1291.125;  190.475;    0.000
372.766; 1258.125;  153.475;    0.000
372.827; 1203.125;  133.475;    0.000
372.888; 1235.125;  161.475;    0.000
372.948; 1285.125;  159.475;    0.000
373.009; 1284.125;  164.475;    0.000
373.070; 1283.125;  139.475;    0.000
373.131; 1232.125;  137.475;    0.000
373.191; 1316.125;  181.475;    0.000
373.252; 1217.125;  154.475;    0.000
373.313; 1222.125;  179.475;    0.000
373.373; 1272.125;  136.475;    0.000
373.434; 1314.125;  169.475;    0.000
373.495; 1276.125;   97.475;    0.000
373.555; 1347.125;  142.475;    0.000
373.616; 1253.125;  178.475;    0.000
373.677; 1244.125;  167.475;    0.000
373.737; 1223.125;  139.475;    0.000
373.798; 1268.125;  155.475;    0.000
373.859; 1188.125;  162.475;    0.000
373.919; 1247.125;  174.475;    0.000
373.980; 1258.125;  172.475;    0.000
374.041; 1254.125;  166.475;    0.000
374.101; 1240.125;  172.475;    0.000
374.162; 1298.125;  188.475;    0.000
374.222; 1248.125;  186.475;    0.000
374.283; 1287.125;  195.475;    0.000
374.343; 1267.125;  204.475;    0.000
374.404; 1312.125;  187.475;    0.000
374.465; 1321.125;  183.475;    0.000
374.525; 1292.125;  136.475;    0.000
374.586; 1262.125;  140.475;    0.000
374.646; 1402.125;  191.475;    0.000
374.707; 1392.125;  208.475;    0.000
374.767; 1287.125;  178.475;    0.000
374.828; 1314.125;  159.475;    0.000
374.888; 1355.125;  143.475;    0.000
374.949; 1339.125;  202.475;    0.000
375.009; 1324.125;  151.475;    0.000
375.070; 1356.125;  160.475;    0.000
375.130; 1305.125;  160.475;    0.000
375.190; 1296.125;  164.475;    0.000
375.251; 1380.125;  196.475;    0.000
375.311; 1378.125;  154.475;    0.000
375.372; 1338.125;  197.475;    0.000
375.432; 1391.125;  159.475;    0.000
375.493; 1308.125;  197.475;    0.000
375.553; 1270.125;  165.475;    0.000
375.613; 1271.125;  174.475;    0.000
375.674; 1333.125;  165.475;    0.000
375.734; 1328.125;  128.475;    0.000
375.794; 1322.125;  169.475;    0.000
375.855; 1319.125;  193.475;    0.000
375.915; 1318.125;  162.475;    0.000
375.975; 1239.125;  181.475;    0.000
376.036; 1268.125;  161.475;    0.000
376.096; 1301.125;  131.475;    0.000
376.156; 1288.125;  165.475;    0.000
376.217; 1311.125;  182.475;    0.000
376.277; 1312.125;  185.475;    0.000
376.337; 1326.125;  177.475;    0.000
376.398; 1283.125;  162.475;    0.000
376.458; 1374.125;  179.475;    0.000
376.518; 1328.125;  150.475;    0.000
376.578; 1308.125;  165.475;    0.000
376.639; 1347.125;  159.475;    0.000
376.699; 1322.125;  180.475;    0.000
376.759; 1367.125;  206.475;    0.000
376.819; 1314.125;  146.475;    0.000
376.880; 1368.125;  177.475;    0.000
376.940; 1396.125;  160.475;    0.000
377.000; 1361.125;  149.475;    0.000
377.060; 1354.125;  180.475;    0.000
377.120; 1345.125;  146.475;    0.000
377.180; 1338.125;  137.475;    0.000
377.241; 1346.125;  163.475;    0.000
377.301; 1413.125;  169.475;    0.000
377.361; 1331.125;  137.475;    0.000
377.421; 1387.125;  184.475;    0.000
377.481; 1315.125;  185.475;    0.000
377.541; 1343.125;  146.475;    0.000
377.601; 1321.125;  179.475;    0.000
377.661; 1326.125;  181.475;    0.000
377.722; 1432.125;  185.475;    0.000
377.782; 1414.125;  147.475;    0.000
377.842; 1366.125;  190.475;    0.000
377.902; 1355.125;  166.475;    0.000
377.962; 1349.125;  153.475;    0.000
378.022; 1422.125;  163.475;    0.000
378.082; 1375.125;  146.475;    0.000
378.142; 1417.125;  152.475;    0.000
378.202; 1426.125;  164.475;    0.000
378.262; 1367.125;  195.475;    0.000
378.322; 1307.125;  190.475;    0.000
378.382; 1366.125;  152.475;    0.000
378.442; 1377.125;  175.475;    0.000
378.502; 1363.125;  153.475;    0.000
378.562; 1308.125;  142.475;    0.000
378.622; 1392.125;  166.475;    0.000
378.682; 1429.125;  173.475;    0.000
378.742; 1357.125;  182.475;    0.000
378.802; 1386.125;  145.475;    0.000
378.862; 1428.125;  210.475;    0.000
378.921; 1466.125;  182.475;    0.000
378.981; 1461.125;  185.475;    0.000
379.041; 1423.125;  130.475;    0.000
379.101; 1415.125;  177.475;    0.000
379.161; 1488.125;  166.475;    0.000
379.221; 1443.125;  162.475;    0.000
379.281; 1499.125;  167.475;    0.000
379.341; 1528.125;  136.475;    0.000
379.401; 1432.125;  145.475;    0.000
379.460; 1476.125;  176.475;    0.000
379.520; 1476.125;  162.475;    0.000
379.580; 1412.125;  144.475;    0.000
379.640; 1458.125;  163.475;    0.000
379.700; 1456.125;  157.475;    0.000
379.759; 1530.125;  165.475;    0.000
379.819; 1540.125;  190.475;    0.000
379.879; 1474.125;  143.475;    0.000
379.939; 1517.125;  188.475;    0.000
379.999; 1518.125;  141.475;    0.000
380.058; 1521.125;  169.475;    0.000
380.118; 1566.125;  158.475;    0.000
380.178; 1525.125;  114.475;    0.000
380.237; 1547.125;  157.475;    0.000
380.297; 1495.125;  177.475;    0.000
380.357; 1587.125;  189.475;    0.000
380.417; 1545.125;  182.475;    0.000
380.476; 1525.125;  178.475;    0.000
380.536; 1592.125;  189.475;    0.000
380.596; 1532.125;  183.475;    0.000
380.655; 1552.125;  195.475;    0.000
380.715; 1479.125;  170.475;    0.000
380.775; 1599.125;  170.475;    0.000
380.834; 1532.125;  179.475;    0.000
380.894; 1556.125;  188.475;    0.000
380.954; 1582.125;  142.475;    0.000
381.013; 1616.125;  178.475;    0.000
381.073; 1542.125;  164.475;    0.000
381.132; 1542.125;  192.475;    0.000
381.192; 1598.125;  187.475;    0.000
381.252; 1643.125;  176.475;    0.000
381.311; 1642.125;  206.475;    0.000
381.371; 1643.125;  167.475;    0.000
381.430; 1583.125;  131.475;    0.000
381.490; 1583.125;  150.475;    0.000
381.549; 1578.125;  129.475;    0.000
381.609; 1661.125;  178.475;    0.000
381.668; 1674.125;  194.475;    0.000
381.728; 1690.125;  210.475;    0.000
381.787; 1726.125;  190.475;    0.000
381.847; 1651.125;  181.475;    0.000
381.906; 1725.125;  156.475;    0.000
381.966; 1701.125;  176.475;    0.000
382.025; 1783.125;  186.475;    0.000
382.085; 1771.125;  192.475;    0.000
382.144; 1764.125;  173.475;    0.000
382.204; 1827.125;  207.475;    0.000
382.263; 1797.125;  193.475;    0.000
382.323; 1840.125;  164.475;    0.000
382.382; 1862.125;  161.475;    0.000
382.441; 1852.125;  199.475;    0.000
382.501; 1934.125;  208.475;    0.000
382.560; 2041.125;  173.475;    0.000
382.619; 2028.125;  179.475;    0.000
382.679; 2041.125;  177.475;    0.000
382.738; 2100.125;  190.475;    0.000
382.798; 2233.125;  213.475;    0.000
382.857; 2437.125;  195.475;    0.000
382.916; 2582.125;  184.475;    0.000
382.976; 2653.125;  169.475;    0.000
383.035; 2548.125;  194.475;    0.000
383.094; 2571.125;  185.475;    0.000
383.154; 2809.125;  198.475;    0.000
383.213; 3123.125;  147.475;    0.000
383.272; 3151.125;  175.475;    0.000
383.331; 2604.125;  122.475;    0.000
383.391; 2534.125;  185.475;    0.000
383.450; 2517.125;  160.475;    0.000
383.509; 2412.125;  168.475;    0.000
383.568; 2506.125;  196.475;    0.000
383.628; 2596.125;  156.475;    0.000
383.687; 2781.125;  171.475;    0.000
383.746; 3077.125;  155.475;    0.000
383.805; 3414.125;  201.475;    0.000
383.864; 3363.125;  125.475;    0.000
383.924; 2840.125;  213.475;    0.000
383.983; 2415.125;  188.475;    0.000
384.042; 2301.125;  162.475;    0.000
384.101; 2233.125;  183.475;    0.000
384.160; 2120.125;  155.475;    0.000
384.219; 2030.125;  155.475;    0.000
384.279; 2124.125;  189.475;    0.000
384.338; 1945.125;  156.475;    0.000
384.397; 1921.125;  148.475;    0.000
384.456; 1892.125;  154.475;    0.000
384.515; 1899.125;  160.475;    0.000
384.574; 1836.125;  223.475;    0.000
384.633; 1817.125;  133.475;    0.000
384.692; 1881.125;  163.475;    0.000
384.751; 1834.125;  186.475;    0.000
384.810; 1888.125;  187.475;    0.000
384.869; 1792.125;  172.475;    0.000
384.929; 1817.125;  153.475;    0.000
384.988; 1825.125;  174.475;    0.000
385.047; 1839.125;  154.475;    0.000
385.106; 1742.125;  164.475;    0.000
385.165; 1730.125;  151.475;    0.000
385.224; 1793.125;  147.475;    0.000
385.283; 1793.125;  176.475;    0.000
385.342; 1726.125;  142.475;    0.000
385.401; 1777.125;  175.475;    0.000
385.459; 1851.125;  150.475;    0.000
385.518; 1759.125;  124.475;    0.000
385.577; 1713.125;  115.475;    0.000
385.636; 1801.125;  174.475;    0.000
385.695; 1751.125;  158.475;    0.000
385.754; 1780.125;  150.475;    0.000
385.813; 1730.125;  129.475;    0.000
385.872; 1761.125;  146.475;    0.000
385.931; 1849.125;  194.475;    0.000
385.990; 1770.125;  174.475;    0.000
386.049; 1806.125;  176.475;    0.000
386.107; 1821.125;  151.475;    0.000
386.166; 1701.125;  178.475;    0.000
386.225; 1783.125;  162.475;    0.000
386.284; 1729.125;  180.475;    0.000
386.343; 1843.125;  171.475;    0.000
386.402; 1739.125;  176.475;    0.000
386.460; 1739.125;  144.475;    0.000
386.519; 1794.125;  140.475;    0.000
386.578; 1775.125;  145.475;    0.000
386.637; 1812.125;  164.475;    0.000
386.696; 1812.125;  189.475;    0.000
386.754; 1718.125;  135.475;    0.000
386.813; 1769.125;  139.475;    0.000
386.872; 1740.125;  121.475;    0.000
386.931; 1730.125;  153.475;    0.000
386.989; 1708.125;  211.475;    0.000
387.048; 1813.125;  156.475;    0.000
387.107; 1831.125;  210.475;    0.000
387.165; 1782.125;  129.475;    0.000
387.224; 1793.125;  205.475;    0.000
387.283; 1732.125;  130.475;    0.000
387.342; 1771.125;  171.475;    0.000
387.400; 1772.125;  156.475;    0.000
387.459; 1747.125;  141.475;    0.000
387.517; 1757.125;  219.475;    0.000
387.576; 1796.125;  166.475;    0.000
387.635; 1730.125;  136.475;    0.000
387.693; 1812.125;  191.475;    0.000
387.752; 1762.125;  165.475;    0.000
387.811; 1757.125;  158.475;    0.000
387.869; 1744.125;  204.475;    0.000
387.928; 1731.125;  149.475;    0.000
387.986; 1734.125;  156.475;    0.000
388.045; 1753.125;  123.475;    0.000
388.103; 1697.125;  150.475;    0.000
388.162; 1776.125;  173.475;    0.000
388.221; 1636.125;  143.475;    0.000
388.279; 1709.125;  129.475;    0.000
388.338; 1749.125;  212.475;    0.000
388.396; 1705.125;  150.475;    0.000
388.455; 1758.125;  167.475;    0.000
388.513; 1700.125;  116.475;    0.000
388.572; 1791.125;  181.475;    0.000
388.630; 1745.125;  187.475;    0.000
388.689; 1709.125;  180.475;    0.000
388.747; 1731.125;  154.475;    0.000
388.806; 1738.125;  161.475;    0.000
388.864; 1740.125;  167.475;    0.000
388.922; 1725.125;  184.475;    0.000
388.981; 1725.125;  169.475;    0.000
389.039; 1710.125;  102.475;    0.000
389.098; 1723.125;  183.475;    0.000
389.156; 1708.125;  182.475;    0.000
389.214; 1737.125;  173.475;    0.000
389.273; 1667.125;  167.475;    0.000
389.331; 1801.125;  170.475;    0.000
389.390; 1786.125;  150.475;    0.000
389.448; 1694.125;  156.475;    0.000
389.506; 1789.125;  149.475;    0.000
389.565; 1756.125;  162.475;    0.000
389.623; 1761.125;  188.475;    0.000
389.681; 1797.125;  204.475;    0.000
389.740; 1731.125;  187.475;    0.000
389.798; 1689.125;  153.475;    0.000
389.856; 1738.125;  214.475;    0.000
389.914; 1775.125;  177.475;    0.000
389.973; 1753.125;  189.475;    0.000
390.031; 1824.125;  178.475;    0.000
390.089; 1739.125;  163.475;    0.000
390.147; 1745.125;  170.475;    0.000
390.206; 1802.125;  183.475;    0.000
390.264; 1683.125;  161.475;    0.000
390.322; 1686.125;  148.475;    0.000
390.380; 1854.125;  138.475;    0.000
390.439; 1689.125;  194.475;    0.000
390.497; 1763.125;  170.475;    0.000
390.555; 1736.125;  165.475;    0.000
390.613; 1769.125;  177.475;    0.000
390.671; 1767.125;  170.475;    0.000
390.729; 1737.125;  158.475;    0.000
390.788; 1764.125;  162.475;    0.000
390.846; 1706.125;  161.475;    0.000
390.904; 1747.125;  197.475;    0.000
390.962; 1792.125;  212.475;    0.000
391.020; 1819.125;  224.475;    0.000
391.078; 1792.125;  184.475;    0.000
391.136; 1743.125;  191.475;    0.000
391.194; 1792.125;  187.475;    0.000
391.253; 1776.125;  197.475;    0.000
391.311; 1762.125;  185.475;    0.000
391.369; 1768.125;  207.475;    0.000
391.427; 1864.125;  222.475;    0.000
391.485; 1858.125;  184.475;    0.000
391.543; 1812.125;  203.475;    0.000
391.601; 1803.125;  151.475;    0.000
391.659; 1824.125;  176.475;    0.000
391.717; 1786.125;  190.475;    0.000
391.775; 1861.125;  159.475;    0.000
391.833; 1818.125;  186.475;    0.000
391.891; 1824.125;  154.475;    0.000
391.949; 1800.125;  181.475;    0.000
392.007; 1757.125;  190.475;    0.000
392.065; 1813.125;  182.475;    0.000
392.123; 1833.125;  158.475;    0.000
392.180; 1866.125;  198.475;    0.000
392.238; 1840.125;  191.475;    0.000
392.296; 1821.125;  164.475;    0.000
392.354; 1839.125;  172.475;    0.000
392.412; 1875.125;  194.475;    0.000
392.470; 1871.125;  154.475;    0.000
392.528; 1896.125;  172.475;    0.000
392.586; 1849.125;  179.475;    0.000
392.644; 1836.125;  173.475;    0.000
392.701; 1936.125;  202.475;    0.000
392.759; 1840.125;  180.475;    0.000
392.817; 1924.125;  181.475;    0.000
392.875; 1847.125;  168.475;    0.000
392.933; 1902.125;  161.475;    0.000
392.991; 1910.125;  216.475;    0.000
393.048; 1898.125;  197.475;    0.000
393.106; 1938.125;  199.475;    0.000
393.164; 1898.125;  173.475;    0.000
393.222; 1909.125;  179.475;    0.000
393.279; 1943.125;  209.475;    0.000
393.337; 1881.125;  185.475;    0.000
393.395; 1909.125;  174.475;    0.000
393.453; 1955.125;  181.475;    0.000
393.510; 1865.125;  188.475;    0.000
393.568; 1880.125;  191.475;    0.000
393.626; 1861.125;  151.475;    0.000
393.684; 1871.125;  208.475;    0.000
393.741; 1890.125;  179.475;    0.000
393.799; 1843.125;  149.475;    0.000
393.857; 1854.125;  136.475;    0.000
393.914; 1907.125;  190.475;    0.000
393.972; 1928.125;  155.475;    0.000
394.030; 1937.125;  170.475;    0.000
394.087; 1892.125;  213.475;    0.000
394.145; 1871.125;  191.475;    0.000
394.202; 1886.125;  188.475;    0.000
394.260; 1926.125;  168.475;    0.000
394.318; 1929.125;  176.475;    0.000
394.375; 1952.125;  159.475;    0.000
394.433; 1924.125;  168.475;    0.000
394.490; 1855.125;  163.475;    0.000
394.548; 1933.125;  163.475;    0.000
394.605; 1975.125;  181.475;    0.000
394.663; 1956.125;  180.475;    0.000
394.720; 1844.125;  193.475;    0.000
394.778; 2000.125;  168.475;    0.000
394.836; 1957.125;  128.475;    0.000
394.893; 1958.125;  151.475;    0.000
394.951; 1934.125;  173.475;    0.000
395.008; 1886.125;  201.475;    0.000
395.065; 1838.125;  139.475;    0.000
395.123; 1909.125;  173.475;    0.000
395.180; 1957.125;  144.475;    0.000
395.238; 1987.125;  135.475;    0.000
395.295; 1947.125;  167.475;    0.000
395.353; 1951.125;  150.475;    0.000
395.410; 1979.125;  165.475;    0.000
395.468; 2131.125;  223.475;    0.000
395.525; 1974.125;  156.475;    0.000
395.582; 1998.125;  178.475;    0.000
395.640; 1950.125;  178.475;    0.000
395.697; 1994.125;  173.475;    0.000
395.754; 1974.125;  154.475;    0.000
395.812; 2013.125;  169.475;    0.000
395.869; 2031.125;  196.475;    0.000
395.927; 2071.125;  190.475;    0.000
395.984; 2009.125;  195.475;    0.000
396.041; 1967.125;  160.475;    0.000
396.098; 2081.125;  161.475;    0.000
396.156; 1946.125;  187.475;    0.000
396.213; 2018.125;  200.475;    0.000
396.270; 2067.125;  160.475;    0.000
396.328; 2060.125;  113.475;    0.000
396.385; 2035.125;  165.475;    0.000
396.442; 2047.125;  168.475;    0.000
396.499; 2065.125;  117.475;    0.000
396.557; 2078.125;  203.475;    0.000
396.614; 2074.125;  155.475;    0.000
396.671; 2032.125;  187.475;    0.000
396.728; 2040.125;  169.475;    0.000
396.785; 2049.125;  167.475;    0.000
396.843; 2045.125;  154.475;    0.000
396.900; 2097.125;  172.475;    0.000
396.957; 2056.125;  176.475;    0.000
397.014; 2100.125;  193.475;    0.000
397.071; 2119.125;  170.475;    0.000
397.128; 2173.125;  172.475;    0.000
397.186; 2169.125;  205.475;    0.000
397.243; 2088.125;  163.475;    0.000
397.300; 2088.125;  193.475;    0.000
397.357; 2070.125;  166.475;    0.000
397.414; 2115.125;  149.475;    0.000
397.471; 2177.125;  157.475;    0.000
397.528; 2078.125;  180.475;    0.000
397.585; 2218.125;  203.475;    0.000
397.642; 2141.125;  156.475;    0.000
397.699; 2136.125;  229.475;    0.000
397.756; 2097.125;  185.475;    0.000
397.814; 2057.125;  191.475;    0.000
397.871; 2193.125;  170.475;    0.000
397.928; 2145.125;  191.475;    0.000
397.985; 2130.125;  183.475;    0.000
398.042; 2111.125;  161.475;    0.000
398.099; 2049.125;  192.475;    0.000
398.156; 2141.125;  176.475;    0.000
398.212; 2165.125;  170.475;    0.000
398.269; 2233.125;  158.475;    0.000
398.326; 2146.125;  175.475;    0.000
398.383; 2181.125;  177.475;    0.000
398.440; 2205.125;  169.475;    0.000
398.497; 2167.125;  184.475;    0.000
398.554; 2161.125;  196.475;    0.000
398.611; 2167.125;  198.475;    0.000
398.668; 2195.125;  135.475;    0.000
398.725; 2181.125;  181.475;    0.000
398.782; 2220.125;  195.475;    0.000
398.839; 2333.125;  179.475;    0.000
398.895; 2260.125;  188.475;    0.000
398.952; 2246.125;  176.475;    0.000
399.009; 2411.125;  183.475;    0.000
399.066; 2312.125;  190.475;    0.000
399.123; 2329.125;  174.475;    0.000
399.180; 2372.125;  191.475;    0.000
399.236; 2335.125;  217.475;    0.000
399.293; 2354.125;  154.475;    0.000
399.350; 2440.125;  210.475;    0.000
399.407; 2479.125;  202.475;    0.000
399.463; 2482.125;  162.475;    0.000
399.520; 2484.125;  207.475;    0.000
399.577; 2471.125;  174.475;    0.000
399.634; 2532.125;  170.475;    0.000
399.690; 2504.125;  186.475;    0.000
399.747; 2509.125;  218.475;    0.000
399.804; 2520.125;  200.475;    0.000
399.861; 2502.125;  190.475;    0.000
399.917; 2608.125;  218.475;    0.000
399.974; 2496.125;  200.475;    0.000
400.031; 2555.125;  200.475;    0.000
400.087; 2410.125;  153.475;    0.000
400.144; 2497.125;  188.475;    0.000
400.201; 2482.125;  198.475;    0.000
400.257; 2362.125;  205.475;    0.000
400.314; 2456.125;  183.475;    0.000
400.370; 2475.125;  227.475;    0.000
400.427; 2431.125;  177.475;    0.000
400.484; 2415.125;  202.475;    0.000
400.540; 2359.125;  173.475;    0.000
400.597; 2360.125;  212.475;    0.000
400.653; 2456.125;  182.475;    0.000
400.710; 2420.125;  201.475;    0.000
400.766; 2460.125;  188.475;    0.000
400.823; 2356.125;  205.475;    0.000
400.879; 2358.125;  165.475;    0.000
400.936; 2388.125;  180.475;    0.000
400.993; 2358.125;  181.475;    0.000
401.049; 2280.125;  147.475;    0.000
401.105; 2330.125;  205.475;    0.000
401.162; 2409.125;  197.475;    0.000
401.218; 2440.125;  177.475;    0.000
401.275; 2377.125;  183.475;    0.000
401.331; 2454.125;  198.475;    0.000
401.388; 2365.125;  209.475;    0.000
401.444; 2341.125;  211.475;    0.000
401.501; 2340.125;  185.475;    0.000
401.557; 2357.125;  190.475;    0.000
401.614; 2325.125;  172.475;    0.000
401.670; 2401.125;  185.475;    0.000
401.726; 2359.125;  196.475;    0.000
401.783; 2448.125;  187.475;    0.000
401.839; 2383.125;  192.475;    0.000
401.895; 2439.125;  173.475;    0.000
401.952; 2323.125;  145.475;    0.000
402.008; 2348.125;  197.475;    0.000
402.064; 2396.125;  146.475;    0.000
402.121; 2358.125;  197.475;    0.000
402.177; 2396.125;  173.475;    0.000
402.233; 2390.125;  185.475;    0.000
402.290; 2338.125;  175.475;    0.000
402.346; 2350.125;  164.475;    0.000
402.402; 2383.125;  173.475;    0.000
402.458; 2416.125;  183.475;    0.000
402.515; 2339.125;  147.475;    0.000
402.571; 2359.125;  210.475;    0.000
402.627; 2477.125;  181.475;    0.000
402.683; 2348.125;  177.475;    0.000
402.740; 2362.125;  162.475;    0.000
402.796; 2364.125;  178.475;    0.000
402.852; 2392.125;  138.475;    0.000
402.908; 2441.125;  181.475;    0.000
402.964; 2362.125;  151.475;    0.000
403.021; 2445.125;  170.475;    0.000
403.077; 2494.125;  204.475;    0.000
403.133; 2456.125;  144.475;    0.000
403.189; 2451.125;  207.475;    0.000
403.245; 2403.125;  184.475;    0.000
403.301; 2483.125;  170.475;    0.000
403.357; 2409.125;  201.475;    0.000
403.414; 2448.125;  205.475;    0.000
403.470; 2502.125;  170.475;    0.000
403.526; 2456.125;  135.475;    0.000
403.582; 2462.125;  180.475;    0.000
403.638; 2597.125;  185.475;    0.000
403.694; 2526.125;  169.475;    0.000
403.750; 2497.125;  210.475;    0.000
403.806; 2408.125;  210.475;    0.000
403.862; 2425.125;  219.475;    0.000
403.918; 2483.125;  191.475;    0.000
403.974; 2493.125;  193.475;    0.000
404.030; 2465.125;  154.475;    0.000
404.086; 2500.125;  170.475;    0.000
404.142; 2495.125;  194.475;    0.000
404.198; 2518.125;  224.475;    0.000
404.254; 2541.125;  177.475;    0.000
404.310; 2571.125;  204.475;    0.000
404.366; 2470.125;  170.475;    0.000
404.422; 2526.125;  172.475;    0.000
404.478; 2557.125;  153.475;    0.000
404.534; 2555.125;  159.475;    0.000
404.590; 2582.125;  203.475;    0.000
404.646; 2559.125;  164.475;    0.000
404.701; 2469.125;  141.475;    0.000
404.757; 2509.125;  195.475;    0.000
404.813; 2562.125;  152.475;    0.000
404.869; 2659.125;  174.475;    0.000
404.925; 2530.125;  167.475;    0.000
404.981; 2619.125;  175.475;    0.000
405.037; 2525.125;  170.475;    0.000
405.092; 2531.125;  155.475;    0.000
405.148; 2522.125;  160.475;    0.000
405.204; 2557.125;  158.475;    0.000
405.260; 2560.125;  128.475;    0.000
405.316; 2447.125;  168.475;    0.000
405.371; 2494.125;  162.475;    0.000
405.427; 2647.125;  187.475;    0.000
405.483; 2593.125;  214.475;    0.000
405.539; 2532.125;  163.475;    0.000
405.594; 2584.125;  191.475;    0.000
405.650; 2587.125;  124.475;    0.000
405.706; 2510.125;  188.475;    0.000
405.761; 2585.125;  204.475;    0.000
405.817; 2588.125;  150.475;    0.000
405.873; 2554.125;  152.475;    0.000
405.928; 2634.125;  135.475;    0.000
405.984; 2635.125;  209.475;    0.000
406.040; 2545.125;  165.475;    0.000
406.095; 2642.125;  146.475;    0.000
406.151; 2687.125;  169.475;    0.000
406.207; 2645.125;  174.475;    0.000
406.262; 2630.125;  189.475;    0.000
406.318; 2549.125;  141.475;    0.000
406.374; 2641.125;  178.475;    0.000
406.429; 2664.125;  197.475;    0.000
406.485; 2711.125;  194.475;    0.000
406.540; 2617.125;  149.475;    0.000
406.596; 2639.125;  173.475;    0.000
406.651; 2667.125;  154.475;    0.000
406.707; 2678.125;  183.475;    0.000
406.763; 2798.125;  156.475;    0.000
406.818; 2687.125;  181.475;    0.000
406.874; 2702.125;  135.475;    0.000
406.929; 2802.125;  194.475;    0.000
406.985; 2753.125;  166.475;    0.000
407.040; 2755.125;  207.475;    0.000
407.095; 2772.125;  213.475;    0.000
407.151; 2871.125;  198.475;    0.000
407.206; 2687.125;  186.475;    0.000
407.262; 2815.125;  148.475;    0.000
407.317; 2884.125;  212.475;    0.000
407.373; 2820.125;  209.475;    0.000
407.428; 2868.125;  218.475;    0.000
407.484; 2848.125;  158.475;    0.000
407.539; 2786.125;  165.475;    0.000
407.594; 2868.125;  197.475;    0.000
407.650; 2854.125;  177.475;    0.000
407.705; 2802.125;  154.475;    0.000
407.760; 2968.125;  198.475;    0.000
407.816; 2915.125;  181.475;    0.000
407.871; 2876.125;  185.475;    0.000
407.926; 2855.125;  167.475;    0.000
407.982; 2909.125;  172.475;    0.000
408.037; 2872.125;  202.475;    0.000
408.092; 2768.125;  201.475;    0.000
408.148; 2860.125;  199.475;    0.000
408.203; 2826.125;  174.475;    0.000
408.258; 2789.125;  157.475;    0.000
408.314; 2870.125;  194.475;    0.000
408.369; 2914.125;  189.475;    0.000
408.424; 2864.125;  204.475;    0.000
408.479; 2787.125;  192.475;    0.000
408.534; 2903.125;  215.475;    0.000
408.590; 2875.125;  190.475;    0.000
408.645; 2827.125;  159.475;    0.000
408.700; 2856.125;  191.475;    0.000
408.755; 2754.125;  217.475;    0.000
408.810; 2812.125;  158.475;    0.000
408.866; 2790.125;  166.475;    0.000
408.921; 2816.125;  214.475;    0.000
408.976; 2840.125;  158.475;    0.000
409.031; 2805.125;  185.475;    0.000
409.086; 2738.125;  158.475;    0.000
409.141; 2835.125;  180.475;    0.000
409.196; 2810.125;  188.475;    0.000
409.252; 2780.125;  186.475;    0.000
409.307; 2791.125;  135.475;    0.000
409.362; 2821.125;  162.475;    0.000
409.417; 2706.125;  149.475;    0.000
409.472; 2805.125;  205.475;    0.000
409.527; 2866.125;  184.475;    0.000
409.582; 2904.125;  174.475;    0.000
409.637; 2821.125;  188.475;    0.000
409.692; 2717.125;  211.475;    0.000
409.747; 2689.125;  159.475;    0.000
409.802; 2791.125;  199.475;    0.000
409.857; 2832.125;  118.475;    0.000
409.912; 2799.125;  177.475;    0.000
409.967; 2665.125;  182.475;    0.000
410.022; 2799.125;  188.475;    0.000
410.077; 2746.125;  204.475;    0.000
410.132; 2894.125;  174.475;    0.000
410.187; 2844.125;  169.475;    0.000
410.242; 2723.125;  178.475;    0.000
410.297; 2806.125;  185.475;    0.000
410.351; 2827.125;  203.475;    0.000
410.406; 2851.125;  180.475;    0.000
410.461; 2746.125;  213.475;    0.000
410.516; 2804.125;  198.475;    0.000
410.571; 2763.125;  171.475;    0.000
410.626; 2774.125;  186.475;    0.000
410.681; 2754.125;  187.475;    0.000
410.736; 2791.125;  147.475;    0.000
410.790; 2774.125;  186.475;    0.000
410.845; 2780.125;  152.475;    0.000
410.900; 2779.125;  202.475;    0.000
410.955; 2873.125;  196.475;    0.000
411.010; 2762.125;  150.475;    0.000
411.064; 2829.125;  200.475;    0.000
411.119; 2790.125;  203.475;    0.000
411.174; 2798.125;  176.475;    0.000
411.229; 2847.125;  203.475;    0.000
411.283; 2801.125;  176.475;    0.000
411.338; 2687.125;  153.475;    0.000
411.393; 2767.125;  168.475;    0.000
411.447; 2709.125;  223.475;    0.000
411.502; 2844.125;  238.475;    0.000
411.557; 2803.125;  179.475;    0.000
411.612; 2820.125;  159.475;    0.000
411.666; 2792.125;  189.475;    0.000
411.721; 2795.125;  212.475;    0.000
411.776; 2844.125;  242.475;    0.000
411.830; 2836.125;  194.475;    0.000
411.885; 2686.125;  188.475;    0.000
411.939; 2816.125;  245.475;    0.000
411.994; 2792.125;  177.475;    0.000
412.049; 2902.125;  170.475;    0.000
412.103; 2856.125;  196.475;    0.000
412.158; 2811.125;  215.475;    0.000
412.212; 2798.125;  199.475;    0.000
412.267; 2878.125;  191.475;    0.000
412.322; 2927.125;  238.475;    0.000
412.376; 2820.125;  243.475;    0.000
412.431; 2802.125;  214.475;    0.000
412.485; 2851.125;  210.475;    0.000
412.540; 2813.125;  200.475;    0.000
412.594; 2864.125;  174.475;    0.000
412.649; 2836.125;  246.475;    0.000
412.703; 2735.125;  182.475;    0.000
412.758; 2800.125;  222.475;    0.000
412.812; 2733.125;  201.475;    0.000
412.866; 2776.125;  162.475;    0.000
412.921; 2732.125;  202.475;    0.000
412.975; 2804.125;  212.475;    0.000
413.030; 2752.125;  238.475;    0.000
413.084; 2781.125;  201.475;    0.000
413.139; 2800.125;  210.475;    0.000
413.193; 2848.125;  218.475;    0.000
413.247; 2792.125;  203.475;    0.000
413.302; 2840.125;  176.475;    0.000
413.356; 2739.125;  215.475;    0.000
413.410; 2648.125;  204.475;    0.000
413.465; 2770.125;  186.475;    0.000
413.519; 2816.125;  196.475;    0.000
413.573; 2790.125;  181.475;    0.000
413.628; 2812.125;  200.475;    0.000
413.682; 2736.125;  157.475;    0.000
413.736; 2745.125;  194.475;    0.000
413.791; 2794.125;  193.475;    0.000
413.845; 2767.125;  225.475;    0.000
413.899; 2738.125;  195.475;    0.000
413.953; 2756.125;  173.475;    0.000
414.008; 2745.125;  186.475;    0.000
414.062; 2691.125;  217.475;    0.000
414.116; 2800.125;  169.475;    0.000
414.170; 2769.125;  228.475;    0.000
414.225; 2724.125;  177.475;    0.000
414.279; 2781.125;  210.475;    0.000
414.333; 2756.125;  207.475;    0.000
414.387; 2832.125;  217.475;    0.000
414.441; 2741.125;  187.475;    0.000
414.496; 2748.125;  215.475;    0.000
414.550; 2855.125;  204.475;    0.000
414.604; 2756.125;  206.475;    0.000
414.658; 2766.125;  139.475;    0.000
414.712; 2787.125;  198.475;    0.000
414.766; 2746.125;  208.475;    0.000
414.820; 2850.125;  199.475;    0.000
414.874; 2796.125;  216.475;    0.000
414.928; 2791.125;  186.475;    0.000
414.982; 2778.125;  176.475;    0.000
415.037; 2771.125;  181.475;    0.000
415.091; 2823.125;  208.475;    0.000
415.145; 2722.125;  209.475;    0.000
415.199; 2690.125;  186.475;    0.000
415.253; 2705.125;  203.475;    0.000
415.307; 2700.125;  197.475;    0.000
415.361; 2784.125;  223.475;    0.000
415.415; 2791.125;  213.475;    0.000
415.469; 2841.125;  226.475;    0.000
415.523; 2765.125;  222.475;    0.000
415.577; 2720.125;  205.475;    0.000
415.631; 2704.125;  224.475;    0.000
415.684; 2740.125;  193.475;    0.000
415.738; 2755.125;  224.475;    0.000
415.792; 2717.125;  204.475;    0.000
415.846; 2818.125;  189.475;    0.000
415.900; 2700.125;  223.475;    0.000
415.954; 2746.125;  187.475;    0.000
416.008; 2804.125;  237.475;    0.000
416.062; 2719.125;  195.475;    0.000
416.116; 2705.125;  223.475;    0.000
416.169; 2716.125;  210.475;    0.000
416.223; 2755.125;  232.475;    0.000
416.277; 2760.125;  227.475;    0.000
416.331; 2684.125;  216.475;    0.000
416.385; 2713.125;  186.475;    0.000
416.439; 2770.125;  226.475;    0.000
416.492; 2650.125;  229.475;    0.000
416.546; 2718.125;  216.475;    0.000
416.600; 2714.125;  211.475;    0.000
416.654; 2773.125;  226.475;    0.000
416.707; 2689.125;  248.475;    0.000
416.761; 2703.125;  217.475;    0.000
416.815; 2705.125;  207.475;    0.000
416.869; 2741.125;  226.475;    0.000
416.922; 2771.125;  192.475;    0.000
416.976; 2701.125;  205.475;    0.000
417.030; 2686.125;  233.475;    0.000
417.083; 2719.125;  226.475;    0.000
417.137; 2659.125;  222.475;    0.000
417.191; 2710.125;  217.475;    0.000
417.244; 2739.125;  221.475;    0.000
417.298; 2595.125;  201.475;    0.000
417.352; 2708.125;  170.475;    0.000
417.405; 2672.125;  234.475;    0.000
417.459; 2753.125;  241.475;    0.000
417.512; 2788.125;  247.475;    0.000
417.566; 2790.125;  219.475;    0.000
417.620; 2698.125;  228.475;    0.000
417.673; 2670.125;  192.475;    0.000
417.727; 2735.125;  203.475;    0.000
417.780; 2696.125;  204.475;    0.000
417.834; 2695.125;  234.475;    0.000
417.887; 2699.125;  245.475;    0.000
417.941; 2753.125;  211.475;    0.000
417.994; 2712.125;  244.475;    0.000
418.048; 2672.125;  203.475;    0.000
418.101; 2624.125;  212.475;    0.000
418.155; 2776.125;  251.475;    0.000
418.208; 2727.125;  286.475;    0.000
418.262; 2784.125;  243.475;    0.000
418.315; 2782.125;  214.475;    0.000
418.369; 2732.125;  269.475;    0.000
418.422; 2680.125;  222.475;    0.000
418.476; 2740.125;  226.475;    0.000
418.529; 2766.125;  238.475;    0.000
418.582; 2683.125;  210.475;    0.000
418.636; 2738.125;  221.475;    0.000
418.689; 2720.125;  224.475;    0.000
418.743; 2774.125;  228.475;    0.000
418.796; 2823.125;  192.475;    0.000
418.849; 2642.125;  230.475;    0.000
418.903; 2669.125;  257.475;    0.000
418.956; 2726.125;  241.475;    0.000
419.009; 2773.125;  247.475;    0.000
419.063; 2724.125;  235.475;    0.000
419.116; 2693.125;  218.475;    0.000
419.169; 2771.125;  219.475;    0.000
419.222; 2759.125;  215.475;    0.000
419.276; 2709.125;  202.475;    0.000
419.329; 2716.125;  210.475;    0.000
419.382; 2719.125;  188.475;    0.000
419.435; 2756.125;  222.475;    0.000
419.489; 2742.125;  232.475;    0.000
419.542; 2807.125;  250.475;    0.000
419.595; 2724.125;  240.475;    0.000
419.648; 2702.125;  261.475;    0.000
419.701; 2762.125;  222.475;    0.000
419.755; 2715.125;  233.475;    0.000
419.808; 2714.125;  178.475;    0.000
419.861; 2738.125;  207.475;    0.000
419.914; 2765.125;  223.475;    0.000
419.967; 2645.125;  216.475;    0.000
420.020; 2686.125;  211.475;    0.000
420.073; 2739.125;  200.475;    0.000
420.127; 2693.125;  248.475;    0.000
420.180; 2723.125;  220.475;    0.000
420.233; 2713.125;  215.475;    0.000
420.286; 2607.125;  222.475;    0.000
420.339; 2614.125;  229.475;    0.000
420.392; 2667.125;  245.475;    0.000
420.445; 2624.125;  221.475;    0.000
420.498; 2631.125;  224.475;    0.000
420.551; 2604.125;  170.475;    0.000
420.604; 2705.125;  237.475;    0.000
420.657; 2598.125;  235.475;    0.000
420.710; 2628.125;  223.475;    0.000
420.763; 2556.125;  219.475;    0.000
420.816; 2640.125;  200.475;    0.000
420.869; 2693.125;  197.475;    0.000
420.922; 2607.125;  212.475;    0.000
420.975; 2716.125;  274.475;    0.000
421.028; 2580.125;  228.475;    0.000
421.081; 2610.125;  243.475;    0.000
421.134; 2571.125;  227.475;    0.000
421.187; 2628.125;  245.475;    0.000
421.239; 2650.125;  210.475;    0.000
421.292; 2584.125;  193.475;    0.000
421.345; 2549.125;  226.475;    0.000
421.398; 2570.125;  226.475;    0.000
421.451; 2614.125;  259.475;    0.000
421.504; 2621.125;  204.475;    0.000
421.557; 2642.125;  215.475;    0.000
421.609; 2547.125;  194.475;    0.000
421.662; 2569.125;  216.475;    0.000
421.715; 2527.125;  226.475;    0.000
421.768; 2581.125;  177.475;    0.000
421.821; 2561.125;  210.475;    0.000
421.873; 2552.125;  208.475;    0.000
421.926; 2525.125;  223.475;    0.000
421.979; 2622.125;  230.475;    0.000
422.032; 2589.125;  227.475;    0.000
422.084; 2619.125;  234.475;    0.000
422.137; 2496.125;  207.475;    0.000
422.190; 2657.125;  228.475;    0.000
422.243; 2545.125;  206.475;    0.000
422.295; 2571.125;  236.475;    0.000
422.348; 2596.125;  232.475;    0.000
422.401; 2528.125;  228.475;    0.000
422.453; 2563.125;  239.475;    0.000
422.506; 2521.125;  226.475;    0.000
422.559; 2516.125;  205.475;    0.000
422.611; 2622.125;  235.475;    0.000
422.664; 2632.125;  231.475;    0.000
422.716; 2640.125;  228.475;    0.000
422.769; 2549.125;  204.475;    0.000
422.822; 2544.125;  205.475;    0.000
422.874; 2565.125;  228.475;    0.000
422.927; 2598.125;  266.475;    0.000
422.979; 2468.125;  223.475;    0.000
423.032; 2539.125;  207.475;    0.000
423.084; 2448.125;  211.475;    0.000
423.137; 2507.125;  205.475;    0.000
423.189; 2609.125;  254.475;    0.000
423.242; 2598.125;  208.475;    0.000
423.294; 2582.125;  240.475;    0.000
423.347; 2508.125;  218.475;    0.000
423.399; 2526.125;  237.475;    0.000
423.452; 2447.125;  242.475;    0.000
423.504; 2585.125;  225.475;    0.000
423.557; 2509.125;  195.475;    0.000
423.609; 2600.125;  206.475;    0.000
423.662; 2493.125;  211.475;    0.000
423.714; 2472.125;  252.475;    0.000
423.766; 2545.125;  181.475;    0.000
423.819; 2513.125;  216.475;    0.000
423.871; 2484.125;  216.475;    0.000
423.923; 2507.125;  222.475;    0.000
423.976; 2596.125;  223.475;    0.000
424.028; 2513.125;  229.475;    0.000
424.081; 2475.125;  267.475;    0.000
424.133; 2544.125;  251.475;    0.000
424.185; 2434.125;  238.475;    0.000
424.238; 2446.125;  220.475;    0.000
424.290; 2527.125;  259.475;    0.000
424.342; 2454.125;  248.475;    0.000
424.394; 2490.125;  234.475;    0.000
424.447; 2453.125;  248.475;    0.000
424.499; 2629.125;  233.475;    0.000
424.551; 2460.125;  236.475;    0.000
424.603; 2429.125;  207.475;    0.000
424.656; 2461.125;  210.475;    0.000
424.708; 2547.125;  251.475;    0.000
424.760; 2443.125;  221.475;    0.000
424.812; 2488.125;  275.475;    0.000
424.864; 2465.125;  206.475;    0.000
424.917; 2477.125;  198.475;    0.000
424.969; 2524.125;  246.475;    0.000
425.021; 2464.125;  209.475;    0.000
425.073; 2470.125;  242.475;    0.000
425.125; 2497.125;  254.475;    0.000
425.177; 2521.125;  224.475;    0.000
425.229; 2484.125;  256.475;    0.000
425.282; 2460.125;  265.475;    0.000
425.334; 2427.125;  266.475;    0.000
425.386; 2485.125;  242.475;    0.000
425.438; 2387.125;  205.475;    0.000
425.490; 2460.125;  227.475;    0.000
425.542; 2392.125;  235.475;    0.000
425.594; 2494.125;  210.475;    0.000
425.646; 2483.125;  232.475;    0.000
425.698; 2490.125;  243.475;    0.000
425.750; 2424.125;  230.475;    0.000
425.802; 2432.125;  218.475;    0.000
425.854; 2395.125;  222.475;    0.000
425.906; 2426.125;  235.475;    0.000
425.958; 2393.125;  220.475;    0.000
426.010; 2382.125;  236.475;    0.000
426.062; 2510.125;  230.475;    0.000
426.114; 2480.125;  216.475;    0.000
426.166; 2525.125;  230.475;    0.000
426.218; 2411.125;  237.475;    0.000
426.270; 2405.125;  217.475;    0.000
426.321; 2389.125;  224.475;    0.000
426.373; 2366.125;  207.475;    0.000
426.425; 2361.125;  278.475;    0.000
426.477; 2446.125;  243.475;    0.000
426.529; 2413.125;  247.475;    0.000
426.581; 2431.125;  229.475;    0.000
426.633; 2371.125;  212.475;    0.000
426.684; 2425.125;  244.475;    0.000
426.736; 2385.125;  250.475;    0.000
426.788; 2403.125;  210.475;    0.000
426.840; 2354.125;  201.475;    0.000
426.892; 2350.125;  225.475;    0.000
426.943; 2387.125;  215.475;    0.000
426.995; 2373.125;  216.475;    0.000
427.047; 2378.125;  216.475;    0.000
427.099; 2421.125;  203.475;    0.000
427.150; 2305.125;  195.475;    0.000
427.202; 2296.125;  212.475;    0.000
427.254; 2309.125;  233.475;    0.000
427.306; 2343.125;  211.475;    0.000
427.357; 2357.125;  210.475;    0.000
427.409; 2417.125;  244.475;    0.000
427.461; 2344.125;  187.475;    0.000
427.512; 2337.125;  227.475;    0.000
427.564; 2312.125;  210.475;    0.000
427.616; 2299.125;  202.475;    0.000
427.667; 2299.125;  185.475;    0.000
427.719; 2286.125;  222.475;    0.000
427.770; 2333.125;  230.475;    0.000
427.822; 2304.125;  254.475;    0.000
427.874; 2354.125;  222.475;    0.000
427.925; 2300.125;  199.475;    0.000
427.977; 2275.125;  228.475;    0.000
428.028; 2307.125;  226.475;    0.000
428.080; 2388.125;  236.475;    0.000
428.131; 2243.125;  220.475;    0.000
428.183; 2292.125;  256.475;    0.000
428.234; 2298.125;  217.475;    0.000
428.286; 2304.125;  234.475;    0.000
428.337; 2298.125;  209.475;    0.000
428.389; 2208.125;  219.475;    0.000
428.440; 2322.125;  249.475;    0.000
428.492; 2293.125;  255.475;    0.000
428.543; 2316.125;  224.475;    0.000
428.595; 2311.125;  225.475;    0.000
428.646; 2324.125;  240.475;    0.000
428.697; 2237.125;  211.475;    0.000
428.749; 2259.125;  200.475;    0.000
428.800; 2298.125;  235.475;    0.000
428.852; 2306.125;  265.475;    0.000
428.903; 2338.125;  201.475;    0.000
428.954; 2235.125;  242.475;    0.000
429.006; 2288.125;  245.475;    0.000
429.057; 2301.125;  252.475;    0.000
429.108; 2199.125;  211.475;    0.000
429.160; 2313.125;  217.475;    0.000
429.211; 2324.125;  234.475;    0.000
429.262; 2268.125;  205.475;    0.000
429.314; 2315.125;  211.475;    0.000
429.365; 2258.125;  240.475;    0.000
429.416; 2275.125;  263.475;    0.000
429.467; 2254.125;  244.475;    0.000
429.519; 2234.125;  223.475;    0.000
429.570; 2234.125;  214.475;    0.000
429.621; 2207.125;  235.475;    0.000
429.672; 2276.125;  202.475;    0.000
429.724; 2273.125;  189.475;    0.000
429.775; 2165.125;  214.475;    0.000
429.826; 2241.125;  178.475;    0.000
429.877; 2176.125;  224.475;    0.000
429.928; 2254.125;  230.475;    0.000
429.980; 2187.125;  199.475;    0.000
430.031; 2201.125;  208.475;    0.000
430.082; 2241.125;  224.475;    0.000
430.133; 2246.125;  193.475;    0.000
430.184; 2259.125;  220.475;    0.000
430.235; 2176.125;  184.475;    0.000
430.286; 2245.125;  197.475;    0.000
430.337; 2189.125;  199.475;    0.000
430.388; 2171.125;  207.475;    0.000
430.439; 2202.125;  227.475;    0.000
430.490; 2206.125;  215.475;    0.000
430.542; 2191.125;  211.475;    0.000
430.593; 2201.125;  230.475;    0.000
430.644; 2168.125;  186.475;    0.000
430.695; 2229.125;  232.475;    0.000
430.746; 2269.125;  214.475;    0.000
430.797; 2182.125;  260.475;    0.000
430.848; 2231.125;  214.475;    0.000
430.898; 2134.125;  204.475;    0.000
430.949; 2157.125;  189.475;    0.000
431.000; 2225.125;  240.475;    0.000
431.051; 2243.125;  201.475;    0.000
431.102; 2146.125;  188.475;    0.000
431.153; 2149.125;  209.475;    0.000
431.204; 2195.125;  187.475;    0.000
431.255; 2217.125;  171.475;    0.000
431.306; 2150.125;  181.475;    0.000
431.357; 2169.125;  221.475;    0.000
431.408; 2263.125;  217.475;    0.000
431.458; 2258.125;  206.475;    0.000
431.509; 2187.125;  194.475;    0.000
431.560; 2239.125;  235.475;    0.000
431.611; 2155.125;  213.475;    0.000
431.662; 2236.125;  237.475;    0.000
431.713; 2251.125;  220.475;    0.000
431.763; 2202.125;  212.475;    0.000
431.814; 2238.125;  238.475;    0.000
431.865; 2188.125;  213.475;    0.000
431.916; 2170.125;  191.475;    0.000
431.966; 2154.125;  171.475;    0.000
432.017; 2235.125;  263.475;    0.000
432.068; 2247.125;  240.475;    0.000
432.118; 2170.125;  235.475;    0.000
432.169; 2245.125;  212.475;    0.000
432.220; 2159.125;  188.475;    0.000
432.271; 2164.125;  216.475;    0.000
432.321; 2148.125;  223.475;    0.000
432.372; 2139.125;  254.475;    0.000
432.423; 2199.125;  193.475;    0.000
432.473; 2214.125;  219.475;    0.000
432.524; 2182.125;  215.475;    0.000
432.574; 2188.125;  234.475;    0.000
432.625; 2194.125;  226.475;    0.000
432.676; 2200.125;  219.475;    0.000
432.726; 2289.125;  254.475;    0.000
432.777; 2143.125;  210.475;    0.000
432.827; 2180.125;  234.475;    0.000
432.878; 2121.125;  212.475;    0.000
432.928; 2202.125;  238.475;    0.000
432.979; 2159.125;  252.475;    0.000
433.029; 2212.125;  222.475;    0.000
433.080; 2188.125;  188.475;    0.000
433.130; 2195.125;  223.475;    0.000
433.181; 2165.125;  254.475;    0.000
433.231; 2252.125;  237.475;    0.000
433.282; 2162.125;  242.475;    0.000
433.332; 2188.125;  261.475;    0.000
433.383; 2234.125;  266.475;    0.000
433.433; 2225.125;  286.475;    0.000
433.484; 2188.125;  231.475;    0.000
433.534; 2143.125;  256.475;    0.000
433.585; 2186.125;  253.475;    0.000
433.635; 2113.125;  228.475;    0.000
433.685; 2211.125;  226.475;    0.000
433.736; 2196.125;  276.475;    0.000
433.786; 2234.125;  253.475;    0.000
433.836; 2241.125;  289.475;    0.000
433.887; 2185.125;  241.475;    0.000
433.937; 2156.125;  252.475;    0.000
433.987; 2160.125;  223.475;    0.000
434.038; 2201.125;  241.475;    0.000
434.088; 2159.125;  231.475;    0.000
434.138; 2133.125;  259.475;    0.000
434.189; 2210.125;  263.475;    0.000
434.239; 2188.125;  194.475;    0.000
434.289; 2269.125;  273.475;    0.000
434.339; 2172.125;  212.475;    0.000
434.389; 2217.125;  248.475;    0.000
434.440; 2289.125;  250.475;    0.000
434.490; 2266.125;  278.475;    0.000
434.540; 2159.125;  241.475;    0.000
434.590; 2216.125;  251.475;    0.000
434.640; 2297.125;  207.475;    0.000
434.691; 2271.125;  242.475;    0.000
434.741; 2273.125;  218.475;    0.000
434.791; 2300.125;  267.475;    0.000
434.841; 2254.125;  272.475;    0.000
434.891; 2375.125;  260.475;    0.000
434.941; 2194.125;  258.475;    0.000
434.991; 2253.125;  264.475;    0.000
435.042; 2294.125;  264.475;    0.000
435.092; 2221.125;  271.475;    0.000
435.142; 2188.125;  229.475;    0.000
435.192; 2187.125;  226.475;    0.000
435.242; 2189.125;  253.475;    0.000
435.292; 2247.125;  215.475;    0.000
435.342; 2211.125;  240.475;    0.000
435.392; 2140.125;  235.475;    0.000
435.442; 2190.125;  230.475;    0.000
435.492; 2261.125;  235.475;    0.000
435.542; 2148.125;  230.475;    0.000
435.592; 2162.125;  239.475;    0.000
435.642; 2162.125;  244.475;    0.000
435.692; 2161.125;  236.475;    0.000
435.742; 2175.125;  236.475;    0.000
435.792; 2160.125;  230.475;    0.000
435.842; 2109.125;  248.475;    0.000
435.891; 2129.125;  233.475;    0.000
435.941; 2089.125;  243.475;    0.000
435.991; 2202.125;  279.475;    0.000
436.041; 2126.125;  204.475;    0.000
436.091; 2079.125;  217.475;    0.000
436.141; 2085.125;  205.475;    0.000
436.191; 2071.125;  220.475;    0.000
436.241; 2069.125;  248.475;    0.000
436.290; 2209.125;  255.475;    0.000
436.340; 2076.125;  235.475;    0.000
436.390; 2119.125;  207.475;    0.000
436.440; 2192.125;  207.475;    0.000
436.490; 2057.125;  251.475;    0.000
436.539; 2081.125;  240.475;    0.000
436.589; 2070.125;  198.475;    0.000
436.639; 2068.125;  240.475;    0.000
436.689; 2076.125;  216.475;    0.000
436.738; 2127.125;  246.475;    0.000
436.788; 2125.125;  203.475;    0.000
436.838; 2129.125;  230.475;    0.000
436.887; 2086.125;  235.475;    0.000
436.937; 2136.125;  249.475;    0.000
436.987; 2062.125;  208.475;    0.000
437.036; 2081.125;  232.475;    0.000
437.086; 2047.125;  238.475;    0.000
437.136; 2107.125;  228.475;    0.000
437.185; 2042.125;  219.475;    0.000
437.235; 2115.125;  227.475;    0.000
437.285; 2077.125;  241.475;    0.000
437.334; 2038.125;  216.475;    0.000
437.384; 2080.125;  243.475;    0.000
437.433; 2079.125;  214.475;    0.000
437.483; 2058.125;  246.475;    0.000
437.532; 2017.125;  261.475;    0.000
437.582; 2009.125;  205.475;    0.000
437.631; 2006.125;  218.475;    0.000
437.681; 2010.125;  240.475;    0.000
437.730; 2045.125;  258.475;    0.000
437.780; 2053.125;  237.475;    0.000
437.829; 1989.125;  209.475;    0.000
437.879; 2069.125;  214.475;    0.000
437.928; 1937.125;  223.475;    0.000
437.978; 2029.125;  220.475;    0.000
438.027; 2073.125;  239.475;    0.000
438.077; 2055.125;  231.475;    0.000
438.126; 2035.125;  266.475;    0.000
438.176; 1999.125;  234.475;    0.000
438.225; 2029.125;  237.475;    0.000
438.274; 2063.125;  234.475;    0.000
438.324; 2008.125;  244.475;    0.000
438.373; 2022.125;  232.475;    0.000
438.422; 1956.125;  218.475;    0.000
438.472; 1967.125;  221.475;    0.000
438.521; 1982.125;  190.475;    0.000
438.570; 2056.125;  243.475;    0.000
438.620; 2065.125;  255.475;    0.000
438.669; 1990.125;  210.475;    0.000
438.718; 2008.125;  237.475;    0.000
438.768; 2007.125;  220.475;    0.000
438.817; 1988.125;  218.475;    0.000
438.866; 2011.125;  198.475;    0.000
438.915; 2055.125;  256.475;    0.000
438.965; 1984.125;  221.475;    0.000
439.014; 2060.125;  255.475;    0.000
439.063; 2064.125;  276.475;    0.000
439.112; 1992.125;  220.475;    0.000
439.162; 2050.125;  253.475;    0.000
439.211; 2066.125;  247.475;    0.000
439.260; 1998.125;  220.475;    0.000
439.309; 1998.125;  235.475;    0.000
439.358; 2032.125;  205.475;    0.000
439.407; 2007.125;  207.475;    0.000
439.456; 1999.125;  216.475;    0.000
439.506; 2023.125;  245.475;    0.000
439.555; 2043.125;  264.475;    0.000
439.604; 2012.125;  227.475;    0.000
439.653; 2108.125;  220.475;    0.000
439.702; 1998.125;  223.475;    0.000
439.751; 1952.125;  197.475;    0.000
439.800; 2056.125;  207.475;    0.000
439.849; 2050.125;  238.475;    0.000
439.898; 2006.125;  209.475;    0.000
439.947; 2011.125;  170.475;    0.000
439.996; 2072.125;  233.475;    0.000
440.045; 2008.125;  222.475;    0.000
440.094; 1995.125;  240.475;    0.000
440.143; 2003.125;  249.475;    0.000
440.192; 2160.125;  252.475;    0.000
440.241; 2082.125;  239.475;    0.000
440.290; 2042.125;  234.475;    0.000
440.339; 2158.125;  241.475;    0.000
440.388; 2012.125;  239.475;    0.000
440.437; 1978.125;  231.475;    0.000
440.486; 1977.125;  254.475;    0.000
440.535; 2161.125;  266.475;    0.000
440.583; 2055.125;  205.475;    0.000
440.632; 2052.125;  234.475;    0.000
440.681; 2031.125;  218.475;    0.000
440.730; 2083.125;  248.475;    0.000
440.779; 2101.125;  246.475;    0.000
440.828; 2028.125;  235.475;    0.000
440.876; 2068.125;  218.475;    0.000
440.925; 2064.125;  228.475;    0.000
440.974; 2094.125;  249.475;    0.000
441.023; 1995.125;  192.475;    0.000
441.072; 2050.125;  226.475;    0.000
441.120; 2194.125;  238.475;    0.000
441.169; 2060.125;  255.475;    0.000
441.218; 2099.125;  233.475;    0.000
441.267; 2128.125;  231.475;    0.000
441.315; 2121.125;  214.475;    0.000
441.364; 2121.125;  250.475;    0.000
441.413; 2038.125;  228.475;    0.000
441.461; 2130.125;  209.475;    0.000
441.510; 2108.125;  260.475;    0.000
441.559; 2147.125;  230.475;    0.000
441.607; 2113.125;  220.475;    0.000
441.656; 2093.125;  251.475;    0.000
441.705; 2213.125;  237.475;    0.000
441.753; 2146.125;  257.475;    0.000
441.802; 2084.125;  256.475;    0.000
441.850; 2093.125;  253.475;    0.000
441.899; 2087.125;  212.475;    0.000
441.948; 2087.125;  251.475;    0.000
441.996; 2089.125;  239.475;    0.000
442.045; 2186.125;  223.475;    0.000
442.093; 2079.125;  211.475;    0.000
442.142; 2086.125;  235.475;    0.000
442.190; 2140.125;  254.475;    0.000
442.239; 2159.125;  226.475;    0.000
442.287; 2097.125;  242.475;    0.000
442.336; 2150.125;  256.475;    0.000
442.384; 2113.125;  252.475;    0.000
442.433; 2090.125;  262.475;    0.000
442.481; 2086.125;  246.475;    0.000
442.529; 2047.125;  290.475;    0.000
442.578; 2125.125;  247.475;    0.000
442.626; 2005.125;  247.475;    0.000
442.675; 2023.125;  272.475;    0.000
442.723; 2085.125;  230.475;    0.000
442.771; 2122.125;  234.475;    0.000
442.820; 2159.125;  224.475;    0.000
442.868; 2085.125;  246.475;    0.000
442.917; 2096.125;  249.475;    0.000
442.965; 2041.125;  260.475;    0.000
443.013; 2103.125;  258.475;    0.000
443.062; 2088.125;  259.475;    0.000
443.110; 2109.125;  226.475;    0.000
443.158; 2168.125;  213.475;    0.000
443.206; 2123.125;  201.475;    0.000
443.255; 2190.125;  280.475;    0.000
443.303; 2068.125;  292.475;    0.000
443.351; 2143.125;  256.475;    0.000
443.399; 2090.125;  215.475;    0.000
443.448; 2130.125;  243.475;    0.000
443.496; 2139.125;  249.475;    0.000
443.544; 2140.125;  231.475;    0.000
443.592; 2130.125;  243.475;    0.000
443.640; 2123.125;  252.475;    0.000
443.689; 2139.125;  220.475;    0.000
443.737; 2192.125;  231.475;    0.000
443.785; 2080.125;  256.475;    0.000
443.833; 2139.125;  268.475;    0.000
443.881; 2204.125;  181.475;    0.000
443.929; 2180.125;  245.475;    0.000
443.977; 2122.125;  278.475;    0.000
444.025; 2182.125;  245.475;    0.000
444.074; 2174.125;  233.475;    0.000
444.122; 2188.125;  267.475;    0.000
444.170; 2156.125;  247.475;    0.000
444.218; 2231.125;  246.475;    0.000
444.266; 2191.125;  275.475;    0.000
444.314; 2247.125;  263.475;    0.000
444.362; 2280.125;  240.475;    0.000
444.410; 2160.125;  220.475;    0.000
444.458; 2228.125;  258.475;    0.000
444.506; 2254.125;  258.475;    0.000
444.554; 2216.125;  224.475;    0.000
444.602; 2230.125;  245.475;    0.000
444.650; 2244.125;  261.475;    0.000
444.698; 2164.125;  232.475;    0.000
444.746; 2267.125;  206.475;    0.000
444.793; 2250.125;  249.475;    0.000
444.841; 2251.125;  261.475;    0.000
444.889; 2296.125;  221.475;    0.000
444.937; 2236.125;  215.475;    0.000
444.985; 2264.125;  244.475;    0.000
445.033; 2169.125;  211.475;    0.000
445.081; 2242.125;  225.475;    0.000
445.129; 2210.125;  217.475;    0.000
445.176; 2130.125;  196.475;    0.000
445.224; 2194.125;  211.475;    0.000
445.272; 2217.125;  242.475;    0.000
445.320; 2211.125;  225.475;    0.000
445.368; 2247.125;  249.475;    0.000
445.415; 2219.125;  243.475;    0.000
445.463; 2191.125;  242.475;    0.000
445.511; 2159.125;  248.475;    0.000
445.559; 2198.125;  219.475;    0.000
445.606; 2164.125;  221.475;    0.000
445.654; 2202.125;  202.475;    0.000
445.702; 2206.125;  210.475;    0.000
445.749; 2164.125;  249.475;    0.000
445.797; 2157.125;  206.475;    0.000
445.845; 2086.125;  213.475;    0.000
445.892; 2239.125;  224.475;    0.000
445.940; 2187.125;  214.475;    0.000
445.988; 2254.125;  247.475;    0.000
446.035; 2227.125;  204.475;    0.000
446.083; 2233.125;  235.475;    0.000
446.130; 2178.125;  195.475;    0.000
446.178; 2250.125;  236.475;    0.000
446.226; 2243.125;  218.475;    0.000
446.273; 2216.125;  215.475;    0.000
446.321; 2219.125;  222.475;    0.000
446.368; 2185.125;  228.475;    0.000
446.416; 2149.125;  223.475;    0.000
446.463; 2266.125;  220.475;    0.000
446.511; 2188.125;  198.475;    0.000
446.558; 2248.125;  208.475;    0.000
446.606; 2233.125;  253.475;    0.000
446.653; 2215.125;  198.475;    0.000
446.701; 2285.125;  231.475;    0.000
446.748; 2276.125;  224.475;    0.000
446.796; 2232.125;  201.475;    0.000
446.843; 2331.125;  257.475;    0.000
446.891; 2312.125;  218.475;    0.000
446.938; 2347.125;  232.475;    0.000
446.985; 2246.125;  229.475;    0.000
447.033; 2384.125;  251.475;    0.000
447.080; 2300.125;  257.475;    0.000
447.128; 2362.125;  232.475;    0.000
447.175; 2300.125;  269.475;    0.000
447.222; 2293.125;  185.475;    0.000
447.270; 2366.125;  264.475;    0.000
447.317; 2358.125;  225.475;    0.000
447.364; 2333.125;  243.475;    0.000
447.411; 2462.125;  263.475;    0.000
447.459; 2377.125;  257.475;    0.000
447.506; 2409.125;  175.475;    0.000
447.553; 2513.125;  203.475;    0.000
447.601; 2533.125;  238.475;    0.000
447.648; 2527.125;  244.475;    0.000
447.695; 2411.125;  249.475;    0.000
447.742; 2493.125;  234.475;    0.000
447.789; 2605.125;  228.475;    0.000
447.837; 2563.125;  258.475;    0.000
447.884; 2586.125;  243.475;    0.000
447.931; 2644.125;  235.475;    0.000
447.978; 2723.125;  224.475;    0.000
448.025; 2685.125;  245.475;    0.000
448.072; 2648.125;  212.475;    0.000
448.120; 2631.125;  256.475;    0.000
448.167; 2600.125;  240.475;    0.000
448.214; 2668.125;  247.475;    0.000
448.261; 2601.125;  245.475;    0.000
448.308; 2592.125;  273.475;    0.000
448.355; 2674.125;  257.475;    0.000
448.402; 2540.125;  259.475;    0.000
448.449; 2504.125;  238.475;    0.000
448.496; 2495.125;  245.475;    0.000
448.543; 2456.125;  217.475;    0.000
448.590; 2479.125;  269.475;    0.000
448.637; 2480.125;  250.475;    0.000
448.684; 2450.125;  250.475;    0.000
448.731; 2318.125;  235.475;    0.000
448.778; 2408.125;  265.475;    0.000
448.825; 2298.125;  257.475;    0.000
448.872; 2308.125;  234.475;    0.000
448.919; 2379.125;  216.475;    0.000
448.966; 2349.125;  274.475;    0.000
449.013; 2352.125;  263.475;    0.000
449.060; 2335.125;  247.475;    0.000
449.107; 2164.125;  218.475;    0.000
449.154; 2224.125;  225.475;    0.000
449.200; 2201.125;  212.475;    0.000
449.247; 2208.125;  242.475;    0.000
449.294; 2162.125;  228.475;    0.000
449.341; 2260.125;  232.475;    0.000
449.388; 2194.125;  247.475;    0.000
449.435; 2229.125;  227.475;    0.000
449.481; 2244.125;  270.475;    0.000
449.528; 2197.125;  265.475;    0.000
449.575; 2156.125;  255.475;    0.000
449.622; 2095.125;  210.475;    0.000
449.668; 2123.125;  234.475;    0.000
449.715; 2134.125;  262.475;    0.000
449.762; 2129.125;  247.475;    0.000
449.809; 2196.125;  286.475;    0.000
449.855; 2076.125;  246.475;    0.000
449.902; 2074.125;  224.475;    0.000
449.949; 2107.125;  244.475;    0.000
449.995; 2147.125;  274.475;    0.000
450.042; 2092.125;  272.475;    0.000
450.089; 2180.125;  274.475;    0.000
450.135; 2133.125;  285.475;    0.000
450.182; 2168.125;  251.475;    0.000
450.229; 2098.125;  242.475;    0.000
450.275; 2132.125;  277.475;    0.000
450.322; 2038.125;  260.475;    0.000
450.368; 2097.125;  257.475;    0.000
450.415; 2106.125;  276.475;    0.000
450.462; 2059.125;  298.475;    0.000
450.508; 2120.125;  255.475;    0.000
450.555; 2043.125;  271.475;    0.000
450.601; 2133.125;  281.475;    0.000
450.648; 2075.125;  249.475;    0.000
450.694; 2102.125;  270.475;    0.000
450.741; 2098.125;  256.475;    0.000
450.787; 2134.125;  292.475;    0.000
450.834; 2071.125;  221.475;    0.000
450.880; 2082.125;  265.475;    0.000
450.927; 2019.125;  242.475;    0.000
450.973; 2055.125;  259.475;    0.000
451.019; 1943.125;  221.475;    0.000
451.066; 1970.125;  257.475;    0.000
451.112; 2103.125;  251.475;    0.000
451.159; 2094.125;  278.475;    0.000
451.205; 1980.125;  274.475;    0.000
451.251; 2078.125;  281.475;    0.000
451.298; 2061.125;  273.475;    0.000
451.344; 2094.125;  246.475;    0.000
451.390; 2055.125;  286.475;    0.000
451.437; 1986.125;  268.475;    0.000
451.483; 1997.125;  315.475;    0.000
451.529; 1929.125;  251.475;    0.000
451.576; 1949.125;  306.475;    0.000
451.622; 1958.125;  234.475;    0.000
451.668; 2015.125;  243.475;    0.000
451.714; 1929.125;  256.475;    0.000
451.761; 2007.125;  264.475;    0.000
451.807; 1929.125;  284.475;    0.000
451.853; 2001.125;  282.475;    0.000
451.899; 1976.125;  240.475;    0.000
451.945; 2025.125;  263.475;    0.000
451.992; 1988.125;  255.475;    0.000
452.038; 1977.125;  273.475;    0.000
452.084; 1993.125;  274.475;    0.000
452.130; 2012.125;  261.475;    0.000
452.176; 2057.125;  246.475;    0.000
452.222; 1950.125;  238.475;    0.000
452.268; 1925.125;  267.475;    0.000
452.315; 1907.125;  274.475;    0.000
452.361; 1950.125;  241.475;    0.000
452.407; 2001.125;  274.475;    0.000
452.453; 1927.125;  260.475;    0.000
452.499; 1999.125;  232.475;    0.000
452.545; 1958.125;  252.475;    0.000
452.591; 1911.125;  263.475;    0.000
452.637; 1923.125;  208.475;    0.000
452.683; 1918.125;  237.475;    0.000
452.729; 1968.125;  263.475;    0.000
452.775; 1897.125;  291.475;    0.000
452.821; 1946.125;  238.475;    0.000
452.867; 1876.125;  223.475;    0.000
452.913; 1943.125;  257.475;    0.000
452.959; 1896.125;  238.475;    0.000
453.005; 1913.125;  252.475;    0.000
453.051; 1929.125;  260.475;    0.000
453.097; 1956.125;  268.475;    0.000
453.142; 1936.125;  231.475;    0.000
453.188; 1912.125;  266.475;    0.000
453.234; 1923.125;  233.475;    0.000
453.280; 1885.125;  219.475;    0.000
453.326; 1878.125;  265.475;    0.000
453.372; 1928.125;  238.475;    0.000
453.418; 1896.125;  240.475;    0.000
453.463; 1968.125;  219.475;    0.000
453.509; 1917.125;  264.475;    0.000
453.555; 2023.125;  247.475;    0.000
453.601; 1972.125;  230.475;    0.000
453.647; 1960.125;  285.475;    0.000
453.692; 1908.125;  240.475;    0.000
453.738; 1915.125;  233.475;    0.000
453.784; 1902.125;  230.475;    0.000
453.829; 1872.125;  246.475;    0.000
453.875; 1888.125;  261.475;    0.000
453.921; 1874.125;  203.475;    0.000
453.967; 1862.125;  241.475;    0.000
454.012; 1949.125;  250.475;    0.000
454.058; 1950.125;  252.475;    0.000
454.104; 1900.125;  239.475;    0.000
454.149; 1813.125;  250.475;    0.000
454.195; 1945.125;  243.475;    0.000
454.240; 1939.125;  252.475;    0.000
454.286; 1913.125;  245.475;    0.000
454.332; 1926.125;  286.475;    0.000
454.377; 1943.125;  254.475;    0.000
454.423; 1941.125;  246.475;    0.000
454.468; 1902.125;  235.475;    0.000
454.514; 1865.125;  231.475;    0.000
454.559; 1891.125;  246.475;    0.000
454.605; 1856.125;  204.475;    0.000
454.650; 1833.125;  272.475;    0.000
454.696; 1827.125;  222.475;    0.000
454.741; 1907.125;  290.475;    0.000
454.787; 1962.125;  262.475;    0.000
454.832; 1964.125;  227.475;    0.000
454.878; 1883.125;  241.475;    0.000
454.923; 1872.125;  272.475;    0.000
454.969; 1902.125;  290.475;    0.000
455.014; 1973.125;  278.475;    0.000
455.060; 1940.125;  246.475;    0.000
455.105; 1866.125;  231.475;    0.000
455.150; 1884.125;  265.475;    0.000
455.196; 1903.125;  266.475;    0.000
455.241; 1895.125;  258.475;    0.000
455.286; 1892.125;  266.475;    0.000
455.332; 1879.125;  252.475;    0.000
455.377; 1908.125;  219.475;    0.000
455.422; 1996.125;  262.475;    0.000
455.468; 1960.125;  260.475;    0.000
455.513; 1870.125;  212.475;    0.000
455.558; 1858.125;  197.475;    0.000
455.604; 1866.125;  262.475;    0.000
455.649; 1896.125;  238.475;    0.000
455.694; 1836.125;  221.475;    0.000
455.739; 1819.125;  251.475;    0.000
455.785; 1967.125;  287.475;    0.000
455.830; 1927.125;  284.475;    0.000
455.875; 1876.125;  234.475;    0.000
455.920; 1986.125;  215.475;    0.000
455.965; 1882.125;  256.475;    0.000
456.010; 1970.125;  266.475;    0.000
456.056; 1920.125;  263.475;    0.000
456.101; 1828.125;  240.475;    0.000
456.146; 1869.125;  258.475;    0.000
456.191; 1907.125;  241.475;    0.000
456.236; 1845.125;  252.475;    0.000
456.281; 1812.125;  218.475;    0.000
456.326; 1884.125;  251.475;    0.000
456.371; 1883.125;  256.475;    0.000
456.416; 1920.125;  301.475;    0.000
456.461; 1867.125;  233.475;    0.000
456.507; 1874.125;  218.475;    0.000
456.552; 1914.125;  278.475;    0.000
456.597; 1914.125;  223.475;    0.000
456.642; 1878.125;  203.475;    0.000
456.687; 1930.125;  245.475;    0.000
456.732; 1913.125;  256.475;    0.000
456.776; 1935.125;  244.475;    0.000
456.821; 1899.125;  276.475;    0.000
456.866; 1819.125;  232.475;    0.000
456.911; 1941.125;  225.475;    0.000
456.956; 1905.125;  237.475;    0.000
457.001; 1870.125;  261.475;    0.000
457.046; 1834.125;  205.475;    0.000
457.091; 1894.125;  241.475;    0.000
457.136; 1839.125;  217.475;    0.000
457.181; 1871.125;  251.475;    0.000
457.225; 1937.125;  241.475;    0.000
457.270; 1861.125;  237.475;    0.000
457.315; 1959.125;  279.475;    0.000
457.360; 1878.125;  245.475;    0.000
457.405; 1816.125;  202.475;    0.000
457.450; 1931.125;  247.475;    0.000
457.494; 1893.125;  243.475;    0.000
457.539; 1922.125;  222.475;    0.000
457.584; 1901.125;  239.475;    0.000
457.629; 1888.125;  236.475;    0.000
457.673; 1832.125;  234.475;    0.000
457.718; 1883.125;  202.475;    0.000
457.763; 1913.125;  274.475;    0.000
457.807; 1925.125;  236.475;    0.000
457.852; 1938.125;  265.475;    0.000
457.897; 1934.125;  252.475;    0.000
457.941; 1934.125;  264.475;    0.000
457.986; 1949.125;  280.475;    0.000
458.031; 1807.125;  217.475;    0.000
458.075; 1999.125;  249.475;    0.000
458.120; 1965.125;  257.475;    0.000
458.165; 1913.125;  183.475;    0.000
458.209; 1991.125;  245.475;    0.000
458.254; 1958.125;  245.475;    0.000
458.298; 1944.125;  265.475;    0.000
458.343; 1891.125;  241.475;    0.000
458.387; 2033.125;  262.475;    0.000
458.432; 1948.125;  245.475;    0.000
458.476; 1971.125;  255.475;    0.000
458.521; 1986.125;  269.475;    0.000
458.565; 2002.125;  265.475;    0.000
458.610; 2013.125;  222.475;    0.000
458.654; 1990.125;  257.475;    0.000
458.699; 2030.125;  296.475;    0.000
458.743; 1933.125;  203.475;    0.000
458.788; 1981.125;  267.475;    0.000
458.832; 2013.125;  274.475;    0.000
458.877; 1995.125;  251.475;    0.000
458.921; 2011.125;  237.475;    0.000
458.965; 2011.125;  264.475;    0.000
459.010; 2033.125;  256.475;    0.000
459.054; 2085.125;  280.475;    0.000
459.099; 2012.125;  240.475;    0.000
459.143; 2082.125;  287.475;    0.000
459.187; 2020.125;  257.475;    0.000
459.231; 2127.125;  273.475;    0.000
459.276; 2025.125;  231.475;    0.000
459.320; 2100.125;  261.475;    0.000
459.364; 2047.125;  278.475;    0.000
459.409; 2068.125;  249.475;    0.000
459.453; 2060.125;  235.475;    0.000
459.497; 2107.125;  262.475;    0.000
459.541; 2114.125;  269.475;    0.000
459.586; 2050.125;  240.475;    0.000
459.630; 2100.125;  261.475;    0.000
459.674; 2080.125;  276.475;    0.000
459.718; 2100.125;  236.475;    0.000
459.762; 2083.125;  263.475;    0.000
459.807; 2131.125;  263.475;    0.000
459.851; 2194.125;  225.475;    0.000
459.895; 2114.125;  247.475;    0.000
459.939; 2138.125;  231.475;    0.000
459.983; 2086.125;  242.475;    0.000
460.027; 2250.125;  248.475;    0.000
460.071; 2099.125;  273.475;    0.000
460.115; 2115.125;  282.475;    0.000
460.159; 2185.125;  264.475;    0.000
460.204; 2163.125;  288.475;    0.000
460.248; 2159.125;  293.475;    0.000
460.292; 2192.125;  277.475;    0.000
460.336; 2104.125;  250.475;    0.000
460.380; 2245.125;  275.475;    0.000
460.424; 2140.125;  243.475;    0.000
460.468; 2152.125;  277.475;    0.000
460.512; 2146.125;  261.475;    0.000
460.556; 2250.125;  266.475;    0.000
460.599; 2171.125;  246.475;    0.000
460.643; 2174.125;  256.475;    0.000
460.687; 2270.125;  257.475;    0.000
460.731; 2139.125;  235.475;    0.000
460.775; 2175.125;  278.475;    0.000
460.819; 2130.125;  268.475;    0.000
460.863; 2197.125;  257.475;    0.000
460.907; 2229.125;  213.475;    0.000
460.951; 2192.125;  274.475;    0.000
460.995; 2156.125;  258.475;    0.000
461.038; 2109.125;  219.475;    0.000
461.082; 2217.125;  253.475;    0.000
461.126; 2171.125;  281.475;    0.000
461.170; 2224.125;  244.475;    0.000
461.214; 2276.125;  262.475;    0.000
461.257; 2237.125;  284.475;    0.000
461.301; 2191.125;  275.475;    0.000
461.345; 2250.125;  267.475;    0.000
461.389; 2196.125;  255.475;    0.000
461.432; 2248.125;  282.475;    0.000
461.476; 2207.125;  263.475;    0.000
461.520; 2150.125;  260.475;    0.000
461.563; 2235.125;  278.475;    0.000
461.607; 2152.125;  236.475;    0.000
461.651; 2200.125;  262.475;    0.000
461.694; 2196.125;  236.475;    0.000
461.738; 2265.125;  295.475;    0.000
461.782; 2240.125;  252.475;    0.000
461.825; 2234.125;  271.475;    0.000
461.869; 2198.125;  278.475;    0.000
461.913; 2262.125;  255.475;    0.000
461.956; 2293.125;  254.475;    0.000
462.000; 2244.125;  299.475;    0.000
462.043; 2253.125;  282.475;    0.000
462.087; 2287.125;  274.475;    0.000
462.130; 2209.125;  270.475;    0.000
462.174; 2273.125;  274.475;    0.000
462.217; 2318.125;  272.475;    0.000
462.261; 2271.125;  286.475;    0.000
462.304; 2254.125;  236.475;    0.000
462.348; 2269.125;  262.475;    0.000
462.391; 2295.125;  244.475;    0.000
462.435; 2301.125;  321.475;    0.000
462.478; 2174.125;  230.475;    0.000
462.522; 2299.125;  245.475;    0.000
462.565; 2355.125;  278.475;    0.000
462.608; 2382.125;  303.475;    0.000
462.652; 2427.125;  275.475;    0.000
462.695; 2341.125;  314.475;    0.000
462.739; 2328.125;  307.475;    0.000
462.782; 2362.125;  286.475;    0.000
462.825; 2403.125;  312.475;    0.000
462.869; 2422.125;  338.475;    0.000
462.912; 2371.125;  304.475;    0.000
462.955; 2418.125;  288.475;    0.000
462.998; 2399.125;  292.475;    0.000
463.042; 2486.125;  309.475;    0.000
463.085; 2509.125;  292.475;    0.000
463.128; 2452.125;  317.475;    0.000
463.172; 2321.125;  287.475;    0.000
463.215;  406.125;  313.475;    0.000
463.258;  303.125;  295.475;    0.000
463.301;  295.125;  275.475;    0.000
463.344;  292.125;  311.475;    0.000
463.388;  315.125;  296.475;    0.000
463.431;  303.125;  277.475;    0.000
463.474;  340.125;  364.475;    0.000
463.517;  294.125;  306.475;    0.000
463.560;  316.125;  308.475;    0.000
463.603;  324.125;  343.475;    0.000
463.646;  314.125;  309.475;    0.000
463.690;  310.125;  309.475;    0.000
463.733;  337.125;  320.475;    0.000
463.776;  310.125;  299.475;    0.000
463.819;  314.125;  320.475;    0.000
463.862;  325.125;  283.475;    0.000

