
Integration time [ms]:   1.000
Averaging Nr. [scans]: 1
Smoothing Nr. [pixels]: 0
Data measured with spectrometer [name]: UV1
Wave   ;Sample   ;Dark     ;Reference
[nm]   ;[counts] ;[counts] ;[counts] 

236.381;  177.550;  175.825;    0.000
236.451;  181.550;  220.825;    0.000
236.520;  172.550;  178.825;    0.000
236.590;  216.550;  182.825;    0.000
236.660;  177.550;  180.825;    0.000
236.730;  177.550;  201.825;    0.000
236.799;  189.550;  168.825;    0.000
236.869;  210.550;  205.825;    0.000
236.939;  176.550;  175.825;    0.000
237.009;  149.550;  186.825;    0.000
237.078;  179.550;  200.825;    0.000
237.148;  181.550;  156.825;    0.000
237.218;  177.550;  190.825;    0.000
237.287;  178.550;  167.825;    0.000
237.357;  187.550;  213.825;    0.000
237.427;  180.550;  164.825;    0.000
237.496; 1137.550;  210.825;    0.000
237.566; 1047.550;  193.825;    0.000
237.636; 1023.550;  179.825;    0.000
237.705; 1052.550;  218.825;    0.000
237.775; 1054.550;  160.825;    0.000
237.845; 1063.550;  207.825;    0.000
237.914; 1026.550;  180.825;    0.000
237.984; 1082.550;  207.825;    0.000
238.054; 1014.550;  149.825;    0.000
238.123; 1037.550;  190.825;    0.000
238.193; 1048.550;  167.825;    0.000
238.263; 1085.550;  172.825;    0.000
238.332; 1021.550;  173.825;    0.000
238.402; 1055.550;  214.825;    0.000
238.471; 1061.550;  181.825;    0.000
238.541; 1072.550;  177.825;    0.000
238.611; 1073.550;  138.825;    0.000
238.680; 1113.550;  168.825;    0.000
238.750; 1016.550;  171.825;    0.000
238.819; 1001.550;  156.825;    0.000
238.889; 1002.550;  194.825;    0.000
238.958; 1049.550;  185.825;    0.000
239.028; 1055.550;  170.825;    0.000
239.097; 1040.550;  159.825;    0.000
239.167; 1071.550;  208.825;    0.000
239.237; 1025.550;  167.825;    0.000
239.306; 1069.550;  154.825;    0.000
239.376; 1032.550;  183.825;    0.000
239.445; 1054.550;  221.825;    0.000
239.515; 1024.550;  208.825;    0.000
239.584; 1065.550;  177.825;    0.000
239.654; 1011.550;  133.825;    0.000
239.723; 1018.550;  167.825;    0.000
239.793; 1063.550;  190.825;    0.000
239.862; 1084.550;  192.825;    0.000
239.932; 1035.550;  174.825;    0.000
240.001; 1048.550;  166.825;    0.000
240.070; 1057.550;  179.825;    0.000
240.140; 1018.550;  191.825;    0.000
240.209; 1064.550;  134.825;    0.000
240.279; 1020.550;  185.825;    0.000
240.348; 1036.550;  193.825;    0.000
240.418; 1015.550;  149.825;    0.000
240.487; 1013.550;  197.825;    0.000
240.556; 1006.550;  193.825;    0.000
240.626; 1050.550;  178.825;    0.000
240.695;  986.550;  194.825;    0.000
240.765; 1046.550;  178.825;    0.000
240.834; 1025.550;  190.825;    0.000
240.903; 1027.550;  212.825;    0.000
240.973; 1027.550;  153.825;    0.000
241.042; 1037.550;  177.825;    0.000
241.112; 1021.550;  193.825;    0.000
241.181; 1025.550;  171.825;    0.000
241.250;  962.550;  152.825;    0.000
241.320; 1030.550;  176.825;    0.000
241.389; 1047.550;  186.825;    0.000
241.458;  989.550;  182.825;    0.000
241.528;  991.550;  175.825;    0.000
241.597; 1053.550;  180.825;    0.000
241.666; 1045.550;  162.825;    0.000
241.736; 1008.550;  187.825;    0.000
241.805;  997.550;  173.825;    0.000
241.874; 1014.550;  177.825;    0.000
241.943;  991.550;  208.825;    0.000
242.013; 1001.550;  183.825;    0.000
242.082;  954.550;  171.825;    0.000
242.151; 1033.550;  208.825;    0.000
242.221; 1015.550;  160.825;    0.000
242.290; 1032.550;  200.825;    0.000
242.359;  967.550;  167.825;    0.000
242.428; 1041.550;  213.825;    0.000
242.498;  889.550;  156.825;    0.000
242.567;  948.550;  200.825;    0.000
242.636; 1026.550;  178.825;    0.000
242.705;  970.550;  185.825;    0.000
242.774; 1003.550;  190.825;    0.000
242.844; 1015.550;  194.825;    0.000
242.913; 1038.550;  162.825;    0.000
242.982;  979.550;  189.825;    0.000
243.051;  933.550;  176.825;    0.000
243.120;  990.550;  213.825;    0.000
243.190;  960.550;  155.825;    0.000
243.259;  999.550;  183.825;    0.000
243.328;  972.550;  170.825;    0.000
243.397;  987.550;  224.825;    0.000
243.466;  919.550;  172.825;    0.000
243.535;  960.550;  145.825;    0.000
243.605;  944.550;  157.825;    0.000
243.674; 1006.550;  199.825;    0.000
243.743; 1026.550;  196.825;    0.000
243.812;  942.550;  152.825;    0.000
243.881;  978.550;  188.825;    0.000
243.950; 1042.550;  154.825;    0.000
244.019;  977.550;  195.825;    0.000
244.088; 1011.550;  164.825;    0.000
244.158; 1055.550;  220.825;    0.000
244.227;  999.550;  150.825;    0.000
244.296;  987.550;  153.825;    0.000
244.365; 1009.550;  195.825;    0.000
244.434;  944.550;  136.825;    0.000
244.503;  884.550;  172.825;    0.000
244.572;  974.550;  129.825;    0.000
244.641;  972.550;  132.825;    0.000
244.710;  963.550;  185.825;    0.000
244.779;  934.550;  164.825;    0.000
244.848;  926.550;  132.825;    0.000
244.917;  955.550;  196.825;    0.000
244.986;  952.550;  148.825;    0.000
245.055;  960.550;  192.825;    0.000
245.124;  911.550;  170.825;    0.000
245.193;  965.550;  172.825;    0.000
245.262;  958.550;  146.825;    0.000
245.331;  934.550;  178.825;    0.000
245.400;  868.550;  108.825;    0.000
245.469;  916.550;  173.825;    0.000
245.538;  863.550;  180.825;    0.000
245.607;  873.550;  171.825;    0.000
245.676;  861.550;  149.825;    0.000
245.745;  926.550;  194.825;    0.000
245.814;  888.550;  186.825;    0.000
245.883;  870.550;  192.825;    0.000
245.952;  827.550;  169.825;    0.000
246.021;  891.550;  190.825;    0.000
246.090;  807.550;  181.825;    0.000
246.159;  920.550;  179.825;    0.000
246.227;  867.550;  182.825;    0.000
246.296;  848.550;  182.825;    0.000
246.365;  834.550;  171.825;    0.000
246.434;  896.550;  218.825;    0.000
246.503;  810.550;  147.825;    0.000
246.572;  890.550;  227.825;    0.000
246.641;  824.550;  193.825;    0.000
246.710;  825.550;  207.825;    0.000
246.779;  874.550;  181.825;    0.000
246.847;  873.550;  179.825;    0.000
246.916;  737.550;  155.825;    0.000
246.985;  858.550;  168.825;    0.000
247.054;  793.550;  137.825;    0.000
247.123;  833.550;  128.825;    0.000
247.192;  857.550;  163.825;    0.000
247.260;  841.550;  173.825;    0.000
247.329;  813.550;  174.825;    0.000
247.398;  795.550;  238.825;    0.000
247.467;  873.550;  168.825;    0.000
247.536;  823.550;  203.825;    0.000
247.604;  837.550;  194.825;    0.000
247.673;  807.550;  145.825;    0.000
247.742;  772.550;  167.825;    0.000
247.811;  855.550;  180.825;    0.000
247.879;  822.550;  187.825;    0.000
247.948;  815.550;  187.825;    0.000
248.017;  854.550;  170.825;    0.000
248.086;  840.550;  223.825;    0.000
248.154;  836.550;  160.825;    0.000
248.223;  859.550;  163.825;    0.000
248.292;  832.550;  201.825;    0.000
248.361;  805.550;  205.825;    0.000
248.429;  828.550;  191.825;    0.000
248.498;  796.550;  194.825;    0.000
248.567;  840.550;  217.825;    0.000
248.635;  908.550;  224.825;    0.000
248.704;  799.550;  204.825;    0.000
248.773;  856.550;  175.825;    0.000
248.841;  844.550;  157.825;    0.000
248.910;  806.550;  206.825;    0.000
248.979;  796.550;  170.825;    0.000
249.047;  818.550;  178.825;    0.000
249.116;  802.550;  183.825;    0.000
249.185;  842.550;  202.825;    0.000
249.253;  771.550;  159.825;    0.000
249.322;  850.550;  177.825;    0.000
249.390;  773.550;  157.825;    0.000
249.459;  807.550;  211.825;    0.000
249.528;  825.550;  181.825;    0.000
249.596;  774.550;  179.825;    0.000
249.665;  799.550;  176.825;    0.000
249.733;  761.550;  186.825;    0.000
249.802;  796.550;  185.825;    0.000
249.871;  817.550;  166.825;    0.000
249.939;  787.550;  163.825;    0.000
250.008;  812.550;  212.825;    0.000
250.076;  809.550;  227.825;    0.000
250.145;  792.550;  172.825;    0.000
250.213;  807.550;  173.825;    0.000
250.282;  772.550;  189.825;    0.000
250.350;  804.550;  166.825;    0.000
250.419;  777.550;  161.825;    0.000
250.487;  808.550;  178.825;    0.000
250.556;  802.550;  208.825;    0.000
250.624;  752.550;  190.825;    0.000
250.693;  694.550;  163.825;    0.000
250.761;  753.550;  194.825;    0.000
250.830;  808.550;  225.825;    0.000
250.898;  771.550;  140.825;    0.000
250.967;  768.550;  167.825;    0.000
251.035;  807.550;  155.825;    0.000
251.104;  787.550;  189.825;    0.000
251.172;  712.550;  136.825;    0.000
251.241;  756.550;  148.825;    0.000
251.309;  742.550;  201.825;    0.000
251.378;  794.550;  169.825;    0.000
251.446;  770.550;  178.825;    0.000
251.514;  760.550;  206.825;    0.000
251.583;  784.550;  178.825;    0.000
251.651;  763.550;  168.825;    0.000
251.720;  759.550;  190.825;    0.000
251.788;  829.550;  209.825;    0.000
251.856;  740.550;  173.825;    0.000
251.925;  690.550;  171.825;    0.000
251.993;  744.550;  188.825;    0.000
252.062;  766.550;  169.825;    0.000
252.130;  769.550;  196.825;    0.000
252.198;  798.550;  210.825;    0.000
252.267;  747.550;  181.825;    0.000
252.335;  752.550;  164.825;    0.000
252.403;  741.550;  152.825;    0.000
252.472;  757.550;  166.825;    0.000
252.540;  703.550;  189.825;    0.000
252.608;  756.550;  198.825;    0.000
252.677;  704.550;  156.825;    0.000
252.745;  751.550;  184.825;    0.000
252.813;  729.550;  163.825;    0.000
252.881;  646.550;  130.825;    0.000
252.950;  714.550;  189.825;    0.000
253.018;  634.550;  164.825;    0.000
253.086;  662.550;  172.825;    0.000
253.155;  629.550;  205.825;    0.000
253.223;  667.550;  175.825;    0.000
253.291;  621.550;  176.825;    0.000
253.359;  623.550;  182.825;    0.000
253.428;  597.550;  222.825;    0.000
253.496;  625.550;  166.825;    0.000
253.564;  562.550;  135.825;    0.000
253.632;  591.550;  184.825;    0.000
253.700;  610.550;  173.825;    0.000
253.769;  565.550;  163.825;    0.000
253.837;  565.550;  179.825;    0.000
253.905;  567.550;  157.825;    0.000
253.973;  598.550;  164.825;    0.000
254.041;  591.550;  170.825;    0.000
254.110;  565.550;  169.825;    0.000
254.178;  569.550;  165.825;    0.000
254.246;  576.550;  126.825;    0.000
254.314;  589.550;  166.825;    0.000
254.382;  586.550;  169.825;    0.000
254.450;  577.550;  170.825;    0.000
254.518;  575.550;  196.825;    0.000
254.587;  572.550;  161.825;    0.000
254.655;  575.550;  187.825;    0.000
254.723;  557.550;  144.825;    0.000
254.791;  611.550;  175.825;    0.000
254.859;  598.550;  168.825;    0.000
254.927;  634.550;  198.825;    0.000
254.995;  584.550;  165.825;    0.000
255.063;  617.550;  150.825;    0.000
255.131;  550.550;  181.825;    0.000
255.199;  583.550;  160.825;    0.000
255.267;  571.550;  131.825;    0.000
255.336;  586.550;  188.825;    0.000
255.404;  561.550;  163.825;    0.000
255.472;  663.550;  192.825;    0.000
255.540;  586.550;  158.825;    0.000
255.608;  602.550;  147.825;    0.000
255.676;  587.550;  166.825;    0.000
255.744;  591.550;  159.825;    0.000
255.812;  620.550;  164.825;    0.000
255.880;  675.550;  195.825;    0.000
255.948;  653.550;  167.825;    0.000
256.016;  642.550;  185.825;    0.000
256.084;  626.550;  191.825;    0.000
256.152;  598.550;  214.825;    0.000
256.220;  662.550;  195.825;    0.000
256.288;  659.550;  185.825;    0.000
256.356;  637.550;  168.825;    0.000
256.424;  603.550;  161.825;    0.000
256.491;  623.550;  161.825;    0.000
256.559;  627.550;  157.825;    0.000
256.627;  664.550;  164.825;    0.000
256.695;  627.550;  146.825;    0.000
256.763;  710.550;  194.825;    0.000
256.831;  704.550;  182.825;    0.000
256.899;  654.550;  192.825;    0.000
256.967;  684.550;  172.825;    0.000
257.035;  688.550;  169.825;    0.000
257.103;  703.550;  223.825;    0.000
257.171;  676.550;  141.825;    0.000
257.238;  689.550;  146.825;    0.000
257.306;  678.550;  180.825;    0.000
257.374;  704.550;  138.825;    0.000
257.442;  778.550;  135.825;    0.000
257.510;  742.550;  130.825;    0.000
257.578;  741.550;  123.825;    0.000
257.646;  735.550;  162.825;    0.000
257.713;  724.550;  149.825;    0.000
257.781;  737.550;  125.825;    0.000
257.849;  763.550;  149.825;    0.000
257.917;  809.550;  177.825;    0.000
257.985;  832.550;  143.825;    0.000
258.052;  794.550;  154.825;    0.000
258.120;  791.550;  162.825;    0.000
258.188;  812.550;  172.825;    0.000
258.256;  813.550;  160.825;    0.000
258.324;  880.550;  209.825;    0.000
258.391;  889.550;  153.825;    0.000
258.459;  858.550;  133.825;    0.000
258.527;  844.550;  160.825;    0.000
258.595;  801.550;  128.825;    0.000
258.662;  832.550;  114.825;    0.000
258.730;  929.550;  192.825;    0.000
258.798;  893.550;  144.825;    0.000
258.865;  928.550;  140.825;    0.000
258.933;  915.550;  150.825;    0.000
259.001;  924.550;  149.825;    0.000
259.069;  873.550;  110.825;    0.000
259.136;  981.550;  150.825;    0.000
259.204;  914.550;  156.825;    0.000
259.272; 1028.550;  185.825;    0.000
259.339;  924.550;  148.825;    0.000
259.407; 1025.550;  163.825;    0.000
259.475;  981.550;  129.825;    0.000
259.542;  993.550;  144.825;    0.000
259.610; 1038.550;  164.825;    0.000
259.677; 1008.550;  188.825;    0.000
259.745; 1015.550;  113.825;    0.000
259.813; 1095.550;  188.825;    0.000
259.880; 1133.550;  174.825;    0.000
259.948; 1039.550;  166.825;    0.000
260.016; 1064.550;  150.825;    0.000
260.083; 1136.550;  178.825;    0.000
260.151; 1114.550;  120.825;    0.000
260.218; 1097.550;  175.825;    0.000
260.286; 1136.550;  155.825;    0.000
260.353; 1144.550;  165.825;    0.000
260.421; 1150.550;  169.825;    0.000
260.489; 1157.550;  194.825;    0.000
260.556; 1205.550;  161.825;    0.000
260.624; 1170.550;  179.825;    0.000
260.691; 1190.550;  174.825;    0.000
260.759; 1241.550;  164.825;    0.000
260.826; 1209.550;  125.825;    0.000
260.894; 1227.550;  164.825;    0.000
260.961; 1233.550;  147.825;    0.000
261.029; 1237.550;  167.825;    0.000
261.096; 1311.550;  136.825;    0.000
261.164; 1297.550;  146.825;    0.000
261.231; 1346.550;  190.825;    0.000
261.299; 1321.550;  171.825;    0.000
261.366; 1301.550;  165.825;    0.000
261.434; 1288.550;  160.825;    0.000
261.501; 1375.550;  149.825;    0.000
261.568; 1305.550;  155.825;    0.000
261.636; 1321.550;  137.825;    0.000
261.703; 1405.550;  186.825;    0.000
261.771; 1360.550;  162.825;    0.000
261.838; 1454.550;  190.825;    0.000
261.906; 1423.550;  133.825;    0.000
261.973; 1429.550;  202.825;    0.000
262.040; 1409.550;  179.825;    0.000
262.108; 1432.550;  161.825;    0.000
262.175; 1483.550;  155.825;    0.000
262.243; 1484.550;  158.825;    0.000
262.310; 1547.550;  129.825;    0.000
262.377; 1513.550;  157.825;    0.000
262.445; 1528.550;  132.825;    0.000
262.512; 1548.550;  161.825;    0.000
262.579; 1424.550;  151.825;    0.000
262.647; 1572.550;  174.825;    0.000
262.714; 1563.550;  174.825;    0.000
262.781; 1502.550;  164.825;    0.000
262.849; 1548.550;  168.825;    0.000
262.916; 1590.550;  153.825;    0.000
262.983; 1630.550;  201.825;    0.000
263.051; 1580.550;  117.825;    0.000
263.118; 1557.550;  150.825;    0.000
263.185; 1666.550;  172.825;    0.000
263.252; 1597.550;  154.825;    0.000
263.320; 1635.550;  152.825;    0.000
263.387; 1694.550;  136.825;    0.000
263.454; 1641.550;  167.825;    0.000
263.522; 1703.550;  122.825;    0.000
263.589; 1759.550;  147.825;    0.000
263.656; 1682.550;  130.825;    0.000
263.723; 1745.550;  182.825;    0.000
263.790; 1707.550;  163.825;    0.000
263.858; 1774.550;  161.825;    0.000
263.925; 1728.550;  153.825;    0.000
263.992; 1779.550;  139.825;    0.000
264.059; 1797.550;  141.825;    0.000
264.126; 1856.550;  153.825;    0.000
264.194; 1871.550;  144.825;    0.000
264.261; 1834.550;  188.825;    0.000
264.328; 1800.550;  161.825;    0.000
264.395; 1881.550;  184.825;    0.000
264.462; 1892.550;  162.825;    0.000
264.529; 1804.550;  178.825;    0.000
264.597; 1867.550;  160.825;    0.000
264.664; 1864.550;  158.825;    0.000
264.731; 1901.550;  176.825;    0.000
264.798; 1830.550;  137.825;    0.000
264.865; 1892.550;  175.825;    0.000
264.932; 1960.550;  162.825;    0.000
264.999; 1956.550;  153.825;    0.000
265.066; 1997.550;  168.825;    0.000
265.133; 1987.550;  142.825;    0.000
265.201; 1958.550;  163.825;    0.000
265.268; 1896.550;  143.825;    0.000
265.335; 2004.550;  156.825;    0.000
265.402; 2021.550;  136.825;    0.000
265.469; 1964.550;  127.825;    0.000
265.536; 2003.550;  159.825;    0.000
265.603; 2120.550;  191.825;    0.000
265.670; 1992.550;  136.825;    0.000
265.737; 2127.550;  186.825;    0.000
265.804; 2068.550;  147.825;    0.000
265.871; 2002.550;  147.825;    0.000
265.938; 2182.550;  153.825;    0.000
266.005; 2076.550;  172.825;    0.000
266.072; 2154.550;  151.825;    0.000
266.139; 2120.550;  175.825;    0.000
266.206; 2145.550;  165.825;    0.000
266.273; 2125.550;  162.825;    0.000
266.340; 2200.550;  150.825;    0.000
266.407; 2145.550;  169.825;    0.000
266.474; 2102.550;  151.825;    0.000
266.541; 2145.550;  164.825;    0.000
266.608; 2147.550;  111.825;    0.000
266.675; 2154.550;  173.825;    0.000
266.742; 2237.550;  148.825;    0.000
266.808; 2187.550;  185.825;    0.000
266.875; 2175.550;  188.825;    0.000
266.942; 2212.550;  131.825;    0.000
267.009; 2147.550;  184.825;    0.000
267.076; 2273.550;  200.825;    0.000
267.143; 2276.550;  216.825;    0.000
267.210; 2256.550;  138.825;    0.000
267.277; 2228.550;  143.825;    0.000
267.344; 2226.550;  172.825;    0.000
267.410; 2253.550;  172.825;    0.000
267.477; 2228.550;  160.825;    0.000
267.544; 2248.550;  175.825;    0.000
267.611; 2290.550;  189.825;    0.000
267.678; 2261.550;  162.825;    0.000
267.745; 2295.550;  206.825;    0.000
267.811; 2304.550;  146.825;    0.000
267.878; 2268.550;  147.825;    0.000
267.945; 2235.550;  170.825;    0.000
268.012; 2253.550;  153.825;    0.000
268.079; 2286.550;  185.825;    0.000
268.145; 2348.550;  197.825;    0.000
268.212; 2320.550;  167.825;    0.000
268.279; 2340.550;  145.825;    0.000
268.346; 2245.550;  182.825;    0.000
268.412; 2277.550;  144.825;    0.000
268.479; 2272.550;  186.825;    0.000
268.546; 2330.550;  147.825;    0.000
268.613; 2364.550;  188.825;    0.000
268.679; 2279.550;  173.825;    0.000
268.746; 2309.550;  204.825;    0.000
268.813; 2306.550;  199.825;    0.000
268.879; 2301.550;  157.825;    0.000
268.946; 2404.550;  192.825;    0.000
269.013; 2350.550;  136.825;    0.000
269.079; 2283.550;  166.825;    0.000
269.146; 2269.550;  129.825;    0.000
269.213; 2251.550;  178.825;    0.000
269.280; 2302.550;  148.825;    0.000
269.346; 2253.550;  194.825;    0.000
269.413; 2204.550;  135.825;    0.000
269.479; 2313.550;  180.825;    0.000
269.546; 2374.550;  169.825;    0.000
269.613; 2299.550;  160.825;    0.000
269.679; 2393.550;  161.825;    0.000
269.746; 2334.550;  143.825;    0.000
269.813; 2305.550;  172.825;    0.000
269.879; 2245.550;  152.825;    0.000
269.946; 2328.550;  156.825;    0.000
270.012; 2303.550;  190.825;    0.000
270.079; 2301.550;  143.825;    0.000
270.145; 2299.550;  148.825;    0.000
270.212; 2263.550;  176.825;    0.000
270.279; 2306.550;  168.825;    0.000
270.345; 2382.550;  143.825;    0.000
270.412; 2313.550;  155.825;    0.000
270.478; 2320.550;  176.825;    0.000
270.545; 2286.550;  112.825;    0.000
270.611; 2345.550;  186.825;    0.000
270.678; 2269.550;  141.825;    0.000
270.744; 2321.550;  145.825;    0.000
270.811; 2304.550;  120.825;    0.000
270.877; 2231.550;  118.825;    0.000
270.944; 2287.550;  135.825;    0.000
271.010; 2251.550;  128.825;    0.000
271.077; 2327.550;  176.825;    0.000
271.143; 2256.550;  162.825;    0.000
271.210; 2292.550;  133.825;    0.000
271.276; 2234.550;  107.825;    0.000
271.342; 2320.550;  202.825;    0.000
271.409; 2326.550;  160.825;    0.000
271.475; 2266.550;  165.825;    0.000
271.542; 2284.550;  152.825;    0.000
271.608; 2255.550;  163.825;    0.000
271.675; 2268.550;  149.825;    0.000
271.741; 2279.550;  164.825;    0.000
271.807; 2241.550;  128.825;    0.000
271.874; 2366.550;  148.825;    0.000
271.940; 2318.550;  179.825;    0.000
272.007; 2264.550;  148.825;    0.000
272.073; 2316.550;  146.825;    0.000
272.139; 2309.550;  166.825;    0.000
272.206; 2327.550;  198.825;    0.000
272.272; 2349.550;  201.825;    0.000
272.338; 2366.550;  208.825;    0.000
272.405; 2338.550;  181.825;    0.000
272.471; 2239.550;  167.825;    0.000
272.537; 2360.550;  189.825;    0.000
272.604; 2331.550;  162.825;    0.000
272.670; 2299.550;  194.825;    0.000
272.736; 2221.550;  176.825;    0.000
272.802; 2272.550;  163.825;    0.000
272.869; 2294.550;  170.825;    0.000
272.935; 2384.550;  145.825;    0.000
273.001; 2248.550;  149.825;    0.000
273.068; 2317.550;  172.825;    0.000
273.134; 2430.550;  155.825;    0.000
273.200; 2371.550;  183.825;    0.000
273.266; 2382.550;  160.825;    0.000
273.333; 2430.550;  190.825;    0.000
273.399; 2309.550;  132.825;    0.000
273.465; 2309.550;  179.825;    0.000
273.531; 2330.550;  161.825;    0.000
273.597; 2391.550;  194.825;    0.000
273.664; 2423.550;  193.825;    0.000
273.730; 2385.550;  180.825;    0.000
273.796; 2411.550;  145.825;    0.000
273.862; 2453.550;  176.825;    0.000
273.928; 2486.550;  169.825;    0.000
273.995; 2450.550;  202.825;    0.000
274.061; 2469.550;  176.825;    0.000
274.127; 2436.550;  178.825;    0.000
274.193; 2389.550;  106.825;    0.000
274.259; 2459.550;  186.825;    0.000
274.325; 2481.550;  163.825;    0.000
274.391; 2489.550;  162.825;    0.000
274.457; 2572.550;  145.825;    0.000
274.524; 2595.550;  189.825;    0.000
274.590; 2598.550;  161.825;    0.000
274.656; 2591.550;  157.825;    0.000
274.722; 2495.550;  143.825;    0.000
274.788; 2516.550;  166.825;    0.000
274.854; 2678.550;  200.825;    0.000
274.920; 2651.550;  132.825;    0.000
274.986; 2568.550;  184.825;    0.000
275.052; 2742.550;  169.825;    0.000
275.118; 2682.550;  153.825;    0.000
275.184; 2779.550;  182.825;    0.000
275.250; 2708.550;  124.825;    0.000
275.316; 2714.550;  154.825;    0.000
275.382; 2827.550;  150.825;    0.000
275.448; 2773.550;  180.825;    0.000
275.514; 2800.550;  143.825;    0.000
275.580; 2890.550;  120.825;    0.000
275.646; 2779.550;  127.825;    0.000
275.712; 2874.550;  109.825;    0.000
275.778; 2877.550;  126.825;    0.000
275.844; 2964.550;  155.825;    0.000
275.910; 3051.550;  164.825;    0.000
275.976; 3066.550;  161.825;    0.000
276.042; 3063.550;  152.825;    0.000
276.108; 3131.550;  159.825;    0.000
276.174; 3104.550;  149.825;    0.000
276.240; 3138.550;  112.825;    0.000
276.306; 3173.550;  142.825;    0.000
276.372; 3320.550;  136.825;    0.000
276.437; 3332.550;  141.825;    0.000
276.503; 3308.550;  150.825;    0.000
276.569; 3517.550;  178.825;    0.000
276.635; 3459.550;  117.825;    0.000
276.701; 3598.550;  174.825;    0.000
276.767; 3576.550;  136.825;    0.000
276.833; 3740.550;  119.825;    0.000
276.899; 3797.550;  171.825;    0.000
276.964; 3874.550;  146.825;    0.000
277.030; 3929.550;  157.825;    0.000
277.096; 4070.550;  124.825;    0.000
277.162; 4198.550;  185.825;    0.000
277.228; 4351.550;  125.825;    0.000
277.293; 4567.550;  159.825;    0.000
277.359; 4597.550;  186.825;    0.000
277.425; 4811.550;  176.825;    0.000
277.491; 5147.550;  140.825;    0.000
277.557; 6064.550;  172.825;    0.000
277.622; 7578.550;  187.825;    0.000
277.688; 7965.550;  203.825;    0.000
277.754; 8078.550;  170.825;    0.000
277.820; 8892.550;  142.825;    0.000
277.885;10218.550;  182.825;    0.000
277.951;12497.550;  171.825;    0.000
278.017;11089.550;  173.825;    0.000
278.083; 9783.550;  151.825;    0.000
278.148; 9566.550;  159.825;    0.000
278.214; 9673.550;  173.825;    0.000
278.280; 9999.550;  137.825;    0.000
278.345; 9199.550;  190.825;    0.000
278.411; 9026.550;  149.825;    0.000
278.477; 9261.550;  157.825;    0.000
278.542; 9879.550;  136.825;    0.000
278.608;10488.550;  144.825;    0.000
278.674;11642.550;  215.825;    0.000
278.739;12957.550;  148.825;    0.000
278.805;14691.550;  152.825;    0.000
278.871;17152.551;  170.825;    0.000
278.936;21028.551;  180.825;    0.000
279.002;29373.551;  177.825;    0.000
279.067;36813.551;  172.825;    0.000
279.133;36214.551;  160.825;    0.000
279.199;33942.551;  165.825;    0.000
279.264;34742.551;  130.825;    0.000
279.330;39679.551;  154.825;    0.000
279.395;48031.551;  170.825;    0.000
279.461;56757.551;  136.825;    0.000
279.527;61341.551;  174.825;    0.000
279.592;59215.551;  179.825;    0.000
279.658;53156.551;  187.825;    0.000
279.723;52892.551;  201.825;    0.000
279.789;54037.551;  194.825;    0.000
279.854;49183.551;  171.825;    0.000
279.920;42558.551;  183.825;    0.000
279.985;39456.551;  173.825;    0.000
280.051;40430.551;  194.825;    0.000
280.116;45231.551;  197.825;    0.000
280.182;54934.551;  171.825;    0.000
280.247;59627.551;  131.825;    0.000
280.313;53462.551;  166.825;    0.000
280.378;42669.551;  159.825;    0.000
280.444;33218.551;  190.825;    0.000
280.509;27361.551;  189.825;    0.000
280.574;23294.551;  171.825;    0.000
280.640;20183.551;  167.825;    0.000
280.705;18047.551;  129.825;    0.000
280.771;16285.550;  193.825;    0.000
280.836;15081.550;  172.825;    0.000
280.902;14019.550;  189.825;    0.000
280.967;13070.550;  143.825;    0.000
281.032;12376.550;  182.825;    0.000
281.098;11541.550;  172.825;    0.000
281.163;10901.550;  184.825;    0.000
281.229;10366.550;  210.825;    0.000
281.294; 9839.550;  223.825;    0.000
281.359; 9586.550;  197.825;    0.000
281.425; 9261.550;  192.825;    0.000
281.490; 8765.550;  162.825;    0.000
281.555; 8345.550;  193.825;    0.000
281.621; 8130.550;  141.825;    0.000
281.686; 7677.550;  166.825;    0.000
281.751; 7541.550;  204.825;    0.000
281.816; 7331.550;  159.825;    0.000
281.882; 7149.550;  146.825;    0.000
281.947; 6791.550;  176.825;    0.000
282.012; 6699.550;  139.825;    0.000
282.078; 6657.550;  186.825;    0.000
282.143; 6302.550;  151.825;    0.000
282.208; 6231.550;  213.825;    0.000
282.273; 6182.550;  160.825;    0.000
282.339; 5960.550;  175.825;    0.000
282.404; 5835.550;  157.825;    0.000
282.469; 5809.550;  185.825;    0.000
282.534; 5750.550;  166.825;    0.000
282.600; 5739.550;  168.825;    0.000
282.665; 5466.550;  167.825;    0.000
282.730; 5410.550;  148.825;    0.000
282.795; 5295.550;  186.825;    0.000
282.860; 5203.550;  161.825;    0.000
282.926; 5218.550;  178.825;    0.000
282.991; 4975.550;  139.825;    0.000
283.056; 5083.550;  158.825;    0.000
283.121; 4904.550;  191.825;    0.000
283.186; 4992.550;  182.825;    0.000
283.251; 4885.550;  181.825;    0.000
283.316; 4884.550;  187.825;    0.000
283.382; 4782.550;  175.825;    0.000
283.447; 4852.550;  183.825;    0.000
283.512; 4744.550;  175.825;    0.000
283.577; 4677.550;  180.825;    0.000
283.642; 4596.550;  193.825;    0.000
283.707; 4559.550;  145.825;    0.000
283.772; 4530.550;  143.825;    0.000
283.837; 4488.550;  143.825;    0.000
283.902; 4555.550;  150.825;    0.000
283.967; 4650.550;  166.825;    0.000
284.032; 4652.550;  126.825;    0.000
284.097; 4579.550;  201.825;    0.000
284.163; 4576.550;  133.825;    0.000
284.228; 4496.550;  193.825;    0.000
284.293; 4625.550;  157.825;    0.000
284.358; 4532.550;  185.825;    0.000
284.423; 4492.550;  142.825;    0.000
284.488; 4736.550;  192.825;    0.000
284.553; 4890.550;  146.825;    0.000
284.618; 4967.550;  154.825;    0.000
284.683; 5078.550;  172.825;    0.000
284.748; 5240.550;  195.825;    0.000
284.812; 5522.550;  190.825;    0.000
284.877; 6061.550;  169.825;    0.000
284.942; 6732.550;  195.825;    0.000
285.007; 8119.550;  204.825;    0.000
285.072;10840.550;  189.825;    0.000
285.137;16503.551;  149.825;    0.000
285.202;21579.551;  164.825;    0.000
285.267;19236.551;  161.825;    0.000
285.332;13928.550;  140.825;    0.000
285.397;10132.550;  142.825;    0.000
285.462; 8604.550;  146.825;    0.000
285.527; 7188.550;  132.825;    0.000
285.591; 6670.550;  160.825;    0.000
285.656; 6076.550;  136.825;    0.000
285.721; 5670.550;  135.825;    0.000
285.786; 5424.550;  171.825;    0.000
285.851; 5128.550;  168.825;    0.000
285.916; 5069.550;  178.825;    0.000
285.981; 4674.550;  152.825;    0.000
286.045; 4807.550;  167.825;    0.000
286.110; 4522.550;  187.825;    0.000
286.175; 4474.550;  162.825;    0.000
286.240; 4385.550;  163.825;    0.000
286.305; 4447.550;  190.825;    0.000
286.369; 4272.550;  143.825;    0.000
286.434; 4293.550;  185.825;    0.000
286.499; 4089.550;  195.825;    0.000
286.564; 4239.550;  173.825;    0.000
286.628; 4212.550;  159.825;    0.000
286.693; 4136.550;  175.825;    0.000
286.758; 4091.550;  170.825;    0.000
286.823; 4023.550;  129.825;    0.000
286.887; 4100.550;  172.825;    0.000
286.952; 4044.550;  163.825;    0.000
287.017; 4010.550;  217.825;    0.000
287.082; 4000.550;  165.825;    0.000
287.146; 3906.550;  176.825;    0.000
287.211; 3990.550;  192.825;    0.000
287.276; 3908.550;  147.825;    0.000
287.340; 3859.550;  162.825;    0.000
287.405; 3858.550;  196.825;    0.000
287.470; 3811.550;  148.825;    0.000
287.534; 3975.550;  166.825;    0.000
287.599; 3908.550;  193.825;    0.000
287.663; 3894.550;  191.825;    0.000
287.728; 3713.550;  146.825;    0.000
287.793; 3806.550;  234.825;    0.000
287.857; 3924.550;  177.825;    0.000
287.922; 3754.550;  166.825;    0.000
287.987; 3775.550;  169.825;    0.000
288.051; 3789.550;  169.825;    0.000
288.116; 3833.550;  187.825;    0.000
288.180; 3720.550;  200.825;    0.000
288.245; 3719.550;  201.825;    0.000
288.309; 3828.550;  176.825;    0.000
288.374; 3763.550;  162.825;    0.000
288.439; 3721.550;  195.825;    0.000
288.503; 3788.550;  162.825;    0.000
288.568; 3706.550;  228.825;    0.000
288.632; 3684.550;  194.825;    0.000
288.697; 3768.550;  173.825;    0.000
288.761; 3761.550;  153.825;    0.000
288.826; 3608.550;  151.825;    0.000
288.890; 3667.550;  208.825;    0.000
288.955; 3680.550;  159.825;    0.000
289.019; 3734.550;  198.825;    0.000
289.084; 3621.550;  152.825;    0.000
289.148; 3638.550;  171.825;    0.000
289.212; 3706.550;  184.825;    0.000
289.277; 3810.550;  165.825;    0.000
289.341; 3659.550;  207.825;    0.000
289.406; 3613.550;  156.825;    0.000
289.470; 3589.550;  191.825;    0.000
289.535; 3631.550;  222.825;    0.000
289.599; 3599.550;  214.825;    0.000
289.663; 3698.550;  183.825;    0.000
289.728; 3665.550;  192.825;    0.000
289.792; 3691.550;  197.825;    0.000
289.857; 3654.550;  221.825;    0.000
289.921; 3520.550;  177.825;    0.000
289.985; 3685.550;  177.825;    0.000
290.050; 3721.550;  178.825;    0.000
290.114; 3640.550;  112.825;    0.000
290.178; 3683.550;  170.825;    0.000
290.243; 3620.550;  162.825;    0.000
290.307; 3671.550;  178.825;    0.000
290.371; 3633.550;  141.825;    0.000
290.436; 3718.550;  178.825;    0.000
290.500; 3566.550;  135.825;    0.000
290.564; 3646.550;  199.825;    0.000
290.629; 3612.550;  165.825;    0.000
290.693; 3655.550;  154.825;    0.000
290.757; 3669.550;  159.825;    0.000
290.821; 3659.550;  179.825;    0.000
290.886; 3619.550;  141.825;    0.000
290.950; 3668.550;  166.825;    0.000
291.014; 3706.550;  169.825;    0.000
291.078; 3651.550;  191.825;    0.000
291.143; 3874.550;  169.825;    0.000
291.207; 3704.550;  164.825;    0.000
291.271; 3832.550;  193.825;    0.000
291.335; 4045.550;  150.825;    0.000
291.399; 3982.550;  175.825;    0.000
291.464; 4251.550;  128.825;    0.000
291.528; 4316.550;  162.825;    0.000
291.592; 4258.550;  152.825;    0.000
291.656; 4073.550;  175.825;    0.000
291.720; 4135.550;  173.825;    0.000
291.784; 3998.550;  192.825;    0.000
291.849; 4062.550;  159.825;    0.000
291.913; 3973.550;  174.825;    0.000
291.977; 4083.550;  177.825;    0.000
292.041; 4026.550;  188.825;    0.000
292.105; 3981.550;  174.825;    0.000
292.169; 4007.550;  143.825;    0.000
292.233; 4079.550;  149.825;    0.000
292.297; 4208.550;  176.825;    0.000
292.361; 4241.550;  178.825;    0.000
292.425; 4293.550;  153.825;    0.000
292.490; 4396.550;  185.825;    0.000
292.554; 4658.550;  144.825;    0.000
292.618; 4934.550;  166.825;    0.000
292.682; 5447.550;  181.825;    0.000
292.746; 6183.550;  152.825;    0.000
292.810; 8026.550;  208.825;    0.000
292.874; 9627.550;  142.825;    0.000
292.938; 9905.550;  195.825;    0.000
293.002; 9104.550;  156.825;    0.000
293.066; 8306.550;  108.825;    0.000
293.130; 7759.550;  136.825;    0.000
293.194; 7316.550;  135.825;    0.000
293.258; 7139.550;  187.825;    0.000
293.322; 7150.550;  148.825;    0.000
293.386; 7281.550;  186.825;    0.000
293.450; 7604.550;  196.825;    0.000
293.514; 8448.550;  175.825;    0.000
293.577;10760.550;  137.825;    0.000
293.641;14097.550;  142.825;    0.000
293.705;15173.550;  201.825;    0.000
293.769;14074.550;  150.825;    0.000
293.833;12282.550;  147.825;    0.000
293.897;11116.550;  170.825;    0.000
293.961; 9907.550;  121.825;    0.000
294.025; 9227.550;  172.825;    0.000
294.089; 8399.550;  167.825;    0.000
294.152; 7685.550;  167.825;    0.000
294.216; 7096.550;  165.825;    0.000
294.280; 6748.550;  168.825;    0.000
294.344; 6542.550;  160.825;    0.000
294.408; 6154.550;  187.825;    0.000
294.472; 5829.550;  141.825;    0.000
294.536; 5570.550;  184.825;    0.000
294.599; 5336.550;  176.825;    0.000
294.663; 5113.550;  120.825;    0.000
294.727; 5021.550;  159.825;    0.000
294.791; 5065.550;  190.825;    0.000
294.855; 4879.550;  148.825;    0.000
294.918; 4822.550;  160.825;    0.000
294.982; 4633.550;  156.825;    0.000
295.046; 4541.550;  177.825;    0.000
295.110; 4469.550;  149.825;    0.000
295.173; 4398.550;  156.825;    0.000
295.237; 4263.550;  174.825;    0.000
295.301; 4257.550;  152.825;    0.000
295.364; 4229.550;  204.825;    0.000
295.428; 4177.550;  196.825;    0.000
295.492; 4035.550;  178.825;    0.000
295.556; 4062.550;  161.825;    0.000
295.619; 3959.550;  178.825;    0.000
295.683; 3919.550;  152.825;    0.000
295.747; 3999.550;  148.825;    0.000
295.810; 3966.550;  177.825;    0.000
295.874; 3833.550;  146.825;    0.000
295.938; 3744.550;  115.825;    0.000
296.001; 3690.550;  172.825;    0.000
296.065; 3704.550;  146.825;    0.000
296.128; 3675.550;  164.825;    0.000
296.192; 3561.550;  137.825;    0.000
296.256; 3526.550;  143.825;    0.000
296.319; 3607.550;  156.825;    0.000
296.383; 3636.550;  165.825;    0.000
296.447; 3490.550;  170.825;    0.000
296.510; 3507.550;  174.825;    0.000
296.574; 3495.550;  127.825;    0.000
296.637; 3562.550;  132.825;    0.000
296.701; 3556.550;  206.825;    0.000
296.764; 3355.550;  179.825;    0.000
296.828; 3506.550;  213.825;    0.000
296.891; 3442.550;  149.825;    0.000
296.955; 3503.550;  170.825;    0.000
297.018; 3374.550;  185.825;    0.000
297.082; 3452.550;  205.825;    0.000
297.145; 3389.550;  154.825;    0.000
297.209; 3337.550;  200.825;    0.000
297.272; 3378.550;  157.825;    0.000
297.336; 3271.550;  164.825;    0.000
297.399; 3364.550;  166.825;    0.000
297.463; 3405.550;  195.825;    0.000
297.526; 3271.550;  176.825;    0.000
297.590; 3371.550;  198.825;    0.000
297.653; 3218.550;  146.825;    0.000
297.717; 3204.550;  175.825;    0.000
297.780; 3301.550;  139.825;    0.000
297.843; 3276.550;  174.825;    0.000
297.907; 3316.550;  149.825;    0.000
297.970; 3231.550;  161.825;    0.000
298.034; 3268.550;  185.825;    0.000
298.097; 3275.550;  167.825;    0.000
298.160; 3304.550;  195.825;    0.000
298.224; 3196.550;  178.825;    0.000
298.287; 3210.550;  164.825;    0.000
298.350; 3184.550;  194.825;    0.000
298.414; 3200.550;  191.825;    0.000
298.477; 3110.550;  155.825;    0.000
298.540; 3190.550;  139.825;    0.000
298.604; 3163.550;  198.825;    0.000
298.667; 3174.550;  183.825;    0.000
298.730; 3142.550;  185.825;    0.000
298.794; 3145.550;  153.825;    0.000
298.857; 2943.550;  169.825;    0.000
298.920; 3036.550;  159.825;    0.000
298.984; 3127.550;  179.825;    0.000
299.047; 3163.550;  174.825;    0.000
299.110; 3051.550;  144.825;    0.000
299.173; 3094.550;  190.825;    0.000
299.237; 3006.550;  163.825;    0.000
299.300; 2992.550;  153.825;    0.000
299.363; 2982.550;  145.825;    0.000
299.426; 3000.550;  160.825;    0.000
299.489; 2943.550;  173.825;    0.000
299.553; 3063.550;  209.825;    0.000
299.616; 2940.550;  172.825;    0.000
299.679; 2993.550;  204.825;    0.000
299.742; 2916.550;  162.825;    0.000
299.805; 2988.550;  198.825;    0.000
299.868; 2912.550;  176.825;    0.000
299.932; 2890.550;  166.825;    0.000
299.995; 2999.550;  162.825;    0.000
300.058; 2924.550;  175.825;    0.000
300.121; 2964.550;  197.825;    0.000
300.184; 2858.550;  188.825;    0.000
300.247; 2749.550;  181.825;    0.000
300.310; 2778.550;  161.825;    0.000
300.374; 2822.550;  201.825;    0.000
300.437; 2896.550;  156.825;    0.000
300.500; 2831.550;  180.825;    0.000
300.563; 2893.550;  174.825;    0.000
300.626; 2985.550;  206.825;    0.000
300.689; 2915.550;  218.825;    0.000
300.752; 2736.550;  192.825;    0.000
300.815; 2862.550;  172.825;    0.000
300.878; 2875.550;  207.825;    0.000
300.941; 2881.550;  163.825;    0.000
301.004; 2872.550;  171.825;    0.000
301.067; 2794.550;  198.825;    0.000
301.130; 2791.550;  156.825;    0.000
301.193; 2884.550;  173.825;    0.000
301.256; 2809.550;  167.825;    0.000
301.319; 2822.550;  211.825;    0.000
301.382; 2799.550;  167.825;    0.000
301.445; 2836.550;  224.825;    0.000
301.508; 2846.550;  168.825;    0.000
301.571; 2809.550;  161.825;    0.000
301.634; 2793.550;  177.825;    0.000
301.697; 2850.550;  203.825;    0.000
301.760; 2804.550;  190.825;    0.000
301.823; 2769.550;  182.825;    0.000
301.885; 2825.550;  202.825;    0.000
301.948; 2843.550;  200.825;    0.000
302.011; 2789.550;  157.825;    0.000
302.074; 2876.550;  205.825;    0.000
302.137; 2705.550;  149.825;    0.000
302.200; 2755.550;  201.825;    0.000
302.263; 2800.550;  178.825;    0.000
302.326; 2761.550;  184.825;    0.000
302.388; 2782.550;  176.825;    0.000
302.451; 2793.550;  146.825;    0.000
302.514; 2770.550;  192.825;    0.000
302.577; 2768.550;  181.825;    0.000
302.640; 2823.550;  186.825;    0.000
302.703; 2741.550;  164.825;    0.000
302.765; 2735.550;  197.825;    0.000
302.828; 2821.550;  208.825;    0.000
302.891; 2764.550;  168.825;    0.000
302.954; 2762.550;  177.825;    0.000
303.016; 2841.550;  190.825;    0.000
303.079; 2692.550;  216.825;    0.000
303.142; 2793.550;  228.825;    0.000
303.205; 2752.550;  192.825;    0.000
303.267; 2711.550;  182.825;    0.000
303.330; 2759.550;  201.825;    0.000
303.393; 2752.550;  196.825;    0.000
303.456; 2713.550;  184.825;    0.000
303.518; 2770.550;  194.825;    0.000
303.581; 2622.550;  195.825;    0.000
303.644; 2736.550;  184.825;    0.000
303.706; 2704.550;  150.825;    0.000
303.769; 2689.550;  182.825;    0.000
303.832; 2617.550;  143.825;    0.000
303.894; 2767.550;  207.825;    0.000
303.957; 2730.550;  178.825;    0.000
304.020; 2750.550;  203.825;    0.000
304.082; 2739.550;  175.825;    0.000
304.145; 2703.550;  171.825;    0.000
304.207; 2874.550;  157.825;    0.000
304.270; 2765.550;  195.825;    0.000
304.333; 2733.550;  195.825;    0.000
304.395; 2796.550;  197.825;    0.000
304.458; 2876.550;  231.825;    0.000
304.520; 2719.550;  218.825;    0.000
304.583; 2801.550;  177.825;    0.000
304.646; 2667.550;  177.825;    0.000
304.708; 2654.550;  178.825;    0.000
304.771; 2768.550;  143.825;    0.000
304.833; 2758.550;  241.825;    0.000
304.896; 2861.550;  200.825;    0.000
304.958; 2718.550;  176.825;    0.000
305.021; 2817.550;  159.825;    0.000
305.083; 2718.550;  159.825;    0.000
305.146; 2715.550;  190.825;    0.000
305.208; 2737.550;  152.825;    0.000
305.271; 2719.550;  162.825;    0.000
305.333; 2707.550;  219.825;    0.000
305.396; 2771.550;  163.825;    0.000
305.458; 2636.550;  215.825;    0.000
305.520; 2761.550;  174.825;    0.000
305.583; 2784.550;  161.825;    0.000
305.645; 2734.550;  203.825;    0.000
305.708; 2702.550;  163.825;    0.000
305.770; 2722.550;  215.825;    0.000
305.833; 2693.550;  207.825;    0.000
305.895; 2814.550;  166.825;    0.000
305.957; 2697.550;  175.825;    0.000
306.020; 2767.550;  169.825;    0.000
306.082; 2817.550;  203.825;    0.000
306.144; 2773.550;  181.825;    0.000
306.207; 2737.550;  199.825;    0.000
306.269; 2679.550;  177.825;    0.000
306.331; 2746.550;  160.825;    0.000
306.394; 2687.550;  193.825;    0.000
306.456; 2767.550;  136.825;    0.000
306.518; 2785.550;  189.825;    0.000
306.581; 2692.550;  156.825;    0.000
306.643; 2785.550;  190.825;    0.000
306.705; 2808.550;  190.825;    0.000
306.768; 2742.550;  172.825;    0.000
306.830; 2775.550;  214.825;    0.000
306.892; 2826.550;  198.825;    0.000
306.954; 2823.550;  177.825;    0.000
307.017; 2850.550;  183.825;    0.000
307.079; 2819.550;  170.825;    0.000
307.141; 2838.550;  173.825;    0.000
307.203; 2895.550;  171.825;    0.000
307.266; 2860.550;  166.825;    0.000
307.328; 2847.550;  207.825;    0.000
307.390; 2818.550;  201.825;    0.000
307.452; 2827.550;  182.825;    0.000
307.514; 2856.550;  213.825;    0.000
307.577; 2770.550;  213.825;    0.000
307.639; 2846.550;  197.825;    0.000
307.701; 2891.550;  174.825;    0.000
307.763; 2850.550;  181.825;    0.000
307.825; 2896.550;  186.825;    0.000
307.887; 2875.550;  198.825;    0.000
307.949; 2867.550;  158.825;    0.000
308.012; 2894.550;  209.825;    0.000
308.074; 2745.550;  176.825;    0.000
308.136; 2934.550;  227.825;    0.000
308.198; 2914.550;  187.825;    0.000
308.260; 2886.550;  211.825;    0.000
308.322; 2949.550;  206.825;    0.000
308.384; 2949.550;  186.825;    0.000
308.446; 2881.550;  175.825;    0.000
308.508; 3021.550;  211.825;    0.000
308.570; 2897.550;  191.825;    0.000
308.632; 3023.550;  195.825;    0.000
308.694; 2945.550;  173.825;    0.000
308.756; 2985.550;  185.825;    0.000
308.818; 2899.550;  195.825;    0.000
308.880; 2979.550;  189.825;    0.000
308.942; 3080.550;  231.825;    0.000
309.004; 3093.550;  188.825;    0.000
309.066; 3159.550;  196.825;    0.000
309.128; 3208.550;  155.825;    0.000
309.190; 3166.550;  176.825;    0.000
309.252; 3332.550;  191.825;    0.000
309.314; 3429.550;  236.825;    0.000
309.376; 3366.550;  212.825;    0.000
309.438; 3234.550;  201.825;    0.000
309.500; 3177.550;  206.825;    0.000
309.562; 3272.550;  213.825;    0.000
309.624; 3435.550;  196.825;    0.000
309.686; 3523.550;  198.825;    0.000
309.747; 3399.550;  186.825;    0.000
309.809; 3491.550;  215.825;    0.000
309.871; 3332.550;  242.825;    0.000
309.933; 3236.550;  162.825;    0.000
309.995; 3098.550;  163.825;    0.000
310.057; 3232.550;  145.825;    0.000
310.119; 3196.550;  205.825;    0.000
310.180; 3148.550;  195.825;    0.000
310.242; 3170.550;  167.825;    0.000
310.304; 3117.550;  213.825;    0.000
310.366; 3142.550;  224.825;    0.000
310.428; 3056.550;  170.825;    0.000
310.489; 3160.550;  195.825;    0.000
310.551; 3091.550;  207.825;    0.000
310.613; 3139.550;  168.825;    0.000
310.675; 3049.550;  188.825;    0.000
310.737; 3032.550;  211.825;    0.000
310.798; 3090.550;  221.825;    0.000
310.860; 3120.550;  201.825;    0.000
310.922; 3094.550;  206.825;    0.000
310.983; 2953.550;  222.825;    0.000
311.045; 2970.550;  235.825;    0.000
311.107; 3059.550;  184.825;    0.000
311.169; 2960.550;  148.825;    0.000
311.230; 3063.550;  211.825;    0.000
311.292; 3035.550;  235.825;    0.000
311.354; 3061.550;  183.825;    0.000
311.415; 2956.550;  196.825;    0.000
311.477; 3008.550;  200.825;    0.000
311.539; 3042.550;  171.825;    0.000
311.600; 3078.550;  169.825;    0.000
311.662; 3057.550;  231.825;    0.000
311.724; 3078.550;  204.825;    0.000
311.785; 2994.550;  214.825;    0.000
311.847; 3013.550;  193.825;    0.000
311.908; 2985.550;  180.825;    0.000
311.970; 2975.550;  233.825;    0.000
312.032; 3129.550;  192.825;    0.000
312.093; 3031.550;  195.825;    0.000
312.155; 3013.550;  194.825;    0.000
312.216; 3005.550;  238.825;    0.000
312.278; 3098.550;  146.825;    0.000
312.339; 2991.550;  184.825;    0.000
312.401; 3010.550;  201.825;    0.000
312.462; 2897.550;  173.825;    0.000
312.524; 2985.550;  205.825;    0.000
312.585; 3017.550;  199.825;    0.000
312.647; 2944.550;  168.825;    0.000
312.708; 3105.550;  180.825;    0.000
312.770; 3015.550;  180.825;    0.000
312.831; 3023.550;  176.825;    0.000
312.893; 3083.550;  211.825;    0.000
312.954; 3026.550;  178.825;    0.000
313.016; 3085.550;  204.825;    0.000
313.077; 3004.550;  216.825;    0.000
313.139; 2996.550;  172.825;    0.000
313.200; 2996.550;  197.825;    0.000
313.261; 3071.550;  227.825;    0.000
313.323; 2957.550;  204.825;    0.000
313.384; 3132.550;  182.825;    0.000
313.446; 3098.550;  204.825;    0.000
313.507; 2942.550;  164.825;    0.000
313.568; 3044.550;  197.825;    0.000
313.630; 2969.550;  190.825;    0.000
313.691; 3006.550;  185.825;    0.000
313.752; 3063.550;  192.825;    0.000
313.814; 3007.550;  176.825;    0.000
313.875; 3086.550;  210.825;    0.000
313.936; 3011.550;  165.825;    0.000
313.998; 2937.550;  162.825;    0.000
314.059; 2936.550;  178.825;    0.000
314.120; 3058.550;  176.825;    0.000
314.182; 3003.550;  167.825;    0.000
314.243; 3062.550;  204.825;    0.000
314.304; 3033.550;  197.825;    0.000
314.365; 3010.550;  183.825;    0.000
314.427; 3039.550;  176.825;    0.000
314.488; 2930.550;  149.825;    0.000
314.549; 3013.550;  218.825;    0.000
314.610; 3015.550;  160.825;    0.000
314.672; 3081.550;  187.825;    0.000
314.733; 3060.550;  184.825;    0.000
314.794; 2893.550;  164.825;    0.000
314.855; 2995.550;  191.825;    0.000
314.917; 3020.550;  172.825;    0.000
314.978; 2975.550;  185.825;    0.000
315.039; 3024.550;  194.825;    0.000
315.100; 3103.550;  190.825;    0.000
315.161; 2994.550;  185.825;    0.000
315.222; 3092.550;  204.825;    0.000
315.283; 2984.550;  166.825;    0.000
315.345; 3010.550;  133.825;    0.000
315.406; 2954.550;  191.825;    0.000
315.467; 3033.550;  166.825;    0.000
315.528; 2958.550;  194.825;    0.000
315.589; 2950.550;  193.825;    0.000
315.650; 3071.550;  190.825;    0.000
315.711; 3009.550;  219.825;    0.000
315.772; 3013.550;  159.825;    0.000
315.833; 3035.550;  191.825;    0.000
315.894; 2999.550;  202.825;    0.000
315.955; 3096.550;  167.825;    0.000
316.016; 3043.550;  177.825;    0.000
316.078; 2881.550;  185.825;    0.000
316.139; 3018.550;  219.825;    0.000
316.200; 2926.550;  163.825;    0.000
316.261; 2916.550;  183.825;    0.000
316.322; 2930.550;  230.825;    0.000
316.383; 3011.550;  198.825;    0.000
316.444; 2943.550;  209.825;    0.000
316.504; 2989.550;  179.825;    0.000
316.565; 2980.550;  185.825;    0.000
316.626; 2979.550;  155.825;    0.000
316.687; 2948.550;  211.825;    0.000
316.748; 3034.550;  192.825;    0.000
316.809; 3021.550;  183.825;    0.000
316.870; 3084.550;  196.825;    0.000
316.931; 2976.550;  173.825;    0.000
316.992; 2998.550;  179.825;    0.000
317.053; 2943.550;  186.825;    0.000
317.114; 2959.550;  189.825;    0.000
317.175; 3008.550;  226.825;    0.000
317.235; 2874.550;  206.825;    0.000
317.296; 2993.550;  191.825;    0.000
317.357; 2948.550;  173.825;    0.000
317.418; 2958.550;  212.825;    0.000
317.479; 2970.550;  247.825;    0.000
317.540; 2937.550;  205.825;    0.000
317.601; 2937.550;  205.825;    0.000
317.661; 3016.550;  150.825;    0.000
317.722; 2937.550;  198.825;    0.000
317.783; 2879.550;  153.825;    0.000
317.844; 2911.550;  202.825;    0.000
317.904; 2995.550;  180.825;    0.000
317.965; 2968.550;  205.825;    0.000
318.026; 2889.550;  223.825;    0.000
318.087; 2990.550;  218.825;    0.000
318.148; 2922.550;  207.825;    0.000
318.208; 2968.550;  212.825;    0.000
318.269; 2830.550;  174.825;    0.000
318.330; 2927.550;  191.825;    0.000
318.390; 2815.550;  197.825;    0.000
318.451; 2939.550;  167.825;    0.000
318.512; 2934.550;  174.825;    0.000
318.572; 2945.550;  199.825;    0.000
318.633; 2914.550;  233.825;    0.000
318.694; 2892.550;  232.825;    0.000
318.754; 2924.550;  181.825;    0.000
318.815; 2907.550;  199.825;    0.000
318.876; 2909.550;  207.825;    0.000
318.936; 2935.550;  202.825;    0.000
318.997; 2882.550;  182.825;    0.000
319.058; 2936.550;  180.825;    0.000
319.118; 2950.550;  199.825;    0.000
319.179; 2919.550;  199.825;    0.000
319.239; 2990.550;  229.825;    0.000
319.300; 2907.550;  223.825;    0.000
319.361; 2910.550;  210.825;    0.000
319.421; 2909.550;  205.825;    0.000
319.482; 2858.550;  205.825;    0.000
319.542; 2881.550;  176.825;    0.000
319.603; 2936.550;  191.825;    0.000
319.663; 2861.550;  183.825;    0.000
319.724; 2823.550;  174.825;    0.000
319.784; 2909.550;  198.825;    0.000
319.845; 2893.550;  218.825;    0.000
319.905; 2974.550;  217.825;    0.000
319.966; 2953.550;  197.825;    0.000
320.026; 2902.550;  209.825;    0.000
320.087; 2865.550;  225.825;    0.000
320.147; 2893.550;  201.825;    0.000
320.208; 2789.550;  176.825;    0.000
320.268; 2831.550;  168.825;    0.000
320.329; 2893.550;  238.825;    0.000
320.389; 2873.550;  220.825;    0.000
320.449; 2957.550;  230.825;    0.000
320.510; 2897.550;  234.825;    0.000
320.570; 2890.550;  210.825;    0.000
320.631; 2909.550;  207.825;    0.000
320.691; 2869.550;  222.825;    0.000
320.751; 2831.550;  195.825;    0.000
320.812; 2857.550;  193.825;    0.000
320.872; 2959.550;  237.825;    0.000
320.932; 2845.550;  213.825;    0.000
320.993; 2931.550;  185.825;    0.000
321.053; 2930.550;  245.825;    0.000
321.113; 2809.550;  206.825;    0.000
321.174; 2904.550;  202.825;    0.000
321.234; 2873.550;  244.825;    0.000
321.294; 2940.550;  228.825;    0.000
321.355; 2955.550;  208.825;    0.000
321.415; 2891.550;  223.825;    0.000
321.475; 2864.550;  203.825;    0.000
321.535; 2867.550;  230.825;    0.000
321.596; 2838.550;  186.825;    0.000
321.656; 2852.550;  216.825;    0.000
321.716; 2868.550;  207.825;    0.000
321.776; 2910.550;  181.825;    0.000
321.837; 2892.550;  207.825;    0.000
321.897; 2955.550;  225.825;    0.000
321.957; 2936.550;  222.825;    0.000
322.017; 2880.550;  215.825;    0.000
322.077; 2925.550;  250.825;    0.000
322.138; 2880.550;  189.825;    0.000
322.198; 2814.550;  200.825;    0.000
322.258; 2942.550;  217.825;    0.000
322.318; 2798.550;  183.825;    0.000
322.378; 2921.550;  231.825;    0.000
322.438; 2832.550;  228.825;    0.000
322.499; 2863.550;  248.825;    0.000
322.559; 2747.550;  198.825;    0.000
322.619; 2841.550;  221.825;    0.000
322.679; 2731.550;  217.825;    0.000
322.739; 2766.550;  204.825;    0.000
322.799; 2856.550;  236.825;    0.000
322.859; 2888.550;  213.825;    0.000
322.919; 2869.550;  210.825;    0.000
322.979; 2844.550;  244.825;    0.000
323.039; 2835.550;  218.825;    0.000
323.099; 2836.550;  232.825;    0.000
323.159; 2840.550;  216.825;    0.000
323.219; 2827.550;  169.825;    0.000
323.279; 2918.550;  236.825;    0.000
323.339; 2832.550;  243.825;    0.000
323.399; 2874.550;  208.825;    0.000
323.459; 2828.550;  220.825;    0.000
323.519; 2890.550;  228.825;    0.000
323.579; 2879.550;  164.825;    0.000
323.639; 2882.550;  209.825;    0.000
323.699; 2891.550;  188.825;    0.000
323.759; 2842.550;  206.825;    0.000
323.819; 2897.550;  204.825;    0.000
323.879; 2910.550;  222.825;    0.000
323.939; 2793.550;  206.825;    0.000
323.999; 2828.550;  202.825;    0.000
324.059; 2833.550;  245.825;    0.000
324.119; 2813.550;  214.825;    0.000
324.178; 2771.550;  183.825;    0.000
324.238; 2883.550;  193.825;    0.000
324.298; 2828.550;  207.825;    0.000
324.358; 2807.550;  196.825;    0.000
324.418; 2777.550;  193.825;    0.000
324.478; 2828.550;  191.825;    0.000
324.538; 2764.550;  224.825;    0.000
324.597; 2870.550;  187.825;    0.000
324.657; 2824.550;  208.825;    0.000
324.717; 2865.550;  198.825;    0.000
324.777; 2722.550;  159.825;    0.000
324.837; 2746.550;  180.825;    0.000
324.896; 2805.550;  215.825;    0.000
324.956; 2786.550;  210.825;    0.000
325.016; 2809.550;  187.825;    0.000
325.076; 2801.550;  197.825;    0.000
325.135; 2787.550;  226.825;    0.000
325.195; 2949.550;  201.825;    0.000
325.255; 2747.550;  167.825;    0.000
325.315; 2817.550;  217.825;    0.000
325.374; 2787.550;  196.825;    0.000
325.434; 2800.550;  167.825;    0.000
325.494; 2799.550;  214.825;    0.000
325.553; 2862.550;  203.825;    0.000
325.613; 2821.550;  206.825;    0.000
325.673; 2820.550;  148.825;    0.000
325.732; 2814.550;  207.825;    0.000
325.792; 2768.550;  151.825;    0.000
325.852; 2803.550;  195.825;    0.000
325.911; 2835.550;  201.825;    0.000
325.971; 2780.550;  224.825;    0.000
326.031; 2789.550;  201.825;    0.000
326.090; 2816.550;  203.825;    0.000
326.150; 2806.550;  183.825;    0.000
326.209; 2788.550;  226.825;    0.000
326.269; 2824.550;  194.825;    0.000
326.328; 2799.550;  200.825;    0.000
326.388; 2868.550;  177.825;    0.000
326.448; 2837.550;  239.825;    0.000
326.507; 2696.550;  197.825;    0.000
326.567; 2742.550;  161.825;    0.000
326.626; 2862.550;  220.825;    0.000
326.686; 2634.550;  178.825;    0.000
326.745; 2695.550;  167.825;    0.000
326.805; 2730.550;  176.825;    0.000
326.864; 2773.550;  204.825;    0.000
326.924; 2785.550;  218.825;    0.000
326.983; 2643.550;  201.825;    0.000
327.043; 2748.550;  219.825;    0.000
327.102; 2733.550;  202.825;    0.000
327.161; 2735.550;  228.825;    0.000
327.221; 2713.550;  217.825;    0.000
327.280; 2712.550;  188.825;    0.000
327.340; 2710.550;  209.825;    0.000
327.399; 2695.550;  189.825;    0.000
327.459; 2658.550;  216.825;    0.000
327.518; 2681.550;  200.825;    0.000
327.577; 2704.550;  194.825;    0.000
327.637; 2669.550;  180.825;    0.000
327.696; 2692.550;  208.825;    0.000
327.755; 2733.550;  218.825;    0.000
327.815; 2695.550;  234.825;    0.000
327.874; 2722.550;  259.825;    0.000
327.933; 2663.550;  192.825;    0.000
327.993; 2746.550;  208.825;    0.000
328.052; 2681.550;  221.825;    0.000
328.111; 2728.550;  203.825;    0.000
328.171; 2647.550;  221.825;    0.000
328.230; 2646.550;  222.825;    0.000
328.289; 2693.550;  254.825;    0.000
328.349; 2685.550;  232.825;    0.000
328.408; 2696.550;  223.825;    0.000
328.467; 2636.550;  198.825;    0.000
328.526; 2593.550;  217.825;    0.000
328.586; 2673.550;  185.825;    0.000
328.645; 2577.550;  210.825;    0.000
328.704; 2626.550;  211.825;    0.000
328.763; 2610.550;  231.825;    0.000
328.822; 2623.550;  254.825;    0.000
328.882; 2731.550;  216.825;    0.000
328.941; 2603.550;  239.825;    0.000
329.000; 2713.550;  251.825;    0.000
329.059; 2601.550;  227.825;    0.000
329.118; 2718.550;  233.825;    0.000
329.177; 2666.550;  188.825;    0.000
329.237; 2698.550;  257.825;    0.000
329.296; 2697.550;  265.825;    0.000
329.355; 2631.550;  245.825;    0.000
329.414; 2667.550;  236.825;    0.000
329.473; 2649.550;  242.825;    0.000
329.532; 2659.550;  228.825;    0.000
329.591; 2633.550;  206.825;    0.000
329.650; 2734.550;  250.825;    0.000
329.709; 2674.550;  278.825;    0.000
329.768; 2697.550;  219.825;    0.000
329.827; 2756.550;  254.825;    0.000
329.886; 2637.550;  221.825;    0.000
329.945; 2705.550;  239.825;    0.000
330.004; 2719.550;  245.825;    0.000
330.063; 2683.550;  201.825;    0.000
330.122; 2842.550;  227.825;    0.000
330.181; 3057.550;  196.825;    0.000
330.240; 2949.550;  203.825;    0.000
330.299; 2830.550;  214.825;    0.000
330.358; 2630.550;  196.825;    0.000
330.417; 2633.550;  201.825;    0.000
330.476; 2671.550;  248.825;    0.000
330.535; 2691.550;  253.825;    0.000
330.594; 2543.550;  231.825;    0.000
330.653; 2637.550;  210.825;    0.000
330.712; 2581.550;  242.825;    0.000
330.771; 2496.550;  240.825;    0.000
330.830; 2584.550;  230.825;    0.000
330.889; 2558.550;  217.825;    0.000
330.948; 2559.550;  211.825;    0.000
331.006; 2533.550;  217.825;    0.000
331.065; 2608.550;  170.825;    0.000
331.124; 2574.550;  211.825;    0.000
331.183; 2519.550;  192.825;    0.000
331.242; 2528.550;  227.825;    0.000
331.301; 2611.550;  240.825;    0.000
331.359; 2626.550;  223.825;    0.000
331.418; 2535.550;  215.825;    0.000
331.477; 2606.550;  230.825;    0.000
331.536; 2626.550;  221.825;    0.000
331.595; 2588.550;  198.825;    0.000
331.653; 2515.550;  207.825;    0.000
331.712; 2500.550;  217.825;    0.000
331.771; 2601.550;  221.825;    0.000
331.830; 2525.550;  222.825;    0.000
331.888; 2578.550;  213.825;    0.000
331.947; 2550.550;  233.825;    0.000
332.006; 2526.550;  212.825;    0.000
332.065; 2539.550;  200.825;    0.000
332.123; 2581.550;  223.825;    0.000
332.182; 2595.550;  180.825;    0.000
332.241; 2507.550;  192.825;    0.000
332.299; 2589.550;  172.825;    0.000
332.358; 2602.550;  216.825;    0.000
332.417; 2605.550;  211.825;    0.000
332.475; 2538.550;  222.825;    0.000
332.534; 2628.550;  238.825;    0.000
332.592; 2649.550;  216.825;    0.000
332.651; 2525.550;  196.825;    0.000
332.710; 2639.550;  215.825;    0.000
332.768; 2605.550;  193.825;    0.000
332.827; 2564.550;  201.825;    0.000
332.885; 2639.550;  226.825;    0.000
332.944; 2649.550;  174.825;    0.000
333.003; 2638.550;  187.825;    0.000
333.061; 2661.550;  208.825;    0.000
333.120; 2666.550;  202.825;    0.000
333.178; 2702.550;  227.825;    0.000
333.237; 2867.550;  215.825;    0.000
333.295; 2719.550;  245.825;    0.000
333.354; 2709.550;  194.825;    0.000
333.412; 2671.550;  165.825;    0.000
333.471; 2781.550;  219.825;    0.000
333.529; 2764.550;  255.825;    0.000
333.588; 2740.550;  264.825;    0.000
333.646; 2773.550;  231.825;    0.000
333.705; 2970.550;  232.825;    0.000
333.763; 2783.550;  233.825;    0.000
333.822; 2794.550;  221.825;    0.000
333.880; 2740.550;  180.825;    0.000
333.938; 2707.550;  229.825;    0.000
333.997; 2755.550;  194.825;    0.000
334.055; 2744.550;  230.825;    0.000
334.114; 2689.550;  230.825;    0.000
334.172; 2736.550;  170.825;    0.000
334.230; 2676.550;  192.825;    0.000
334.289; 2714.550;  225.825;    0.000
334.347; 2782.550;  233.825;    0.000
334.405; 2699.550;  207.825;    0.000
334.464; 2732.550;  175.825;    0.000
334.522; 2706.550;  180.825;    0.000
334.580; 2613.550;  172.825;    0.000
334.639; 2639.550;  230.825;    0.000
334.697; 2648.550;  217.825;    0.000
334.755; 2650.550;  217.825;    0.000
334.814; 2661.550;  210.825;    0.000
334.872; 2623.550;  170.825;    0.000
334.930; 2644.550;  167.825;    0.000
334.988; 2634.550;  244.825;    0.000
335.047; 2655.550;  202.825;    0.000
335.105; 2615.550;  181.825;    0.000
335.163; 2658.550;  195.825;    0.000
335.221; 2732.550;  203.825;    0.000
335.280; 2665.550;  216.825;    0.000
335.338; 2648.550;  197.825;    0.000
335.396; 2714.550;  232.825;    0.000
335.454; 2619.550;  211.825;    0.000
335.512; 2692.550;  221.825;    0.000
335.570; 2675.550;  216.825;    0.000
335.629; 2662.550;  244.825;    0.000
335.687; 2647.550;  244.825;    0.000
335.745; 2750.550;  189.825;    0.000
335.803; 2796.550;  198.825;    0.000
335.861; 2678.550;  236.825;    0.000
335.919; 2699.550;  234.825;    0.000
335.977; 2658.550;  214.825;    0.000
336.035; 2655.550;  242.825;    0.000
336.094; 2622.550;  219.825;    0.000
336.152; 2683.550;  196.825;    0.000
336.210; 2694.550;  221.825;    0.000
336.268; 2775.550;  257.825;    0.000
336.326; 2684.550;  211.825;    0.000
336.384; 2659.550;  217.825;    0.000
336.442; 2752.550;  176.825;    0.000
336.500; 2591.550;  242.825;    0.000
336.558; 2614.550;  238.825;    0.000
336.616; 2646.550;  261.825;    0.000
336.674; 2642.550;  200.825;    0.000
336.732; 2730.550;  208.825;    0.000
336.790; 2616.550;  183.825;    0.000
336.848; 2597.550;  199.825;    0.000
336.906; 2653.550;  240.825;    0.000
336.964; 2559.550;  234.825;    0.000
337.022; 2677.550;  282.825;    0.000
337.080; 2702.550;  265.825;    0.000
337.138; 2721.550;  255.825;    0.000
337.195; 2649.550;  200.825;    0.000
337.253; 2674.550;  199.825;    0.000
337.311; 2605.550;  233.825;    0.000
337.369; 2689.550;  250.825;    0.000
337.427; 2577.550;  201.825;    0.000
337.485; 2601.550;  228.825;    0.000
337.543; 2577.550;  221.825;    0.000
337.601; 2555.550;  232.825;    0.000
337.658; 2557.550;  215.825;    0.000
337.716; 2583.550;  198.825;    0.000
337.774; 2567.550;  262.825;    0.000
337.832; 2577.550;  220.825;    0.000
337.890; 2566.550;  194.825;    0.000
337.947; 2641.550;  205.825;    0.000
338.005; 2584.550;  229.825;    0.000
338.063; 2534.550;  237.825;    0.000
338.121; 2555.550;  220.825;    0.000
338.178; 2655.550;  227.825;    0.000
338.236; 2607.550;  238.825;    0.000
338.294; 2516.550;  242.825;    0.000
338.352; 2603.550;  230.825;    0.000
338.409; 2550.550;  222.825;    0.000
338.467; 2476.550;  233.825;    0.000
338.525; 2548.550;  253.825;    0.000
338.583; 2604.550;  221.825;    0.000
338.640; 2492.550;  225.825;    0.000
338.698; 2535.550;  229.825;    0.000
338.756; 2452.550;  238.825;    0.000
338.813; 2492.550;  260.825;    0.000
338.871; 2514.550;  246.825;    0.000
338.928; 2548.550;  240.825;    0.000
338.986; 2538.550;  228.825;    0.000
339.044; 2584.550;  265.825;    0.000
339.101; 2484.550;  224.825;    0.000
339.159; 2441.550;  235.825;    0.000
339.216; 2590.550;  244.825;    0.000
339.274; 2553.550;  266.825;    0.000
339.332; 2544.550;  248.825;    0.000
339.389; 2546.550;  246.825;    0.000
339.447; 2527.550;  237.825;    0.000
339.504; 2517.550;  244.825;    0.000
339.562; 2487.550;  249.825;    0.000
339.619; 2448.550;  266.825;    0.000
339.677; 2525.550;  263.825;    0.000
339.734; 2508.550;  216.825;    0.000
339.792; 2571.550;  276.825;    0.000
339.849; 2542.550;  240.825;    0.000
339.907; 2600.550;  275.825;    0.000
339.964; 2539.550;  243.825;    0.000
340.022; 2464.550;  224.825;    0.000
340.079; 2540.550;  230.825;    0.000
340.137; 2581.550;  232.825;    0.000
340.194; 2548.550;  261.825;    0.000
340.252; 2462.550;  219.825;    0.000
340.309; 2522.550;  212.825;    0.000
340.366; 2536.550;  231.825;    0.000
340.424; 2463.550;  244.825;    0.000
340.481; 2550.550;  238.825;    0.000
340.538; 2477.550;  217.825;    0.000
340.596; 2529.550;  224.825;    0.000
340.653; 2532.550;  225.825;    0.000
340.711; 2594.550;  276.825;    0.000
340.768; 2581.550;  239.825;    0.000
340.825; 2553.550;  216.825;    0.000
340.883; 2479.550;  264.825;    0.000
340.940; 2520.550;  256.825;    0.000
340.997; 2571.550;  230.825;    0.000
341.054; 2519.550;  229.825;    0.000
341.112; 2511.550;  220.825;    0.000
341.169; 2556.550;  276.825;    0.000
341.226; 2576.550;  224.825;    0.000
341.284; 2538.550;  235.825;    0.000
341.341; 2564.550;  226.825;    0.000
341.398; 2470.550;  200.825;    0.000
341.455; 2524.550;  242.825;    0.000
341.512; 2622.550;  226.825;    0.000
341.570; 2479.550;  299.825;    0.000
341.627; 2576.550;  221.825;    0.000
341.684; 2413.550;  204.825;    0.000
341.741; 2568.550;  285.825;    0.000
341.798; 2549.550;  237.825;    0.000
341.856; 2462.550;  223.825;    0.000
341.913; 2558.550;  232.825;    0.000
341.970; 2475.550;  250.825;    0.000
342.027; 2564.550;  272.825;    0.000
342.084; 2589.550;  242.825;    0.000
342.141; 2521.550;  207.825;    0.000
342.198; 2561.550;  252.825;    0.000
342.255; 2538.550;  189.825;    0.000
342.313; 2596.550;  222.825;    0.000
342.370; 2575.550;  203.825;    0.000
342.427; 2559.550;  261.825;    0.000
342.484; 2511.550;  230.825;    0.000
342.541; 2429.550;  224.825;    0.000
342.598; 2536.550;  245.825;    0.000
342.655; 2558.550;  235.825;    0.000
342.712; 2522.550;  238.825;    0.000
342.769; 2554.550;  235.825;    0.000
342.826; 2545.550;  232.825;    0.000
342.883; 2572.550;  212.825;    0.000
342.940; 2475.550;  189.825;    0.000
342.997; 2519.550;  241.825;    0.000
343.054; 2541.550;  235.825;    0.000
343.111; 2567.550;  216.825;    0.000
343.168; 2546.550;  202.825;    0.000
343.225; 2614.550;  228.825;    0.000
343.282; 2618.550;  208.825;    0.000
343.339; 2591.550;  241.825;    0.000
343.395; 2594.550;  206.825;    0.000
343.452; 2609.550;  227.825;    0.000
343.509; 2743.550;  212.825;    0.000
343.566; 2689.550;  266.825;    0.000
343.623; 2582.550;  240.825;    0.000
343.680; 2685.550;  215.825;    0.000
343.737; 2735.550;  231.825;    0.000
343.794; 2754.550;  256.825;    0.000
343.850; 2699.550;  235.825;    0.000
343.907; 2653.550;  246.825;    0.000
343.964; 2691.550;  241.825;    0.000
344.021; 2706.550;  237.825;    0.000
344.078; 2783.550;  248.825;    0.000
344.134; 2766.550;  225.825;    0.000
344.191; 2725.550;  209.825;    0.000
344.248; 2738.550;  234.825;    0.000
344.305; 2885.550;  224.825;    0.000
344.361; 2728.550;  194.825;    0.000
344.418; 2773.550;  240.825;    0.000
344.475; 2691.550;  252.825;    0.000
344.532; 2785.550;  251.825;    0.000
344.588; 2725.550;  240.825;    0.000
344.645; 2720.550;  253.825;    0.000
344.702; 2639.550;  216.825;    0.000
344.758; 2740.550;  258.825;    0.000
344.815; 2731.550;  239.825;    0.000
344.872; 2671.550;  216.825;    0.000
344.928; 2782.550;  236.825;    0.000
344.985; 2786.550;  238.825;    0.000
345.042; 2652.550;  211.825;    0.000
345.098; 2654.550;  223.825;    0.000
345.155; 2798.550;  266.825;    0.000
345.212; 2665.550;  266.825;    0.000
345.268; 2693.550;  245.825;    0.000
345.325; 2602.550;  225.825;    0.000
345.381; 2701.550;  223.825;    0.000
345.438; 2695.550;  259.825;    0.000
345.495; 2777.550;  233.825;    0.000
345.551; 2719.550;  254.825;    0.000
345.608; 2629.550;  212.825;    0.000
345.664; 2731.550;  225.825;    0.000
345.721; 2638.550;  223.825;    0.000
345.777; 2673.550;  226.825;    0.000
345.834; 2636.550;  215.825;    0.000
345.890; 2703.550;  230.825;    0.000
345.947; 2662.550;  232.825;    0.000
346.003; 2689.550;  241.825;    0.000
346.060; 2807.550;  241.825;    0.000
346.116; 2724.550;  231.825;    0.000
346.173; 2746.550;  229.825;    0.000
346.229; 2717.550;  262.825;    0.000
346.285; 2695.550;  232.825;    0.000
346.342; 2676.550;  228.825;    0.000
346.398; 2704.550;  203.825;    0.000
346.455; 2785.550;  214.825;    0.000
346.511; 2659.550;  245.825;    0.000
346.567; 2736.550;  192.825;    0.000
346.624; 2732.550;  206.825;    0.000
346.680; 2766.550;  209.825;    0.000
346.737; 2759.550;  239.825;    0.000
346.793; 2706.550;  234.825;    0.000
346.849; 2766.550;  252.825;    0.000
346.906; 2754.550;  247.825;    0.000
346.962; 2837.550;  274.825;    0.000
347.018; 2820.550;  225.825;    0.000
347.074; 2707.550;  261.825;    0.000
347.131; 2781.550;  230.825;    0.000
347.187; 2683.550;  269.825;    0.000
347.243; 2669.550;  261.825;    0.000
347.300; 2812.550;  236.825;    0.000
347.356; 2758.550;  284.825;    0.000
347.412; 2699.550;  243.825;    0.000
347.468; 2694.550;  276.825;    0.000
347.524; 2759.550;  232.825;    0.000
347.581; 2886.550;  242.825;    0.000
347.637; 2773.550;  270.825;    0.000
347.693; 2834.550;  269.825;    0.000
347.749; 2735.550;  278.825;    0.000
347.805; 2712.550;  224.825;    0.000
347.862; 2741.550;  207.825;    0.000
347.918; 2801.550;  259.825;    0.000
347.974; 2775.550;  244.825;    0.000
348.030; 2734.550;  219.825;    0.000
348.086; 2780.550;  250.825;    0.000
348.142; 2833.550;  251.825;    0.000
348.198; 2791.550;  267.825;    0.000
348.254; 2802.550;  230.825;    0.000
348.311; 2737.550;  261.825;    0.000
348.367; 2680.550;  259.825;    0.000
348.423; 2683.550;  251.825;    0.000
348.479; 2834.550;  251.825;    0.000
348.535; 2825.550;  269.825;    0.000
348.591; 2785.550;  238.825;    0.000
348.647; 2774.550;  273.825;    0.000
348.703; 2754.550;  291.825;    0.000
348.759; 2773.550;  231.825;    0.000
348.815; 2669.550;  286.825;    0.000
348.871; 2735.550;  265.825;    0.000
348.927; 2741.550;  234.825;    0.000
348.983; 2749.550;  267.825;    0.000
349.039; 2785.550;  233.825;    0.000
349.095; 2839.550;  225.825;    0.000
349.151; 2754.550;  242.825;    0.000
349.207; 2787.550;  223.825;    0.000
349.263; 2727.550;  219.825;    0.000
349.319; 2761.550;  226.825;    0.000
349.374; 2778.550;  232.825;    0.000
349.430; 2861.550;  235.825;    0.000
349.486; 2842.550;  227.825;    0.000
349.542; 2844.550;  253.825;    0.000
349.598; 2835.550;  227.825;    0.000
349.654; 2897.550;  270.825;    0.000
349.710; 2747.550;  233.825;    0.000
349.766; 2833.550;  245.825;    0.000
349.821; 2826.550;  242.825;    0.000
349.877; 2772.550;  229.825;    0.000
349.933; 2855.550;  229.825;    0.000
349.989; 2880.550;  230.825;    0.000
350.045; 2847.550;  236.825;    0.000
350.100; 2841.550;  237.825;    0.000
350.156; 2796.550;  230.825;    0.000
350.212; 2888.550;  254.825;    0.000
350.268; 2786.550;  239.825;    0.000
350.323; 2826.550;  204.825;    0.000
350.379; 2719.550;  246.825;    0.000
350.435; 2798.550;  249.825;    0.000
350.491; 2816.550;  217.825;    0.000
350.546; 2779.550;  231.825;    0.000
350.602; 2813.550;  240.825;    0.000
350.658; 2794.550;  235.825;    0.000
350.713; 2831.550;  234.825;    0.000
350.769; 2714.550;  218.825;    0.000
350.825; 2810.550;  227.825;    0.000
350.880; 2743.550;  226.825;    0.000
350.936; 2771.550;  247.825;    0.000
350.992; 2786.550;  213.825;    0.000
351.047; 2847.550;  207.825;    0.000
351.103; 2783.550;  271.825;    0.000
351.158; 2806.550;  251.825;    0.000
351.214; 2794.550;  199.825;    0.000
351.270; 2771.550;  214.825;    0.000
351.325; 2834.550;  235.825;    0.000
351.381; 2828.550;  223.825;    0.000
351.436; 2823.550;  237.825;    0.000
351.492; 2791.550;  221.825;    0.000
351.547; 2874.550;  237.825;    0.000
351.603; 2943.550;  239.825;    0.000
351.658; 2808.550;  209.825;    0.000
351.714; 2822.550;  226.825;    0.000
351.769; 2908.550;  238.825;    0.000
351.825; 2847.550;  226.825;    0.000
351.880; 2858.550;  217.825;    0.000
351.936; 2884.550;  246.825;    0.000
351.991; 2851.550;  233.825;    0.000
352.047; 2868.550;  215.825;    0.000
352.102; 2752.550;  243.825;    0.000
352.158; 2829.550;  234.825;    0.000
352.213; 2788.550;  201.825;    0.000
352.268; 2728.550;  234.825;    0.000
352.324; 2768.550;  211.825;    0.000
352.379; 2804.550;  221.825;    0.000
352.434; 2869.550;  259.825;    0.000
352.490; 2872.550;  250.825;    0.000
352.545; 2816.550;  251.825;    0.000
352.601; 2790.550;  283.825;    0.000
352.656; 2916.550;  236.825;    0.000
352.711; 2785.550;  237.825;    0.000
352.767; 2846.550;  201.825;    0.000
352.822; 2804.550;  209.825;    0.000
352.877; 2827.550;  239.825;    0.000
352.932; 2848.550;  228.825;    0.000
352.988; 2835.550;  202.825;    0.000
353.043; 2911.550;  268.825;    0.000
353.098; 2868.550;  208.825;    0.000
353.153; 2892.550;  219.825;    0.000
353.209; 2860.550;  252.825;    0.000
353.264; 2866.550;  225.825;    0.000
353.319; 2908.550;  234.825;    0.000
353.374; 2786.550;  236.825;    0.000
353.430; 2804.550;  245.825;    0.000
353.485; 2840.550;  238.825;    0.000
353.540; 2857.550;  238.825;    0.000
353.595; 2864.550;  215.825;    0.000
353.650; 2837.550;  238.825;    0.000
353.705; 2964.550;  274.825;    0.000
353.761; 2860.550;  229.825;    0.000
353.816; 2855.550;  275.825;    0.000
353.871; 2836.550;  245.825;    0.000
353.926; 2817.550;  253.825;    0.000
353.981; 2828.550;  269.825;    0.000
354.036; 2920.550;  246.825;    0.000
354.091; 3006.550;  257.825;    0.000
354.146; 2934.550;  278.825;    0.000
354.201; 2959.550;  276.825;    0.000
354.256; 2912.550;  224.825;    0.000
354.311; 2956.550;  287.825;    0.000
354.367; 2875.550;  210.825;    0.000
354.422; 2935.550;  231.825;    0.000
354.477; 2882.550;  226.825;    0.000
354.532; 2876.550;  262.825;    0.000
354.587; 2906.550;  275.825;    0.000
354.642; 2850.550;  247.825;    0.000
354.697; 2944.550;  251.825;    0.000
354.751; 2943.550;  249.825;    0.000
354.806; 2852.550;  217.825;    0.000
354.861; 2849.550;  247.825;    0.000
354.916; 2937.550;  259.825;    0.000
354.971; 2884.550;  241.825;    0.000
355.026; 2886.550;  250.825;    0.000
355.081; 2824.550;  244.825;    0.000
355.136; 2917.550;  203.825;    0.000
355.191; 2891.550;  241.825;    0.000
355.246; 2900.550;  248.825;    0.000
355.301; 2923.550;  259.825;    0.000
355.355; 2962.550;  236.825;    0.000
355.410; 2911.550;  221.825;    0.000
355.465; 2766.550;  206.825;    0.000
355.520; 2894.550;  258.825;    0.000
355.575; 2896.550;  273.825;    0.000
355.630; 2787.550;  252.825;    0.000
355.684; 2878.550;  246.825;    0.000
355.739; 2883.550;  251.825;    0.000
355.794; 2817.550;  247.825;    0.000
355.849; 2872.550;  246.825;    0.000
355.904; 2892.550;  262.825;    0.000
355.958; 2809.550;  249.825;    0.000
356.013; 2858.550;  213.825;    0.000
356.068; 2893.550;  255.825;    0.000
356.123; 2830.550;  205.825;    0.000
356.177; 2964.550;  239.825;    0.000
356.232; 2803.550;  258.825;    0.000
356.287; 2909.550;  248.825;    0.000
356.341; 2981.550;  221.825;    0.000
356.396; 2953.550;  220.825;    0.000
356.451; 2944.550;  231.825;    0.000
356.505; 2950.550;  231.825;    0.000
356.560; 2877.550;  254.825;    0.000
356.615; 2831.550;  234.825;    0.000
356.669; 2901.550;  250.825;    0.000
356.724; 2916.550;  261.825;    0.000
356.778; 2855.550;  207.825;    0.000
356.833; 2937.550;  205.825;    0.000
356.888; 2900.550;  235.825;    0.000
356.942; 2883.550;  205.825;    0.000
356.997; 2958.550;  276.825;    0.000
357.051; 2894.550;  243.825;    0.000
357.106; 2815.550;  242.825;    0.000
357.160; 2840.550;  241.825;    0.000
357.215; 2834.550;  212.825;    0.000
357.269; 2989.550;  238.825;    0.000
357.324; 2851.550;  223.825;    0.000
357.378; 2870.550;  221.825;    0.000
357.433; 2978.550;  262.825;    0.000
357.487; 2867.550;  246.825;    0.000
357.542; 2881.550;  221.825;    0.000
357.596; 2818.550;  225.825;    0.000
357.651; 2917.550;  244.825;    0.000
357.705; 2935.550;  269.825;    0.000
357.760; 2892.550;  209.825;    0.000
357.814; 2823.550;  250.825;    0.000
357.868; 2911.550;  266.825;    0.000
357.923; 2873.550;  248.825;    0.000
357.977; 2840.550;  262.825;    0.000
358.032; 2884.550;  228.825;    0.000
358.086; 2868.550;  257.825;    0.000
358.140; 2868.550;  217.825;    0.000
358.195; 2855.550;  246.825;    0.000
358.249; 2946.550;  255.825;    0.000
358.303; 2820.550;  252.825;    0.000
358.358; 2890.550;  278.825;    0.000
358.412; 2820.550;  276.825;    0.000
358.466; 2934.550;  275.825;    0.000
358.521; 2923.550;  229.825;    0.000
358.575; 2940.550;  270.825;    0.000
358.629; 2919.550;  239.825;    0.000
358.683; 2808.550;  254.825;    0.000
358.738; 2883.550;  239.825;    0.000
358.792; 2840.550;  272.825;    0.000
358.846; 2898.550;  289.825;    0.000
358.900; 2898.550;  299.825;    0.000
358.954; 2838.550;  247.825;    0.000
359.009; 3062.550;  245.825;    0.000
359.063; 2840.550;  272.825;    0.000
359.117; 2885.550;  242.825;    0.000
359.171; 2895.550;  279.825;    0.000
359.225; 2919.550;  221.825;    0.000
359.280; 2825.550;  238.825;    0.000
359.334; 2900.550;  264.825;    0.000
359.388; 2907.550;  273.825;    0.000
359.442; 3014.550;  233.825;    0.000
359.496; 2804.550;  226.825;    0.000
359.550; 2857.550;  271.825;    0.000
359.604; 2854.550;  296.825;    0.000
359.658; 2834.550;  252.825;    0.000
359.712; 2865.550;  256.825;    0.000
359.766; 2824.550;  257.825;    0.000
359.820; 2869.550;  239.825;    0.000
359.875; 2827.550;  252.825;    0.000
359.929; 2855.550;  258.825;    0.000
359.983; 2815.550;  232.825;    0.000
360.037; 2814.550;  268.825;    0.000
360.091; 2773.550;  303.825;    0.000
360.145; 2830.550;  232.825;    0.000
360.199; 2908.550;  255.825;    0.000
360.253; 2870.550;  252.825;    0.000
360.306; 2823.550;  278.825;    0.000
360.360; 2829.550;  249.825;    0.000
360.414; 2939.550;  274.825;    0.000
360.468; 2956.550;  247.825;    0.000
360.522; 2907.550;  268.825;    0.000
360.576; 2804.550;  263.825;    0.000
360.630; 2855.550;  296.825;    0.000
360.684; 2936.550;  253.825;    0.000
360.738; 2962.550;  301.825;    0.000
360.792; 2916.550;  282.825;    0.000
360.846; 2878.550;  277.825;    0.000
360.899; 2920.550;  292.825;    0.000
360.953; 2886.550;  266.825;    0.000
361.007; 2807.550;  240.825;    0.000
361.061; 2778.550;  247.825;    0.000
361.115; 2815.550;  276.825;    0.000
361.168; 2842.550;  288.825;    0.000
361.222; 2869.550;  271.825;    0.000
361.276; 2846.550;  270.825;    0.000
361.330; 2797.550;  295.825;    0.000
361.384; 2906.550;  276.825;    0.000
361.437; 2887.550;  280.825;    0.000
361.491; 2885.550;  261.825;    0.000
361.545; 2781.550;  273.825;    0.000
361.599; 2809.550;  269.825;    0.000
361.652; 2803.550;  258.825;    0.000
361.706; 2874.550;  270.825;    0.000
361.760; 2835.550;  294.825;    0.000
361.813; 2835.550;  244.825;    0.000
361.867; 2875.550;  294.825;    0.000
361.921; 2834.550;  285.825;    0.000
361.974; 2735.550;  269.825;    0.000
362.028; 2862.550;  275.825;    0.000
362.082; 2830.550;  270.825;    0.000
362.135; 2922.550;  259.825;    0.000
362.189; 2865.550;  302.825;    0.000
362.242; 2786.550;  296.825;    0.000
362.296; 2749.550;  285.825;    0.000
362.350; 2933.550;  303.825;    0.000
362.403; 2855.550;  271.825;    0.000
362.457; 2861.550;  285.825;    0.000
362.510; 2771.550;  288.825;    0.000
362.564; 2867.550;  268.825;    0.000
362.617; 2897.550;  285.825;    0.000
362.671; 2872.550;  277.825;    0.000
362.724; 2799.550;  242.825;    0.000
362.778; 2946.550;  274.825;    0.000
362.831; 2854.550;  280.825;    0.000
362.885; 2831.550;  284.825;    0.000
362.938; 2670.550;  276.825;    0.000
362.992;  356.550;  289.825;    0.000
363.045;  313.550;  247.825;    0.000
363.099;  281.550;  260.825;    0.000
363.152;  284.550;  258.825;    0.000
363.205;  297.550;  286.825;    0.000
363.259;  276.550;  236.825;    0.000
363.312;  321.550;  297.825;    0.000
363.366;  311.550;  266.825;    0.000
363.419;  268.550;  309.825;    0.000
363.472;  343.550;  293.825;    0.000
363.526;  292.550;  270.825;    0.000
363.579;  305.550;  276.825;    0.000
363.632;  288.550;  279.825;    0.000
363.686;  290.550;  292.825;    0.000
363.739;  240.550;  248.825;    0.000
363.792;  276.550;  287.825;    0.000

