
Integration time [ms]:   1.000
Averaging Nr. [scans]: 1
Smoothing Nr. [pixels]: 0
Data measured with spectrometer [name]: UV1
Wave   ;Sample   ;Dark     ;Reference
[nm]   ;[counts] ;[counts] ;[counts] 

236.381;  142.375;  175.825;    0.000
236.451;  204.375;  220.825;    0.000
236.520;  138.375;  178.825;    0.000
236.590;  203.375;  182.825;    0.000
236.660;  175.375;  180.825;    0.000
236.730;  196.375;  201.825;    0.000
236.799;  197.375;  168.825;    0.000
236.869;  236.375;  205.825;    0.000
236.939;  152.375;  175.825;    0.000
237.009;  166.375;  186.825;    0.000
237.078;  171.375;  200.825;    0.000
237.148;  181.375;  156.825;    0.000
237.218;  189.375;  190.825;    0.000
237.287;  193.375;  167.825;    0.000
237.357;  190.375;  213.825;    0.000
237.427;  158.375;  164.825;    0.000
237.496;  891.375;  210.825;    0.000
237.566;  895.375;  193.825;    0.000
237.636;  849.375;  179.825;    0.000
237.705;  838.375;  218.825;    0.000
237.775;  778.375;  160.825;    0.000
237.845;  898.375;  207.825;    0.000
237.914;  800.375;  180.825;    0.000
237.984;  849.375;  207.825;    0.000
238.054;  798.375;  149.825;    0.000
238.123;  844.375;  190.825;    0.000
238.193;  814.375;  167.825;    0.000
238.263;  819.375;  172.825;    0.000
238.332;  823.375;  173.825;    0.000
238.402;  810.375;  214.825;    0.000
238.471;  857.375;  181.825;    0.000
238.541;  842.375;  177.825;    0.000
238.611;  850.375;  138.825;    0.000
238.680;  808.375;  168.825;    0.000
238.750;  786.375;  171.825;    0.000
238.819;  839.375;  156.825;    0.000
238.889;  814.375;  194.825;    0.000
238.958;  782.375;  185.825;    0.000
239.028;  819.375;  170.825;    0.000
239.097;  752.375;  159.825;    0.000
239.167;  802.375;  208.825;    0.000
239.237;  836.375;  167.825;    0.000
239.306;  832.375;  154.825;    0.000
239.376;  822.375;  183.825;    0.000
239.445;  847.375;  221.825;    0.000
239.515;  826.375;  208.825;    0.000
239.584;  789.375;  177.825;    0.000
239.654;  797.375;  133.825;    0.000
239.723;  742.375;  167.825;    0.000
239.793;  760.375;  190.825;    0.000
239.862;  818.375;  192.825;    0.000
239.932;  745.375;  174.825;    0.000
240.001;  767.375;  166.825;    0.000
240.070;  776.375;  179.825;    0.000
240.140;  845.375;  191.825;    0.000
240.209;  788.375;  134.825;    0.000
240.279;  777.375;  185.825;    0.000
240.348;  756.375;  193.825;    0.000
240.418;  751.375;  149.825;    0.000
240.487;  813.375;  197.825;    0.000
240.556;  813.375;  193.825;    0.000
240.626;  791.375;  178.825;    0.000
240.695;  769.375;  194.825;    0.000
240.765;  806.375;  178.825;    0.000
240.834;  753.375;  190.825;    0.000
240.903;  801.375;  212.825;    0.000
240.973;  826.375;  153.825;    0.000
241.042;  799.375;  177.825;    0.000
241.112;  738.375;  193.825;    0.000
241.181;  799.375;  171.825;    0.000
241.250;  765.375;  152.825;    0.000
241.320;  808.375;  176.825;    0.000
241.389;  762.375;  186.825;    0.000
241.458;  810.375;  182.825;    0.000
241.528;  750.375;  175.825;    0.000
241.597;  803.375;  180.825;    0.000
241.666;  785.375;  162.825;    0.000
241.736;  786.375;  187.825;    0.000
241.805;  776.375;  173.825;    0.000
241.874;  800.375;  177.825;    0.000
241.943;  778.375;  208.825;    0.000
242.013;  725.375;  183.825;    0.000
242.082;  828.375;  171.825;    0.000
242.151;  805.375;  208.825;    0.000
242.221;  729.375;  160.825;    0.000
242.290;  782.375;  200.825;    0.000
242.359;  767.375;  167.825;    0.000
242.428;  805.375;  213.825;    0.000
242.498;  761.375;  156.825;    0.000
242.567;  859.375;  200.825;    0.000
242.636;  778.375;  178.825;    0.000
242.705;  788.375;  185.825;    0.000
242.774;  739.375;  190.825;    0.000
242.844;  739.375;  194.825;    0.000
242.913;  768.375;  162.825;    0.000
242.982;  754.375;  189.825;    0.000
243.051;  751.375;  176.825;    0.000
243.120;  768.375;  213.825;    0.000
243.190;  718.375;  155.825;    0.000
243.259;  773.375;  183.825;    0.000
243.328;  766.375;  170.825;    0.000
243.397;  800.375;  224.825;    0.000
243.466;  729.375;  172.825;    0.000
243.535;  760.375;  145.825;    0.000
243.605;  733.375;  157.825;    0.000
243.674;  762.375;  199.825;    0.000
243.743;  757.375;  196.825;    0.000
243.812;  723.375;  152.825;    0.000
243.881;  755.375;  188.825;    0.000
243.950;  765.375;  154.825;    0.000
244.019;  754.375;  195.825;    0.000
244.088;  761.375;  164.825;    0.000
244.158;  790.375;  220.825;    0.000
244.227;  792.375;  150.825;    0.000
244.296;  721.375;  153.825;    0.000
244.365;  744.375;  195.825;    0.000
244.434;  725.375;  136.825;    0.000
244.503;  764.375;  172.825;    0.000
244.572;  709.375;  129.825;    0.000
244.641;  701.375;  132.825;    0.000
244.710;  717.375;  185.825;    0.000
244.779;  727.375;  164.825;    0.000
244.848;  683.375;  132.825;    0.000
244.917;  759.375;  196.825;    0.000
244.986;  685.375;  148.825;    0.000
245.055;  775.375;  192.825;    0.000
245.124;  764.375;  170.825;    0.000
245.193;  690.375;  172.825;    0.000
245.262;  664.375;  146.825;    0.000
245.331;  695.375;  178.825;    0.000
245.400;  624.375;  108.825;    0.000
245.469;  717.375;  173.825;    0.000
245.538;  708.375;  180.825;    0.000
245.607;  719.375;  171.825;    0.000
245.676;  658.375;  149.825;    0.000
245.745;  727.375;  194.825;    0.000
245.814;  697.375;  186.825;    0.000
245.883;  679.375;  192.825;    0.000
245.952;  672.375;  169.825;    0.000
246.021;  700.375;  190.825;    0.000
246.090;  740.375;  181.825;    0.000
246.159;  673.375;  179.825;    0.000
246.227;  700.375;  182.825;    0.000
246.296;  599.375;  182.825;    0.000
246.365;  639.375;  171.825;    0.000
246.434;  679.375;  218.825;    0.000
246.503;  659.375;  147.825;    0.000
246.572;  689.375;  227.825;    0.000
246.641;  658.375;  193.825;    0.000
246.710;  670.375;  207.825;    0.000
246.779;  618.375;  181.825;    0.000
246.847;  674.375;  179.825;    0.000
246.916;  627.375;  155.825;    0.000
246.985;  676.375;  168.825;    0.000
247.054;  642.375;  137.825;    0.000
247.123;  634.375;  128.825;    0.000
247.192;  670.375;  163.825;    0.000
247.260;  618.375;  173.825;    0.000
247.329;  627.375;  174.825;    0.000
247.398;  648.375;  238.825;    0.000
247.467;  618.375;  168.825;    0.000
247.536;  672.375;  203.825;    0.000
247.604;  718.375;  194.825;    0.000
247.673;  628.375;  145.825;    0.000
247.742;  673.375;  167.825;    0.000
247.811;  674.375;  180.825;    0.000
247.879;  603.375;  187.825;    0.000
247.948;  614.375;  187.825;    0.000
248.017;  653.375;  170.825;    0.000
248.086;  627.375;  223.825;    0.000
248.154;  624.375;  160.825;    0.000
248.223;  676.375;  163.825;    0.000
248.292;  654.375;  201.825;    0.000
248.361;  661.375;  205.825;    0.000
248.429;  644.375;  191.825;    0.000
248.498;  635.375;  194.825;    0.000
248.567;  685.375;  217.825;    0.000
248.635;  648.375;  224.825;    0.000
248.704;  639.375;  204.825;    0.000
248.773;  661.375;  175.825;    0.000
248.841;  596.375;  157.825;    0.000
248.910;  607.375;  206.825;    0.000
248.979;  637.375;  170.825;    0.000
249.047;  618.375;  178.825;    0.000
249.116;  631.375;  183.825;    0.000
249.185;  635.375;  202.825;    0.000
249.253;  624.375;  159.825;    0.000
249.322;  653.375;  177.825;    0.000
249.390;  566.375;  157.825;    0.000
249.459;  634.375;  211.825;    0.000
249.528;  622.375;  181.825;    0.000
249.596;  601.375;  179.825;    0.000
249.665;  595.375;  176.825;    0.000
249.733;  620.375;  186.825;    0.000
249.802;  612.375;  185.825;    0.000
249.871;  628.375;  166.825;    0.000
249.939;  637.375;  163.825;    0.000
250.008;  672.375;  212.825;    0.000
250.076;  633.375;  227.825;    0.000
250.145;  601.375;  172.825;    0.000
250.213;  633.375;  173.825;    0.000
250.282;  657.375;  189.825;    0.000
250.350;  565.375;  166.825;    0.000
250.419;  601.375;  161.825;    0.000
250.487;  601.375;  178.825;    0.000
250.556;  643.375;  208.825;    0.000
250.624;  629.375;  190.825;    0.000
250.693;  603.375;  163.825;    0.000
250.761;  603.375;  194.825;    0.000
250.830;  627.375;  225.825;    0.000
250.898;  540.375;  140.825;    0.000
250.967;  563.375;  167.825;    0.000
251.035;  586.375;  155.825;    0.000
251.104;  618.375;  189.825;    0.000
251.172;  580.375;  136.825;    0.000
251.241;  595.375;  148.825;    0.000
251.309;  616.375;  201.825;    0.000
251.378;  590.375;  169.825;    0.000
251.446;  524.375;  178.825;    0.000
251.514;  565.375;  206.825;    0.000
251.583;  584.375;  178.825;    0.000
251.651;  601.375;  168.825;    0.000
251.720;  584.375;  190.825;    0.000
251.788;  605.375;  209.825;    0.000
251.856;  549.375;  173.825;    0.000
251.925;  569.375;  171.825;    0.000
251.993;  569.375;  188.825;    0.000
252.062;  615.375;  169.825;    0.000
252.130;  521.375;  196.825;    0.000
252.198;  611.375;  210.825;    0.000
252.267;  577.375;  181.825;    0.000
252.335;  571.375;  164.825;    0.000
252.403;  558.375;  152.825;    0.000
252.472;  577.375;  166.825;    0.000
252.540;  584.375;  189.825;    0.000
252.608;  599.375;  198.825;    0.000
252.677;  514.375;  156.825;    0.000
252.745;  644.375;  184.825;    0.000
252.813;  551.375;  163.825;    0.000
252.881;  527.375;  130.825;    0.000
252.950;  554.375;  189.825;    0.000
253.018;  588.375;  164.825;    0.000
253.086;  487.375;  172.825;    0.000
253.155;  480.375;  205.825;    0.000
253.223;  476.375;  175.825;    0.000
253.291;  496.375;  176.825;    0.000
253.359;  517.375;  182.825;    0.000
253.428;  520.375;  222.825;    0.000
253.496;  461.375;  166.825;    0.000
253.564;  483.375;  135.825;    0.000
253.632;  457.375;  184.825;    0.000
253.700;  507.375;  173.825;    0.000
253.769;  463.375;  163.825;    0.000
253.837;  475.375;  179.825;    0.000
253.905;  508.375;  157.825;    0.000
253.973;  473.375;  164.825;    0.000
254.041;  466.375;  170.825;    0.000
254.110;  448.375;  169.825;    0.000
254.178;  494.375;  165.825;    0.000
254.246;  445.375;  126.825;    0.000
254.314;  469.375;  166.825;    0.000
254.382;  488.375;  169.825;    0.000
254.450;  443.375;  170.825;    0.000
254.518;  470.375;  196.825;    0.000
254.587;  433.375;  161.825;    0.000
254.655;  451.375;  187.825;    0.000
254.723;  445.375;  144.825;    0.000
254.791;  482.375;  175.825;    0.000
254.859;  516.375;  168.825;    0.000
254.927;  481.375;  198.825;    0.000
254.995;  464.375;  165.825;    0.000
255.063;  487.375;  150.825;    0.000
255.131;  416.375;  181.825;    0.000
255.199;  527.375;  160.825;    0.000
255.267;  485.375;  131.825;    0.000
255.336;  515.375;  188.825;    0.000
255.404;  474.375;  163.825;    0.000
255.472;  551.375;  192.825;    0.000
255.540;  484.375;  158.825;    0.000
255.608;  501.375;  147.825;    0.000
255.676;  486.375;  166.825;    0.000
255.744;  486.375;  159.825;    0.000
255.812;  476.375;  164.825;    0.000
255.880;  531.375;  195.825;    0.000
255.948;  511.375;  167.825;    0.000
256.016;  518.375;  185.825;    0.000
256.084;  548.375;  191.825;    0.000
256.152;  537.375;  214.825;    0.000
256.220;  518.375;  195.825;    0.000
256.288;  558.375;  185.825;    0.000
256.356;  522.375;  168.825;    0.000
256.424;  545.375;  161.825;    0.000
256.491;  511.375;  161.825;    0.000
256.559;  486.375;  157.825;    0.000
256.627;  548.375;  164.825;    0.000
256.695;  538.375;  146.825;    0.000
256.763;  575.375;  194.825;    0.000
256.831;  558.375;  182.825;    0.000
256.899;  608.375;  192.825;    0.000
256.967;  551.375;  172.825;    0.000
257.035;  598.375;  169.825;    0.000
257.103;  630.375;  223.825;    0.000
257.171;  540.375;  141.825;    0.000
257.238;  567.375;  146.825;    0.000
257.306;  564.375;  180.825;    0.000
257.374;  608.375;  138.825;    0.000
257.442;  572.375;  135.825;    0.000
257.510;  595.375;  130.825;    0.000
257.578;  566.375;  123.825;    0.000
257.646;  603.375;  162.825;    0.000
257.713;  569.375;  149.825;    0.000
257.781;  619.375;  125.825;    0.000
257.849;  642.375;  149.825;    0.000
257.917;  626.375;  177.825;    0.000
257.985;  660.375;  143.825;    0.000
258.052;  661.375;  154.825;    0.000
258.120;  680.375;  162.825;    0.000
258.188;  656.375;  172.825;    0.000
258.256;  660.375;  160.825;    0.000
258.324;  719.375;  209.825;    0.000
258.391;  679.375;  153.825;    0.000
258.459;  725.375;  133.825;    0.000
258.527;  641.375;  160.825;    0.000
258.595;  755.375;  128.825;    0.000
258.662;  654.375;  114.825;    0.000
258.730;  704.375;  192.825;    0.000
258.798;  715.375;  144.825;    0.000
258.865;  709.375;  140.825;    0.000
258.933;  734.375;  150.825;    0.000
259.001;  754.375;  149.825;    0.000
259.069;  743.375;  110.825;    0.000
259.136;  810.375;  150.825;    0.000
259.204;  779.375;  156.825;    0.000
259.272;  764.375;  185.825;    0.000
259.339;  804.375;  148.825;    0.000
259.407;  802.375;  163.825;    0.000
259.475;  854.375;  129.825;    0.000
259.542;  798.375;  144.825;    0.000
259.610;  827.375;  164.825;    0.000
259.677;  825.375;  188.825;    0.000
259.745;  808.375;  113.825;    0.000
259.813;  846.375;  188.825;    0.000
259.880;  934.375;  174.825;    0.000
259.948;  888.375;  166.825;    0.000
260.016;  883.375;  150.825;    0.000
260.083;  877.375;  178.825;    0.000
260.151;  874.375;  120.825;    0.000
260.218;  948.375;  175.825;    0.000
260.286;  913.375;  155.825;    0.000
260.353;  978.375;  165.825;    0.000
260.421;  899.375;  169.825;    0.000
260.489;  964.375;  194.825;    0.000
260.556; 1031.375;  161.825;    0.000
260.624;  981.375;  179.825;    0.000
260.691; 1004.375;  174.825;    0.000
260.759;  998.375;  164.825;    0.000
260.826;  983.375;  125.825;    0.000
260.894; 1004.375;  164.825;    0.000
260.961;  995.375;  147.825;    0.000
261.029; 1023.375;  167.825;    0.000
261.096; 1048.375;  136.825;    0.000
261.164; 1062.375;  146.825;    0.000
261.231; 1111.375;  190.825;    0.000
261.299; 1064.375;  171.825;    0.000
261.366; 1086.375;  165.825;    0.000
261.434; 1085.375;  160.825;    0.000
261.501; 1096.375;  149.825;    0.000
261.568; 1122.375;  155.825;    0.000
261.636; 1063.375;  137.825;    0.000
261.703; 1110.375;  186.825;    0.000
261.771; 1133.375;  162.825;    0.000
261.838; 1153.375;  190.825;    0.000
261.906; 1158.375;  133.825;    0.000
261.973; 1128.375;  202.825;    0.000
262.040; 1196.375;  179.825;    0.000
262.108; 1171.375;  161.825;    0.000
262.175; 1133.375;  155.825;    0.000
262.243; 1196.375;  158.825;    0.000
262.310; 1143.375;  129.825;    0.000
262.377; 1161.375;  157.825;    0.000
262.445; 1236.375;  132.825;    0.000
262.512; 1221.375;  161.825;    0.000
262.579; 1221.375;  151.825;    0.000
262.647; 1268.375;  174.825;    0.000
262.714; 1273.375;  174.825;    0.000
262.781; 1285.375;  164.825;    0.000
262.849; 1221.375;  168.825;    0.000
262.916; 1251.375;  153.825;    0.000
262.983; 1269.375;  201.825;    0.000
263.051; 1297.375;  117.825;    0.000
263.118; 1347.375;  150.825;    0.000
263.185; 1355.375;  172.825;    0.000
263.252; 1334.375;  154.825;    0.000
263.320; 1355.375;  152.825;    0.000
263.387; 1277.375;  136.825;    0.000
263.454; 1332.375;  167.825;    0.000
263.522; 1332.375;  122.825;    0.000
263.589; 1380.375;  147.825;    0.000
263.656; 1392.375;  130.825;    0.000
263.723; 1401.375;  182.825;    0.000
263.790; 1385.375;  163.825;    0.000
263.858; 1381.375;  161.825;    0.000
263.925; 1389.375;  153.825;    0.000
263.992; 1415.375;  139.825;    0.000
264.059; 1457.375;  141.825;    0.000
264.126; 1421.375;  153.825;    0.000
264.194; 1457.375;  144.825;    0.000
264.261; 1461.375;  188.825;    0.000
264.328; 1404.375;  161.825;    0.000
264.395; 1547.375;  184.825;    0.000
264.462; 1497.375;  162.825;    0.000
264.529; 1453.375;  178.825;    0.000
264.597; 1429.375;  160.825;    0.000
264.664; 1443.375;  158.825;    0.000
264.731; 1522.375;  176.825;    0.000
264.798; 1477.375;  137.825;    0.000
264.865; 1579.375;  175.825;    0.000
264.932; 1495.375;  162.825;    0.000
264.999; 1506.375;  153.825;    0.000
265.066; 1460.375;  168.825;    0.000
265.133; 1533.375;  142.825;    0.000
265.201; 1600.375;  163.825;    0.000
265.268; 1508.375;  143.825;    0.000
265.335; 1620.375;  156.825;    0.000
265.402; 1473.375;  136.825;    0.000
265.469; 1583.375;  127.825;    0.000
265.536; 1577.375;  159.825;    0.000
265.603; 1633.375;  191.825;    0.000
265.670; 1603.375;  136.825;    0.000
265.737; 1649.375;  186.825;    0.000
265.804; 1624.375;  147.825;    0.000
265.871; 1619.375;  147.825;    0.000
265.938; 1669.375;  153.825;    0.000
266.005; 1704.375;  172.825;    0.000
266.072; 1591.375;  151.825;    0.000
266.139; 1651.375;  175.825;    0.000
266.206; 1686.375;  165.825;    0.000
266.273; 1633.375;  162.825;    0.000
266.340; 1569.375;  150.825;    0.000
266.407; 1656.375;  169.825;    0.000
266.474; 1682.375;  151.825;    0.000
266.541; 1630.375;  164.825;    0.000
266.608; 1699.375;  111.825;    0.000
266.675; 1719.375;  173.825;    0.000
266.742; 1689.375;  148.825;    0.000
266.808; 1696.375;  185.825;    0.000
266.875; 1656.375;  188.825;    0.000
266.942; 1766.375;  131.825;    0.000
267.009; 1756.375;  184.825;    0.000
267.076; 1701.375;  200.825;    0.000
267.143; 1673.375;  216.825;    0.000
267.210; 1729.375;  138.825;    0.000
267.277; 1712.375;  143.825;    0.000
267.344; 1801.375;  172.825;    0.000
267.410; 1825.375;  172.825;    0.000
267.477; 1797.375;  160.825;    0.000
267.544; 1837.375;  175.825;    0.000
267.611; 1835.375;  189.825;    0.000
267.678; 1843.375;  162.825;    0.000
267.745; 1883.375;  206.825;    0.000
267.811; 1799.375;  146.825;    0.000
267.878; 1831.375;  147.825;    0.000
267.945; 1790.375;  170.825;    0.000
268.012; 1838.375;  153.825;    0.000
268.079; 1782.375;  185.825;    0.000
268.145; 1792.375;  197.825;    0.000
268.212; 1746.375;  167.825;    0.000
268.279; 1778.375;  145.825;    0.000
268.346; 1742.375;  182.825;    0.000
268.412; 1794.375;  144.825;    0.000
268.479; 1785.375;  186.825;    0.000
268.546; 1772.375;  147.825;    0.000
268.613; 1810.375;  188.825;    0.000
268.679; 1748.375;  173.825;    0.000
268.746; 1768.375;  204.825;    0.000
268.813; 1785.375;  199.825;    0.000
268.879; 1785.375;  157.825;    0.000
268.946; 1784.375;  192.825;    0.000
269.013; 1813.375;  136.825;    0.000
269.079; 1755.375;  166.825;    0.000
269.146; 1739.375;  129.825;    0.000
269.213; 1835.375;  178.825;    0.000
269.280; 1761.375;  148.825;    0.000
269.346; 1733.375;  194.825;    0.000
269.413; 1804.375;  135.825;    0.000
269.479; 1828.375;  180.825;    0.000
269.546; 1784.375;  169.825;    0.000
269.613; 1783.375;  160.825;    0.000
269.679; 1817.375;  161.825;    0.000
269.746; 1813.375;  143.825;    0.000
269.813; 1751.375;  172.825;    0.000
269.879; 1825.375;  152.825;    0.000
269.946; 1810.375;  156.825;    0.000
270.012; 1759.375;  190.825;    0.000
270.079; 1753.375;  143.825;    0.000
270.145; 1784.375;  148.825;    0.000
270.212; 1721.375;  176.825;    0.000
270.279; 1822.375;  168.825;    0.000
270.345; 1784.375;  143.825;    0.000
270.412; 1777.375;  155.825;    0.000
270.478; 1721.375;  176.825;    0.000
270.545; 1831.375;  112.825;    0.000
270.611; 1854.375;  186.825;    0.000
270.678; 1655.375;  141.825;    0.000
270.744; 1747.375;  145.825;    0.000
270.811; 1739.375;  120.825;    0.000
270.877; 1754.375;  118.825;    0.000
270.944; 1744.375;  135.825;    0.000
271.010; 1728.375;  128.825;    0.000
271.077; 1738.375;  176.825;    0.000
271.143; 1800.375;  162.825;    0.000
271.210; 1752.375;  133.825;    0.000
271.276; 1761.375;  107.825;    0.000
271.342; 1841.375;  202.825;    0.000
271.409; 1786.375;  160.825;    0.000
271.475; 1757.375;  165.825;    0.000
271.542; 1741.375;  152.825;    0.000
271.608; 1783.375;  163.825;    0.000
271.675; 1719.375;  149.825;    0.000
271.741; 1762.375;  164.825;    0.000
271.807; 1733.375;  128.825;    0.000
271.874; 1801.375;  148.825;    0.000
271.940; 1814.375;  179.825;    0.000
272.007; 1758.375;  148.825;    0.000
272.073; 1742.375;  146.825;    0.000
272.139; 1791.375;  166.825;    0.000
272.206; 1761.375;  198.825;    0.000
272.272; 1800.375;  201.825;    0.000
272.338; 1824.375;  208.825;    0.000
272.405; 1674.375;  181.825;    0.000
272.471; 1762.375;  167.825;    0.000
272.537; 1729.375;  189.825;    0.000
272.604; 1685.375;  162.825;    0.000
272.670; 1781.375;  194.825;    0.000
272.736; 1754.375;  176.825;    0.000
272.802; 1800.375;  163.825;    0.000
272.869; 1775.375;  170.825;    0.000
272.935; 1781.375;  145.825;    0.000
273.001; 1777.375;  149.825;    0.000
273.068; 1768.375;  172.825;    0.000
273.134; 1767.375;  155.825;    0.000
273.200; 1834.375;  183.825;    0.000
273.266; 1807.375;  160.825;    0.000
273.333; 1731.375;  190.825;    0.000
273.399; 1781.375;  132.825;    0.000
273.465; 1814.375;  179.825;    0.000
273.531; 1782.375;  161.825;    0.000
273.597; 1788.375;  194.825;    0.000
273.664; 1866.375;  193.825;    0.000
273.730; 1835.375;  180.825;    0.000
273.796; 1838.375;  145.825;    0.000
273.862; 1942.375;  176.825;    0.000
273.928; 1879.375;  169.825;    0.000
273.995; 1956.375;  202.825;    0.000
274.061; 1874.375;  176.825;    0.000
274.127; 1798.375;  178.825;    0.000
274.193; 1786.375;  106.825;    0.000
274.259; 2004.375;  186.825;    0.000
274.325; 1931.375;  163.825;    0.000
274.391; 1802.375;  162.825;    0.000
274.457; 1900.375;  145.825;    0.000
274.524; 1950.375;  189.825;    0.000
274.590; 1955.375;  161.825;    0.000
274.656; 2078.375;  157.825;    0.000
274.722; 1882.375;  143.825;    0.000
274.788; 1949.375;  166.825;    0.000
274.854; 2058.375;  200.825;    0.000
274.920; 2028.375;  132.825;    0.000
274.986; 1972.375;  184.825;    0.000
275.052; 1944.375;  169.825;    0.000
275.118; 1957.375;  153.825;    0.000
275.184; 2000.375;  182.825;    0.000
275.250; 2039.375;  124.825;    0.000
275.316; 2077.375;  154.825;    0.000
275.382; 2013.375;  150.825;    0.000
275.448; 2075.375;  180.825;    0.000
275.514; 2097.375;  143.825;    0.000
275.580; 2080.375;  120.825;    0.000
275.646; 2123.375;  127.825;    0.000
275.712; 2123.375;  109.825;    0.000
275.778; 2136.375;  126.825;    0.000
275.844; 2177.375;  155.825;    0.000
275.910; 2165.375;  164.825;    0.000
275.976; 2180.375;  161.825;    0.000
276.042; 2144.375;  152.825;    0.000
276.108; 2235.375;  159.825;    0.000
276.174; 2221.375;  149.825;    0.000
276.240; 2215.375;  112.825;    0.000
276.306; 2305.375;  142.825;    0.000
276.372; 2339.375;  136.825;    0.000
276.437; 2400.375;  141.825;    0.000
276.503; 2371.375;  150.825;    0.000
276.569; 2460.375;  178.825;    0.000
276.635; 2409.375;  117.825;    0.000
276.701; 2558.375;  174.825;    0.000
276.767; 2497.375;  136.825;    0.000
276.833; 2612.375;  119.825;    0.000
276.899; 2601.375;  171.825;    0.000
276.964; 2685.375;  146.825;    0.000
277.030; 2724.375;  157.825;    0.000
277.096; 2801.375;  124.825;    0.000
277.162; 2923.375;  185.825;    0.000
277.228; 2989.375;  125.825;    0.000
277.293; 3043.375;  159.825;    0.000
277.359; 3239.375;  186.825;    0.000
277.425; 3325.375;  176.825;    0.000
277.491; 3444.375;  140.825;    0.000
277.557; 4011.375;  172.825;    0.000
277.622; 5140.375;  187.825;    0.000
277.688; 5102.375;  203.825;    0.000
277.754; 5343.375;  170.825;    0.000
277.820; 5855.375;  142.825;    0.000
277.885; 6918.375;  182.825;    0.000
277.951; 8395.375;  171.825;    0.000
278.017; 7206.375;  173.825;    0.000
278.083; 6512.375;  151.825;    0.000
278.148; 6176.375;  159.825;    0.000
278.214; 6252.375;  173.825;    0.000
278.280; 6664.375;  137.825;    0.000
278.345; 6282.375;  190.825;    0.000
278.411; 5953.375;  149.825;    0.000
278.477; 6153.375;  157.825;    0.000
278.542; 6361.375;  136.825;    0.000
278.608; 7031.375;  144.825;    0.000
278.674; 7548.375;  215.825;    0.000
278.739; 8591.375;  148.825;    0.000
278.805; 9609.375;  152.825;    0.000
278.871;11061.375;  170.825;    0.000
278.936;13890.375;  180.825;    0.000
279.002;19189.375;  177.825;    0.000
279.067;24148.375;  172.825;    0.000
279.133;24031.375;  160.825;    0.000
279.199;23113.375;  165.825;    0.000
279.264;23698.375;  130.825;    0.000
279.330;27609.375;  154.825;    0.000
279.395;34445.375;  170.825;    0.000
279.461;41828.375;  136.825;    0.000
279.527;46119.375;  174.825;    0.000
279.592;44122.375;  179.825;    0.000
279.658;38375.375;  187.825;    0.000
279.723;36753.375;  201.825;    0.000
279.789;37519.375;  194.825;    0.000
279.854;34308.375;  171.825;    0.000
279.920;29716.375;  183.825;    0.000
279.985;27698.375;  173.825;    0.000
280.051;28139.375;  194.825;    0.000
280.116;32088.375;  197.825;    0.000
280.182;39723.375;  171.825;    0.000
280.247;43659.375;  131.825;    0.000
280.313;38636.375;  166.825;    0.000
280.378;29656.375;  159.825;    0.000
280.444;22873.375;  190.825;    0.000
280.509;18448.375;  189.825;    0.000
280.574;15452.375;  171.825;    0.000
280.640;13325.375;  167.825;    0.000
280.705;12123.375;  129.825;    0.000
280.771;10987.375;  193.825;    0.000
280.836;10073.375;  172.825;    0.000
280.902; 9147.375;  189.825;    0.000
280.967; 8511.375;  143.825;    0.000
281.032; 8062.375;  182.825;    0.000
281.098; 7570.375;  172.825;    0.000
281.163; 7343.375;  184.825;    0.000
281.229; 7016.375;  210.825;    0.000
281.294; 6462.375;  223.825;    0.000
281.359; 6284.375;  197.825;    0.000
281.425; 6136.375;  192.825;    0.000
281.490; 5778.375;  162.825;    0.000
281.555; 5429.375;  193.825;    0.000
281.621; 5340.375;  141.825;    0.000
281.686; 5233.375;  166.825;    0.000
281.751; 5129.375;  204.825;    0.000
281.816; 4930.375;  159.825;    0.000
281.882; 4775.375;  146.825;    0.000
281.947; 4557.375;  176.825;    0.000
282.012; 4357.375;  139.825;    0.000
282.078; 4385.375;  186.825;    0.000
282.143; 4246.375;  151.825;    0.000
282.208; 4278.375;  213.825;    0.000
282.273; 4113.375;  160.825;    0.000
282.339; 4037.375;  175.825;    0.000
282.404; 4073.375;  157.825;    0.000
282.469; 3866.375;  185.825;    0.000
282.534; 3924.375;  166.825;    0.000
282.600; 3697.375;  168.825;    0.000
282.665; 3731.375;  167.825;    0.000
282.730; 3737.375;  148.825;    0.000
282.795; 3746.375;  186.825;    0.000
282.860; 3589.375;  161.825;    0.000
282.926; 3649.375;  178.825;    0.000
282.991; 3612.375;  139.825;    0.000
283.056; 3529.375;  158.825;    0.000
283.121; 3518.375;  191.825;    0.000
283.186; 3457.375;  182.825;    0.000
283.251; 3407.375;  181.825;    0.000
283.316; 3467.375;  187.825;    0.000
283.382; 3385.375;  175.825;    0.000
283.447; 3314.375;  183.825;    0.000
283.512; 3307.375;  175.825;    0.000
283.577; 3314.375;  180.825;    0.000
283.642; 3186.375;  193.825;    0.000
283.707; 3217.375;  145.825;    0.000
283.772; 3250.375;  143.825;    0.000
283.837; 3338.375;  143.825;    0.000
283.902; 3250.375;  150.825;    0.000
283.967; 3156.375;  166.825;    0.000
284.032; 3217.375;  126.825;    0.000
284.097; 3132.375;  201.825;    0.000
284.163; 3064.375;  133.825;    0.000
284.228; 3066.375;  193.825;    0.000
284.293; 3235.375;  157.825;    0.000
284.358; 3361.375;  185.825;    0.000
284.423; 3207.375;  142.825;    0.000
284.488; 3261.375;  192.825;    0.000
284.553; 3358.375;  146.825;    0.000
284.618; 3360.375;  154.825;    0.000
284.683; 3435.375;  172.825;    0.000
284.748; 3560.375;  195.825;    0.000
284.812; 3817.375;  190.825;    0.000
284.877; 4168.375;  169.825;    0.000
284.942; 4625.375;  195.825;    0.000
285.007; 5466.375;  204.825;    0.000
285.072; 7405.375;  189.825;    0.000
285.137;11519.375;  149.825;    0.000
285.202;15217.375;  164.825;    0.000
285.267;13317.375;  161.825;    0.000
285.332; 9046.375;  140.825;    0.000
285.397; 6791.375;  142.825;    0.000
285.462; 5546.375;  146.825;    0.000
285.527; 4827.375;  132.825;    0.000
285.591; 4413.375;  160.825;    0.000
285.656; 4074.375;  136.825;    0.000
285.721; 3814.375;  135.825;    0.000
285.786; 3568.375;  171.825;    0.000
285.851; 3500.375;  168.825;    0.000
285.916; 3259.375;  178.825;    0.000
285.981; 3378.375;  152.825;    0.000
286.045; 3150.375;  167.825;    0.000
286.110; 3199.375;  187.825;    0.000
286.175; 3115.375;  162.825;    0.000
286.240; 3208.375;  163.825;    0.000
286.305; 3138.375;  190.825;    0.000
286.369; 3008.375;  143.825;    0.000
286.434; 3018.375;  185.825;    0.000
286.499; 2956.375;  195.825;    0.000
286.564; 2899.375;  173.825;    0.000
286.628; 3002.375;  159.825;    0.000
286.693; 2885.375;  175.825;    0.000
286.758; 2936.375;  170.825;    0.000
286.823; 2883.375;  129.825;    0.000
286.887; 2954.375;  172.825;    0.000
286.952; 2880.375;  163.825;    0.000
287.017; 2863.375;  217.825;    0.000
287.082; 2997.375;  165.825;    0.000
287.146; 2892.375;  176.825;    0.000
287.211; 2876.375;  192.825;    0.000
287.276; 2767.375;  147.825;    0.000
287.340; 2856.375;  162.825;    0.000
287.405; 2931.375;  196.825;    0.000
287.470; 2831.375;  148.825;    0.000
287.534; 2865.375;  166.825;    0.000
287.599; 2792.375;  193.825;    0.000
287.663; 2807.375;  191.825;    0.000
287.728; 2788.375;  146.825;    0.000
287.793; 2838.375;  234.825;    0.000
287.857; 2891.375;  177.825;    0.000
287.922; 2703.375;  166.825;    0.000
287.987; 2830.375;  169.825;    0.000
288.051; 2849.375;  169.825;    0.000
288.116; 2908.375;  187.825;    0.000
288.180; 2930.375;  200.825;    0.000
288.245; 2824.375;  201.825;    0.000
288.309; 2770.375;  176.825;    0.000
288.374; 2845.375;  162.825;    0.000
288.439; 2781.375;  195.825;    0.000
288.503; 2742.375;  162.825;    0.000
288.568; 2725.375;  228.825;    0.000
288.632; 2818.375;  194.825;    0.000
288.697; 2827.375;  173.825;    0.000
288.761; 2717.375;  153.825;    0.000
288.826; 2714.375;  151.825;    0.000
288.890; 2805.375;  208.825;    0.000
288.955; 2756.375;  159.825;    0.000
289.019; 2754.375;  198.825;    0.000
289.084; 2665.375;  152.825;    0.000
289.148; 2716.375;  171.825;    0.000
289.212; 2767.375;  184.825;    0.000
289.277; 2733.375;  165.825;    0.000
289.341; 2618.375;  207.825;    0.000
289.406; 2765.375;  156.825;    0.000
289.470; 2679.375;  191.825;    0.000
289.535; 2766.375;  222.825;    0.000
289.599; 2685.375;  214.825;    0.000
289.663; 2716.375;  183.825;    0.000
289.728; 2787.375;  192.825;    0.000
289.792; 2810.375;  197.825;    0.000
289.857; 2732.375;  221.825;    0.000
289.921; 2733.375;  177.825;    0.000
289.985; 2733.375;  177.825;    0.000
290.050; 2682.375;  178.825;    0.000
290.114; 2656.375;  112.825;    0.000
290.178; 2605.375;  170.825;    0.000
290.243; 2625.375;  162.825;    0.000
290.307; 2743.375;  178.825;    0.000
290.371; 2628.375;  141.825;    0.000
290.436; 2789.375;  178.825;    0.000
290.500; 2557.375;  135.825;    0.000
290.564; 2761.375;  199.825;    0.000
290.629; 2716.375;  165.825;    0.000
290.693; 2713.375;  154.825;    0.000
290.757; 2775.375;  159.825;    0.000
290.821; 2667.375;  179.825;    0.000
290.886; 2623.375;  141.825;    0.000
290.950; 2685.375;  166.825;    0.000
291.014; 2621.375;  169.825;    0.000
291.078; 2782.375;  191.825;    0.000
291.143; 2704.375;  169.825;    0.000
291.207; 2794.375;  164.825;    0.000
291.271; 2781.375;  193.825;    0.000
291.335; 2871.375;  150.825;    0.000
291.399; 2854.375;  175.825;    0.000
291.464; 3015.375;  128.825;    0.000
291.528; 3076.375;  162.825;    0.000
291.592; 3069.375;  152.825;    0.000
291.656; 2970.375;  175.825;    0.000
291.720; 2946.375;  173.825;    0.000
291.784; 2848.375;  192.825;    0.000
291.849; 2869.375;  159.825;    0.000
291.913; 2979.375;  174.825;    0.000
291.977; 2928.375;  177.825;    0.000
292.041; 2916.375;  188.825;    0.000
292.105; 2785.375;  174.825;    0.000
292.169; 2863.375;  143.825;    0.000
292.233; 2854.375;  149.825;    0.000
292.297; 3043.375;  176.825;    0.000
292.361; 2959.375;  178.825;    0.000
292.425; 3071.375;  153.825;    0.000
292.490; 3240.375;  185.825;    0.000
292.554; 3320.375;  144.825;    0.000
292.618; 3394.375;  166.825;    0.000
292.682; 3678.375;  181.825;    0.000
292.746; 4042.375;  152.825;    0.000
292.810; 5189.375;  208.825;    0.000
292.874; 6439.375;  142.825;    0.000
292.938; 6290.375;  195.825;    0.000
293.002; 5958.375;  156.825;    0.000
293.066; 5532.375;  108.825;    0.000
293.130; 5059.375;  136.825;    0.000
293.194; 4960.375;  135.825;    0.000
293.258; 4778.375;  187.825;    0.000
293.322; 4780.375;  148.825;    0.000
293.386; 4741.375;  186.825;    0.000
293.450; 4924.375;  196.825;    0.000
293.514; 5531.375;  175.825;    0.000
293.577; 6926.375;  137.825;    0.000
293.641; 9031.375;  142.825;    0.000
293.705; 9875.375;  201.825;    0.000
293.769; 8821.375;  150.825;    0.000
293.833; 8008.375;  147.825;    0.000
293.897; 7130.375;  170.825;    0.000
293.961; 6346.375;  121.825;    0.000
294.025; 5864.375;  172.825;    0.000
294.089; 5459.375;  167.825;    0.000
294.152; 5051.375;  167.825;    0.000
294.216; 4798.375;  165.825;    0.000
294.280; 4548.375;  168.825;    0.000
294.344; 4321.375;  160.825;    0.000
294.408; 4146.375;  187.825;    0.000
294.472; 4030.375;  141.825;    0.000
294.536; 3792.375;  184.825;    0.000
294.599; 3607.375;  176.825;    0.000
294.663; 3647.375;  120.825;    0.000
294.727; 3542.375;  159.825;    0.000
294.791; 3412.375;  190.825;    0.000
294.855; 3435.375;  148.825;    0.000
294.918; 3322.375;  160.825;    0.000
294.982; 3314.375;  156.825;    0.000
295.046; 3230.375;  177.825;    0.000
295.110; 3089.375;  149.825;    0.000
295.173; 3042.375;  156.825;    0.000
295.237; 3066.375;  174.825;    0.000
295.301; 3080.375;  152.825;    0.000
295.364; 3014.375;  204.825;    0.000
295.428; 2881.375;  196.825;    0.000
295.492; 3012.375;  178.825;    0.000
295.556; 2964.375;  161.825;    0.000
295.619; 2827.375;  178.825;    0.000
295.683; 2810.375;  152.825;    0.000
295.747; 2839.375;  148.825;    0.000
295.810; 2897.375;  177.825;    0.000
295.874; 2707.375;  146.825;    0.000
295.938; 2664.375;  115.825;    0.000
296.001; 2808.375;  172.825;    0.000
296.065; 2680.375;  146.825;    0.000
296.128; 2723.375;  164.825;    0.000
296.192; 2746.375;  137.825;    0.000
296.256; 2717.375;  143.825;    0.000
296.319; 2673.375;  156.825;    0.000
296.383; 2635.375;  165.825;    0.000
296.447; 2684.375;  170.825;    0.000
296.510; 2658.375;  174.825;    0.000
296.574; 2661.375;  127.825;    0.000
296.637; 2577.375;  132.825;    0.000
296.701; 2616.375;  206.825;    0.000
296.764; 2529.375;  179.825;    0.000
296.828; 2578.375;  213.825;    0.000
296.891; 2629.375;  149.825;    0.000
296.955; 2527.375;  170.825;    0.000
297.018; 2627.375;  185.825;    0.000
297.082; 2623.375;  205.825;    0.000
297.145; 2514.375;  154.825;    0.000
297.209; 2591.375;  200.825;    0.000
297.272; 2572.375;  157.825;    0.000
297.336; 2450.375;  164.825;    0.000
297.399; 2512.375;  166.825;    0.000
297.463; 2450.375;  195.825;    0.000
297.526; 2426.375;  176.825;    0.000
297.590; 2415.375;  198.825;    0.000
297.653; 2484.375;  146.825;    0.000
297.717; 2467.375;  175.825;    0.000
297.780; 2444.375;  139.825;    0.000
297.843; 2444.375;  174.825;    0.000
297.907; 2462.375;  149.825;    0.000
297.970; 2431.375;  161.825;    0.000
298.034; 2592.375;  185.825;    0.000
298.097; 2523.375;  167.825;    0.000
298.160; 2369.375;  195.825;    0.000
298.224; 2386.375;  178.825;    0.000
298.287; 2400.375;  164.825;    0.000
298.350; 2475.375;  194.825;    0.000
298.414; 2508.375;  191.825;    0.000
298.477; 2427.375;  155.825;    0.000
298.540; 2400.375;  139.825;    0.000
298.604; 2429.375;  198.825;    0.000
298.667; 2266.375;  183.825;    0.000
298.730; 2405.375;  185.825;    0.000
298.794; 2334.375;  153.825;    0.000
298.857; 2423.375;  169.825;    0.000
298.920; 2361.375;  159.825;    0.000
298.984; 2338.375;  179.825;    0.000
299.047; 2387.375;  174.825;    0.000
299.110; 2320.375;  144.825;    0.000
299.173; 2266.375;  190.825;    0.000
299.237; 2369.375;  163.825;    0.000
299.300; 2308.375;  153.825;    0.000
299.363; 2282.375;  145.825;    0.000
299.426; 2361.375;  160.825;    0.000
299.489; 2280.375;  173.825;    0.000
299.553; 2307.375;  209.825;    0.000
299.616; 2247.375;  172.825;    0.000
299.679; 2262.375;  204.825;    0.000
299.742; 2219.375;  162.825;    0.000
299.805; 2299.375;  198.825;    0.000
299.868; 2226.375;  176.825;    0.000
299.932; 2222.375;  166.825;    0.000
299.995; 2324.375;  162.825;    0.000
300.058; 2236.375;  175.825;    0.000
300.121; 2224.375;  197.825;    0.000
300.184; 2238.375;  188.825;    0.000
300.247; 2304.375;  181.825;    0.000
300.310; 2293.375;  161.825;    0.000
300.374; 2181.375;  201.825;    0.000
300.437; 2237.375;  156.825;    0.000
300.500; 2224.375;  180.825;    0.000
300.563; 2197.375;  174.825;    0.000
300.626; 2247.375;  206.825;    0.000
300.689; 2117.375;  218.825;    0.000
300.752; 2209.375;  192.825;    0.000
300.815; 2205.375;  172.825;    0.000
300.878; 2245.375;  207.825;    0.000
300.941; 2216.375;  163.825;    0.000
301.004; 2203.375;  171.825;    0.000
301.067; 2231.375;  198.825;    0.000
301.130; 2245.375;  156.825;    0.000
301.193; 2181.375;  173.825;    0.000
301.256; 2237.375;  167.825;    0.000
301.319; 2172.375;  211.825;    0.000
301.382; 2202.375;  167.825;    0.000
301.445; 2163.375;  224.825;    0.000
301.508; 2123.375;  168.825;    0.000
301.571; 2111.375;  161.825;    0.000
301.634; 2157.375;  177.825;    0.000
301.697; 2212.375;  203.825;    0.000
301.760; 2158.375;  190.825;    0.000
301.823; 2304.375;  182.825;    0.000
301.885; 2140.375;  202.825;    0.000
301.948; 2233.375;  200.825;    0.000
302.011; 2167.375;  157.825;    0.000
302.074; 2244.375;  205.825;    0.000
302.137; 2197.375;  149.825;    0.000
302.200; 2179.375;  201.825;    0.000
302.263; 2193.375;  178.825;    0.000
302.326; 2212.375;  184.825;    0.000
302.388; 2235.375;  176.825;    0.000
302.451; 2079.375;  146.825;    0.000
302.514; 2168.375;  192.825;    0.000
302.577; 2127.375;  181.825;    0.000
302.640; 2183.375;  186.825;    0.000
302.703; 2188.375;  164.825;    0.000
302.765; 2114.375;  197.825;    0.000
302.828; 2023.375;  208.825;    0.000
302.891; 2142.375;  168.825;    0.000
302.954; 2108.375;  177.825;    0.000
303.016; 2191.375;  190.825;    0.000
303.079; 2198.375;  216.825;    0.000
303.142; 2224.375;  228.825;    0.000
303.205; 2160.375;  192.825;    0.000
303.267; 2061.375;  182.825;    0.000
303.330; 2142.375;  201.825;    0.000
303.393; 2118.375;  196.825;    0.000
303.456; 2209.375;  184.825;    0.000
303.518; 2177.375;  194.825;    0.000
303.581; 2041.375;  195.825;    0.000
303.644; 2104.375;  184.825;    0.000
303.706; 2176.375;  150.825;    0.000
303.769; 2273.375;  182.825;    0.000
303.832; 2127.375;  143.825;    0.000
303.894; 2097.375;  207.825;    0.000
303.957; 2097.375;  178.825;    0.000
304.020; 2161.375;  203.825;    0.000
304.082; 2097.375;  175.825;    0.000
304.145; 2120.375;  171.825;    0.000
304.207; 2129.375;  157.825;    0.000
304.270; 2167.375;  195.825;    0.000
304.333; 2147.375;  195.825;    0.000
304.395; 2193.375;  197.825;    0.000
304.458; 2133.375;  231.825;    0.000
304.520; 2149.375;  218.825;    0.000
304.583; 2094.375;  177.825;    0.000
304.646; 2118.375;  177.825;    0.000
304.708; 2175.375;  178.825;    0.000
304.771; 2059.375;  143.825;    0.000
304.833; 2121.375;  241.825;    0.000
304.896; 2230.375;  200.825;    0.000
304.958; 2098.375;  176.825;    0.000
305.021; 2100.375;  159.825;    0.000
305.083; 2048.375;  159.825;    0.000
305.146; 2105.375;  190.825;    0.000
305.208; 2086.375;  152.825;    0.000
305.271; 2084.375;  162.825;    0.000
305.333; 2109.375;  219.825;    0.000
305.396; 2135.375;  163.825;    0.000
305.458; 2133.375;  215.825;    0.000
305.520; 2116.375;  174.825;    0.000
305.583; 2125.375;  161.825;    0.000
305.645; 2071.375;  203.825;    0.000
305.708; 2106.375;  163.825;    0.000
305.770; 2189.375;  215.825;    0.000
305.833; 2111.375;  207.825;    0.000
305.895; 2083.375;  166.825;    0.000
305.957; 2110.375;  175.825;    0.000
306.020; 2094.375;  169.825;    0.000
306.082; 2155.375;  203.825;    0.000
306.144; 2120.375;  181.825;    0.000
306.207; 2098.375;  199.825;    0.000
306.269; 2136.375;  177.825;    0.000
306.331; 2132.375;  160.825;    0.000
306.394; 2060.375;  193.825;    0.000
306.456; 2067.375;  136.825;    0.000
306.518; 2150.375;  189.825;    0.000
306.581; 2091.375;  156.825;    0.000
306.643; 2105.375;  190.825;    0.000
306.705; 2113.375;  190.825;    0.000
306.768; 2112.375;  172.825;    0.000
306.830; 2208.375;  214.825;    0.000
306.892; 2164.375;  198.825;    0.000
306.954; 2155.375;  177.825;    0.000
307.017; 2151.375;  183.825;    0.000
307.079; 2119.375;  170.825;    0.000
307.141; 2205.375;  173.825;    0.000
307.203; 2197.375;  171.825;    0.000
307.266; 2200.375;  166.825;    0.000
307.328; 2182.375;  207.825;    0.000
307.390; 2216.375;  201.825;    0.000
307.452; 2209.375;  182.825;    0.000
307.514; 2227.375;  213.825;    0.000
307.577; 2233.375;  213.825;    0.000
307.639; 2242.375;  197.825;    0.000
307.701; 2181.375;  174.825;    0.000
307.763; 2203.375;  181.825;    0.000
307.825; 2234.375;  186.825;    0.000
307.887; 2163.375;  198.825;    0.000
307.949; 2198.375;  158.825;    0.000
308.012; 2155.375;  209.825;    0.000
308.074; 2238.375;  176.825;    0.000
308.136; 2218.375;  227.825;    0.000
308.198; 2240.375;  187.825;    0.000
308.260; 2200.375;  211.825;    0.000
308.322; 2234.375;  206.825;    0.000
308.384; 2190.375;  186.825;    0.000
308.446; 2274.375;  175.825;    0.000
308.508; 2291.375;  211.825;    0.000
308.570; 2247.375;  191.825;    0.000
308.632; 2214.375;  195.825;    0.000
308.694; 2242.375;  173.825;    0.000
308.756; 2212.375;  185.825;    0.000
308.818; 2228.375;  195.825;    0.000
308.880; 2264.375;  189.825;    0.000
308.942; 2360.375;  231.825;    0.000
309.004; 2370.375;  188.825;    0.000
309.066; 2339.375;  196.825;    0.000
309.128; 2351.375;  155.825;    0.000
309.190; 2369.375;  176.825;    0.000
309.252; 2471.375;  191.825;    0.000
309.314; 2540.375;  236.825;    0.000
309.376; 2524.375;  212.825;    0.000
309.438; 2408.375;  201.825;    0.000
309.500; 2493.375;  206.825;    0.000
309.562; 2566.375;  213.825;    0.000
309.624; 2439.375;  196.825;    0.000
309.686; 2617.375;  198.825;    0.000
309.747; 2567.375;  186.825;    0.000
309.809; 2527.375;  215.825;    0.000
309.871; 2452.375;  242.825;    0.000
309.933; 2504.375;  162.825;    0.000
309.995; 2465.375;  163.825;    0.000
310.057; 2544.375;  145.825;    0.000
310.119; 2446.375;  205.825;    0.000
310.180; 2427.375;  195.825;    0.000
310.242; 2411.375;  167.825;    0.000
310.304; 2369.375;  213.825;    0.000
310.366; 2403.375;  224.825;    0.000
310.428; 2322.375;  170.825;    0.000
310.489; 2314.375;  195.825;    0.000
310.551; 2406.375;  207.825;    0.000
310.613; 2405.375;  168.825;    0.000
310.675; 2406.375;  188.825;    0.000
310.737; 2440.375;  211.825;    0.000
310.798; 2414.375;  221.825;    0.000
310.860; 2372.375;  201.825;    0.000
310.922; 2403.375;  206.825;    0.000
310.983; 2362.375;  222.825;    0.000
311.045; 2345.375;  235.825;    0.000
311.107; 2276.375;  184.825;    0.000
311.169; 2309.375;  148.825;    0.000
311.230; 2336.375;  211.825;    0.000
311.292; 2362.375;  235.825;    0.000
311.354; 2331.375;  183.825;    0.000
311.415; 2361.375;  196.825;    0.000
311.477; 2367.375;  200.825;    0.000
311.539; 2435.375;  171.825;    0.000
311.600; 2350.375;  169.825;    0.000
311.662; 2470.375;  231.825;    0.000
311.724; 2489.375;  204.825;    0.000
311.785; 2336.375;  214.825;    0.000
311.847; 2338.375;  193.825;    0.000
311.908; 2348.375;  180.825;    0.000
311.970; 2362.375;  233.825;    0.000
312.032; 2353.375;  192.825;    0.000
312.093; 2355.375;  195.825;    0.000
312.155; 2286.375;  194.825;    0.000
312.216; 2379.375;  238.825;    0.000
312.278; 2338.375;  146.825;    0.000
312.339; 2353.375;  184.825;    0.000
312.401; 2360.375;  201.825;    0.000
312.462; 2398.375;  173.825;    0.000
312.524; 2450.375;  205.825;    0.000
312.585; 2376.375;  199.825;    0.000
312.647; 2335.375;  168.825;    0.000
312.708; 2315.375;  180.825;    0.000
312.770; 2208.375;  180.825;    0.000
312.831; 2284.375;  176.825;    0.000
312.893; 2453.375;  211.825;    0.000
312.954; 2302.375;  178.825;    0.000
313.016; 2360.375;  204.825;    0.000
313.077; 2395.375;  216.825;    0.000
313.139; 2399.375;  172.825;    0.000
313.200; 2405.375;  197.825;    0.000
313.261; 2464.375;  227.825;    0.000
313.323; 2371.375;  204.825;    0.000
313.384; 2398.375;  182.825;    0.000
313.446; 2406.375;  204.825;    0.000
313.507; 2409.375;  164.825;    0.000
313.568; 2375.375;  197.825;    0.000
313.630; 2368.375;  190.825;    0.000
313.691; 2390.375;  185.825;    0.000
313.752; 2450.375;  192.825;    0.000
313.814; 2321.375;  176.825;    0.000
313.875; 2342.375;  210.825;    0.000
313.936; 2409.375;  165.825;    0.000
313.998; 2380.375;  162.825;    0.000
314.059; 2420.375;  178.825;    0.000
314.120; 2445.375;  176.825;    0.000
314.182; 2374.375;  167.825;    0.000
314.243; 2379.375;  204.825;    0.000
314.304; 2403.375;  197.825;    0.000
314.365; 2493.375;  183.825;    0.000
314.427; 2251.375;  176.825;    0.000
314.488; 2352.375;  149.825;    0.000
314.549; 2352.375;  218.825;    0.000
314.610; 2290.375;  160.825;    0.000
314.672; 2441.375;  187.825;    0.000
314.733; 2378.375;  184.825;    0.000
314.794; 2295.375;  164.825;    0.000
314.855; 2367.375;  191.825;    0.000
314.917; 2420.375;  172.825;    0.000
314.978; 2399.375;  185.825;    0.000
315.039; 2422.375;  194.825;    0.000
315.100; 2412.375;  190.825;    0.000
315.161; 2392.375;  185.825;    0.000
315.222; 2397.375;  204.825;    0.000
315.283; 2274.375;  166.825;    0.000
315.345; 2416.375;  133.825;    0.000
315.406; 2367.375;  191.825;    0.000
315.467; 2281.375;  166.825;    0.000
315.528; 2407.375;  194.825;    0.000
315.589; 2394.375;  193.825;    0.000
315.650; 2403.375;  190.825;    0.000
315.711; 2426.375;  219.825;    0.000
315.772; 2349.375;  159.825;    0.000
315.833; 2434.375;  191.825;    0.000
315.894; 2312.375;  202.825;    0.000
315.955; 2464.375;  167.825;    0.000
316.016; 2368.375;  177.825;    0.000
316.078; 2387.375;  185.825;    0.000
316.139; 2416.375;  219.825;    0.000
316.200; 2367.375;  163.825;    0.000
316.261; 2351.375;  183.825;    0.000
316.322; 2289.375;  230.825;    0.000
316.383; 2440.375;  198.825;    0.000
316.444; 2253.375;  209.825;    0.000
316.504; 2398.375;  179.825;    0.000
316.565; 2346.375;  185.825;    0.000
316.626; 2339.375;  155.825;    0.000
316.687; 2369.375;  211.825;    0.000
316.748; 2287.375;  192.825;    0.000
316.809; 2318.375;  183.825;    0.000
316.870; 2374.375;  196.825;    0.000
316.931; 2408.375;  173.825;    0.000
316.992; 2411.375;  179.825;    0.000
317.053; 2364.375;  186.825;    0.000
317.114; 2290.375;  189.825;    0.000
317.175; 2384.375;  226.825;    0.000
317.235; 2299.375;  206.825;    0.000
317.296; 2356.375;  191.825;    0.000
317.357; 2311.375;  173.825;    0.000
317.418; 2302.375;  212.825;    0.000
317.479; 2373.375;  247.825;    0.000
317.540; 2310.375;  205.825;    0.000
317.601; 2309.375;  205.825;    0.000
317.661; 2328.375;  150.825;    0.000
317.722; 2322.375;  198.825;    0.000
317.783; 2315.375;  153.825;    0.000
317.844; 2330.375;  202.825;    0.000
317.904; 2339.375;  180.825;    0.000
317.965; 2459.375;  205.825;    0.000
318.026; 2370.375;  223.825;    0.000
318.087; 2388.375;  218.825;    0.000
318.148; 2344.375;  207.825;    0.000
318.208; 2302.375;  212.825;    0.000
318.269; 2318.375;  174.825;    0.000
318.330; 2344.375;  191.825;    0.000
318.390; 2319.375;  197.825;    0.000
318.451; 2375.375;  167.825;    0.000
318.512; 2378.375;  174.825;    0.000
318.572; 2350.375;  199.825;    0.000
318.633; 2359.375;  233.825;    0.000
318.694; 2326.375;  232.825;    0.000
318.754; 2392.375;  181.825;    0.000
318.815; 2324.375;  199.825;    0.000
318.876; 2276.375;  207.825;    0.000
318.936; 2286.375;  202.825;    0.000
318.997; 2264.375;  182.825;    0.000
319.058; 2325.375;  180.825;    0.000
319.118; 2379.375;  199.825;    0.000
319.179; 2315.375;  199.825;    0.000
319.239; 2216.375;  229.825;    0.000
319.300; 2341.375;  223.825;    0.000
319.361; 2385.375;  210.825;    0.000
319.421; 2362.375;  205.825;    0.000
319.482; 2318.375;  205.825;    0.000
319.542; 2305.375;  176.825;    0.000
319.603; 2295.375;  191.825;    0.000
319.663; 2361.375;  183.825;    0.000
319.724; 2312.375;  174.825;    0.000
319.784; 2280.375;  198.825;    0.000
319.845; 2283.375;  218.825;    0.000
319.905; 2260.375;  217.825;    0.000
319.966; 2309.375;  197.825;    0.000
320.026; 2357.375;  209.825;    0.000
320.087; 2335.375;  225.825;    0.000
320.147; 2358.375;  201.825;    0.000
320.208; 2311.375;  176.825;    0.000
320.268; 2215.375;  168.825;    0.000
320.329; 2309.375;  238.825;    0.000
320.389; 2228.375;  220.825;    0.000
320.449; 2276.375;  230.825;    0.000
320.510; 2314.375;  234.825;    0.000
320.570; 2296.375;  210.825;    0.000
320.631; 2335.375;  207.825;    0.000
320.691; 2263.375;  222.825;    0.000
320.751; 2367.375;  195.825;    0.000
320.812; 2418.375;  193.825;    0.000
320.872; 2353.375;  237.825;    0.000
320.932; 2404.375;  213.825;    0.000
320.993; 2338.375;  185.825;    0.000
321.053; 2328.375;  245.825;    0.000
321.113; 2302.375;  206.825;    0.000
321.174; 2255.375;  202.825;    0.000
321.234; 2297.375;  244.825;    0.000
321.294; 2292.375;  228.825;    0.000
321.355; 2371.375;  208.825;    0.000
321.415; 2298.375;  223.825;    0.000
321.475; 2274.375;  203.825;    0.000
321.535; 2307.375;  230.825;    0.000
321.596; 2317.375;  186.825;    0.000
321.656; 2338.375;  216.825;    0.000
321.716; 2294.375;  207.825;    0.000
321.776; 2282.375;  181.825;    0.000
321.837; 2354.375;  207.825;    0.000
321.897; 2421.375;  225.825;    0.000
321.957; 2306.375;  222.825;    0.000
322.017; 2280.375;  215.825;    0.000
322.077; 2302.375;  250.825;    0.000
322.138; 2340.375;  189.825;    0.000
322.198; 2319.375;  200.825;    0.000
322.258; 2314.375;  217.825;    0.000
322.318; 2273.375;  183.825;    0.000
322.378; 2348.375;  231.825;    0.000
322.438; 2295.375;  228.825;    0.000
322.499; 2324.375;  248.825;    0.000
322.559; 2280.375;  198.825;    0.000
322.619; 2283.375;  221.825;    0.000
322.679; 2257.375;  217.825;    0.000
322.739; 2310.375;  204.825;    0.000
322.799; 2351.375;  236.825;    0.000
322.859; 2269.375;  213.825;    0.000
322.919; 2318.375;  210.825;    0.000
322.979; 2297.375;  244.825;    0.000
323.039; 2324.375;  218.825;    0.000
323.099; 2258.375;  232.825;    0.000
323.159; 2229.375;  216.825;    0.000
323.219; 2322.375;  169.825;    0.000
323.279; 2229.375;  236.825;    0.000
323.339; 2299.375;  243.825;    0.000
323.399; 2326.375;  208.825;    0.000
323.459; 2279.375;  220.825;    0.000
323.519; 2390.375;  228.825;    0.000
323.579; 2345.375;  164.825;    0.000
323.639; 2388.375;  209.825;    0.000
323.699; 2302.375;  188.825;    0.000
323.759; 2212.375;  206.825;    0.000
323.819; 2320.375;  204.825;    0.000
323.879; 2273.375;  222.825;    0.000
323.939; 2277.375;  206.825;    0.000
323.999; 2296.375;  202.825;    0.000
324.059; 2251.375;  245.825;    0.000
324.119; 2261.375;  214.825;    0.000
324.178; 2293.375;  183.825;    0.000
324.238; 2381.375;  193.825;    0.000
324.298; 2279.375;  207.825;    0.000
324.358; 2236.375;  196.825;    0.000
324.418; 2333.375;  193.825;    0.000
324.478; 2189.375;  191.825;    0.000
324.538; 2187.375;  224.825;    0.000
324.597; 2334.375;  187.825;    0.000
324.657; 2259.375;  208.825;    0.000
324.717; 2221.375;  198.825;    0.000
324.777; 2203.375;  159.825;    0.000
324.837; 2332.375;  180.825;    0.000
324.896; 2266.375;  215.825;    0.000
324.956; 2242.375;  210.825;    0.000
325.016; 2229.375;  187.825;    0.000
325.076; 2220.375;  197.825;    0.000
325.135; 2333.375;  226.825;    0.000
325.195; 2310.375;  201.825;    0.000
325.255; 2208.375;  167.825;    0.000
325.315; 2317.375;  217.825;    0.000
325.374; 2343.375;  196.825;    0.000
325.434; 2285.375;  167.825;    0.000
325.494; 2308.375;  214.825;    0.000
325.553; 2359.375;  203.825;    0.000
325.613; 2227.375;  206.825;    0.000
325.673; 2284.375;  148.825;    0.000
325.732; 2233.375;  207.825;    0.000
325.792; 2287.375;  151.825;    0.000
325.852; 2266.375;  195.825;    0.000
325.911; 2246.375;  201.825;    0.000
325.971; 2207.375;  224.825;    0.000
326.031; 2315.375;  201.825;    0.000
326.090; 2296.375;  203.825;    0.000
326.150; 2278.375;  183.825;    0.000
326.209; 2278.375;  226.825;    0.000
326.269; 2292.375;  194.825;    0.000
326.328; 2336.375;  200.825;    0.000
326.388; 2243.375;  177.825;    0.000
326.448; 2250.375;  239.825;    0.000
326.507; 2238.375;  197.825;    0.000
326.567; 2201.375;  161.825;    0.000
326.626; 2225.375;  220.825;    0.000
326.686; 2160.375;  178.825;    0.000
326.745; 2280.375;  167.825;    0.000
326.805; 2308.375;  176.825;    0.000
326.864; 2181.375;  204.825;    0.000
326.924; 2203.375;  218.825;    0.000
326.983; 2229.375;  201.825;    0.000
327.043; 2167.375;  219.825;    0.000
327.102; 2149.375;  202.825;    0.000
327.161; 2127.375;  228.825;    0.000
327.221; 2238.375;  217.825;    0.000
327.280; 2173.375;  188.825;    0.000
327.340; 2244.375;  209.825;    0.000
327.399; 2243.375;  189.825;    0.000
327.459; 2136.375;  216.825;    0.000
327.518; 2156.375;  200.825;    0.000
327.577; 2229.375;  194.825;    0.000
327.637; 2167.375;  180.825;    0.000
327.696; 2196.375;  208.825;    0.000
327.755; 2195.375;  218.825;    0.000
327.815; 2275.375;  234.825;    0.000
327.874; 2191.375;  259.825;    0.000
327.933; 2170.375;  192.825;    0.000
327.993; 2139.375;  208.825;    0.000
328.052; 2196.375;  221.825;    0.000
328.111; 2188.375;  203.825;    0.000
328.171; 2136.375;  221.825;    0.000
328.230; 2174.375;  222.825;    0.000
328.289; 2144.375;  254.825;    0.000
328.349; 2123.375;  232.825;    0.000
328.408; 2263.375;  223.825;    0.000
328.467; 2091.375;  198.825;    0.000
328.526; 2148.375;  217.825;    0.000
328.586; 2177.375;  185.825;    0.000
328.645; 2134.375;  210.825;    0.000
328.704; 2104.375;  211.825;    0.000
328.763; 2112.375;  231.825;    0.000
328.822; 2089.375;  254.825;    0.000
328.882; 2107.375;  216.825;    0.000
328.941; 2102.375;  239.825;    0.000
329.000; 2197.375;  251.825;    0.000
329.059; 2203.375;  227.825;    0.000
329.118; 2149.375;  233.825;    0.000
329.177; 2082.375;  188.825;    0.000
329.237; 2120.375;  257.825;    0.000
329.296; 2157.375;  265.825;    0.000
329.355; 2174.375;  245.825;    0.000
329.414; 2051.375;  236.825;    0.000
329.473; 2166.375;  242.825;    0.000
329.532; 2143.375;  228.825;    0.000
329.591; 2121.375;  206.825;    0.000
329.650; 2142.375;  250.825;    0.000
329.709; 2164.375;  278.825;    0.000
329.768; 2118.375;  219.825;    0.000
329.827; 2186.375;  254.825;    0.000
329.886; 2211.375;  221.825;    0.000
329.945; 2072.375;  239.825;    0.000
330.004; 2173.375;  245.825;    0.000
330.063; 2120.375;  201.825;    0.000
330.122; 2194.375;  227.825;    0.000
330.181; 2194.375;  196.825;    0.000
330.240; 2107.375;  203.825;    0.000
330.299; 2049.375;  214.825;    0.000
330.358; 2057.375;  196.825;    0.000
330.417; 2078.375;  201.825;    0.000
330.476; 2194.375;  248.825;    0.000
330.535; 2126.375;  253.825;    0.000
330.594; 2093.375;  231.825;    0.000
330.653; 2125.375;  210.825;    0.000
330.712; 2102.375;  242.825;    0.000
330.771; 2158.375;  240.825;    0.000
330.830; 2008.375;  230.825;    0.000
330.889; 2151.375;  217.825;    0.000
330.948; 2113.375;  211.825;    0.000
331.006; 2058.375;  217.825;    0.000
331.065; 2094.375;  170.825;    0.000
331.124; 2081.375;  211.825;    0.000
331.183; 2130.375;  192.825;    0.000
331.242; 2039.375;  227.825;    0.000
331.301; 2054.375;  240.825;    0.000
331.359; 2098.375;  223.825;    0.000
331.418; 2059.375;  215.825;    0.000
331.477; 2082.375;  230.825;    0.000
331.536; 2062.375;  221.825;    0.000
331.595; 2066.375;  198.825;    0.000
331.653; 2086.375;  207.825;    0.000
331.712; 2052.375;  217.825;    0.000
331.771; 2022.375;  221.825;    0.000
331.830; 2042.375;  222.825;    0.000
331.888; 2050.375;  213.825;    0.000
331.947; 2002.375;  233.825;    0.000
332.006; 2097.375;  212.825;    0.000
332.065; 2102.375;  200.825;    0.000
332.123; 2032.375;  223.825;    0.000
332.182; 2092.375;  180.825;    0.000
332.241; 2094.375;  192.825;    0.000
332.299; 2055.375;  172.825;    0.000
332.358; 2156.375;  216.825;    0.000
332.417; 2105.375;  211.825;    0.000
332.475; 2065.375;  222.825;    0.000
332.534; 2148.375;  238.825;    0.000
332.592; 2006.375;  216.825;    0.000
332.651; 2073.375;  196.825;    0.000
332.710; 2117.375;  215.825;    0.000
332.768; 2041.375;  193.825;    0.000
332.827; 2101.375;  201.825;    0.000
332.885; 2104.375;  226.825;    0.000
332.944; 1981.375;  174.825;    0.000
333.003; 2215.375;  187.825;    0.000
333.061; 2125.375;  208.825;    0.000
333.120; 2089.375;  202.825;    0.000
333.178; 2283.375;  227.825;    0.000
333.237; 2213.375;  215.825;    0.000
333.295; 2290.375;  245.825;    0.000
333.354; 2241.375;  194.825;    0.000
333.412; 2183.375;  165.825;    0.000
333.471; 2144.375;  219.825;    0.000
333.529; 2209.375;  255.825;    0.000
333.588; 2326.375;  264.825;    0.000
333.646; 2309.375;  231.825;    0.000
333.705; 2310.375;  232.825;    0.000
333.763; 2271.375;  233.825;    0.000
333.822; 2269.375;  221.825;    0.000
333.880; 2110.375;  180.825;    0.000
333.938; 2237.375;  229.825;    0.000
333.997; 2332.375;  194.825;    0.000
334.055; 2350.375;  230.825;    0.000
334.114; 2265.375;  230.825;    0.000
334.172; 2196.375;  170.825;    0.000
334.230; 2197.375;  192.825;    0.000
334.289; 2223.375;  225.825;    0.000
334.347; 2204.375;  233.825;    0.000
334.405; 2273.375;  207.825;    0.000
334.464; 2261.375;  175.825;    0.000
334.522; 2213.375;  180.825;    0.000
334.580; 2162.375;  172.825;    0.000
334.639; 2187.375;  230.825;    0.000
334.697; 2179.375;  217.825;    0.000
334.755; 2091.375;  217.825;    0.000
334.814; 2233.375;  210.825;    0.000
334.872; 2192.375;  170.825;    0.000
334.930; 2152.375;  167.825;    0.000
334.988; 2158.375;  244.825;    0.000
335.047; 2196.375;  202.825;    0.000
335.105; 2153.375;  181.825;    0.000
335.163; 2313.375;  195.825;    0.000
335.221; 2179.375;  203.825;    0.000
335.280; 2140.375;  216.825;    0.000
335.338; 2145.375;  197.825;    0.000
335.396; 2213.375;  232.825;    0.000
335.454; 2169.375;  211.825;    0.000
335.512; 2214.375;  221.825;    0.000
335.570; 2143.375;  216.825;    0.000
335.629; 2225.375;  244.825;    0.000
335.687; 2245.375;  244.825;    0.000
335.745; 2343.375;  189.825;    0.000
335.803; 2244.375;  198.825;    0.000
335.861; 2154.375;  236.825;    0.000
335.919; 2219.375;  234.825;    0.000
335.977; 2151.375;  214.825;    0.000
336.035; 2152.375;  242.825;    0.000
336.094; 2151.375;  219.825;    0.000
336.152; 2158.375;  196.825;    0.000
336.210; 2218.375;  221.825;    0.000
336.268; 2182.375;  257.825;    0.000
336.326; 2245.375;  211.825;    0.000
336.384; 2252.375;  217.825;    0.000
336.442; 2186.375;  176.825;    0.000
336.500; 2170.375;  242.825;    0.000
336.558; 2264.375;  238.825;    0.000
336.616; 2249.375;  261.825;    0.000
336.674; 2139.375;  200.825;    0.000
336.732; 2208.375;  208.825;    0.000
336.790; 2142.375;  183.825;    0.000
336.848; 2247.375;  199.825;    0.000
336.906; 2145.375;  240.825;    0.000
336.964; 2158.375;  234.825;    0.000
337.022; 2181.375;  282.825;    0.000
337.080; 2228.375;  265.825;    0.000
337.138; 2154.375;  255.825;    0.000
337.195; 2137.375;  200.825;    0.000
337.253; 2094.375;  199.825;    0.000
337.311; 2123.375;  233.825;    0.000
337.369; 2157.375;  250.825;    0.000
337.427; 2136.375;  201.825;    0.000
337.485; 2099.375;  228.825;    0.000
337.543; 2068.375;  221.825;    0.000
337.601; 2066.375;  232.825;    0.000
337.658; 2119.375;  215.825;    0.000
337.716; 2141.375;  198.825;    0.000
337.774; 2114.375;  262.825;    0.000
337.832; 2145.375;  220.825;    0.000
337.890; 2054.375;  194.825;    0.000
337.947; 2036.375;  205.825;    0.000
338.005; 2061.375;  229.825;    0.000
338.063; 2054.375;  237.825;    0.000
338.121; 2121.375;  220.825;    0.000
338.178; 2124.375;  227.825;    0.000
338.236; 2125.375;  238.825;    0.000
338.294; 2135.375;  242.825;    0.000
338.352; 2044.375;  230.825;    0.000
338.409; 2077.375;  222.825;    0.000
338.467; 2053.375;  233.825;    0.000
338.525; 2075.375;  253.825;    0.000
338.583; 2036.375;  221.825;    0.000
338.640; 2077.375;  225.825;    0.000
338.698; 2031.375;  229.825;    0.000
338.756; 2033.375;  238.825;    0.000
338.813; 2080.375;  260.825;    0.000
338.871; 2091.375;  246.825;    0.000
338.928; 2061.375;  240.825;    0.000
338.986; 2056.375;  228.825;    0.000
339.044; 2053.375;  265.825;    0.000
339.101; 1963.375;  224.825;    0.000
339.159; 1958.375;  235.825;    0.000
339.216; 2047.375;  244.825;    0.000
339.274; 2093.375;  266.825;    0.000
339.332; 2057.375;  248.825;    0.000
339.389; 2076.375;  246.825;    0.000
339.447; 2064.375;  237.825;    0.000
339.504; 2034.375;  244.825;    0.000
339.562; 2083.375;  249.825;    0.000
339.619; 2073.375;  266.825;    0.000
339.677; 2097.375;  263.825;    0.000
339.734; 1987.375;  216.825;    0.000
339.792; 2078.375;  276.825;    0.000
339.849; 2036.375;  240.825;    0.000
339.907; 2125.375;  275.825;    0.000
339.964; 2145.375;  243.825;    0.000
340.022; 2100.375;  224.825;    0.000
340.079; 2120.375;  230.825;    0.000
340.137; 2033.375;  232.825;    0.000
340.194; 2085.375;  261.825;    0.000
340.252; 1953.375;  219.825;    0.000
340.309; 2027.375;  212.825;    0.000
340.366; 2011.375;  231.825;    0.000
340.424; 2051.375;  244.825;    0.000
340.481; 2075.375;  238.825;    0.000
340.538; 1999.375;  217.825;    0.000
340.596; 2022.375;  224.825;    0.000
340.653; 2098.375;  225.825;    0.000
340.711; 2108.375;  276.825;    0.000
340.768; 2002.375;  239.825;    0.000
340.825; 2066.375;  216.825;    0.000
340.883; 2088.375;  264.825;    0.000
340.940; 1986.375;  256.825;    0.000
340.997; 2069.375;  230.825;    0.000
341.054; 2062.375;  229.825;    0.000
341.112; 2032.375;  220.825;    0.000
341.169; 2071.375;  276.825;    0.000
341.226; 2042.375;  224.825;    0.000
341.284; 2097.375;  235.825;    0.000
341.341; 2088.375;  226.825;    0.000
341.398; 2085.375;  200.825;    0.000
341.455; 2092.375;  242.825;    0.000
341.512; 2172.375;  226.825;    0.000
341.570; 2051.375;  299.825;    0.000
341.627; 2103.375;  221.825;    0.000
341.684; 2023.375;  204.825;    0.000
341.741; 2161.375;  285.825;    0.000
341.798; 2169.375;  237.825;    0.000
341.856; 2072.375;  223.825;    0.000
341.913; 2112.375;  232.825;    0.000
341.970; 2086.375;  250.825;    0.000
342.027; 2117.375;  272.825;    0.000
342.084; 2085.375;  242.825;    0.000
342.141; 2013.375;  207.825;    0.000
342.198; 2113.375;  252.825;    0.000
342.255; 2070.375;  189.825;    0.000
342.313; 2203.375;  222.825;    0.000
342.370; 2103.375;  203.825;    0.000
342.427; 2051.375;  261.825;    0.000
342.484; 2033.375;  230.825;    0.000
342.541; 2088.375;  224.825;    0.000
342.598; 2122.375;  245.825;    0.000
342.655; 2126.375;  235.825;    0.000
342.712; 2100.375;  238.825;    0.000
342.769; 2133.375;  235.825;    0.000
342.826; 2083.375;  232.825;    0.000
342.883; 1998.375;  212.825;    0.000
342.940; 2154.375;  189.825;    0.000
342.997; 2147.375;  241.825;    0.000
343.054; 2127.375;  235.825;    0.000
343.111; 2118.375;  216.825;    0.000
343.168; 2012.375;  202.825;    0.000
343.225; 2174.375;  228.825;    0.000
343.282; 2204.375;  208.825;    0.000
343.339; 2180.375;  241.825;    0.000
343.395; 2138.375;  206.825;    0.000
343.452; 2209.375;  227.825;    0.000
343.509; 2114.375;  212.825;    0.000
343.566; 2147.375;  266.825;    0.000
343.623; 2263.375;  240.825;    0.000
343.680; 2220.375;  215.825;    0.000
343.737; 2251.375;  231.825;    0.000
343.794; 2210.375;  256.825;    0.000
343.850; 2256.375;  235.825;    0.000
343.907; 2258.375;  246.825;    0.000
343.964; 2285.375;  241.825;    0.000
344.021; 2234.375;  237.825;    0.000
344.078; 2272.375;  248.825;    0.000
344.134; 2219.375;  225.825;    0.000
344.191; 2298.375;  209.825;    0.000
344.248; 2317.375;  234.825;    0.000
344.305; 2244.375;  224.825;    0.000
344.361; 2241.375;  194.825;    0.000
344.418; 2218.375;  240.825;    0.000
344.475; 2244.375;  252.825;    0.000
344.532; 2279.375;  251.825;    0.000
344.588; 2273.375;  240.825;    0.000
344.645; 2229.375;  253.825;    0.000
344.702; 2224.375;  216.825;    0.000
344.758; 2211.375;  258.825;    0.000
344.815; 2200.375;  239.825;    0.000
344.872; 2227.375;  216.825;    0.000
344.928; 2179.375;  236.825;    0.000
344.985; 2221.375;  238.825;    0.000
345.042; 2236.375;  211.825;    0.000
345.098; 2197.375;  223.825;    0.000
345.155; 2212.375;  266.825;    0.000
345.212; 2158.375;  266.825;    0.000
345.268; 2307.375;  245.825;    0.000
345.325; 2235.375;  225.825;    0.000
345.381; 2271.375;  223.825;    0.000
345.438; 2213.375;  259.825;    0.000
345.495; 2204.375;  233.825;    0.000
345.551; 2242.375;  254.825;    0.000
345.608; 2262.375;  212.825;    0.000
345.664; 2254.375;  225.825;    0.000
345.721; 2161.375;  223.825;    0.000
345.777; 2103.375;  226.825;    0.000
345.834; 2202.375;  215.825;    0.000
345.890; 2192.375;  230.825;    0.000
345.947; 2170.375;  232.825;    0.000
346.003; 2127.375;  241.825;    0.000
346.060; 2184.375;  241.825;    0.000
346.116; 2210.375;  231.825;    0.000
346.173; 2181.375;  229.825;    0.000
346.229; 2192.375;  262.825;    0.000
346.285; 2198.375;  232.825;    0.000
346.342; 2175.375;  228.825;    0.000
346.398; 2172.375;  203.825;    0.000
346.455; 2239.375;  214.825;    0.000
346.511; 2211.375;  245.825;    0.000
346.567; 2198.375;  192.825;    0.000
346.624; 2268.375;  206.825;    0.000
346.680; 2267.375;  209.825;    0.000
346.737; 2266.375;  239.825;    0.000
346.793; 2240.375;  234.825;    0.000
346.849; 2258.375;  252.825;    0.000
346.906; 2283.375;  247.825;    0.000
346.962; 2338.375;  274.825;    0.000
347.018; 2228.375;  225.825;    0.000
347.074; 2213.375;  261.825;    0.000
347.131; 2272.375;  230.825;    0.000
347.187; 2280.375;  269.825;    0.000
347.243; 2256.375;  261.825;    0.000
347.300; 2253.375;  236.825;    0.000
347.356; 2209.375;  284.825;    0.000
347.412; 2207.375;  243.825;    0.000
347.468; 2205.375;  276.825;    0.000
347.524; 2321.375;  232.825;    0.000
347.581; 2235.375;  242.825;    0.000
347.637; 2193.375;  270.825;    0.000
347.693; 2220.375;  269.825;    0.000
347.749; 2213.375;  278.825;    0.000
347.805; 2155.375;  224.825;    0.000
347.862; 2214.375;  207.825;    0.000
347.918; 2285.375;  259.825;    0.000
347.974; 2349.375;  244.825;    0.000
348.030; 2309.375;  219.825;    0.000
348.086; 2312.375;  250.825;    0.000
348.142; 2300.375;  251.825;    0.000
348.198; 2271.375;  267.825;    0.000
348.254; 2335.375;  230.825;    0.000
348.311; 2203.375;  261.825;    0.000
348.367; 2287.375;  259.825;    0.000
348.423; 2213.375;  251.825;    0.000
348.479; 2208.375;  251.825;    0.000
348.535; 2196.375;  269.825;    0.000
348.591; 2228.375;  238.825;    0.000
348.647; 2222.375;  273.825;    0.000
348.703; 2289.375;  291.825;    0.000
348.759; 2253.375;  231.825;    0.000
348.815; 2301.375;  286.825;    0.000
348.871; 2265.375;  265.825;    0.000
348.927; 2324.375;  234.825;    0.000
348.983; 2303.375;  267.825;    0.000
349.039; 2251.375;  233.825;    0.000
349.095; 2279.375;  225.825;    0.000
349.151; 2237.375;  242.825;    0.000
349.207; 2243.375;  223.825;    0.000
349.263; 2294.375;  219.825;    0.000
349.319; 2260.375;  226.825;    0.000
349.374; 2300.375;  232.825;    0.000
349.430; 2311.375;  235.825;    0.000
349.486; 2274.375;  227.825;    0.000
349.542; 2266.375;  253.825;    0.000
349.598; 2237.375;  227.825;    0.000
349.654; 2367.375;  270.825;    0.000
349.710; 2246.375;  233.825;    0.000
349.766; 2262.375;  245.825;    0.000
349.821; 2320.375;  242.825;    0.000
349.877; 2303.375;  229.825;    0.000
349.933; 2292.375;  229.825;    0.000
349.989; 2320.375;  230.825;    0.000
350.045; 2258.375;  236.825;    0.000
350.100; 2221.375;  237.825;    0.000
350.156; 2256.375;  230.825;    0.000
350.212; 2259.375;  254.825;    0.000
350.268; 2331.375;  239.825;    0.000
350.323; 2210.375;  204.825;    0.000
350.379; 2287.375;  246.825;    0.000
350.435; 2297.375;  249.825;    0.000
350.491; 2216.375;  217.825;    0.000
350.546; 2332.375;  231.825;    0.000
350.602; 2314.375;  240.825;    0.000
350.658; 2244.375;  235.825;    0.000
350.713; 2247.375;  234.825;    0.000
350.769; 2255.375;  218.825;    0.000
350.825; 2235.375;  227.825;    0.000
350.880; 2308.375;  226.825;    0.000
350.936; 2329.375;  247.825;    0.000
350.992; 2302.375;  213.825;    0.000
351.047; 2318.375;  207.825;    0.000
351.103; 2328.375;  271.825;    0.000
351.158; 2327.375;  251.825;    0.000
351.214; 2285.375;  199.825;    0.000
351.270; 2392.375;  214.825;    0.000
351.325; 2236.375;  235.825;    0.000
351.381; 2281.375;  223.825;    0.000
351.436; 2344.375;  237.825;    0.000
351.492; 2315.375;  221.825;    0.000
351.547; 2355.375;  237.825;    0.000
351.603; 2281.375;  239.825;    0.000
351.658; 2287.375;  209.825;    0.000
351.714; 2371.375;  226.825;    0.000
351.769; 2338.375;  238.825;    0.000
351.825; 2330.375;  226.825;    0.000
351.880; 2409.375;  217.825;    0.000
351.936; 2314.375;  246.825;    0.000
351.991; 2328.375;  233.825;    0.000
352.047; 2294.375;  215.825;    0.000
352.102; 2310.375;  243.825;    0.000
352.158; 2371.375;  234.825;    0.000
352.213; 2280.375;  201.825;    0.000
352.268; 2359.375;  234.825;    0.000
352.324; 2276.375;  211.825;    0.000
352.379; 2256.375;  221.825;    0.000
352.434; 2350.375;  259.825;    0.000
352.490; 2333.375;  250.825;    0.000
352.545; 2350.375;  251.825;    0.000
352.601; 2313.375;  283.825;    0.000
352.656; 2273.375;  236.825;    0.000
352.711; 2374.375;  237.825;    0.000
352.767; 2359.375;  201.825;    0.000
352.822; 2316.375;  209.825;    0.000
352.877; 2325.375;  239.825;    0.000
352.932; 2277.375;  228.825;    0.000
352.988; 2374.375;  202.825;    0.000
353.043; 2364.375;  268.825;    0.000
353.098; 2371.375;  208.825;    0.000
353.153; 2309.375;  219.825;    0.000
353.209; 2315.375;  252.825;    0.000
353.264; 2302.375;  225.825;    0.000
353.319; 2237.375;  234.825;    0.000
353.374; 2326.375;  236.825;    0.000
353.430; 2259.375;  245.825;    0.000
353.485; 2324.375;  238.825;    0.000
353.540; 2274.375;  238.825;    0.000
353.595; 2321.375;  215.825;    0.000
353.650; 2280.375;  238.825;    0.000
353.705; 2356.375;  274.825;    0.000
353.761; 2319.375;  229.825;    0.000
353.816; 2350.375;  275.825;    0.000
353.871; 2313.375;  245.825;    0.000
353.926; 2305.375;  253.825;    0.000
353.981; 2231.375;  269.825;    0.000
354.036; 2388.375;  246.825;    0.000
354.091; 2350.375;  257.825;    0.000
354.146; 2359.375;  278.825;    0.000
354.201; 2355.375;  276.825;    0.000
354.256; 2296.375;  224.825;    0.000
354.311; 2327.375;  287.825;    0.000
354.367; 2298.375;  210.825;    0.000
354.422; 2310.375;  231.825;    0.000
354.477; 2364.375;  226.825;    0.000
354.532; 2333.375;  262.825;    0.000
354.587; 2380.375;  275.825;    0.000
354.642; 2360.375;  247.825;    0.000
354.697; 2396.375;  251.825;    0.000
354.751; 2413.375;  249.825;    0.000
354.806; 2299.375;  217.825;    0.000
354.861; 2297.375;  247.825;    0.000
354.916; 2355.375;  259.825;    0.000
354.971; 2355.375;  241.825;    0.000
355.026; 2355.375;  250.825;    0.000
355.081; 2372.375;  244.825;    0.000
355.136; 2323.375;  203.825;    0.000
355.191; 2332.375;  241.825;    0.000
355.246; 2360.375;  248.825;    0.000
355.301; 2346.375;  259.825;    0.000
355.355; 2373.375;  236.825;    0.000
355.410; 2358.375;  221.825;    0.000
355.465; 2283.375;  206.825;    0.000
355.520; 2449.375;  258.825;    0.000
355.575; 2400.375;  273.825;    0.000
355.630; 2403.375;  252.825;    0.000
355.684; 2310.375;  246.825;    0.000
355.739; 2414.375;  251.825;    0.000
355.794; 2343.375;  247.825;    0.000
355.849; 2369.375;  246.825;    0.000
355.904; 2364.375;  262.825;    0.000
355.958; 2332.375;  249.825;    0.000
356.013; 2302.375;  213.825;    0.000
356.068; 2356.375;  255.825;    0.000
356.123; 2299.375;  205.825;    0.000
356.177; 2445.375;  239.825;    0.000
356.232; 2371.375;  258.825;    0.000
356.287; 2238.375;  248.825;    0.000
356.341; 2393.375;  221.825;    0.000
356.396; 2314.375;  220.825;    0.000
356.451; 2497.375;  231.825;    0.000
356.505; 2400.375;  231.825;    0.000
356.560; 2472.375;  254.825;    0.000
356.615; 2411.375;  234.825;    0.000
356.669; 2392.375;  250.825;    0.000
356.724; 2317.375;  261.825;    0.000
356.778; 2351.375;  207.825;    0.000
356.833; 2321.375;  205.825;    0.000
356.888; 2446.375;  235.825;    0.000
356.942; 2471.375;  205.825;    0.000
356.997; 2405.375;  276.825;    0.000
357.051; 2370.375;  243.825;    0.000
357.106; 2335.375;  242.825;    0.000
357.160; 2342.375;  241.825;    0.000
357.215; 2310.375;  212.825;    0.000
357.269; 2389.375;  238.825;    0.000
357.324; 2346.375;  223.825;    0.000
357.378; 2334.375;  221.825;    0.000
357.433; 2402.375;  262.825;    0.000
357.487; 2380.375;  246.825;    0.000
357.542; 2405.375;  221.825;    0.000
357.596; 2368.375;  225.825;    0.000
357.651; 2394.375;  244.825;    0.000
357.705; 2408.375;  269.825;    0.000
357.760; 2399.375;  209.825;    0.000
357.814; 2435.375;  250.825;    0.000
357.868; 2429.375;  266.825;    0.000
357.923; 2444.375;  248.825;    0.000
357.977; 2441.375;  262.825;    0.000
358.032; 2476.375;  228.825;    0.000
358.086; 2362.375;  257.825;    0.000
358.140; 2361.375;  217.825;    0.000
358.195; 2329.375;  246.825;    0.000
358.249; 2341.375;  255.825;    0.000
358.303; 2473.375;  252.825;    0.000
358.358; 2338.375;  278.825;    0.000
358.412; 2341.375;  276.825;    0.000
358.466; 2339.375;  275.825;    0.000
358.521; 2381.375;  229.825;    0.000
358.575; 2349.375;  270.825;    0.000
358.629; 2282.375;  239.825;    0.000
358.683; 2343.375;  254.825;    0.000
358.738; 2346.375;  239.825;    0.000
358.792; 2327.375;  272.825;    0.000
358.846; 2355.375;  289.825;    0.000
358.900; 2348.375;  299.825;    0.000
358.954; 2386.375;  247.825;    0.000
359.009; 2284.375;  245.825;    0.000
359.063; 2312.375;  272.825;    0.000
359.117; 2282.375;  242.825;    0.000
359.171; 2395.375;  279.825;    0.000
359.225; 2300.375;  221.825;    0.000
359.280; 2395.375;  238.825;    0.000
359.334; 2385.375;  264.825;    0.000
359.388; 2392.375;  273.825;    0.000
359.442; 2322.375;  233.825;    0.000
359.496; 2309.375;  226.825;    0.000
359.550; 2358.375;  271.825;    0.000
359.604; 2385.375;  296.825;    0.000
359.658; 2331.375;  252.825;    0.000
359.712; 2286.375;  256.825;    0.000
359.766; 2329.375;  257.825;    0.000
359.820; 2340.375;  239.825;    0.000
359.875; 2359.375;  252.825;    0.000
359.929; 2370.375;  258.825;    0.000
359.983; 2324.375;  232.825;    0.000
360.037; 2301.375;  268.825;    0.000
360.091; 2367.375;  303.825;    0.000
360.145; 2376.375;  232.825;    0.000
360.199; 2326.375;  255.825;    0.000
360.253; 2353.375;  252.825;    0.000
360.306; 2333.375;  278.825;    0.000
360.360; 2298.375;  249.825;    0.000
360.414; 2345.375;  274.825;    0.000
360.468; 2324.375;  247.825;    0.000
360.522; 2375.375;  268.825;    0.000
360.576; 2409.375;  263.825;    0.000
360.630; 2388.375;  296.825;    0.000
360.684; 2329.375;  253.825;    0.000
360.738; 2307.375;  301.825;    0.000
360.792; 2258.375;  282.825;    0.000
360.846; 2355.375;  277.825;    0.000
360.899; 2441.375;  292.825;    0.000
360.953; 2353.375;  266.825;    0.000
361.007; 2338.375;  240.825;    0.000
361.061; 2388.375;  247.825;    0.000
361.115; 2330.375;  276.825;    0.000
361.168; 2381.375;  288.825;    0.000
361.222; 2351.375;  271.825;    0.000
361.276; 2244.375;  270.825;    0.000
361.330; 2273.375;  295.825;    0.000
361.384; 2310.375;  276.825;    0.000
361.437; 2335.375;  280.825;    0.000
361.491; 2336.375;  261.825;    0.000
361.545; 2289.375;  273.825;    0.000
361.599; 2417.375;  269.825;    0.000
361.652; 2276.375;  258.825;    0.000
361.706; 2332.375;  270.825;    0.000
361.760; 2285.375;  294.825;    0.000
361.813; 2305.375;  244.825;    0.000
361.867; 2399.375;  294.825;    0.000
361.921; 2327.375;  285.825;    0.000
361.974; 2303.375;  269.825;    0.000
362.028; 2315.375;  275.825;    0.000
362.082; 2395.375;  270.825;    0.000
362.135; 2406.375;  259.825;    0.000
362.189; 2296.375;  302.825;    0.000
362.242; 2224.375;  296.825;    0.000
362.296; 2366.375;  285.825;    0.000
362.350; 2382.375;  303.825;    0.000
362.403; 2334.375;  271.825;    0.000
362.457; 2307.375;  285.825;    0.000
362.510; 2345.375;  288.825;    0.000
362.564; 2268.375;  268.825;    0.000
362.617; 2282.375;  285.825;    0.000
362.671; 2356.375;  277.825;    0.000
362.724; 2282.375;  242.825;    0.000
362.778; 2335.375;  274.825;    0.000
362.831; 2325.375;  280.825;    0.000
362.885; 2204.375;  284.825;    0.000
362.938; 2229.375;  276.825;    0.000
362.992;  336.375;  289.825;    0.000
363.045;  250.375;  247.825;    0.000
363.099;  263.375;  260.825;    0.000
363.152;  271.375;  258.825;    0.000
363.205;  293.375;  286.825;    0.000
363.259;  293.375;  236.825;    0.000
363.312;  312.375;  297.825;    0.000
363.366;  278.375;  266.825;    0.000
363.419;  282.375;  309.825;    0.000
363.472;  301.375;  293.825;    0.000
363.526;  311.375;  270.825;    0.000
363.579;  275.375;  276.825;    0.000
363.632;  288.375;  279.825;    0.000
363.686;  282.375;  292.825;    0.000
363.739;  271.375;  248.825;    0.000
363.792;  256.375;  287.825;    0.000

