
Integration time [ms]:   0.300
Averaging Nr. [scans]: 1
Smoothing Nr. [pixels]: 0
Data measured with spectrometer [name]: NIR
Wave   ;Sample   ;Dark     ;Reference
[nm]   ;[counts] ;[counts] ;[counts] 

691.496;    7.875;  155.525;    0.000
691.696;   27.875;  186.525;    0.000
691.896;  -18.125;  113.525;    0.000
692.096;   27.875;  169.525;    0.000
692.296;  -68.125;  119.525;    0.000
692.496;   51.875;  182.525;    0.000
692.695;    3.875;  119.525;    0.000
692.895;   38.875;  183.525;    0.000
693.095;   11.875;  119.525;    0.000
693.295;   37.875;  156.525;    0.000
693.495;   61.875;  145.525;    0.000
693.695;   -6.125;  144.525;    0.000
693.894;   10.875;  174.525;    0.000
694.094;   -2.125;  148.525;    0.000
694.294;    6.875;  114.525;    0.000
694.494;  314.875;  137.525;    0.000
694.693; 3264.875;  112.525;    0.000
694.893; 3478.875;   85.525;    0.000
695.093; 3592.875;  152.525;    0.000
695.293; 3804.875;  159.525;    0.000
695.492; 3694.875;  131.525;    0.000
695.692; 3773.875;  134.525;    0.000
695.891; 3706.875;  161.525;    0.000
696.091; 3825.875;  180.525;    0.000
696.291; 3735.875;  120.525;    0.000
696.490; 3690.875;  146.525;    0.000
696.690; 3854.875;  145.525;    0.000
696.889; 3836.875;  171.525;    0.000
697.089; 3890.875;   98.525;    0.000
697.288; 3935.875;  172.525;    0.000
697.488; 3814.875;  137.525;    0.000
697.687; 3804.875;  171.525;    0.000
697.887; 3849.875;  142.525;    0.000
698.086; 3860.875;  159.525;    0.000
698.286; 3817.875;  122.525;    0.000
698.485; 3942.875;  121.525;    0.000
698.684; 3961.875;   94.525;    0.000
698.884; 3950.875;  131.525;    0.000
699.083; 3859.875;  112.525;    0.000
699.282; 3802.875;  119.525;    0.000
699.482; 3772.875;  117.525;    0.000
699.681; 3866.875;  115.525;    0.000
699.880; 3914.875;  166.525;    0.000
700.080; 3899.875;  194.525;    0.000
700.279; 3936.875;   98.525;    0.000
700.478; 3917.875;  159.525;    0.000
700.677; 3944.875;  134.525;    0.000
700.877; 3958.875;  171.525;    0.000
701.076; 3989.875;  141.525;    0.000
701.275; 3981.875;  119.525;    0.000
701.474; 3834.875;  132.525;    0.000
701.673; 3943.875;  141.525;    0.000
701.872; 3932.875;  158.525;    0.000
702.071; 3984.875;  129.525;    0.000
702.271; 4056.875;  122.525;    0.000
702.470; 3984.875;  158.525;    0.000
702.669; 3995.875;  145.525;    0.000
702.868; 4009.875;  135.525;    0.000
703.067; 4035.875;  169.525;    0.000
703.266; 3897.875;  125.525;    0.000
703.465; 3979.875;  153.525;    0.000
703.664; 4033.875;  113.525;    0.000
703.863; 4096.875;  170.525;    0.000
704.062; 3971.875;  115.525;    0.000
704.260; 3994.875;  133.525;    0.000
704.459; 4009.875;  123.525;    0.000
704.658; 3928.875;  105.525;    0.000
704.857; 4009.875;  125.525;    0.000
705.056; 3977.875;  108.525;    0.000
705.255; 4028.875;  117.525;    0.000
705.454; 4010.875;  126.525;    0.000
705.652; 4099.875;  137.525;    0.000
705.851; 3982.875;   95.525;    0.000
706.050; 4140.875;  120.525;    0.000
706.249; 4119.875;   81.525;    0.000
706.447; 4040.875;  105.525;    0.000
706.646; 4045.875;  107.525;    0.000
706.845; 4114.875;  104.525;    0.000
707.043; 4069.875;  136.525;    0.000
707.242; 4095.875;   89.525;    0.000
707.441; 4201.875;  147.525;    0.000
707.639; 4044.875;  156.525;    0.000
707.838; 4064.875;  114.525;    0.000
708.037; 4000.875;  100.525;    0.000
708.235; 4155.875;  103.525;    0.000
708.434; 4086.875;  102.525;    0.000
708.632; 4045.875;  100.525;    0.000
708.831; 4171.875;  121.525;    0.000
709.029; 4181.875;  102.525;    0.000
709.228; 4173.875;   88.525;    0.000
709.426; 4250.875;  135.525;    0.000
709.625; 4194.875;  128.525;    0.000
709.823; 4321.875;  123.525;    0.000
710.022; 4196.875;  137.525;    0.000
710.220; 4196.875;  134.525;    0.000
710.418; 4176.875;  122.525;    0.000
710.617; 4250.875;   64.525;    0.000
710.815; 4256.875;   94.525;    0.000
711.013; 4343.875;  127.525;    0.000
711.212; 4187.875;  105.525;    0.000
711.410; 4299.875;  117.525;    0.000
711.608; 4256.875;  114.525;    0.000
711.807; 4365.875;  119.525;    0.000
712.005; 4399.875;   92.525;    0.000
712.203; 4257.875;   95.525;    0.000
712.401; 4475.875;  107.525;    0.000
712.599; 4373.875;  127.525;    0.000
712.798; 4456.875;  120.525;    0.000
712.996; 4367.875;   76.525;    0.000
713.194; 4366.875;  118.525;    0.000
713.392; 4353.875;   60.525;    0.000
713.590; 4402.875;   92.525;    0.000
713.788; 4403.875;  110.525;    0.000
713.986; 4593.875;  130.525;    0.000
714.184; 4430.875;   71.525;    0.000
714.382; 4524.875;   86.525;    0.000
714.580; 4544.875;   74.525;    0.000
714.778; 4731.875;  133.525;    0.000
714.976; 4736.875;   81.525;    0.000
715.174; 4802.875;  100.525;    0.000
715.372; 4829.875;  141.525;    0.000
715.570; 5143.875;   73.525;    0.000
715.768; 5381.875;  119.525;    0.000
715.966; 5493.875;   81.525;    0.000
716.164; 5288.875;  130.525;    0.000
716.362; 5258.875;  125.525;    0.000
716.560; 5247.875;  109.525;    0.000
716.758; 5156.875;   96.525;    0.000
716.955; 4964.875;   83.525;    0.000
717.153; 4963.875;   87.525;    0.000
717.351; 5102.875;  123.525;    0.000
717.549; 4941.875;  121.525;    0.000
717.746; 4827.875;  128.525;    0.000
717.944; 4927.875;  132.525;    0.000
718.142; 4879.875;  120.525;    0.000
718.340; 4850.875;   94.525;    0.000
718.537; 4918.875;   95.525;    0.000
718.735; 4925.875;  152.525;    0.000
718.933; 4807.875;  124.525;    0.000
719.130; 4807.875;  114.525;    0.000
719.328; 4858.875;   63.525;    0.000
719.525; 4780.875;  146.525;    0.000
719.723; 4760.875;   96.525;    0.000
719.920; 4733.875;  120.525;    0.000
720.118; 4761.875;   59.525;    0.000
720.316; 4746.875;  116.525;    0.000
720.513; 4813.875;  127.525;    0.000
720.711; 4793.875;  110.525;    0.000
720.908; 4760.875;   92.525;    0.000
721.105; 4834.875;  138.525;    0.000
721.303; 4816.875;   90.525;    0.000
721.500; 4874.875;  126.525;    0.000
721.698; 4948.875;  103.525;    0.000
721.895; 4923.875;  206.525;    0.000
722.092; 4890.875;   63.525;    0.000
722.290; 4767.875;  123.525;    0.000
722.487; 4824.875;  137.525;    0.000
722.684; 4767.875;  126.525;    0.000
722.882; 4783.875;  119.525;    0.000
723.079; 4848.875;  132.525;    0.000
723.276; 4731.875;   98.525;    0.000
723.473; 4927.875;   97.525;    0.000
723.671; 4793.875;   43.525;    0.000
723.868; 4981.875;  142.525;    0.000
724.065; 4881.875;  102.525;    0.000
724.262; 4845.875;  119.525;    0.000
724.459; 4819.875;   73.525;    0.000
724.656; 5008.875;  128.525;    0.000
724.854; 4954.875;  135.525;    0.000
725.051; 4890.875;   81.525;    0.000
725.248; 5000.875;   88.525;    0.000
725.445; 4945.875;  129.525;    0.000
725.642; 4899.875;   76.525;    0.000
725.839; 4980.875;  134.525;    0.000
726.036; 4992.875;  101.525;    0.000
726.233; 4853.875;   68.525;    0.000
726.430; 4882.875;  121.525;    0.000
726.627; 4997.875;  136.525;    0.000
726.824; 4857.875;   87.525;    0.000
727.021; 4999.875;  141.525;    0.000
727.218; 4914.875;   92.525;    0.000
727.414; 4990.875;  121.525;    0.000
727.611; 4918.875;  100.525;    0.000
727.808; 4950.875;  130.525;    0.000
728.005; 4999.875;   83.525;    0.000
728.202; 4992.875;  120.525;    0.000
728.399; 5056.875;   75.525;    0.000
728.595; 4970.875;  148.525;    0.000
728.792; 5068.875;   79.525;    0.000
728.989; 4931.875;   86.525;    0.000
729.186; 5025.875;   80.525;    0.000
729.382; 5003.875;   72.525;    0.000
729.579; 4986.875;  112.525;    0.000
729.776; 5093.875;  106.525;    0.000
729.972; 5083.875;   77.525;    0.000
730.169; 4978.875;  118.525;    0.000
730.366; 4987.875;   92.525;    0.000
730.562; 5208.875;  104.525;    0.000
730.759; 5176.875;   95.525;    0.000
730.955; 5019.875;   85.525;    0.000
731.152; 5074.875;   79.525;    0.000
731.348; 5087.875;   72.525;    0.000
731.545; 5073.875;   56.525;    0.000
731.741; 5093.875;  106.525;    0.000
731.938; 5115.875;  113.525;    0.000
732.134; 5090.875;  106.525;    0.000
732.331; 5119.875;   82.525;    0.000
732.527; 5144.875;   80.525;    0.000
732.724; 5004.875;   97.525;    0.000
732.920; 5127.875;  127.525;    0.000
733.116; 5114.875;  115.525;    0.000
733.313; 5173.875;  153.525;    0.000
733.509; 5105.875;   76.525;    0.000
733.705; 5197.875;  159.525;    0.000
733.902; 5183.875;   82.525;    0.000
734.098; 5134.875;   70.525;    0.000
734.294; 5234.875;  105.525;    0.000
734.490; 5178.875;  110.525;    0.000
734.687; 5184.875;  102.525;    0.000
734.883; 5125.875;   77.525;    0.000
735.079; 5076.875;   93.525;    0.000
735.275; 5214.875;  109.525;    0.000
735.471; 5196.875;   99.525;    0.000
735.667; 5241.875;  107.525;    0.000
735.863; 5204.875;   89.525;    0.000
736.060; 5197.875;  105.525;    0.000
736.256; 5210.875;  113.525;    0.000
736.452; 5245.875;   90.525;    0.000
736.648; 5172.875;   88.525;    0.000
736.844; 5245.875;  129.525;    0.000
737.040; 5280.875;  139.525;    0.000
737.236; 5426.875;  129.525;    0.000
737.432; 5364.875;   67.525;    0.000
737.628; 5383.875;  104.525;    0.000
737.824; 5288.875;  111.525;    0.000
738.019; 5301.875;  116.525;    0.000
738.215; 5532.875;  135.525;    0.000
738.411; 5429.875;  118.525;    0.000
738.607; 5569.875;   58.525;    0.000
738.803; 5451.875;   32.525;    0.000
738.999; 5436.875;  120.525;    0.000
739.195; 5473.875;   76.525;    0.000
739.390; 5692.875;  119.525;    0.000
739.586; 5436.875;   83.525;    0.000
739.782; 5599.875;  134.525;    0.000
739.978; 5599.875;  122.525;    0.000
740.173; 5652.875;   96.525;    0.000
740.369; 5599.875;   86.525;    0.000
740.565; 5801.875;  122.525;    0.000
740.760; 5775.875;   99.525;    0.000
740.956; 5775.875;  137.525;    0.000
741.152; 5757.875;  108.525;    0.000
741.347; 5787.875;   65.525;    0.000
741.543; 5804.875;   73.525;    0.000
741.738; 5871.875;  142.525;    0.000
741.934; 6041.875;  131.525;    0.000
742.129; 6504.875;   66.525;    0.000
742.325; 7151.875;  143.525;    0.000
742.520; 7833.875;  119.525;    0.000
742.716; 7403.875;  109.525;    0.000
742.911; 7150.875;   62.525;    0.000
743.107; 6909.875;  119.525;    0.000
743.302; 6719.875;   78.525;    0.000
743.498; 6946.875;  130.525;    0.000
743.693; 6961.875;   75.525;    0.000
743.888; 7386.875;  135.525;    0.000
744.084; 8332.875;  106.525;    0.000
744.279;10041.875;  101.525;    0.000
744.474;10130.875;   91.525;    0.000
744.670; 9166.875;  144.525;    0.000
744.865; 8540.875;  128.525;    0.000
745.060; 8021.875;   63.525;    0.000
745.255; 7838.875;  155.525;    0.000
745.451; 7578.875;  110.525;    0.000
745.646; 7382.875;  150.525;    0.000
745.841; 7453.875;  128.525;    0.000
746.036; 7508.875;  110.525;    0.000
746.231; 7776.875;  126.525;    0.000
746.426; 7914.875;   83.525;    0.000
746.622; 9186.875;  157.525;    0.000
746.817;11750.875;  112.525;    0.000
747.012;13133.875;  115.525;    0.000
747.207;11783.875;  161.525;    0.000
747.402;10582.875;   88.525;    0.000
747.597; 9778.875;  103.525;    0.000
747.792; 9378.875;  152.525;    0.000
747.987; 8898.875;   80.525;    0.000
748.182; 8711.875;   89.525;    0.000
748.377; 8360.875;  104.525;    0.000
748.572; 7982.875;  138.525;    0.000
748.767; 7822.875;  100.525;    0.000
748.961; 7552.875;  106.525;    0.000
749.156; 7335.875;  113.525;    0.000
749.351; 7213.875;  116.525;    0.000
749.546; 6950.875;  107.525;    0.000
749.741; 6992.875;  102.525;    0.000
749.936; 6757.875;  105.525;    0.000
750.130; 6765.875;  111.525;    0.000
750.325; 6704.875;   72.525;    0.000
750.520; 6608.875;   96.525;    0.000
750.715; 6569.875;  135.525;    0.000
750.909; 6424.875;  107.525;    0.000
751.104; 6432.875;  106.525;    0.000
751.299; 6373.875;  144.525;    0.000
751.493; 6323.875;  116.525;    0.000
751.688; 6298.875;   96.525;    0.000
751.882; 6029.875;   92.525;    0.000
752.077; 6231.875;  109.525;    0.000
752.272; 6158.875;   96.525;    0.000
752.466; 6175.875;  110.525;    0.000
752.661; 6224.875;  120.525;    0.000
752.855; 6082.875;   70.525;    0.000
753.050; 6207.875;  129.525;    0.000
753.244; 5918.875;  126.525;    0.000
753.439; 5979.875;  115.525;    0.000
753.633; 5933.875;  120.525;    0.000
753.828; 5952.875;  129.525;    0.000
754.022; 5861.875;  139.525;    0.000
754.216; 6026.875;  121.525;    0.000
754.411; 6029.875;  108.525;    0.000
754.605; 5822.875;   94.525;    0.000
754.799; 5883.875;  125.525;    0.000
754.994; 5830.875;  160.525;    0.000
755.188; 6018.875;  151.525;    0.000
755.382; 5926.875;  102.525;    0.000
755.576; 5898.875;  103.525;    0.000
755.771; 5789.875;   99.525;    0.000
755.965; 5852.875;  158.525;    0.000
756.159; 5830.875;   96.525;    0.000
756.353; 5846.875;  157.525;    0.000
756.547; 5758.875;  132.525;    0.000
756.742; 5756.875;  106.525;    0.000
756.936; 5777.875;  113.525;    0.000
757.130; 5758.875;  114.525;    0.000
757.324; 5786.875;  111.525;    0.000
757.518; 5876.875;  142.525;    0.000
757.712; 5863.875;  137.525;    0.000
757.906; 5764.875;   93.525;    0.000
758.100; 5844.875;  119.525;    0.000
758.294; 5800.875;  132.525;    0.000
758.488; 5833.875;  153.525;    0.000
758.682; 5731.875;  101.525;    0.000
758.876; 5849.875;  129.525;    0.000
759.070; 5743.875;  168.525;    0.000
759.264; 5725.875;   96.525;    0.000
759.458; 5674.875;  117.525;    0.000
759.651; 5731.875;  135.525;    0.000
759.845; 5778.875;  127.525;    0.000
760.039; 5745.875;  120.525;    0.000
760.233; 5736.875;  124.525;    0.000
760.427; 5750.875;  115.525;    0.000
760.620; 5853.875;  130.525;    0.000
760.814; 5636.875;  102.525;    0.000
761.008; 5740.875;  174.525;    0.000
761.202; 5837.875;  132.525;    0.000
761.395; 5846.875;  126.525;    0.000
761.589; 5836.875;  133.525;    0.000
761.783; 5795.875;  147.525;    0.000
761.976; 5775.875;  147.525;    0.000
762.170; 5912.875;  174.525;    0.000
762.363; 5826.875;   97.525;    0.000
762.557; 5773.875;  141.525;    0.000
762.750; 5907.875;  112.525;    0.000
762.944; 5829.875;  110.525;    0.000
763.138; 5835.875;  125.525;    0.000
763.331; 5824.875;  101.525;    0.000
763.524; 5916.875;  101.525;    0.000
763.718; 5953.875;  156.525;    0.000
763.911; 5946.875;  143.525;    0.000
764.105; 5925.875;  139.525;    0.000
764.298; 5841.875;   89.525;    0.000
764.492; 5913.875;  111.525;    0.000
764.685; 5946.875;  136.525;    0.000
764.878; 5698.875;  146.525;    0.000
765.072; 5850.875;  110.525;    0.000
765.265; 5844.875;  141.525;    0.000
765.458; 5926.875;   82.525;    0.000
765.651; 6048.875;  144.525;    0.000
765.845; 5998.875;   79.525;    0.000
766.038; 5844.875;  123.525;    0.000
766.231; 6439.875;  125.525;    0.000
766.424; 8830.875;  131.525;    0.000
766.617; 8815.875;   62.525;    0.000
766.811; 6276.875;  142.525;    0.000
767.004; 6025.875;  134.525;    0.000
767.197; 6161.875;  147.525;    0.000
767.390; 6016.875;  100.525;    0.000
767.583; 6017.875;  121.525;    0.000
767.776; 5991.875;   91.525;    0.000
767.969; 5960.875;  113.525;    0.000
768.162; 6016.875;  170.525;    0.000
768.355; 6051.875;  134.525;    0.000
768.548; 6110.875;  177.525;    0.000
768.741; 6013.875;   96.525;    0.000
768.934; 6181.875;  143.525;    0.000
769.127; 6229.875;  147.525;    0.000
769.320; 6285.875;   93.525;    0.000
769.513; 6376.875;  137.525;    0.000
769.706; 6746.875;   96.525;    0.000
769.898; 8884.875;  118.525;    0.000
770.091; 7316.875;  138.525;    0.000
770.284; 6504.875;  133.525;    0.000
770.477; 6317.875;  137.525;    0.000
770.670; 6474.875;  124.525;    0.000
770.862; 6485.875;  125.525;    0.000
771.055; 6529.875;  135.525;    0.000
771.248; 6569.875;  109.525;    0.000
771.441; 6540.875;  141.525;    0.000
771.633; 6706.875;  142.525;    0.000
771.826; 6646.875;  123.525;    0.000
772.018; 6664.875;  136.525;    0.000
772.211; 6738.875;  145.525;    0.000
772.404; 6835.875;  127.525;    0.000
772.596; 6858.875;  193.525;    0.000
772.789; 7144.875;   64.525;    0.000
772.981; 7103.875;  142.525;    0.000
773.174; 7072.875;  105.525;    0.000
773.366; 7189.875;  166.525;    0.000
773.559; 7194.875;  125.525;    0.000
773.751; 7283.875;  126.525;    0.000
773.944; 7621.875;  147.525;    0.000
774.136; 7739.875;  155.525;    0.000
774.329; 7778.875;  127.525;    0.000
774.521; 8080.875;  133.525;    0.000
774.713; 8219.875;  139.525;    0.000
774.906; 8392.875;  170.525;    0.000
775.098; 8755.875;  144.525;    0.000
775.290; 9278.875;  162.525;    0.000
775.483; 9617.875;  137.525;    0.000
775.675;10347.875;  148.525;    0.000
775.867;10961.875;   81.525;    0.000
776.059;11869.875;  134.525;    0.000
776.251;13166.875;  137.525;    0.000
776.444;14678.875;  155.525;    0.000
776.636;17039.875;  148.525;    0.000
776.828;20896.875;  129.525;    0.000
777.020;29188.875;  133.525;    0.000
777.212;42762.875;  137.525;    0.000
777.404;47568.875;  124.525;    0.000
777.596;44403.875;  142.525;    0.000
777.788;33319.875;  155.525;    0.000
777.980;26009.875;  119.525;    0.000
778.172;21042.875;  129.525;    0.000
778.364;18179.875;  122.525;    0.000
778.556;16331.875;  129.525;    0.000
778.748;14499.875;  178.525;    0.000
778.940;13254.875;  128.525;    0.000
779.132;12392.875;  145.525;    0.000
779.324;11301.875;   89.525;    0.000
779.516;10583.875;  161.525;    0.000
779.708;10307.875;  183.525;    0.000
779.900; 9574.875;  124.525;    0.000
780.091; 9097.875;  143.525;    0.000
780.283; 8774.875;  135.525;    0.000
780.475; 8595.875;  129.525;    0.000
780.667; 8401.875;  178.525;    0.000
780.859; 8112.875;  146.525;    0.000
781.050; 7848.875;  156.525;    0.000
781.242; 7660.875;  138.525;    0.000
781.434; 7603.875;  117.525;    0.000
781.625; 7346.875;  161.525;    0.000
781.817; 7341.875;  127.525;    0.000
782.008; 7227.875;  138.525;    0.000
782.200; 6935.875;  139.525;    0.000
782.392; 6899.875;  179.525;    0.000
782.583; 6790.875;  137.525;    0.000
782.775; 6696.875;  162.525;    0.000
782.966; 6655.875;  159.525;    0.000
783.158; 6591.875;  118.525;    0.000
783.349; 6609.875;  160.525;    0.000
783.541; 6524.875;  139.525;    0.000
783.732; 6323.875;  145.525;    0.000
783.924; 6313.875;  146.525;    0.000
784.115; 6385.875;  125.525;    0.000
784.306; 6252.875;  118.525;    0.000
784.498; 6235.875;  144.525;    0.000
784.689; 6347.875;  145.525;    0.000
784.880; 6070.875;  137.525;    0.000
785.072; 6168.875;  157.525;    0.000
785.263; 6213.875;  149.525;    0.000
785.454; 6155.875;  128.525;    0.000
785.645; 5801.875;  131.525;    0.000
785.837; 6068.875;  137.525;    0.000
786.028; 6043.875;  161.525;    0.000
786.219; 5998.875;  155.525;    0.000
786.410; 6035.875;  146.525;    0.000
786.601; 5968.875;  120.525;    0.000
786.792; 5979.875;  179.525;    0.000
786.984; 5921.875;  113.525;    0.000
787.175; 5922.875;  156.525;    0.000
787.366; 6071.875;  131.525;    0.000
787.557; 5911.875;  138.525;    0.000
787.748; 5833.875;  112.525;    0.000
787.939; 5946.875;  115.525;    0.000
788.130; 5878.875;  150.525;    0.000
788.321; 5999.875;  122.525;    0.000
788.512; 6129.875;  147.525;    0.000
788.703; 5960.875;  126.525;    0.000
788.894; 6004.875;   80.525;    0.000
789.084; 6044.875;  127.525;    0.000
789.275; 5985.875;  141.525;    0.000
789.466; 6012.875;  108.525;    0.000
789.657; 6151.875;  137.525;    0.000
789.848; 6135.875;  126.525;    0.000
790.039; 6167.875;  144.525;    0.000
790.229; 6106.875;  105.525;    0.000
790.420; 6041.875;   96.525;    0.000
790.611; 5985.875;  171.525;    0.000
790.801; 6029.875;   89.525;    0.000
790.992; 6143.875;  140.525;    0.000
791.183; 6064.875;  143.525;    0.000
791.373; 5932.875;  128.525;    0.000
791.564; 6066.875;   96.525;    0.000
791.755; 6040.875;  111.525;    0.000
791.945; 5985.875;  112.525;    0.000
792.136; 5999.875;  124.525;    0.000
792.326; 6163.875;   88.525;    0.000
792.517; 6128.875;  130.525;    0.000
792.707; 6153.875;  144.525;    0.000
792.898; 6132.875;  120.525;    0.000
793.088; 6153.875;  106.525;    0.000
793.279; 6183.875;  104.525;    0.000
793.469; 6355.875;  103.525;    0.000
793.660; 6314.875;  120.525;    0.000
793.850; 6669.875;  106.525;    0.000
794.040; 6680.875;  135.525;    0.000
794.231; 7129.875;   80.525;    0.000
794.421; 7467.875;  120.525;    0.000
794.611; 8360.875;  154.525;    0.000
794.802; 9520.875;  103.525;    0.000
794.992;10057.875;  120.525;    0.000
795.182;10320.875;  156.525;    0.000
795.372; 9615.875;  104.525;    0.000
795.563; 8851.875;  153.525;    0.000
795.753; 8103.875;  112.525;    0.000
795.943; 7670.875;  128.525;    0.000
796.133; 7235.875;  128.525;    0.000
796.323; 6999.875;  152.525;    0.000
796.513; 6757.875;  123.525;    0.000
796.703; 6563.875;  134.525;    0.000
796.893; 6448.875;  120.525;    0.000
797.083; 6245.875;  136.525;    0.000
797.273; 6251.875;  128.525;    0.000
797.463; 6100.875;  140.525;    0.000
797.653; 5957.875;   75.525;    0.000
797.843; 5837.875;  114.525;    0.000
798.033; 5860.875;   90.525;    0.000
798.223; 5697.875;  136.525;    0.000
798.413; 5717.875;  164.525;    0.000
798.603; 5632.875;  150.525;    0.000
798.793; 5738.875;  137.525;    0.000
798.983; 5427.875;  119.525;    0.000
799.172; 5372.875;  136.525;    0.000
799.362; 5486.875;  138.525;    0.000
799.552; 5413.875;  123.525;    0.000
799.742; 5180.875;  117.525;    0.000
799.932; 5333.875;  108.525;    0.000
800.121; 5255.875;  152.525;    0.000
800.311; 5118.875;  117.525;    0.000
800.501; 5162.875;  100.525;    0.000
800.690; 5249.875;  139.525;    0.000
800.880; 5206.875;  138.525;    0.000
801.070; 5169.875;  120.525;    0.000
801.259; 5138.875;  143.525;    0.000
801.449; 5010.875;  110.525;    0.000
801.638; 5302.875;  140.525;    0.000
801.828; 5094.875;  103.525;    0.000
802.017; 5052.875;   78.525;    0.000
802.207; 5082.875;  126.525;    0.000
802.396; 5082.875;  151.525;    0.000
802.586; 5010.875;  106.525;    0.000
802.775; 5094.875;  152.525;    0.000
802.965; 5041.875;  117.525;    0.000
803.154; 4792.875;  171.525;    0.000
803.343; 4770.875;  126.525;    0.000
803.533; 5046.875;  135.525;    0.000
803.722; 4908.875;  144.525;    0.000
803.911; 4822.875;  109.525;    0.000
804.101; 4845.875;  146.525;    0.000
804.290; 4868.875;  115.525;    0.000
804.479; 4800.875;  128.525;    0.000
804.668; 4881.875;  156.525;    0.000
804.857; 4780.875;  151.525;    0.000
805.047; 4798.875;  131.525;    0.000
805.236; 4845.875;  144.525;    0.000
805.425; 4749.875;  160.525;    0.000
805.614; 4930.875;  112.525;    0.000
805.803; 4805.875;  120.525;    0.000
805.992; 4774.875;  148.525;    0.000
806.181; 4792.875;  108.525;    0.000
806.370; 4818.875;  142.525;    0.000
806.559; 4874.875;  116.525;    0.000
806.748; 4812.875;  108.525;    0.000
806.937; 4770.875;  110.525;    0.000
807.126; 4693.875;  126.525;    0.000
807.315; 4712.875;  121.525;    0.000
807.504; 4758.875;  102.525;    0.000
807.693; 4869.875;  134.525;    0.000
807.882; 4818.875;  135.525;    0.000
808.071; 4806.875;  135.525;    0.000
808.260; 4797.875;   93.525;    0.000
808.448; 4806.875;  151.525;    0.000
808.637; 4856.875;  105.525;    0.000
808.826; 4762.875;  178.525;    0.000
809.015; 4838.875;  152.525;    0.000
809.203; 4884.875;  147.525;    0.000
809.392; 4886.875;  144.525;    0.000
809.581; 4819.875;  167.525;    0.000
809.770; 4726.875;  151.525;    0.000
809.958; 4802.875;  128.525;    0.000
810.147; 4881.875;  152.525;    0.000
810.335; 4944.875;  160.525;    0.000
810.524; 4809.875;  130.525;    0.000
810.713; 5010.875;  128.525;    0.000
810.901; 5014.875;  140.525;    0.000
811.090; 4926.875;  152.525;    0.000
811.278; 5005.875;  126.525;    0.000
811.467; 5274.875;  161.525;    0.000
811.655; 5298.875;  184.525;    0.000
811.844; 5226.875;  148.525;    0.000
812.032; 5184.875;  138.525;    0.000
812.220; 5178.875;  157.525;    0.000
812.409; 5106.875;  143.525;    0.000
812.597; 5218.875;  124.525;    0.000
812.785; 5188.875;  170.525;    0.000
812.974; 5141.875;  135.525;    0.000
813.162; 5182.875;  135.525;    0.000
813.350; 5270.875;  182.525;    0.000
813.539; 5246.875;  126.525;    0.000
813.727; 5223.875;  127.525;    0.000
813.915; 5308.875;  140.525;    0.000
814.103; 5262.875;  176.525;    0.000
814.291; 5344.875;  115.525;    0.000
814.479; 5312.875;  119.525;    0.000
814.668; 5405.875;  134.525;    0.000
814.856; 5585.875;  120.525;    0.000
815.044; 5716.875;  164.525;    0.000
815.232; 5589.875;  146.525;    0.000
815.420; 5625.875;  154.525;    0.000
815.608; 5738.875;  137.525;    0.000
815.796; 5818.875;  108.525;    0.000
815.984; 5877.875;  134.525;    0.000
816.172; 5992.875;  123.525;    0.000
816.360; 6066.875;  181.525;    0.000
816.548; 6222.875;  139.525;    0.000
816.736; 6520.875;  138.525;    0.000
816.924; 6780.875;  151.525;    0.000
817.111; 6889.875;  156.525;    0.000
817.299; 7170.875;  147.525;    0.000
817.487; 7628.875;  188.525;    0.000
817.675; 8161.875;  129.525;    0.000
817.863; 9107.875;  128.525;    0.000
818.050;11552.875;  110.525;    0.000
818.238;19362.875;  166.525;    0.000
818.426;26837.875;  136.525;    0.000
818.613;20090.875;  143.525;    0.000
818.801;17769.875;  150.525;    0.000
818.989;16999.875;  179.525;    0.000
819.176;17394.875;  123.525;    0.000
819.364;23854.875;  148.525;    0.000
819.552;34114.875;   86.525;    0.000
819.739;23828.875;  169.525;    0.000
819.927;17901.875;  130.525;    0.000
820.114;15710.875;  144.525;    0.000
820.302;14320.875;  166.525;    0.000
820.489;13298.875;  145.525;    0.000
820.677;12593.875;  101.525;    0.000
820.864;12274.875;  149.525;    0.000
821.052;12740.875;  130.525;    0.000
821.239;13489.875;  147.525;    0.000
821.426;14140.875;  121.525;    0.000
821.614;17290.875;  187.525;    0.000
821.801;18598.875;  105.525;    0.000
821.988;16195.875;  167.525;    0.000
822.176;15498.875;  130.525;    0.000
822.363;15701.875;  143.525;    0.000
822.550;14604.875;  108.525;    0.000
822.737;13088.875;  109.525;    0.000
822.924;12305.875;  156.525;    0.000
823.112;11476.875;  123.525;    0.000
823.299;10862.875;  128.525;    0.000
823.486;10301.875;  138.525;    0.000
823.673; 9699.875;  125.525;    0.000
823.860; 9560.875;  138.525;    0.000
824.047; 9841.875;  122.525;    0.000
824.234;10658.875;  134.525;    0.000
824.421;10774.875;   95.525;    0.000
824.608; 9617.875;  151.525;    0.000
824.795; 8821.875;  117.525;    0.000
824.982; 8180.875;  143.525;    0.000
825.169; 7776.875;   83.525;    0.000
825.356; 7490.875;  126.525;    0.000
825.543; 7184.875;   92.525;    0.000
825.730; 6704.875;  113.525;    0.000
825.917; 6641.875;  142.525;    0.000
826.104; 6469.875;  182.525;    0.000
826.290; 6326.875;  137.525;    0.000
826.477; 5953.875;  126.525;    0.000
826.664; 5933.875;  135.525;    0.000
826.851; 5724.875;  139.525;    0.000
827.038; 5686.875;  135.525;    0.000
827.224; 5658.875;  143.525;    0.000
827.411; 5528.875;  153.525;    0.000
827.598; 5334.875;  122.525;    0.000
827.784; 5373.875;  138.525;    0.000
827.971; 5256.875;  134.525;    0.000
828.157; 5130.875;  152.525;    0.000
828.344; 5075.875;  135.525;    0.000
828.531; 4976.875;  137.525;    0.000
828.717; 4898.875;  117.525;    0.000
828.904; 4785.875;  127.525;    0.000
829.090; 4744.875;  172.525;    0.000
829.277; 4671.875;  144.525;    0.000
829.463; 4801.875;  159.525;    0.000
829.650; 4642.875;  187.525;    0.000
829.836; 4742.875;  138.525;    0.000
830.022; 4601.875;  196.525;    0.000
830.209; 4491.875;  118.525;    0.000
830.395; 4392.875;  148.525;    0.000
830.581; 4414.875;  108.525;    0.000
830.768; 4390.875;  137.525;    0.000
830.954; 4316.875;  162.525;    0.000
831.140; 4409.875;  117.525;    0.000
831.327; 4261.875;  176.525;    0.000
831.513; 4306.875;  162.525;    0.000
831.699; 4350.875;  157.525;    0.000
831.885; 4189.875;  153.525;    0.000
832.071; 4202.875;  123.525;    0.000
832.257; 4126.875;  142.525;    0.000
832.444; 4144.875;  165.525;    0.000
832.630; 4118.875;  159.525;    0.000
832.816; 4054.875;  145.525;    0.000
833.002; 4128.875;  120.525;    0.000
833.188; 4094.875;  145.525;    0.000
833.374; 3999.875;  137.525;    0.000
833.560; 3982.875;  152.525;    0.000
833.746; 4148.875;  139.525;    0.000
833.932; 3983.875;  170.525;    0.000
834.118; 3814.875;  111.525;    0.000
834.303; 3843.875;  141.525;    0.000
834.489; 3884.875;  146.525;    0.000
834.675; 4021.875;  156.525;    0.000
834.861; 3747.875;   87.525;    0.000
835.047; 3822.875;  134.525;    0.000
835.233; 3773.875;   89.525;    0.000
835.418; 3905.875;  145.525;    0.000
835.604; 3840.875;  136.525;    0.000
835.790; 3757.875;  132.525;    0.000
835.976; 3830.875;  161.525;    0.000
836.161; 3766.875;  157.525;    0.000
836.347; 3734.875;  147.525;    0.000
836.533; 3719.875;  116.525;    0.000
836.718; 3810.875;  168.525;    0.000
836.904; 3730.875;  199.525;    0.000
837.089; 3698.875;  165.525;    0.000
837.275; 3642.875;  166.525;    0.000
837.460; 3707.875;  144.525;    0.000
837.646; 3812.875;  164.525;    0.000
837.831; 3688.875;  122.525;    0.000
838.017; 3778.875;  163.525;    0.000
838.202; 3650.875;  139.525;    0.000
838.388; 3733.875;  174.525;    0.000
838.573; 3893.875;  140.525;    0.000
838.759; 3833.875;  167.525;    0.000
838.944; 3734.875;  142.525;    0.000
839.129; 3692.875;  164.525;    0.000
839.315; 3726.875;  129.525;    0.000
839.500; 3788.875;  150.525;    0.000
839.685; 3692.875;  118.525;    0.000
839.870; 3742.875;  177.525;    0.000
840.056; 3697.875;  144.525;    0.000
840.241; 3784.875;  121.525;    0.000
840.426; 3729.875;  131.525;    0.000
840.611; 3871.875;  177.525;    0.000
840.796; 3846.875;  173.525;    0.000
840.981; 3998.875;  156.525;    0.000
841.166; 3883.875;  145.525;    0.000
841.352; 3946.875;  150.525;    0.000
841.537; 4047.875;  143.525;    0.000
841.722; 3936.875;  165.525;    0.000
841.907; 4116.875;  184.525;    0.000
842.092; 4063.875;  171.525;    0.000
842.277; 4232.875;  155.525;    0.000
842.461; 4235.875;  152.525;    0.000
842.646; 4253.875;  107.525;    0.000
842.831; 4405.875;  160.525;    0.000
843.016; 4477.875;  160.525;    0.000
843.201; 4607.875;  164.525;    0.000
843.386; 4741.875;  134.525;    0.000
843.571; 5016.875;  132.525;    0.000
843.755; 5302.875;  158.525;    0.000
843.940; 5802.875;  152.525;    0.000
844.125; 6351.875;  154.525;    0.000
844.310; 7314.875;  147.525;    0.000
844.494; 9705.875;  158.525;    0.000
844.679;13512.875;  173.525;    0.000
844.864;13196.875;  152.525;    0.000
845.048;10717.875;  139.525;    0.000
845.233; 9126.875;  200.525;    0.000
845.418; 7830.875;  139.525;    0.000
845.602; 7075.875;  147.525;    0.000
845.787; 6417.875;  148.525;    0.000
845.971; 5956.875;  170.525;    0.000
846.156; 5610.875;  136.525;    0.000
846.340; 5334.875;  146.525;    0.000
846.525; 5093.875;  188.525;    0.000
846.709; 4864.875;  128.525;    0.000
846.893; 4659.875;  151.525;    0.000
847.078; 4572.875;  164.525;    0.000
847.262; 4380.875;  155.525;    0.000
847.447; 4238.875;  114.525;    0.000
847.631; 4207.875;  148.525;    0.000
847.815; 4147.875;  114.525;    0.000
848.000; 3905.875;  134.525;    0.000
848.184; 3893.875;  154.525;    0.000
848.368; 3878.875;  145.525;    0.000
848.552; 3889.875;  122.525;    0.000
848.736; 3785.875;  139.525;    0.000
848.921; 3696.875;  143.525;    0.000
849.105; 3650.875;  145.525;    0.000
849.289; 3696.875;  173.525;    0.000
849.473; 3516.875;  147.525;    0.000
849.657; 3628.875;  144.525;    0.000
849.841; 3585.875;  168.525;    0.000
850.025; 3532.875;  205.525;    0.000
850.209; 3483.875;  171.525;    0.000
850.393; 3473.875;  130.525;    0.000
850.577; 3435.875;  146.525;    0.000
850.761; 3464.875;  188.525;    0.000
850.945; 3407.875;  137.525;    0.000
851.129; 3363.875;  192.525;    0.000
851.313; 3366.875;  199.525;    0.000
851.497; 3283.875;  165.525;    0.000
851.680; 3353.875;  196.525;    0.000
851.864; 3333.875;  169.525;    0.000
852.048; 3413.875;  156.525;    0.000
852.232; 3244.875;  150.525;    0.000
852.416; 3363.875;  219.525;    0.000
852.599; 3342.875;  168.525;    0.000
852.783; 3242.875;  165.525;    0.000
852.967; 3248.875;  166.525;    0.000
853.150; 3297.875;  191.525;    0.000
853.334; 3259.875;  158.525;    0.000
853.518; 3326.875;  168.525;    0.000
853.701; 3196.875;  125.525;    0.000
853.885; 3255.875;  165.525;    0.000
854.068; 3254.875;  142.525;    0.000
854.252; 3293.875;  167.525;    0.000
854.435; 3230.875;  146.525;    0.000
854.619; 3201.875;  163.525;    0.000
854.802; 3249.875;  167.525;    0.000
854.986; 3200.875;  163.525;    0.000
855.169; 3262.875;  146.525;    0.000
855.353; 3268.875;  183.525;    0.000
855.536; 3114.875;  140.525;    0.000
855.719; 3328.875;  168.525;    0.000
855.903; 3213.875;  170.525;    0.000
856.086; 3316.875;  145.525;    0.000
856.269; 3199.875;  126.525;    0.000
856.452; 3352.875;  142.525;    0.000
856.636; 3425.875;  140.525;    0.000
856.819; 3700.875;  127.525;    0.000
857.002; 3749.875;  165.525;    0.000
857.185; 3709.875;  111.525;    0.000
857.368; 3591.875;  143.525;    0.000
857.552; 3424.875;  174.525;    0.000
857.735; 3595.875;  194.525;    0.000
857.918; 3454.875;  171.525;    0.000
858.101; 3342.875;  142.525;    0.000
858.284; 3519.875;  118.525;    0.000
858.467; 3483.875;  163.525;    0.000
858.650; 3629.875;  149.525;    0.000
858.833; 3626.875;  120.525;    0.000
859.016; 3772.875;  169.525;    0.000
859.199; 3797.875;  121.525;    0.000
859.382; 4283.875;  184.525;    0.000
859.564; 4448.875;  139.525;    0.000
859.747; 4580.875;  126.525;    0.000
859.930; 4239.875;  109.525;    0.000
860.113; 4172.875;  137.525;    0.000
860.296; 4105.875;  182.525;    0.000
860.478; 3939.875;  136.525;    0.000
860.661; 3887.875;  157.525;    0.000
860.844; 3813.875;  129.525;    0.000
861.027; 3887.875;  163.525;    0.000
861.209; 3850.875;  151.525;    0.000
861.392; 3833.875;  124.525;    0.000
861.575; 3719.875;  163.525;    0.000
861.757; 3876.875;  205.525;    0.000
861.940; 3907.875;  180.525;    0.000
862.122; 3952.875;  148.525;    0.000
862.305; 4170.875;  128.525;    0.000
862.487; 4227.875;  172.525;    0.000
862.670; 4561.875;  123.525;    0.000
862.852; 5335.875;  126.525;    0.000
863.035; 6273.875;  174.525;    0.000
863.217; 6398.875;  160.525;    0.000
863.400; 5627.875;  164.525;    0.000
863.582; 5318.875;  118.525;    0.000
863.764; 5043.875;  143.525;    0.000
863.947; 4942.875;  137.525;    0.000
864.129; 4690.875;  166.525;    0.000
864.311; 4695.875;  128.525;    0.000
864.493; 4538.875;  153.525;    0.000
864.676; 4361.875;  156.525;    0.000
864.858; 4450.875;  159.525;    0.000
865.040; 4366.875;  163.525;    0.000
865.222; 4395.875;  138.525;    0.000
865.404; 4450.875;  157.525;    0.000
865.587; 4726.875;  184.525;    0.000
865.769; 5108.875;  178.525;    0.000
865.951; 4864.875;  104.525;    0.000
866.133; 4877.875;  147.525;    0.000
866.315; 4864.875;  141.525;    0.000
866.497; 4890.875;  132.525;    0.000
866.679; 4995.875;  139.525;    0.000
866.861; 5139.875;  118.525;    0.000
867.043; 5476.875;  154.525;    0.000
867.225; 5829.875;  147.525;    0.000
867.407; 6310.875;  158.525;    0.000
867.589; 7013.875;  172.525;    0.000
867.770; 8583.875;  159.525;    0.000
867.952;11891.875;  149.525;    0.000
868.134;15350.875;  156.525;    0.000
868.316;15202.875;  171.525;    0.000
868.498;14698.875;  200.525;    0.000
868.679;12757.875;  174.525;    0.000
868.861;10827.875;  175.525;    0.000
869.043; 9222.875;  174.525;    0.000
869.224; 8100.875;  122.525;    0.000
869.406; 7298.875;  166.525;    0.000
869.588; 6886.875;  143.525;    0.000
869.769; 6505.875;  152.525;    0.000
869.951; 6428.875;  165.525;    0.000
870.132; 6417.875;  115.525;    0.000
870.314; 7058.875;  139.525;    0.000
870.495; 7388.875;  168.525;    0.000
870.677; 6632.875;  188.525;    0.000
870.858; 6353.875;  123.525;    0.000
871.040; 6668.875;  170.525;    0.000
871.221; 7476.875;  148.525;    0.000
871.403; 7015.875;  140.525;    0.000
871.584; 6619.875;  174.525;    0.000
871.765; 6556.875;  168.525;    0.000
871.947; 7023.875;  191.525;    0.000
872.128; 6449.875;  132.525;    0.000
872.309; 5563.875;  140.525;    0.000
872.491; 5279.875;  157.525;    0.000
872.672; 4893.875;  130.525;    0.000
872.853; 4755.875;  148.525;    0.000
873.034; 4594.875;  138.525;    0.000
873.215; 4327.875;  152.525;    0.000
873.396; 4155.875;  149.525;    0.000
873.578; 3930.875;  173.525;    0.000
873.759; 3787.875;  158.525;    0.000
873.940; 3756.875;  147.525;    0.000
874.121; 3657.875;  136.525;    0.000
874.302; 3581.875;  151.525;    0.000
874.483; 3550.875;  137.525;    0.000
874.664; 3455.875;  163.525;    0.000
874.845; 3541.875;  124.525;    0.000
875.026; 3526.875;  134.525;    0.000
875.207; 3358.875;  164.525;    0.000
875.388; 3312.875;  163.525;    0.000
875.568; 3285.875;  176.525;    0.000
875.749; 3110.875;  108.525;    0.000
875.930; 3146.875;  191.525;    0.000
876.111; 3100.875;  170.525;    0.000
876.292; 3089.875;  180.525;    0.000
876.472; 2974.875;  150.525;    0.000
876.653; 3058.875;  162.525;    0.000
876.834; 3054.875;  176.525;    0.000
877.015; 2947.875;  203.525;    0.000
877.195; 2932.875;  178.525;    0.000
877.376; 2942.875;  141.525;    0.000
877.556; 2914.875;  135.525;    0.000
877.737; 2842.875;  174.525;    0.000
877.918; 2845.875;  150.525;    0.000
878.098; 2813.875;  133.525;    0.000
878.279; 2888.875;  129.525;    0.000
878.459; 2756.875;  162.525;    0.000
878.640; 2828.875;  187.525;    0.000
878.820; 2850.875;  151.525;    0.000
879.000; 2766.875;  159.525;    0.000
879.181; 2711.875;  171.525;    0.000
879.361; 2867.875;  167.525;    0.000
879.542; 2841.875;  126.525;    0.000
879.722; 2818.875;  152.525;    0.000
879.902; 2828.875;  144.525;    0.000
880.083; 2711.875;  154.525;    0.000
880.263; 2797.875;  148.525;    0.000
880.443; 2854.875;  185.525;    0.000
880.623; 3332.875;  172.525;    0.000
880.803; 3589.875;  152.525;    0.000
880.984; 3219.875;  165.525;    0.000
881.164; 3104.875;  164.525;    0.000
881.344; 2946.875;  141.525;    0.000
881.524; 2939.875;  160.525;    0.000
881.704; 2968.875;  164.525;    0.000
881.884; 3065.875;  159.525;    0.000
882.064; 3241.875;  158.525;    0.000
882.244; 3244.875;  147.525;    0.000
882.424; 3047.875;  160.525;    0.000
882.604; 3043.875;  150.525;    0.000
882.784; 2896.875;  138.525;    0.000
882.964; 2976.875;  157.525;    0.000
883.144; 2701.875;  128.525;    0.000
883.324; 2787.875;  220.525;    0.000
883.504; 2821.875;  177.525;    0.000
883.683; 2719.875;  159.525;    0.000
883.863; 2641.875;  143.525;    0.000
884.043; 2608.875;  156.525;    0.000
884.223; 2709.875;  152.525;    0.000
884.402; 2564.875;  169.525;    0.000
884.582; 2529.875;  162.525;    0.000
884.762; 2538.875;  172.525;    0.000
884.941; 2595.875;  220.525;    0.000
885.121; 2538.875;  128.525;    0.000
885.301; 2577.875;  141.525;    0.000
885.480; 2550.875;  141.525;    0.000
885.660; 2470.875;  132.525;    0.000
885.839; 2473.875;  146.525;    0.000
886.019; 2572.875;  170.525;    0.000
886.198; 2458.875;  143.525;    0.000
886.378; 2404.875;  159.525;    0.000
886.557; 2484.875;  148.525;    0.000
886.737; 2450.875;  125.525;    0.000
886.916; 2477.875;  177.525;    0.000
887.095; 2552.875;  186.525;    0.000
887.275; 2425.875;  134.525;    0.000
887.454; 2423.875;  148.525;    0.000
887.633; 2356.875;  171.525;    0.000
887.813; 2396.875;  187.525;    0.000
887.992; 2443.875;  157.525;    0.000
888.171; 2420.875;  143.525;    0.000
888.350; 2383.875;  182.525;    0.000
888.530; 2355.875;  142.525;    0.000
888.709; 2377.875;  160.525;    0.000
888.888; 2297.875;  197.525;    0.000
889.067; 2349.875;  126.525;    0.000
889.246; 2357.875;  197.525;    0.000
889.425; 2395.875;  161.525;    0.000
889.604; 2422.875;  180.525;    0.000
889.783; 2414.875;  135.525;    0.000
889.962; 2360.875;  107.525;    0.000
890.141; 2378.875;  167.525;    0.000
890.320; 2407.875;  149.525;    0.000
890.499; 2406.875;  194.525;    0.000
890.678; 2290.875;  138.525;    0.000
890.857; 2359.875;  146.525;    0.000
891.036; 2438.875;  178.525;    0.000
891.214; 2445.875;  151.525;    0.000
891.393; 2356.875;  137.525;    0.000
891.572; 2346.875;  177.525;    0.000
891.751; 2359.875;  149.525;    0.000
891.930; 2374.875;  189.525;    0.000
892.108; 2370.875;  136.525;    0.000
892.287; 2349.875;  129.525;    0.000
892.466; 2386.875;  163.525;    0.000
892.644; 2379.875;  147.525;    0.000
892.823; 2356.875;  127.525;    0.000
893.001; 2232.875;  192.525;    0.000
893.180; 2346.875;  157.525;    0.000
893.359; 2316.875;  176.525;    0.000
893.537; 2285.875;  146.525;    0.000
893.716; 2281.875;  154.525;    0.000
893.894; 2357.875;  166.525;    0.000
894.073; 2350.875;  163.525;    0.000
894.251; 2331.875;  166.525;    0.000
894.429; 2268.875;  149.525;    0.000
894.608; 2334.875;  141.525;    0.000
894.786; 2386.875;  139.525;    0.000
894.964; 2422.875;  180.525;    0.000
895.143; 2297.875;  193.525;    0.000
895.321; 2365.875;  163.525;    0.000
895.499; 2302.875;  163.525;    0.000
895.677; 2408.875;  194.525;    0.000
895.856; 2368.875;  176.525;    0.000
896.034; 2330.875;  173.525;    0.000
896.212; 2380.875;  180.525;    0.000
896.390; 2362.875;  146.525;    0.000
896.568; 2415.875;  167.525;    0.000
896.746; 2435.875;  158.525;    0.000
896.924; 2432.875;  163.525;    0.000
897.102; 2411.875;  170.525;    0.000
897.280; 2382.875;  159.525;    0.000
897.458; 2387.875;  182.525;    0.000
897.636; 2417.875;  151.525;    0.000
897.814; 2383.875;  130.525;    0.000
897.992; 2333.875;  213.525;    0.000
898.170; 2340.875;  164.525;    0.000
898.348; 2435.875;  159.525;    0.000
898.526; 2430.875;  182.525;    0.000
898.704; 2463.875;  209.525;    0.000
898.882; 2368.875;  145.525;    0.000
899.059; 2421.875;  172.525;    0.000
899.237; 2469.875;  172.525;    0.000
899.415; 2402.875;  211.525;    0.000
899.593; 2419.875;  151.525;    0.000
899.770; 2467.875;  147.525;    0.000
899.948; 2538.875;  218.525;    0.000
900.125; 2506.875;  166.525;    0.000
900.303; 2504.875;  146.525;    0.000
900.481; 2459.875;  174.525;    0.000
900.658; 2537.875;  198.525;    0.000
900.836; 2564.875;  125.525;    0.000
901.013; 2522.875;  197.525;    0.000
901.191; 2579.875;  181.525;    0.000
901.368; 2605.875;  185.525;    0.000
901.546; 2636.875;  197.525;    0.000
901.723; 2659.875;  205.525;    0.000
901.901; 2688.875;  187.525;    0.000
902.078; 2783.875;  163.525;    0.000
902.255; 2846.875;  141.525;    0.000
902.433; 2765.875;  183.525;    0.000
902.610; 2861.875;  181.525;    0.000
902.787; 2821.875;  174.525;    0.000
902.964; 2909.875;  174.525;    0.000
903.142; 2980.875;  141.525;    0.000
903.319; 2984.875;  214.525;    0.000
903.496; 2980.875;  187.525;    0.000
903.673; 3136.875;  183.525;    0.000
903.850; 3054.875;  125.525;    0.000
904.027; 3227.875;  197.525;    0.000
904.204; 3505.875;  197.525;    0.000
904.381; 3751.875;  196.525;    0.000
904.558; 4185.875;  176.525;    0.000
904.735; 4738.875;  179.525;    0.000
904.912; 4731.875;  203.525;    0.000
905.089; 4828.875;  159.525;    0.000
905.266; 4455.875;  176.525;    0.000
905.443; 4084.875;  184.525;    0.000
905.620; 3770.875;  168.525;    0.000
905.797; 3727.875;  214.525;    0.000
905.974; 3601.875;  154.525;    0.000
906.151; 3543.875;  132.525;    0.000
906.327; 3555.875;  192.525;    0.000
906.504; 3400.875;  186.525;    0.000
906.681; 3309.875;  171.525;    0.000
906.858; 3222.875;  181.525;    0.000
907.034; 3139.875;  164.525;    0.000
907.211; 3011.875;  184.525;    0.000
907.388; 3071.875;  177.525;    0.000
907.564; 3062.875;  150.525;    0.000
907.741; 2892.875;  195.525;    0.000
907.917; 2813.875;  190.525;    0.000
908.094; 2879.875;  214.525;    0.000
908.271; 2823.875;  173.525;    0.000
908.447; 2736.875;  229.525;    0.000
908.623; 2737.875;  162.525;    0.000
908.800; 2742.875;  195.525;    0.000
908.976; 2691.875;  171.525;    0.000
909.153; 2675.875;  167.525;    0.000
909.329; 2673.875;  227.525;    0.000
909.505; 2628.875;  167.525;    0.000
909.682; 2646.875;  174.525;    0.000
909.858; 2523.875;  158.525;    0.000
910.034; 2619.875;  188.525;    0.000
910.211; 2562.875;  158.525;    0.000
910.387; 2643.875;  208.525;    0.000
910.563; 2524.875;  203.525;    0.000
910.739; 2495.875;  201.525;    0.000
910.915; 2509.875;  170.525;    0.000
911.091; 2544.875;  171.525;    0.000
911.268; 2471.875;  220.525;    0.000
911.444; 2475.875;  202.525;    0.000
911.620; 2489.875;  175.525;    0.000
911.796; 2456.875;  175.525;    0.000
911.972; 2519.875;  164.525;    0.000
912.148; 2505.875;  174.525;    0.000
912.324; 2483.875;  155.525;    0.000
912.500; 2488.875;  156.525;    0.000
912.676; 2431.875;  138.525;    0.000
912.851; 2541.875;  158.525;    0.000
913.027; 2520.875;  161.525;    0.000
913.203; 2541.875;  168.525;    0.000
913.379; 2437.875;  172.525;    0.000
913.555; 2495.875;  193.525;    0.000
913.730; 2444.875;  149.525;    0.000
913.906; 2517.875;  159.525;    0.000
914.082; 2450.875;  184.525;    0.000
914.258; 2482.875;  194.525;    0.000
914.433; 2473.875;  175.525;    0.000
914.609; 2423.875;  175.525;    0.000
914.784; 2456.875;  170.525;    0.000
914.960; 2514.875;  212.525;    0.000
915.136; 2430.875;  157.525;    0.000
915.311; 2520.875;  204.525;    0.000
915.487; 2551.875;  180.525;    0.000
915.662; 2537.875;  203.525;    0.000
915.838; 2430.875;  194.525;    0.000
916.013; 2526.875;  217.525;    0.000
916.189; 2481.875;  196.525;    0.000
916.364; 2477.875;  236.525;    0.000
916.539; 2412.875;  192.525;    0.000
916.715; 2556.875;  181.525;    0.000
916.890; 2562.875;  185.525;    0.000
917.065; 2436.875;  166.525;    0.000
917.240; 2398.875;  182.525;    0.000
917.416; 2565.875;  188.525;    0.000
917.591; 2495.875;  185.525;    0.000
917.766; 2562.875;  187.525;    0.000
917.941; 2483.875;  181.525;    0.000
918.116; 2456.875;  207.525;    0.000
918.292; 2462.875;  140.525;    0.000
918.467; 2487.875;  187.525;    0.000
918.642; 2536.875;  208.525;    0.000
918.817; 2429.875;  203.525;    0.000
918.992; 2479.875;  162.525;    0.000
919.167; 2462.875;  206.525;    0.000
919.342; 2483.875;  188.525;    0.000
919.517; 2553.875;  190.525;    0.000
919.692; 2556.875;  174.525;    0.000
919.867; 2515.875;  181.525;    0.000
920.041; 2574.875;  179.525;    0.000
920.216; 2621.875;  186.525;    0.000
920.391; 2664.875;  209.525;    0.000
920.566; 2755.875;  205.525;    0.000
920.741; 2721.875;  205.525;    0.000
920.915; 2830.875;  206.525;    0.000
921.090; 2992.875;  219.525;    0.000
921.265; 3321.875;  185.525;    0.000
921.439; 3697.875;  171.525;    0.000
921.614; 3354.875;  197.525;    0.000
921.789; 3236.875;  189.525;    0.000
921.963; 3169.875;  210.525;    0.000
922.138; 2962.875;  171.525;    0.000
922.312; 2954.875;  194.525;    0.000
922.487; 2942.875;  231.525;    0.000
922.661; 3029.875;  179.525;    0.000
922.836; 3302.875;  213.525;    0.000
923.010; 3412.875;  182.525;    0.000
923.185; 3240.875;  239.525;    0.000
923.359; 3068.875;  200.525;    0.000
923.534; 3028.875;  232.525;    0.000
923.708; 3170.875;  221.525;    0.000
923.882; 3297.875;  193.525;    0.000
924.057; 3259.875;  204.525;    0.000
924.231; 3021.875;  172.525;    0.000
924.405; 3035.875;  202.525;    0.000
924.579; 3038.875;  207.525;    0.000
924.753; 2988.875;  167.525;    0.000
924.928; 2869.875;  202.525;    0.000
925.102; 2910.875;  200.525;    0.000
925.276; 2941.875;  185.525;    0.000
925.450; 2988.875;  170.525;    0.000
925.624; 3087.875;  176.525;    0.000
925.798; 3106.875;  221.525;    0.000
925.972; 3234.875;  162.525;    0.000
926.146; 3420.875;  207.525;    0.000
926.320; 3649.875;  185.525;    0.000
926.494; 4013.875;  192.525;    0.000
926.668; 4138.875;  179.525;    0.000
926.842; 4328.875;  181.525;    0.000
927.016; 4251.875;  224.525;    0.000
927.190; 4204.875;  193.525;    0.000
927.363; 4086.875;  194.525;    0.000
927.537; 4048.875;  210.525;    0.000
927.711; 3811.875;  153.525;    0.000
927.885; 3721.875;  184.525;    0.000
928.058; 3645.875;  197.525;    0.000
928.232; 3584.875;  219.525;    0.000
928.406; 3563.875;  175.525;    0.000
928.579; 3395.875;  179.525;    0.000
928.753; 3364.875;  208.525;    0.000
928.927; 3278.875;  163.525;    0.000
929.100; 3363.875;  138.525;    0.000
929.274; 3215.875;  160.525;    0.000
929.447; 3227.875;  152.525;    0.000
929.621; 3173.875;  168.525;    0.000
929.794; 3028.875;  152.525;    0.000
929.968; 3037.875;  163.525;    0.000
930.141; 3125.875;  164.525;    0.000
930.315; 2941.875;  170.525;    0.000
930.488; 2896.875;  216.525;    0.000
930.661; 2855.875;  184.525;    0.000
930.835; 2840.875;  156.525;    0.000
931.008; 2896.875;  206.525;    0.000
931.181; 2816.875;  163.525;    0.000
931.354; 2845.875;  198.525;    0.000
931.528; 2697.875;  156.525;    0.000
931.701; 2633.875;  170.525;    0.000
931.874; 2695.875;  167.525;    0.000
932.047; 2589.875;  146.525;    0.000
932.220; 2652.875;  159.525;    0.000
932.393; 2612.875;  186.525;    0.000
932.566; 2638.875;  147.525;    0.000
932.739; 2639.875;  192.525;    0.000
932.912; 2630.875;  197.525;    0.000
933.085; 2577.875;  176.525;    0.000
933.258; 2579.875;  171.525;    0.000
933.431; 2528.875;  150.525;    0.000
933.604; 2533.875;  176.525;    0.000
933.777; 2540.875;  215.525;    0.000
933.950; 2546.875;  164.525;    0.000
934.123; 2507.875;  174.525;    0.000
934.296; 2475.875;  203.525;    0.000
934.468; 2420.875;  208.525;    0.000
934.641; 2447.875;  182.525;    0.000
934.814; 2486.875;  170.525;    0.000
934.987; 2441.875;  183.525;    0.000
935.159; 2431.875;  154.525;    0.000
935.332; 2407.875;  178.525;    0.000
935.505; 2503.875;  213.525;    0.000
935.677; 2424.875;  173.525;    0.000
935.850; 2506.875;  190.525;    0.000
936.022; 2387.875;  205.525;    0.000
936.195; 2477.875;  201.525;    0.000
936.367; 2433.875;  189.525;    0.000
936.540; 2489.875;  179.525;    0.000
936.712; 2496.875;  195.525;    0.000
936.885; 2541.875;  207.525;    0.000
937.057; 2466.875;  163.525;    0.000
937.229; 2564.875;  175.525;    0.000
937.402; 2690.875;  168.525;    0.000
937.574; 2581.875;  136.525;    0.000
937.746; 2604.875;  166.525;    0.000
937.919; 2696.875;  178.525;    0.000
938.091; 2889.875;  192.525;    0.000
938.263; 3040.875;  164.525;    0.000
938.435; 3386.875;  204.525;    0.000
938.608; 3795.875;  153.525;    0.000
938.780; 4407.875;  159.525;    0.000
938.952; 4522.875;  160.525;    0.000
939.124; 4627.875;  156.525;    0.000
939.296; 5228.875;  110.525;    0.000
939.468; 5333.875;  135.525;    0.000
939.640; 4711.875;  144.525;    0.000
939.812; 4214.875;  232.525;    0.000
939.984; 3875.875;  128.525;    0.000
940.156; 3625.875;  195.525;    0.000
940.328; 3504.875;  226.525;    0.000
940.500; 3223.875;  146.525;    0.000
940.672; 3158.875;  190.525;    0.000
940.843; 2977.875;  156.525;    0.000
941.015; 3038.875;  200.525;    0.000
941.187; 2785.875;  159.525;    0.000
941.359; 2861.875;  183.525;    0.000
941.531; 2654.875;  137.525;    0.000
941.702; 2636.875;  186.525;    0.000
941.874; 2658.875;  164.525;    0.000
942.046; 2578.875;  202.525;    0.000
942.217; 2480.875;  146.525;    0.000
942.389; 2528.875;  165.525;    0.000
942.560; 2465.875;  191.525;    0.000
942.732; 2394.875;  240.525;    0.000
942.904; 2454.875;  173.525;    0.000
943.075; 2329.875;  157.525;    0.000
943.247; 2413.875;  155.525;    0.000
943.418; 2318.875;  164.525;    0.000
943.589; 2316.875;  150.525;    0.000
943.761; 2276.875;  143.525;    0.000
943.932; 2296.875;  151.525;    0.000
944.104; 2268.875;  194.525;    0.000
944.275; 2218.875;  154.525;    0.000
944.446; 2225.875;  169.525;    0.000
944.617; 2171.875;  138.525;    0.000
944.789; 2139.875;  158.525;    0.000
944.960; 2177.875;  197.525;    0.000
945.131; 2166.875;  139.525;    0.000
945.302; 2262.875;  169.525;    0.000
945.473; 2135.875;  149.525;    0.000
945.645; 2161.875;  171.525;    0.000
945.816; 2270.875;  167.525;    0.000
945.987; 2222.875;  156.525;    0.000
946.158; 2240.875;  185.525;    0.000
946.329; 2325.875;  201.525;    0.000
946.500; 2276.875;  182.525;    0.000
946.671; 2160.875;  156.525;    0.000
946.842; 2146.875;  190.525;    0.000
947.013; 2149.875;  159.525;    0.000
947.183; 2166.875;  209.525;    0.000
947.354; 2035.875;  171.525;    0.000
947.525; 2035.875;  180.525;    0.000
947.696; 2044.875;  163.525;    0.000
947.867; 2114.875;  168.525;    0.000
948.037; 2032.875;  153.525;    0.000
948.208; 2067.875;  178.525;    0.000
948.379; 2157.875;  192.525;    0.000
948.550; 2035.875;  180.525;    0.000
948.720; 2110.875;  196.525;    0.000
948.891; 2135.875;  173.525;    0.000
949.061; 2079.875;  207.525;    0.000
949.232; 1980.875;  176.525;    0.000
949.403; 2017.875;  152.525;    0.000
949.573; 2078.875;  186.525;    0.000
949.744; 1951.875;  181.525;    0.000
949.914; 2023.875;  174.525;    0.000
950.085; 1977.875;  146.525;    0.000
950.255; 2052.875;  162.525;    0.000
950.425; 1966.875;  189.525;    0.000
950.596; 1997.875;  175.525;    0.000
950.766; 2023.875;  209.525;    0.000
950.936; 2012.875;  201.525;    0.000
951.107; 1915.875;  141.525;    0.000
951.277; 2016.875;  211.525;    0.000
951.447; 2000.875;  218.525;    0.000
951.617; 1971.875;  191.525;    0.000
951.788; 1905.875;  193.525;    0.000
951.958; 2013.875;  217.525;    0.000
952.128; 1961.875;  192.525;    0.000
952.298; 1949.875;  237.525;    0.000
952.468; 2007.875;  194.525;    0.000
952.638; 1932.875;  201.525;    0.000
952.808; 1946.875;  203.525;    0.000
952.978; 1864.875;  216.525;    0.000
953.148; 1964.875;  209.525;    0.000
953.318; 1935.875;  213.525;    0.000
953.488; 1777.875;  161.525;    0.000
953.658; 1872.875;  222.525;    0.000
953.828; 1933.875;  196.525;    0.000
953.998; 1825.875;  227.525;    0.000
954.167; 1879.875;  163.525;    0.000
954.337; 1838.875;  201.525;    0.000
954.507; 1901.875;  227.525;    0.000
954.677; 1780.875;  204.525;    0.000
954.846; 1892.875;  210.525;    0.000
955.016; 1773.875;  198.525;    0.000
955.186; 1782.875;  203.525;    0.000
955.355; 1866.875;  198.525;    0.000
955.525; 1783.875;  198.525;    0.000
955.695; 1795.875;  187.525;    0.000
955.864; 1824.875;  243.525;    0.000
956.034; 1806.875;  192.525;    0.000
956.203; 1884.875;  259.525;    0.000
956.373; 1819.875;  185.525;    0.000
956.542; 1805.875;  230.525;    0.000
956.711; 1809.875;  218.525;    0.000
956.881; 1802.875;  232.525;    0.000
957.050; 1855.875;  246.525;    0.000
957.220; 1783.875;  229.525;    0.000
957.389; 1810.875;  211.525;    0.000
957.558; 1728.875;  173.525;    0.000
957.727; 1774.875;  226.525;    0.000
957.897; 1737.875;  209.525;    0.000
958.066; 1681.875;  217.525;    0.000
958.235; 1702.875;  160.525;    0.000
958.404; 1709.875;  199.525;    0.000
958.573; 1716.875;  223.525;    0.000
958.743; 1746.875;  189.525;    0.000
958.912; 1744.875;  199.525;    0.000
959.081; 1724.875;  216.525;    0.000
959.250; 1660.875;  192.525;    0.000
959.419; 1675.875;  216.525;    0.000
959.588; 1764.875;  209.525;    0.000
959.757; 1699.875;  194.525;    0.000
959.926; 1669.875;  200.525;    0.000
960.094; 1709.875;  174.525;    0.000
960.263; 1713.875;  218.525;    0.000
960.432; 1719.875;  173.525;    0.000
960.601; 1603.875;  177.525;    0.000
960.770; 1596.875;  188.525;    0.000
960.939; 1664.875;  167.525;    0.000
961.107; 1618.875;  195.525;    0.000
961.276; 1633.875;  183.525;    0.000
961.445; 1639.875;  195.525;    0.000
961.613; 1617.875;  198.525;    0.000
961.782; 1615.875;  224.525;    0.000
961.951; 1694.875;  178.525;    0.000
962.119; 1690.875;  214.525;    0.000
962.288; 1615.875;  174.525;    0.000
962.456; 1634.875;  197.525;    0.000
962.625; 1687.875;  212.525;    0.000
962.793; 1626.875;  183.525;    0.000
962.962; 1656.875;  189.525;    0.000
963.130; 1565.875;  151.525;    0.000
963.298; 1698.875;  197.525;    0.000
963.467; 1601.875;  202.525;    0.000
963.635; 1664.875;  172.525;    0.000
963.803; 1607.875;  203.525;    0.000
963.972; 1636.875;  204.525;    0.000
964.140; 1600.875;  193.525;    0.000
964.308; 1604.875;  159.525;    0.000
964.477; 1611.875;  142.525;    0.000
964.645; 1653.875;  202.525;    0.000
964.813; 1611.875;  158.525;    0.000
964.981; 1639.875;  179.525;    0.000
965.149; 1689.875;  176.525;    0.000
965.317; 1605.875;  229.525;    0.000
965.485; 1648.875;  179.525;    0.000
965.653; 1631.875;  205.525;    0.000
965.821; 1597.875;  196.525;    0.000
965.989; 1634.875;  202.525;    0.000
966.157; 1602.875;  199.525;    0.000
966.325; 1631.875;  178.525;    0.000
966.493; 1615.875;  177.525;    0.000
966.661; 1604.875;  172.525;    0.000
966.829; 1568.875;  167.525;    0.000
966.996; 1566.875;  202.525;    0.000
967.164; 1639.875;  175.525;    0.000
967.332; 1619.875;  207.525;    0.000
967.500; 1559.875;  170.525;    0.000
967.667; 1639.875;  222.525;    0.000
967.835; 1618.875;  245.525;    0.000
968.003; 1597.875;  180.525;    0.000
968.170; 1625.875;  222.525;    0.000
968.338; 1611.875;  183.525;    0.000
968.505; 1701.875;  197.525;    0.000
968.673; 1666.875;  209.525;    0.000
968.841; 1642.875;  162.525;    0.000
969.008; 1704.875;  187.525;    0.000
969.175; 1565.875;  204.525;    0.000
969.343; 1640.875;  157.525;    0.000
969.510; 1710.875;  189.525;    0.000
969.678; 1632.875;  153.525;    0.000
969.845; 1651.875;  190.525;    0.000
970.012; 1548.875;  162.525;    0.000
970.180; 1671.875;  223.525;    0.000
970.347; 1684.875;  195.525;    0.000
970.514; 1637.875;  185.525;    0.000
970.681; 1567.875;  187.525;    0.000
970.849; 1525.875;  183.525;    0.000
971.016; 1481.875;  168.525;    0.000
971.183; 1547.875;  160.525;    0.000
971.350; 1618.875;  193.525;    0.000
971.517; 1611.875;  202.525;    0.000
971.684; 1624.875;  242.525;    0.000
971.851; 1596.875;  192.525;    0.000
972.018; 1679.875;  194.525;    0.000
972.185; 1606.875;  193.525;    0.000
972.352; 1589.875;  187.525;    0.000
972.519; 1631.875;  233.525;    0.000
972.686; 1559.875;  186.525;    0.000
972.853; 1609.875;  165.525;    0.000
973.020; 1564.875;  183.525;    0.000
973.186; 1596.875;  186.525;    0.000
973.353; 1643.875;  177.525;    0.000
973.520; 1597.875;  203.525;    0.000
973.687; 1584.875;  211.525;    0.000
973.853; 1585.875;  194.525;    0.000
974.020; 1541.875;  201.525;    0.000
974.187; 1607.875;  187.525;    0.000
974.353; 1626.875;  188.525;    0.000
974.520; 1587.875;  136.525;    0.000
974.687; 1618.875;  169.525;    0.000
974.853; 1586.875;  207.525;    0.000
975.020; 1549.875;  190.525;    0.000
975.186; 1568.875;  182.525;    0.000
975.353; 1541.875;  202.525;    0.000
975.519; 1588.875;  189.525;    0.000
975.685; 1454.875;  176.525;    0.000
975.852; 1544.875;  175.525;    0.000
976.018; 1579.875;  155.525;    0.000
976.184; 1530.875;  179.525;    0.000
976.351; 1587.875;  191.525;    0.000
976.517; 1538.875;  246.525;    0.000
976.683; 1557.875;  222.525;    0.000
976.849; 1601.875;  216.525;    0.000
977.016; 1484.875;  212.525;    0.000
977.182; 1459.875;  192.525;    0.000
977.348; 1478.875;  145.525;    0.000
977.514; 1496.875;  195.525;    0.000
977.680; 1582.875;  210.525;    0.000
977.846; 1509.875;  172.525;    0.000
978.012; 1469.875;  190.525;    0.000
978.178; 1548.875;  201.525;    0.000
978.344; 1491.875;  190.525;    0.000
978.510; 1514.875;  199.525;    0.000
978.676; 1512.875;  174.525;    0.000
978.842; 1472.875;  195.525;    0.000
979.008; 1509.875;  205.525;    0.000
979.174; 1499.875;  187.525;    0.000
979.340; 1528.875;  194.525;    0.000
979.505; 1491.875;  221.525;    0.000
979.671; 1521.875;  178.525;    0.000
979.837; 1538.875;  215.525;    0.000
980.003; 1493.875;  176.525;    0.000
980.168; 1599.875;  185.525;    0.000
980.334; 1501.875;  165.525;    0.000
980.499; 1572.875;  231.525;    0.000
980.665; 1500.875;  238.525;    0.000
980.831; 1596.875;  194.525;    0.000
980.996; 1517.875;  169.525;    0.000
981.162; 1594.875;  199.525;    0.000
981.327; 1463.875;  158.525;    0.000
981.493; 1521.875;  193.525;    0.000
981.658; 1539.875;  181.525;    0.000
981.823; 1548.875;  199.525;    0.000
981.989; 1532.875;  186.525;    0.000
982.154; 1565.875;  225.525;    0.000
982.319; 1598.875;  191.525;    0.000
982.485; 1541.875;  205.525;    0.000
982.650; 1569.875;  234.525;    0.000
982.815; 1513.875;  193.525;    0.000
982.980; 1570.875;  177.525;    0.000
983.146; 1564.875;  212.525;    0.000
983.311; 1520.875;  177.525;    0.000
983.476; 1552.875;  185.525;    0.000
983.641; 1468.875;  149.525;    0.000
983.806; 1488.875;  175.525;    0.000
983.971; 1545.875;  234.525;    0.000
984.136; 1543.875;  191.525;    0.000
984.301; 1505.875;  215.525;    0.000
984.466; 1523.875;  207.525;    0.000
984.631; 1567.875;  206.525;    0.000
984.796; 1528.875;  229.525;    0.000
984.961; 1509.875;  220.525;    0.000
985.126; 1614.875;  204.525;    0.000
985.291; 1559.875;  210.525;    0.000
985.455; 1485.875;  193.525;    0.000
985.620; 1451.875;  207.525;    0.000
985.785; 1528.875;  188.525;    0.000
985.950; 1488.875;  168.525;    0.000
986.114; 1547.875;  239.525;    0.000
986.279; 1562.875;  223.525;    0.000
986.444; 1561.875;  154.525;    0.000
986.608; 1629.875;  232.525;    0.000
986.773; 1539.875;  214.525;    0.000
986.937; 1603.875;  220.525;    0.000
987.102; 1604.875;  224.525;    0.000
987.266; 1606.875;  157.525;    0.000
987.431; 1578.875;  246.525;    0.000
987.595; 1591.875;  203.525;    0.000
987.760; 1569.875;  202.525;    0.000
987.924; 1595.875;  208.525;    0.000
988.088; 1496.875;  169.525;    0.000
988.253; 1562.875;  237.525;    0.000
988.417; 1639.875;  202.525;    0.000
988.581; 1564.875;  215.525;    0.000
988.746; 1511.875;  210.525;    0.000
988.910; 1561.875;  191.525;    0.000
989.074; 1494.875;  197.525;    0.000
989.238; 1559.875;  191.525;    0.000
989.402; 1593.875;  222.525;    0.000
989.566; 1535.875;  221.525;    0.000
989.731; 1506.875;  216.525;    0.000
989.895; 1500.875;  183.525;    0.000
990.059; 1515.875;  150.525;    0.000
990.223; 1496.875;  183.525;    0.000
990.387; 1515.875;  241.525;    0.000
990.551; 1480.875;  198.525;    0.000
990.714; 1539.875;  176.525;    0.000
990.878; 1527.875;  203.525;    0.000
991.042; 1479.875;  146.525;    0.000
991.206; 1457.875;  199.525;    0.000
991.370; 1513.875;  223.525;    0.000
991.534; 1463.875;  158.525;    0.000
991.697; 1533.875;  182.525;    0.000
991.861; 1521.875;  195.525;    0.000
992.025; 1514.875;  206.525;    0.000
992.188; 1454.875;  174.525;    0.000
992.352; 1399.875;  183.525;    0.000
992.516; 1516.875;  181.525;    0.000
992.679; 1388.875;  162.525;    0.000
992.843; 1438.875;  173.525;    0.000
993.006; 1526.875;  189.525;    0.000
993.170; 1515.875;  200.525;    0.000
993.333; 1415.875;  167.525;    0.000
993.497; 1451.875;  217.525;    0.000
993.660; 1402.875;  179.525;    0.000
993.824; 1432.875;  195.525;    0.000
993.987; 1505.875;  186.525;    0.000
994.150; 1493.875;  164.525;    0.000
994.314; 1493.875;  215.525;    0.000
994.477; 1490.875;  186.525;    0.000
994.640; 1441.875;  192.525;    0.000
994.803; 1448.875;  215.525;    0.000
994.967; 1464.875;  208.525;    0.000
995.130; 1454.875;  196.525;    0.000
995.293; 1438.875;  221.525;    0.000
995.456; 1474.875;  164.525;    0.000
995.619; 1539.875;  224.525;    0.000
995.782; 1445.875;  184.525;    0.000
995.945; 1400.875;  220.525;    0.000
996.108; 1456.875;  187.525;    0.000
996.271; 1520.875;  192.525;    0.000
996.434; 1407.875;  162.525;    0.000
996.597; 1408.875;  148.525;    0.000
996.760; 1417.875;  186.525;    0.000
996.923; 1411.875;  154.525;    0.000
997.086; 1467.875;  156.525;    0.000
997.248; 1475.875;  215.525;    0.000
997.411; 1437.875;  160.525;    0.000
997.574; 1364.875;  159.525;    0.000
997.737; 1457.875;  179.525;    0.000
997.899; 1407.875;  184.525;    0.000
998.062; 1421.875;  180.525;    0.000
998.225; 1454.875;  168.525;    0.000
998.387; 1399.875;  192.525;    0.000
998.550; 1472.875;  178.525;    0.000
998.712; 1365.875;  192.525;    0.000
998.875; 1404.875;  230.525;    0.000
999.037; 1352.875;  200.525;    0.000
999.200; 1395.875;  196.525;    0.000
999.362; 1421.875;  173.525;    0.000
999.525; 1368.875;  196.525;    0.000
999.687; 1417.875;  159.525;    0.000
999.849; 1387.875;  180.525;    0.000
1000.012; 1461.875;  210.525;    0.000
1000.174; 1402.875;  175.525;    0.000
1000.336; 1443.875;  174.525;    0.000
1000.499; 1450.875;  180.525;    0.000
1000.661; 1485.875;  204.525;    0.000
1000.823; 1396.875;  181.525;    0.000
1000.985; 1412.875;  178.525;    0.000
1001.147; 1473.875;  215.525;    0.000
1001.309; 1468.875;  212.525;    0.000
1001.471; 1488.875;  192.525;    0.000
1001.633; 1459.875;  207.525;    0.000
1001.796; 1481.875;  211.525;    0.000
1001.958; 1514.875;  200.525;    0.000
1002.119; 1583.875;  210.525;    0.000
1002.281; 1541.875;  204.525;    0.000
1002.443; 1621.875;  230.525;    0.000
1002.605; 1606.875;  178.525;    0.000
1002.767; 1736.875;  228.525;    0.000
1002.929; 1711.875;  199.525;    0.000
1003.091; 1858.875;  220.525;    0.000
1003.252; 1824.875;  219.525;    0.000
1003.414; 2024.875;  213.525;    0.000
1003.576; 1959.875;  202.525;    0.000
1003.738; 2057.875;  184.525;    0.000
1003.899; 2126.875;  218.525;    0.000
1004.061; 2185.875;  210.525;    0.000
1004.222; 2293.875;  179.525;    0.000
1004.384; 2365.875;  183.525;    0.000
1004.546; 2472.875;  206.525;    0.000
1004.707; 2486.875;  191.525;    0.000
1004.869; 2506.875;  197.525;    0.000
1005.030; 2398.875;  186.525;    0.000
1005.191; 2456.875;  188.525;    0.000
1005.353; 2427.875;  215.525;    0.000
1005.514; 2200.875;  184.525;    0.000
1005.675; 2270.875;  209.525;    0.000
1005.837; 2118.875;  239.525;    0.000
1005.998; 2017.875;  218.525;    0.000
1006.159; 1983.875;  212.525;    0.000
1006.321; 2179.875;  220.525;    0.000
1006.482; 2156.875;  201.525;    0.000
1006.643; 2186.875;  222.525;    0.000
1006.804; 2266.875;  191.525;    0.000
1006.965; 2385.875;  214.525;    0.000
1007.126; 2375.875;  214.525;    0.000
1007.287; 2379.875;  243.525;    0.000
1007.448; 2324.875;  251.525;    0.000
1007.609; 2360.875;  244.525;    0.000
1007.770; 2214.875;  211.525;    0.000
1007.931; 2237.875;  225.525;    0.000
1008.092; 2311.875;  188.525;    0.000
1008.253; 2377.875;  224.525;    0.000
1008.414; 2417.875;  198.525;    0.000
1008.575; 2540.875;  244.525;    0.000
1008.736; 2432.875;  219.525;    0.000
1008.896; 2451.875;  206.525;    0.000
1009.057; 2404.875;  258.525;    0.000
1009.218; 2336.875;  209.525;    0.000
1009.379; 2475.875;  204.525;    0.000
1009.539; 2475.875;  242.525;    0.000
1009.700; 2487.875;  205.525;    0.000
1009.860; 2611.875;  211.525;    0.000
1010.021; 2459.875;  219.525;    0.000
1010.182; 2463.875;  206.525;    0.000
1010.342; 2471.875;  219.525;    0.000
1010.503; 2575.875;  231.525;    0.000
1010.663; 2675.875;  260.525;    0.000
1010.823; 2703.875;  200.525;    0.000
1010.984; 2787.875;  189.525;    0.000
1011.144; 2793.875;  234.525;    0.000
1011.305; 2943.875;  212.525;    0.000
1011.465; 3119.875;  202.525;    0.000
1011.625; 3109.875;  236.525;    0.000
1011.785; 3149.875;  203.525;    0.000
1011.946; 3102.875;  195.525;    0.000
1012.106; 3045.875;  176.525;    0.000
1012.266; 3115.875;  211.525;    0.000
1012.426; 3040.875;  244.525;    0.000
1012.586; 3058.875;  202.525;    0.000
1012.746; 2974.875;  234.525;    0.000
1012.906; 2998.875;  246.525;    0.000
1013.066; 3005.875;  232.525;    0.000
1013.226; 2977.875;  248.525;    0.000
1013.386; 2974.875;  231.525;    0.000
1013.546; 2846.875;  233.525;    0.000
1013.706; 2894.875;  211.525;    0.000
1013.866; 2854.875;  240.525;    0.000
1014.026; 2894.875;  188.525;    0.000
1014.186; 2798.875;  186.525;    0.000
1014.346; 2794.875;  203.525;    0.000
1014.505; 2962.875;  238.525;    0.000
1014.665; 3052.875;  206.525;    0.000
1014.825; 2786.875;  200.525;    0.000
1014.985; 2890.875;  215.525;    0.000
1015.144; 3086.875;  250.525;    0.000
1015.304; 3140.875;  195.525;    0.000
1015.464; 3071.875;  237.525;    0.000
1015.623; 2998.875;  232.525;    0.000
1015.783; 3308.875;  220.525;    0.000
1015.942; 3456.875;  219.525;    0.000
1016.102; 3385.875;  202.525;    0.000
1016.261; 3347.875;  225.525;    0.000
1016.420; 3612.875;  246.525;    0.000
1016.580; 3937.875;  226.525;    0.000
1016.739; 3753.875;  214.525;    0.000
1016.899; 3662.875;  205.525;    0.000
1017.058; 3873.875;  217.525;    0.000
1017.217; 4113.875;  199.525;    0.000
1017.376; 3838.875;  219.525;    0.000
1017.536; 3494.875;  209.525;    0.000
1017.695; 3474.875;  213.525;    0.000
1017.854; 3590.875;  187.525;    0.000
1018.013; 3378.875;  222.525;    0.000
1018.172; 3332.875;  204.525;    0.000
1018.331; 3282.875;  195.525;    0.000
1018.490; 3482.875;  213.525;    0.000
1018.649; 3772.875;  216.525;    0.000
1018.808; 3772.875;  227.525;    0.000
1018.967; 3811.875;  206.525;    0.000
1019.126; 3886.875;  206.525;    0.000
1019.285; 3918.875;  219.525;    0.000
1019.444; 3861.875;  218.525;    0.000
1019.603; 3773.875;  206.525;    0.000
1019.762; 3509.875;  189.525;    0.000
1019.921; 3666.875;  217.525;    0.000
1020.079; 3798.875;  200.525;    0.000
1020.238; 3940.875;  219.525;    0.000
1020.397; 3896.875;  227.525;    0.000
1020.555; 3646.875;  207.525;    0.000
1020.714; 3790.875;  253.525;    0.000
1020.873; 4082.875;  230.525;    0.000
1021.031; 3973.875;  232.525;    0.000
1021.190; 3781.875;  226.525;    0.000
1021.348; 3666.875;  224.525;    0.000
1021.507; 3990.875;  215.525;    0.000
1021.665; 4252.875;  233.525;    0.000
1021.824; 4026.875;  196.525;    0.000
1021.982; 3762.875;  215.525;    0.000
1022.141; 3770.875;  200.525;    0.000
1022.299; 4244.875;  200.525;    0.000
1022.457; 4331.875;  179.525;    0.000
1022.616; 4052.875;  226.525;    0.000
1022.774; 3664.875;  216.525;    0.000
1022.932; 3848.875;  212.525;    0.000
1023.090; 4389.875;  220.525;    0.000
1023.249; 4361.875;  194.525;    0.000
1023.407; 4049.875;  227.525;    0.000
1023.565; 3849.875;  190.525;    0.000
1023.723; 3959.875;  190.525;    0.000
1023.881; 4404.875;  214.525;    0.000
1024.039; 4442.875;  179.525;    0.000
1024.197; 4108.875;  274.525;    0.000
1024.355; 3788.875;  269.525;    0.000
1024.513; 3909.875;  259.525;    0.000
1024.671; 4629.875;  211.525;    0.000
1024.829; 4522.875;  230.525;    0.000
1024.987; 4089.875;  239.525;    0.000
1025.145; 3723.875;  231.525;    0.000
1025.302; 4006.875;  212.525;    0.000
1025.460; 4434.875;  224.525;    0.000
1025.618; 4444.875;  217.525;    0.000
1025.776; 4384.875;  232.525;    0.000
1025.933; 3811.875;  212.525;    0.000
1026.091; 4012.875;  214.525;    0.000
1026.249; 4354.875;  224.525;    0.000
1026.406; 4785.875;  219.525;    0.000
1026.564; 4543.875;  262.525;    0.000
1026.721; 4127.875;  206.525;    0.000
1026.879; 4059.875;  227.525;    0.000
1027.036; 4350.875;  234.525;    0.000
1027.194; 4768.875;  256.525;    0.000
1027.351; 4831.875;  229.525;    0.000
1027.509; 4461.875;  253.525;    0.000
1027.666; 4117.875;  248.525;    0.000
1027.823; 4486.875;  215.525;    0.000
1027.981; 4685.875;  248.525;    0.000
1028.138; 4823.875;  257.525;    0.000
1028.295; 4704.875;  215.525;    0.000
1028.452; 4234.875;  236.525;    0.000
1028.609; 4292.875;  240.525;    0.000
1028.767; 4598.875;  258.525;    0.000
1028.924; 4953.875;  211.525;    0.000
1029.081; 4717.875;  226.525;    0.000
1029.238; 4532.875;  228.525;    0.000
1029.395; 4423.875;  264.525;    0.000
1029.552; 4586.875;  227.525;    0.000
1029.709; 4928.875;  232.525;    0.000
1029.866; 5004.875;  223.525;    0.000
1030.023; 4785.875;  220.525;    0.000
1030.180; 4411.875;  222.525;    0.000
1030.337; 4360.875;  224.525;    0.000
1030.494; 4615.875;  228.525;    0.000
1030.650; 5017.875;  242.525;    0.000
1030.807; 5282.875;  214.525;    0.000
1030.964; 4721.875;  207.525;    0.000
1031.121; 4635.875;  236.525;    0.000
1031.277; 4387.875;  206.525;    0.000
1031.434; 4830.875;  249.525;    0.000
1031.591; 5036.875;  253.525;    0.000
1031.747; 5256.875;  240.525;    0.000
1031.904; 5125.875;  212.525;    0.000
1032.060; 4805.875;  185.525;    0.000
1032.217; 4648.875;  201.525;    0.000
1032.373; 5401.875;  207.525;    0.000
1032.530; 5375.875;  226.525;    0.000
1032.686; 5972.875;  226.525;    0.000
1032.843; 5788.875;  203.525;    0.000
1032.999; 5473.875;  233.525;    0.000
1033.155; 5498.875;  232.525;    0.000
1033.312; 5629.875;  239.525;    0.000
1033.468; 6605.875;  207.525;    0.000
1033.624; 6969.875;  238.525;    0.000
1033.780; 7402.875;  255.525;    0.000
1033.937; 7160.875;  188.525;    0.000
1034.093; 6560.875;  244.525;    0.000
1034.249; 6736.875;  182.525;    0.000
1034.405; 6688.875;  251.525;    0.000
1034.561; 7320.875;  250.525;    0.000
1034.717; 7699.875;  208.525;    0.000
1034.873; 7545.875;  210.525;    0.000
1035.029; 7705.875;  245.525;    0.000
1035.185; 7041.875;  230.525;    0.000
1035.341; 6785.875;  209.525;    0.000
1035.497; 7571.875;  244.525;    0.000
1035.653; 7458.875;  229.525;    0.000
1035.809; 8610.875;  275.525;    0.000
1035.964; 9128.875;  203.525;    0.000
1036.120; 8638.875;  215.525;    0.000
1036.276; 8707.875;  228.525;    0.000
1036.432; 8580.875;  183.525;    0.000
1036.587; 7912.875;  214.525;    0.000
1036.743; 8731.875;  240.525;    0.000
1036.899; 9258.875;  202.525;    0.000
1037.054; 9241.875;  182.525;    0.000
1037.210;10273.875;  228.525;    0.000
1037.365;10231.875;  239.525;    0.000
1037.521; 9707.875;  230.525;    0.000
1037.676; 9404.875;  217.525;    0.000
1037.832; 8738.875;  235.525;    0.000
1037.987; 9102.875;  210.525;    0.000
1038.143; 9229.875;  206.525;    0.000
1038.298;10479.875;  177.525;    0.000
1038.453;10443.875;  215.525;    0.000
1038.609;11180.875;  210.525;    0.000
1038.764;11602.875;  227.525;    0.000
1038.919;10616.875;  197.525;    0.000
1039.074;10561.875;  183.525;    0.000
1039.229; 9613.875;  218.525;    0.000
1039.385; 9901.875;  251.525;    0.000
1039.540;10478.875;  222.525;    0.000
1039.695;10891.875;  215.525;    0.000
1039.850;11834.875;  204.525;    0.000
1040.005;13044.875;  241.525;    0.000
1040.160;13502.875;  180.525;    0.000
1040.315;13248.875;  197.525;    0.000
1040.470;12515.875;  180.525;    0.000
1040.625;11912.875;  196.525;    0.000
1040.780;11499.875;  245.525;    0.000
1040.935;11304.875;  204.525;    0.000
1041.089;11767.875;  213.525;    0.000
1041.244;13275.875;  200.525;    0.000
1041.399;14579.875;  212.525;    0.000
1041.554;15267.875;  239.525;    0.000
1041.708;16723.875;  238.525;    0.000
1041.863;16179.875;  213.525;    0.000
1042.018;15831.875;  236.525;    0.000
1042.172;15111.875;  238.525;    0.000
1042.327;14469.875;  254.525;    0.000
1042.481;14451.875;  197.525;    0.000
1042.636;15245.875;  205.525;    0.000
1042.791;14767.875;  218.525;    0.000
1042.945;17449.875;  261.525;    0.000
1043.099;19956.875;  201.525;    0.000
1043.254;19657.875;  191.525;    0.000
1043.408;19824.875;  279.525;    0.000
1043.563;21075.875;  203.525;    0.000
1043.717;20112.875;  229.525;    0.000
1043.871;18317.875;  213.525;    0.000
1044.025;17908.875;  240.525;    0.000
1044.180;17681.875;  220.525;    0.000
1044.334;17765.875;  268.525;    0.000
1044.488;18453.875;  261.525;    0.000
1044.642;19010.875;  205.525;    0.000
1044.796;21729.875;  240.525;    0.000
1044.950;24814.875;  258.525;    0.000
1045.104;26514.875;  218.525;    0.000
1045.258;26702.875;  213.525;    0.000
1045.412;25654.875;  223.525;    0.000
1045.566;24830.875;  240.525;    0.000
1045.720;24040.875;  235.525;    0.000
1045.874;22802.875;  221.525;    0.000
1046.028;21444.875;  247.525;    0.000
1046.182;21476.875;  200.525;    0.000
1046.336;22732.875;  220.525;    0.000
1046.489;21847.875;  228.525;    0.000
1046.643;22444.875;  249.525;    0.000
1046.797;25183.875;  230.525;    0.000
1046.951;25529.875;  234.525;    0.000
1047.104;26511.875;  262.525;    0.000
1047.258;28487.875;  210.525;    0.000
1047.411;29049.875;  235.525;    0.000
1047.565;28343.875;  237.525;    0.000
1047.719;28002.875;  237.525;    0.000
1047.872;26771.875;  225.525;    0.000
1048.026;25741.875;  237.525;    0.000
1048.179;26206.875;  220.525;    0.000
1048.332;25625.875;  219.525;    0.000
1048.486;24642.875;  195.525;    0.000
1048.639;25465.875;  213.525;    0.000
1048.792;24878.875;  245.525;    0.000
1048.946;28122.875;  234.525;    0.000
1049.099;30748.875;  226.525;    0.000
1049.252;31502.875;  282.525;    0.000
1049.406;29308.875;  255.525;    0.000
1049.559;30914.875;  223.525;    0.000
1049.712;33268.875;  253.525;    0.000
1049.865;37165.875;  271.525;    0.000
1050.018;35646.875;  241.525;    0.000
1050.171;30869.875;  202.525;    0.000
1050.324;29464.875;  250.525;    0.000
1050.477;31113.875;  251.525;    0.000
1050.630;33614.875;  216.525;    0.000
1050.783;35426.875;  205.525;    0.000
1050.936;33134.875;  219.525;    0.000
1051.089;31231.875;  247.525;    0.000
1051.242;31500.875;  238.525;    0.000
1051.394;35432.875;  252.525;    0.000
1051.547;38446.875;  245.525;    0.000
1051.700;36220.875;  206.525;    0.000
1051.853;34041.875;  270.525;    0.000
1052.005;35601.875;  245.525;    0.000
1052.158;39885.875;  290.525;    0.000
1052.311;43942.875;  237.525;    0.000
1052.463;43151.875;  271.525;    0.000
1052.616;37390.875;  255.525;    0.000
1052.768;33316.875;  257.525;    0.000
1052.921;32748.875;  289.525;    0.000
1053.073;34856.875;  287.525;    0.000
1053.226;39331.875;  268.525;    0.000
1053.378;45462.875;  294.525;    0.000
1053.531;48355.875;  255.525;    0.000
1053.683;44447.875;  293.525;    0.000
1053.835;39277.875;  274.525;    0.000
1053.988;29217.875;  282.525;    0.000
1054.140; 5148.875;  291.525;    0.000
1054.292; 1313.875;  292.525;    0.000
1054.444; 1059.875;  299.525;    0.000
1054.596; 1020.875;  319.525;    0.000
1054.749;  884.875;  295.525;    0.000
1054.901;  875.875;  266.525;    0.000
1055.053;  802.875;  300.525;    0.000
1055.205;  759.875;  290.525;    0.000
1055.357;  753.875;  304.525;    0.000
1055.509;  675.875;  292.525;    0.000
1055.661;  697.875;  339.525;    0.000
1055.813;  708.875;  306.525;    0.000
1055.965;  605.875;  293.525;    0.000
1056.116;  672.875;  300.525;    0.000
1056.268;  609.875;  306.525;    0.000
1056.420;  712.875;  288.525;    0.000

