
Integration time [ms]:   0.300
Averaging Nr. [scans]: 1
Smoothing Nr. [pixels]: 0
Data measured with spectrometer [name]: UV2
Wave   ;Sample   ;Dark     ;Reference
[nm]   ;[counts] ;[counts] ;[counts] 

353.533;  218.300;  178.050;    0.000
353.597;  230.300;  251.050;    0.000
353.660;  221.300;  213.050;    0.000
353.723;  177.300;  185.050;    0.000
353.786;  173.300;  191.050;    0.000
353.850;  215.300;  238.050;    0.000
353.913;  189.300;  181.050;    0.000
353.976;  236.300;  190.050;    0.000
354.039;  172.300;  184.050;    0.000
354.102;  226.300;  231.050;    0.000
354.166;  259.300;  188.050;    0.000
354.229;  214.300;  224.050;    0.000
354.292;  172.300;  186.050;    0.000
354.355;  212.300;  175.050;    0.000
354.418;  187.300;  191.050;    0.000
354.481;  201.300;  181.050;    0.000
354.545;  659.300;  193.050;    0.000
354.608;  680.300;  210.050;    0.000
354.671;  706.300;  183.050;    0.000
354.734;  709.300;  189.050;    0.000
354.797;  744.300;  168.050;    0.000
354.860;  705.300;  178.050;    0.000
354.923;  786.300;  236.050;    0.000
354.986;  803.300;  181.050;    0.000
355.050;  812.300;  168.050;    0.000
355.113;  828.300;  201.050;    0.000
355.176;  792.300;  206.050;    0.000
355.239;  829.300;  213.050;    0.000
355.302;  791.300;  198.050;    0.000
355.365;  806.300;  199.050;    0.000
355.428;  856.300;  200.050;    0.000
355.491;  840.300;  232.050;    0.000
355.554;  824.300;  184.050;    0.000
355.617;  877.300;  214.050;    0.000
355.680;  901.300;  191.050;    0.000
355.743;  796.300;  161.050;    0.000
355.806;  842.300;  153.050;    0.000
355.869;  938.300;  221.050;    0.000
355.932;  876.300;  152.050;    0.000
355.995;  940.300;  195.050;    0.000
356.058;  900.300;  172.050;    0.000
356.121;  961.300;  186.050;    0.000
356.184;  947.300;  196.050;    0.000
356.247;  932.300;  183.050;    0.000
356.310;  912.300;  159.050;    0.000
356.373;  948.300;  183.050;    0.000
356.436;  926.300;  176.050;    0.000
356.498;  893.300;  191.050;    0.000
356.561;  936.300;  145.050;    0.000
356.624;  902.300;  187.050;    0.000
356.687;  988.300;  181.050;    0.000
356.750;  957.300;  227.050;    0.000
356.813;  954.300;  147.050;    0.000
356.876;  972.300;  184.050;    0.000
356.939; 1013.300;  141.050;    0.000
357.001;  926.300;  188.050;    0.000
357.064; 1014.300;  173.050;    0.000
357.127;  955.300;  159.050;    0.000
357.190;  940.300;  185.050;    0.000
357.253; 1008.300;  180.050;    0.000
357.316; 1031.300;  199.050;    0.000
357.378;  961.300;  196.050;    0.000
357.441;  929.300;  175.050;    0.000
357.504;  958.300;  164.050;    0.000
357.567;  976.300;  145.050;    0.000
357.629;  983.300;  205.050;    0.000
357.692;  962.300;  175.050;    0.000
357.755;  964.300;  205.050;    0.000
357.818;  965.300;  141.050;    0.000
357.880;  974.300;  170.050;    0.000
357.943; 1035.300;  152.050;    0.000
358.006;  959.300;  145.050;    0.000
358.069;  954.300;  164.050;    0.000
358.131;  946.300;  148.050;    0.000
358.194; 1035.300;  122.050;    0.000
358.257;  967.300;  147.050;    0.000
358.319; 1011.300;  156.050;    0.000
358.382; 1007.300;  193.050;    0.000
358.445;  989.300;  155.050;    0.000
358.507; 1033.300;  160.050;    0.000
358.570; 1005.300;  159.050;    0.000
358.633; 1017.300;  163.050;    0.000
358.695; 1027.300;  174.050;    0.000
358.758; 1026.300;  127.050;    0.000
358.821; 1058.300;  165.050;    0.000
358.883; 1002.300;  145.050;    0.000
358.946; 1058.300;  127.050;    0.000
359.008; 1065.300;  180.050;    0.000
359.071; 1079.300;  173.050;    0.000
359.134; 1031.300;  150.050;    0.000
359.196; 1013.300;  158.050;    0.000
359.259; 1047.300;  159.050;    0.000
359.321; 1028.300;  159.050;    0.000
359.384; 1089.300;  182.050;    0.000
359.446; 1063.300;  140.050;    0.000
359.509; 1094.300;  146.050;    0.000
359.571; 1059.300;  133.050;    0.000
359.634; 1050.300;   93.050;    0.000
359.696; 1082.300;  142.050;    0.000
359.759; 1087.300;  161.050;    0.000
359.821; 1125.300;  110.050;    0.000
359.884; 1113.300;  114.050;    0.000
359.946; 1089.300;  180.050;    0.000
360.009; 1071.300;  158.050;    0.000
360.071; 1041.300;  116.050;    0.000
360.134; 1112.300;  170.050;    0.000
360.196; 1092.300;  128.050;    0.000
360.259; 1062.300;  157.050;    0.000
360.321; 1091.300;  122.050;    0.000
360.384; 1120.300;  119.050;    0.000
360.446; 1086.300;  122.050;    0.000
360.508; 1074.300;  195.050;    0.000
360.571; 1171.300;  128.050;    0.000
360.633; 1131.300;  172.050;    0.000
360.696; 1116.300;  115.050;    0.000
360.758; 1139.300;  162.050;    0.000
360.820; 1115.300;  149.050;    0.000
360.883; 1097.300;  151.050;    0.000
360.945; 1149.300;  149.050;    0.000
361.007; 1094.300;  135.050;    0.000
361.070; 1183.300;  162.050;    0.000
361.132; 1151.300;  198.050;    0.000
361.194; 1128.300;  141.050;    0.000
361.257; 1108.300;  154.050;    0.000
361.319; 1133.300;  147.050;    0.000
361.381; 1101.300;  154.050;    0.000
361.443; 1115.300;  144.050;    0.000
361.506; 1194.300;  164.050;    0.000
361.568; 1172.300;  148.050;    0.000
361.630; 1192.300;  127.050;    0.000
361.693; 1168.300;  158.050;    0.000
361.755; 1163.300;  161.050;    0.000
361.817; 1155.300;  173.050;    0.000
361.879; 1198.300;  159.050;    0.000
361.941; 1168.300;  153.050;    0.000
362.004; 1202.300;  148.050;    0.000
362.066; 1185.300;  150.050;    0.000
362.128; 1179.300;  132.050;    0.000
362.190; 1139.300;  207.050;    0.000
362.252; 1166.300;  142.050;    0.000
362.315; 1233.300;  153.050;    0.000
362.377; 1174.300;  164.050;    0.000
362.439; 1185.300;  155.050;    0.000
362.501; 1209.300;  157.050;    0.000
362.563; 1145.300;  188.050;    0.000
362.625; 1176.300;  194.050;    0.000
362.688; 1189.300;  159.050;    0.000
362.750; 1238.300;  205.050;    0.000
362.812; 1192.300;  148.050;    0.000
362.874; 1212.300;  173.050;    0.000
362.936; 1234.300;  152.050;    0.000
362.998; 1228.300;  145.050;    0.000
363.060; 1201.300;  184.050;    0.000
363.122; 1244.300;  147.050;    0.000
363.184; 1244.300;  136.050;    0.000
363.246; 1249.300;  171.050;    0.000
363.308; 1176.300;  154.050;    0.000
363.370; 1250.300;  175.050;    0.000
363.432; 1244.300;  139.050;    0.000
363.494; 1188.300;  163.050;    0.000
363.556; 1246.300;  117.050;    0.000
363.618; 1252.300;  126.050;    0.000
363.680; 1257.300;  147.050;    0.000
363.742; 1250.300;  161.050;    0.000
363.804; 1220.300;  159.050;    0.000
363.866; 1287.300;  170.050;    0.000
363.928; 1188.300;  122.050;    0.000
363.990; 1234.300;  167.050;    0.000
364.052; 1267.300;  180.050;    0.000
364.114; 1216.300;  119.050;    0.000
364.176; 1275.300;  184.050;    0.000
364.238; 1298.300;  180.050;    0.000
364.300; 1211.300;  159.050;    0.000
364.362; 1203.300;  163.050;    0.000
364.424; 1270.300;  139.050;    0.000
364.486; 1221.300;  189.050;    0.000
364.548; 1287.300;  167.050;    0.000
364.609; 1299.300;  165.050;    0.000
364.671; 1275.300;  171.050;    0.000
364.733; 1241.300;  165.050;    0.000
364.795; 1258.300;  122.050;    0.000
364.857; 1243.300;  147.050;    0.000
364.919; 1211.300;  104.050;    0.000
364.981; 1279.300;  143.050;    0.000
365.042; 1318.300;  166.050;    0.000
365.104; 1211.300;  162.050;    0.000
365.166; 1259.300;  155.050;    0.000
365.228; 1253.300;  179.050;    0.000
365.290; 1277.300;  133.050;    0.000
365.351; 1261.300;  142.050;    0.000
365.413; 1187.300;  144.050;    0.000
365.475; 1279.300;  139.050;    0.000
365.537; 1266.300;  181.050;    0.000
365.598; 1282.300;  166.050;    0.000
365.660; 1228.300;  130.050;    0.000
365.722; 1347.300;  177.050;    0.000
365.784; 1291.300;  149.050;    0.000
365.845; 1301.300;  156.050;    0.000
365.907; 1259.300;  122.050;    0.000
365.969; 1266.300;  140.050;    0.000
366.030; 1317.300;  156.050;    0.000
366.092; 1293.300;  140.050;    0.000
366.154; 1358.300;  169.050;    0.000
366.215; 1323.300;  170.050;    0.000
366.277; 1253.300;  143.050;    0.000
366.339; 1258.300;  139.050;    0.000
366.400; 1318.300;  139.050;    0.000
366.462; 1311.300;  140.050;    0.000
366.524; 1351.300;  150.050;    0.000
366.585; 1272.300;  163.050;    0.000
366.647; 1305.300;  193.050;    0.000
366.708; 1277.300;  135.050;    0.000
366.770; 1349.300;  165.050;    0.000
366.832; 1365.300;  168.050;    0.000
366.893; 1356.300;  157.050;    0.000
366.955; 1262.300;  132.050;    0.000
367.016; 1356.300;  127.050;    0.000
367.078; 1282.300;  146.050;    0.000
367.139; 1258.300;  129.050;    0.000
367.201; 1286.300;  148.050;    0.000
367.262; 1243.300;  165.050;    0.000
367.324; 1330.300;  171.050;    0.000
367.385; 1359.300;  118.050;    0.000
367.447; 1361.300;  144.050;    0.000
367.508; 1279.300;  135.050;    0.000
367.570; 1317.300;  160.050;    0.000
367.631; 1303.300;  157.050;    0.000
367.693; 1275.300;  168.050;    0.000
367.754; 1310.300;  139.050;    0.000
367.816; 1357.300;  141.050;    0.000
367.877; 1338.300;  195.050;    0.000
367.939; 1357.300;  166.050;    0.000
368.000; 1273.300;  127.050;    0.000
368.062; 1345.300;  143.050;    0.000
368.123; 1270.300;  156.050;    0.000
368.184; 1383.300;  179.050;    0.000
368.246; 1254.300;  168.050;    0.000
368.307; 1368.300;  203.050;    0.000
368.369; 1358.300;  149.050;    0.000
368.430; 1285.300;  121.050;    0.000
368.491; 1287.300;  131.050;    0.000
368.553; 1389.300;  161.050;    0.000
368.614; 1402.300;  157.050;    0.000
368.675; 1351.300;  152.050;    0.000
368.737; 1342.300;  168.050;    0.000
368.798; 1281.300;  147.050;    0.000
368.859; 1354.300;  174.050;    0.000
368.921; 1345.300;  168.050;    0.000
368.982; 1365.300;  151.050;    0.000
369.043; 1283.300;  169.050;    0.000
369.104; 1368.300;  149.050;    0.000
369.166; 1445.300;  178.050;    0.000
369.227; 1306.300;  149.050;    0.000
369.288; 1360.300;  131.050;    0.000
369.349; 1439.300;  128.050;    0.000
369.411; 1364.300;  198.050;    0.000
369.472; 1452.300;  156.050;    0.000
369.533; 1417.300;  142.050;    0.000
369.594; 1416.300;  125.050;    0.000
369.656; 1385.300;  153.050;    0.000
369.717; 1346.300;  124.050;    0.000
369.778; 1404.300;  163.050;    0.000
369.839; 1340.300;  130.050;    0.000
369.900; 1432.300;  170.050;    0.000
369.961; 1384.300;  142.050;    0.000
370.023; 1459.300;  197.050;    0.000
370.084; 1360.300;  151.050;    0.000
370.145; 1400.300;  128.050;    0.000
370.206; 1374.300;  152.050;    0.000
370.267; 1404.300;  154.050;    0.000
370.328; 1443.300;  154.050;    0.000
370.389; 1394.300;  173.050;    0.000
370.451; 1462.300;  191.050;    0.000
370.512; 1395.300;  155.050;    0.000
370.573; 1386.300;  134.050;    0.000
370.634; 1355.300;  160.050;    0.000
370.695; 1361.300;  124.050;    0.000
370.756; 1429.300;  169.050;    0.000
370.817; 1395.300;  169.050;    0.000
370.878; 1461.300;  200.050;    0.000
370.939; 1395.300;  157.050;    0.000
371.000; 1426.300;  131.050;    0.000
371.061; 1384.300;  136.050;    0.000
371.122; 1543.300;  176.050;    0.000
371.183; 1430.300;   81.050;    0.000
371.244; 1405.300;  156.050;    0.000
371.305; 1383.300;  131.050;    0.000
371.366; 1404.300;  161.050;    0.000
371.427; 1459.300;  127.050;    0.000
371.488; 1475.300;  184.050;    0.000
371.549; 1426.300;  159.050;    0.000
371.610; 1491.300;  147.050;    0.000
371.671; 1356.300;  132.050;    0.000
371.732; 1495.300;  163.050;    0.000
371.793; 1465.300;  179.050;    0.000
371.853; 1403.300;  179.050;    0.000
371.914; 1467.300;  149.050;    0.000
371.975; 1446.300;  117.050;    0.000
372.036; 1497.300;  141.050;    0.000
372.097; 1444.300;  101.050;    0.000
372.158; 1431.300;  115.050;    0.000
372.219; 1439.300;  174.050;    0.000
372.280; 1421.300;  134.050;    0.000
372.340; 1410.300;  180.050;    0.000
372.401; 1478.300;  166.050;    0.000
372.462; 1427.300;  171.050;    0.000
372.523; 1455.300;  132.050;    0.000
372.584; 1430.300;  182.050;    0.000
372.645; 1415.300;  149.050;    0.000
372.705; 1453.300;  182.050;    0.000
372.766; 1457.300;  145.050;    0.000
372.827; 1455.300;  161.050;    0.000
372.888; 1501.300;  156.050;    0.000
372.948; 1439.300;  158.050;    0.000
373.009; 1484.300;  178.050;    0.000
373.070; 1390.300;  166.050;    0.000
373.131; 1441.300;  154.050;    0.000
373.191; 1588.300;  193.050;    0.000
373.252; 1387.300;  148.050;    0.000
373.313; 1468.300;  152.050;    0.000
373.373; 1505.300;  156.050;    0.000
373.434; 1528.300;  166.050;    0.000
373.495; 1390.300;  152.050;    0.000
373.555; 1485.300;  145.050;    0.000
373.616; 1438.300;  141.050;    0.000
373.677; 1490.300;  169.050;    0.000
373.737; 1434.300;  166.050;    0.000
373.798; 1461.300;  151.050;    0.000
373.859; 1514.300;  170.050;    0.000
373.919; 1435.300;  206.050;    0.000
373.980; 1487.300;  140.050;    0.000
374.041; 1429.300;  148.050;    0.000
374.101; 1472.300;  165.050;    0.000
374.162; 1539.300;  166.050;    0.000
374.222; 1419.300;  156.050;    0.000
374.283; 1409.300;  161.050;    0.000
374.343; 1524.300;  185.050;    0.000
374.404; 1500.300;  148.050;    0.000
374.465; 1469.300;  162.050;    0.000
374.525; 1559.300;  177.050;    0.000
374.586; 1502.300;  164.050;    0.000
374.646; 1494.300;  180.050;    0.000
374.707; 1554.300;  203.050;    0.000
374.767; 1532.300;  148.050;    0.000
374.828; 1537.300;  142.050;    0.000
374.888; 1571.300;  187.050;    0.000
374.949; 1621.300;  137.050;    0.000
375.009; 1563.300;  155.050;    0.000
375.070; 1560.300;  165.050;    0.000
375.130; 1588.300;  168.050;    0.000
375.190; 1547.300;  157.050;    0.000
375.251; 1586.300;  206.050;    0.000
375.311; 1537.300;  141.050;    0.000
375.372; 1564.300;  144.050;    0.000
375.432; 1560.300;  153.050;    0.000
375.493; 1543.300;  168.050;    0.000
375.553; 1613.300;  146.050;    0.000
375.613; 1494.300;  142.050;    0.000
375.674; 1504.300;  153.050;    0.000
375.734; 1640.300;  166.050;    0.000
375.794; 1551.300;  145.050;    0.000
375.855; 1560.300;  162.050;    0.000
375.915; 1645.300;  162.050;    0.000
375.975; 1580.300;  144.050;    0.000
376.036; 1582.300;  128.050;    0.000
376.096; 1561.300;  122.050;    0.000
376.156; 1508.300;  140.050;    0.000
376.217; 1590.300;  158.050;    0.000
376.277; 1590.300;  163.050;    0.000
376.337; 1549.300;  139.050;    0.000
376.398; 1604.300;  176.050;    0.000
376.458; 1626.300;  143.050;    0.000
376.518; 1543.300;  136.050;    0.000
376.578; 1525.300;  177.050;    0.000
376.639; 1574.300;  163.050;    0.000
376.699; 1548.300;  183.050;    0.000
376.759; 1597.300;  169.050;    0.000
376.819; 1545.300;  147.050;    0.000
376.880; 1590.300;  188.050;    0.000
376.940; 1517.300;  185.050;    0.000
377.000; 1608.300;  131.050;    0.000
377.060; 1570.300;  182.050;    0.000
377.120; 1586.300;  165.050;    0.000
377.180; 1599.300;  169.050;    0.000
377.241; 1558.300;  146.050;    0.000
377.301; 1648.300;  183.050;    0.000
377.361; 1621.300;  124.050;    0.000
377.421; 1535.300;  186.050;    0.000
377.481; 1611.300;  178.050;    0.000
377.541; 1579.300;  140.050;    0.000
377.601; 1596.300;  175.050;    0.000
377.661; 1646.300;  169.050;    0.000
377.722; 1605.300;  144.050;    0.000
377.782; 1679.300;  182.050;    0.000
377.842; 1645.300;  161.050;    0.000
377.902; 1634.300;  151.050;    0.000
377.962; 1659.300;  134.050;    0.000
378.022; 1576.300;  153.050;    0.000
378.082; 1667.300;  178.050;    0.000
378.142; 1656.300;  118.050;    0.000
378.202; 1697.300;  153.050;    0.000
378.262; 1679.300;  166.050;    0.000
378.322; 1646.300;  174.050;    0.000
378.382; 1679.300;  148.050;    0.000
378.442; 1736.300;  190.050;    0.000
378.502; 1660.300;  136.050;    0.000
378.562; 1703.300;  130.050;    0.000
378.622; 1701.300;  188.050;    0.000
378.682; 1669.300;  163.050;    0.000
378.742; 1734.300;  150.050;    0.000
378.802; 1676.300;  127.050;    0.000
378.862; 1725.300;  186.050;    0.000
378.921; 1700.300;  203.050;    0.000
378.981; 1742.300;  177.050;    0.000
379.041; 1697.300;  134.050;    0.000
379.101; 1744.300;  167.050;    0.000
379.161; 1784.300;  130.050;    0.000
379.221; 1728.300;  169.050;    0.000
379.281; 1767.300;  162.050;    0.000
379.341; 1786.300;  134.050;    0.000
379.401; 1746.300;  151.050;    0.000
379.460; 1780.300;  190.050;    0.000
379.520; 1838.300;  158.050;    0.000
379.580; 1819.300;  162.050;    0.000
379.640; 1845.300;  146.050;    0.000
379.700; 1793.300;  167.050;    0.000
379.759; 1836.300;  194.050;    0.000
379.819; 1817.300;  176.050;    0.000
379.879; 1783.300;  140.050;    0.000
379.939; 1802.300;  184.050;    0.000
379.999; 1862.300;  165.050;    0.000
380.058; 1834.300;  194.050;    0.000
380.118; 1902.300;  137.050;    0.000
380.178; 1879.300;  139.050;    0.000
380.237; 1873.300;  139.050;    0.000
380.297; 1901.300;  160.050;    0.000
380.357; 1875.300;  194.050;    0.000
380.417; 1919.300;  174.050;    0.000
380.476; 1837.300;  153.050;    0.000
380.536; 1946.300;  169.050;    0.000
380.596; 1892.300;  159.050;    0.000
380.655; 1933.300;  178.050;    0.000
380.715; 1905.300;  196.050;    0.000
380.775; 1940.300;  202.050;    0.000
380.834; 2011.300;  186.050;    0.000
380.894; 1970.300;  167.050;    0.000
380.954; 1902.300;  150.050;    0.000
381.013; 2012.300;  187.050;    0.000
381.073; 1928.300;  114.050;    0.000
381.132; 1995.300;  176.050;    0.000
381.192; 2025.300;  197.050;    0.000
381.252; 1929.300;  172.050;    0.000
381.311; 2096.300;  155.050;    0.000
381.371; 1974.300;  172.050;    0.000
381.430; 2071.300;  143.050;    0.000
381.490; 2054.300;  136.050;    0.000
381.549; 2052.300;  131.050;    0.000
381.609; 2088.300;  203.050;    0.000
381.668; 2087.300;  135.050;    0.000
381.728; 2141.300;  163.050;    0.000
381.787; 2067.300;  195.050;    0.000
381.847; 2134.300;  185.050;    0.000
381.906; 2128.300;  187.050;    0.000
381.966; 2187.300;  153.050;    0.000
382.025; 2208.300;  175.050;    0.000
382.085; 2207.300;  195.050;    0.000
382.144; 2213.300;  210.050;    0.000
382.204; 2328.300;  201.050;    0.000
382.263; 2265.300;  178.050;    0.000
382.323; 2220.300;  151.050;    0.000
382.382; 2397.300;  147.050;    0.000
382.441; 2378.300;  144.050;    0.000
382.501; 2426.300;  156.050;    0.000
382.560; 2562.300;  160.050;    0.000
382.619; 2564.300;  173.050;    0.000
382.679; 2768.300;  167.050;    0.000
382.738; 2733.300;  189.050;    0.000
382.798; 2937.300;  181.050;    0.000
382.857; 3121.300;  161.050;    0.000
382.916; 3348.300;  162.050;    0.000
382.976; 3458.300;  169.050;    0.000
383.035; 3334.300;  174.050;    0.000
383.094; 3552.300;  178.050;    0.000
383.154; 3854.300;  188.050;    0.000
383.213; 4398.300;  162.050;    0.000
383.272; 4239.300;  144.050;    0.000
383.331; 3417.300;  144.050;    0.000
383.391; 3320.300;  198.050;    0.000
383.450; 3225.300;  185.050;    0.000
383.509; 3171.300;  132.050;    0.000
383.568; 3329.300;  171.050;    0.000
383.628; 3598.300;  171.050;    0.000
383.687; 3858.300;  172.050;    0.000
383.746; 4176.300;  144.050;    0.000
383.805; 4853.300;  177.050;    0.000
383.864; 4688.300;  145.050;    0.000
383.924; 3857.300;  203.050;    0.000
383.983; 3249.300;  153.050;    0.000
384.042; 3060.300;  171.050;    0.000
384.101; 2902.300;  186.050;    0.000
384.160; 2682.300;  132.050;    0.000
384.219; 2698.300;  157.050;    0.000
384.279; 2496.300;  166.050;    0.000
384.338; 2496.300;  141.050;    0.000
384.397; 2491.300;  142.050;    0.000
384.456; 2423.300;  155.050;    0.000
384.515; 2363.300;  158.050;    0.000
384.574; 2364.300;  208.050;    0.000
384.633; 2356.300;  158.050;    0.000
384.692; 2265.300;  162.050;    0.000
384.751; 2353.300;  179.050;    0.000
384.810; 2273.300;  150.050;    0.000
384.869; 2214.300;  147.050;    0.000
384.929; 2304.300;  132.050;    0.000
384.988; 2298.300;  166.050;    0.000
385.047; 2226.300;  161.050;    0.000
385.106; 2260.300;  180.050;    0.000
385.165; 2217.300;  123.050;    0.000
385.224; 2198.300;  153.050;    0.000
385.283; 2199.300;  158.050;    0.000
385.342; 2167.300;  184.050;    0.000
385.401; 2200.300;  191.050;    0.000
385.459; 2164.300;  143.050;    0.000
385.518; 2157.300;  152.050;    0.000
385.577; 2141.300;  134.050;    0.000
385.636; 2273.300;  187.050;    0.000
385.695; 2182.300;  141.050;    0.000
385.754; 2224.300;  143.050;    0.000
385.813; 2188.300;  145.050;    0.000
385.872; 2184.300;  116.050;    0.000
385.931; 2236.300;  147.050;    0.000
385.990; 2121.300;  170.050;    0.000
386.049; 2254.300;  189.050;    0.000
386.107; 2130.300;  122.050;    0.000
386.166; 2252.300;  155.050;    0.000
386.225; 2130.300;  173.050;    0.000
386.284; 2140.300;  138.050;    0.000
386.343; 2187.300;  216.050;    0.000
386.402; 2163.300;  162.050;    0.000
386.460; 2128.300;  131.050;    0.000
386.519; 2195.300;  122.050;    0.000
386.578; 2196.300;  140.050;    0.000
386.637; 2141.300;  169.050;    0.000
386.696; 2261.300;  176.050;    0.000
386.754; 2148.300;  127.050;    0.000
386.813; 2205.300;  138.050;    0.000
386.872; 2070.300;  135.050;    0.000
386.931; 2146.300;  170.050;    0.000
386.989; 2160.300;  167.050;    0.000
387.048; 2134.300;  131.050;    0.000
387.107; 2150.300;  176.050;    0.000
387.165; 2057.300;  139.050;    0.000
387.224; 2203.300;  150.050;    0.000
387.283; 2158.300;  169.050;    0.000
387.342; 2201.300;  191.050;    0.000
387.400; 2117.300;  131.050;    0.000
387.459; 2206.300;  139.050;    0.000
387.517; 2211.300;  214.050;    0.000
387.576; 2093.300;  146.050;    0.000
387.635; 2120.300;  161.050;    0.000
387.693; 2162.300;  197.050;    0.000
387.752; 2151.300;  159.050;    0.000
387.811; 2091.300;  144.050;    0.000
387.869; 2116.300;  172.050;    0.000
387.928; 2086.300;  160.050;    0.000
387.986; 2129.300;  192.050;    0.000
388.045; 2039.300;  121.050;    0.000
388.103; 2079.300;  129.050;    0.000
388.162; 2128.300;  169.050;    0.000
388.221; 2073.300;  171.050;    0.000
388.279; 2078.300;  135.050;    0.000
388.338; 2075.300;  222.050;    0.000
388.396; 2087.300;  168.050;    0.000
388.455; 2110.300;  178.050;    0.000
388.513; 2038.300;  151.050;    0.000
388.572; 2011.300;  147.050;    0.000
388.630; 2067.300;  158.050;    0.000
388.689; 2021.300;  163.050;    0.000
388.747; 2111.300;  180.050;    0.000
388.806; 2089.300;  119.050;    0.000
388.864; 2063.300;  159.050;    0.000
388.922; 2097.300;  152.050;    0.000
388.981; 2066.300;  125.050;    0.000
389.039; 2013.300;  151.050;    0.000
389.098; 2104.300;  151.050;    0.000
389.156; 2069.300;  175.050;    0.000
389.214; 2114.300;  133.050;    0.000
389.273; 2073.300;  142.050;    0.000
389.331; 2084.300;  179.050;    0.000
389.390; 2006.300;  179.050;    0.000
389.448; 2070.300;  159.050;    0.000
389.506; 2085.300;  140.050;    0.000
389.565; 2134.300;  160.050;    0.000
389.623; 2112.300;  181.050;    0.000
389.681; 2129.300;  181.050;    0.000
389.740; 2143.300;  187.050;    0.000
389.798; 2086.300;  163.050;    0.000
389.856; 2051.300;  185.050;    0.000
389.914; 2110.300;  170.050;    0.000
389.973; 2068.300;  150.050;    0.000
390.031; 2075.300;  149.050;    0.000
390.089; 2049.300;  191.050;    0.000
390.147; 1965.300;  126.050;    0.000
390.206; 2077.300;  174.050;    0.000
390.264; 2060.300;  164.050;    0.000
390.322; 2049.300;  150.050;    0.000
390.380; 1978.300;  137.050;    0.000
390.439; 1968.300;  176.050;    0.000
390.497; 2180.300;  188.050;    0.000
390.555; 2154.300;  143.050;    0.000
390.613; 2010.300;  174.050;    0.000
390.671; 2163.300;  208.050;    0.000
390.729; 2024.300;  135.050;    0.000
390.788; 2046.300;  169.050;    0.000
390.846; 2103.300;  173.050;    0.000
390.904; 2093.300;  176.050;    0.000
390.962; 2075.300;  179.050;    0.000
391.020; 2126.300;  201.050;    0.000
391.078; 2041.300;  192.050;    0.000
391.136; 2065.300;  170.050;    0.000
391.194; 2094.300;  163.050;    0.000
391.253; 2085.300;  203.050;    0.000
391.311; 2031.300;  170.050;    0.000
391.369; 2112.300;  191.050;    0.000
391.427; 2162.300;  226.050;    0.000
391.485; 2133.300;  181.050;    0.000
391.543; 2130.300;  177.050;    0.000
391.601; 2119.300;  150.050;    0.000
391.659; 2060.300;  201.050;    0.000
391.717; 2079.300;  166.050;    0.000
391.775; 2194.300;  200.050;    0.000
391.833; 2075.300;  180.050;    0.000
391.891; 2057.300;  172.050;    0.000
391.949; 2124.300;  174.050;    0.000
392.007; 2209.300;  194.050;    0.000
392.065; 2147.300;  161.050;    0.000
392.123; 2063.300;  159.050;    0.000
392.180; 2098.300;  193.050;    0.000
392.238; 2206.300;  188.050;    0.000
392.296; 2118.300;  206.050;    0.000
392.354; 2171.300;  170.050;    0.000
392.412; 2105.300;  207.050;    0.000
392.470; 2155.300;  168.050;    0.000
392.528; 2143.300;  185.050;    0.000
392.586; 2133.300;  154.050;    0.000
392.644; 2141.300;  190.050;    0.000
392.701; 2128.300;  195.050;    0.000
392.759; 2149.300;  229.050;    0.000
392.817; 2173.300;  176.050;    0.000
392.875; 2146.300;  198.050;    0.000
392.933; 2126.300;  174.050;    0.000
392.991; 2206.300;  237.050;    0.000
393.048; 2166.300;  212.050;    0.000
393.106; 2108.300;  191.050;    0.000
393.164; 2113.300;  136.050;    0.000
393.222; 2229.300;  164.050;    0.000
393.279; 2173.300;  208.050;    0.000
393.337; 2217.300;  203.050;    0.000
393.395; 2232.300;  191.050;    0.000
393.453; 2200.300;  153.050;    0.000
393.510; 2194.300;  171.050;    0.000
393.568; 2182.300;  203.050;    0.000
393.626; 2082.300;  169.050;    0.000
393.684; 2180.300;  201.050;    0.000
393.741; 2166.300;  172.050;    0.000
393.799; 2115.300;  149.050;    0.000
393.857; 2119.300;  151.050;    0.000
393.914; 2189.300;  192.050;    0.000
393.972; 2172.300;  176.050;    0.000
394.030; 2171.300;  165.050;    0.000
394.087; 2171.300;  192.050;    0.000
394.145; 2201.300;  183.050;    0.000
394.202; 2196.300;  161.050;    0.000
394.260; 2144.300;  135.050;    0.000
394.318; 2199.300;  188.050;    0.000
394.375; 2169.300;  163.050;    0.000
394.433; 2216.300;  151.050;    0.000
394.490; 2152.300;  190.050;    0.000
394.548; 2254.300;  157.050;    0.000
394.605; 2211.300;  205.050;    0.000
394.663; 2226.300;  173.050;    0.000
394.720; 2190.300;  171.050;    0.000
394.778; 2280.300;  190.050;    0.000
394.836; 2201.300;  134.050;    0.000
394.893; 2277.300;  142.050;    0.000
394.951; 2217.300;  192.050;    0.000
395.008; 2275.300;  149.050;    0.000
395.065; 2162.300;  194.050;    0.000
395.123; 2228.300;  160.050;    0.000
395.180; 2256.300;  178.050;    0.000
395.238; 2184.300;  191.050;    0.000
395.295; 2247.300;  160.050;    0.000
395.353; 2261.300;  162.050;    0.000
395.410; 2222.300;  165.050;    0.000
395.468; 2352.300;  190.050;    0.000
395.525; 2328.300;  173.050;    0.000
395.582; 2389.300;  161.050;    0.000
395.640; 2366.300;  200.050;    0.000
395.697; 2303.300;  198.050;    0.000
395.754; 2312.300;  136.050;    0.000
395.812; 2204.300;  172.050;    0.000
395.869; 2404.300;  172.050;    0.000
395.927; 2297.300;  145.050;    0.000
395.984; 2275.300;  220.050;    0.000
396.041; 2240.300;  137.050;    0.000
396.098; 2284.300;  161.050;    0.000
396.156; 2348.300;  159.050;    0.000
396.213; 2226.300;  200.050;    0.000
396.270; 2357.300;  209.050;    0.000
396.328; 2432.300;  162.050;    0.000
396.385; 2318.300;  186.050;    0.000
396.442; 2272.300;  177.050;    0.000
396.499; 2337.300;  183.050;    0.000
396.557; 2316.300;  182.050;    0.000
396.614; 2398.300;  186.050;    0.000
396.671; 2313.300;  144.050;    0.000
396.728; 2352.300;  176.050;    0.000
396.785; 2322.300;  169.050;    0.000
396.843; 2328.300;  134.050;    0.000
396.900; 2365.300;  184.050;    0.000
396.957; 2404.300;  197.050;    0.000
397.014; 2370.300;  187.050;    0.000
397.071; 2413.300;  186.050;    0.000
397.128; 2440.300;  200.050;    0.000
397.186; 2358.300;  175.050;    0.000
397.243; 2292.300;  154.050;    0.000
397.300; 2423.300;  191.050;    0.000
397.357; 2322.300;  238.050;    0.000
397.414; 2484.300;  161.050;    0.000
397.471; 2381.300;  135.050;    0.000
397.528; 2454.300;  158.050;    0.000
397.585; 2419.300;  159.050;    0.000
397.642; 2367.300;  180.050;    0.000
397.699; 2458.300;  170.050;    0.000
397.756; 2342.300;  175.050;    0.000
397.814; 2425.300;  182.050;    0.000
397.871; 2397.300;  173.050;    0.000
397.928; 2403.300;  173.050;    0.000
397.985; 2471.300;  176.050;    0.000
398.042; 2479.300;  189.050;    0.000
398.099; 2418.300;  160.050;    0.000
398.156; 2474.300;  218.050;    0.000
398.212; 2525.300;  194.050;    0.000
398.269; 2545.300;  199.050;    0.000
398.326; 2467.300;  188.050;    0.000
398.383; 2491.300;  187.050;    0.000
398.440; 2471.300;  174.050;    0.000
398.497; 2490.300;  214.050;    0.000
398.554; 2476.300;  181.050;    0.000
398.611; 2603.300;  195.050;    0.000
398.668; 2507.300;  145.050;    0.000
398.725; 2529.300;  178.050;    0.000
398.782; 2567.300;  210.050;    0.000
398.839; 2572.300;  216.050;    0.000
398.895; 2553.300;  189.050;    0.000
398.952; 2671.300;  206.050;    0.000
399.009; 2662.300;  142.050;    0.000
399.066; 2649.300;  192.050;    0.000
399.123; 2588.300;  181.050;    0.000
399.180; 2610.300;  200.050;    0.000
399.236; 2749.300;  156.050;    0.000
399.293; 2689.300;  194.050;    0.000
399.350; 2638.300;  167.050;    0.000
399.407; 2778.300;  192.050;    0.000
399.463; 2797.300;  161.050;    0.000
399.520; 2724.300;  149.050;    0.000
399.577; 2878.300;  156.050;    0.000
399.634; 2865.300;  195.050;    0.000
399.690; 2801.300;  163.050;    0.000
399.747; 2910.300;  192.050;    0.000
399.804; 2864.300;  212.050;    0.000
399.861; 2843.300;  203.050;    0.000
399.917; 2862.300;  221.050;    0.000
399.974; 2802.300;  221.050;    0.000
400.031; 2827.300;  195.050;    0.000
400.087; 2816.300;  159.050;    0.000
400.144; 2775.300;  201.050;    0.000
400.201; 2803.300;  206.050;    0.000
400.257; 2781.300;  168.050;    0.000
400.314; 2803.300;  183.050;    0.000
400.370; 2688.300;  209.050;    0.000
400.427; 2815.300;  192.050;    0.000
400.484; 2699.300;  150.050;    0.000
400.540; 2650.300;  213.050;    0.000
400.597; 2687.300;  161.050;    0.000
400.653; 2652.300;  170.050;    0.000
400.710; 2699.300;  173.050;    0.000
400.766; 2649.300;  204.050;    0.000
400.823; 2655.300;  194.050;    0.000
400.879; 2631.300;  188.050;    0.000
400.936; 2614.300;  172.050;    0.000
400.993; 2615.300;  154.050;    0.000
401.049; 2578.300;  157.050;    0.000
401.105; 2621.300;  214.050;    0.000
401.162; 2659.300;  195.050;    0.000
401.218; 2697.300;  195.050;    0.000
401.275; 2667.300;  182.050;    0.000
401.331; 2725.300;  188.050;    0.000
401.388; 2738.300;  194.050;    0.000
401.444; 2643.300;  175.050;    0.000
401.501; 2630.300;  169.050;    0.000
401.557; 2699.300;  176.050;    0.000
401.614; 2592.300;  153.050;    0.000
401.670; 2681.300;  178.050;    0.000
401.726; 2631.300;  179.050;    0.000
401.783; 2613.300;  198.050;    0.000
401.839; 2751.300;  179.050;    0.000
401.895; 2736.300;  154.050;    0.000
401.952; 2542.300;  138.050;    0.000
402.008; 2549.300;  135.050;    0.000
402.064; 2500.300;  154.050;    0.000
402.121; 2667.300;  199.050;    0.000
402.177; 2700.300;  126.050;    0.000
402.233; 2699.300;  190.050;    0.000
402.290; 2638.300;  175.050;    0.000
402.346; 2788.300;  200.050;    0.000
402.402; 2647.300;  191.050;    0.000
402.458; 2648.300;  172.050;    0.000
402.515; 2737.300;  186.050;    0.000
402.571; 2697.300;  189.050;    0.000
402.627; 2740.300;  151.050;    0.000
402.683; 2783.300;  187.050;    0.000
402.740; 2688.300;  147.050;    0.000
402.796; 2730.300;  176.050;    0.000
402.852; 2696.300;  200.050;    0.000
402.908; 2724.300;  201.050;    0.000
402.964; 2683.300;  153.050;    0.000
403.021; 2794.300;  165.050;    0.000
403.077; 2749.300;  195.050;    0.000
403.133; 2680.300;  139.050;    0.000
403.189; 2736.300;  166.050;    0.000
403.245; 2817.300;  194.050;    0.000
403.301; 2751.300;  210.050;    0.000
403.357; 2770.300;  187.050;    0.000
403.414; 2702.300;  195.050;    0.000
403.470; 2852.300;  150.050;    0.000
403.526; 2766.300;  158.050;    0.000
403.582; 2723.300;  184.050;    0.000
403.638; 2783.300;  171.050;    0.000
403.694; 2785.300;  197.050;    0.000
403.750; 2842.300;  196.050;    0.000
403.806; 2805.300;  192.050;    0.000
403.862; 2795.300;  169.050;    0.000
403.918; 2857.300;  199.050;    0.000
403.974; 2786.300;  156.050;    0.000
404.030; 2821.300;  193.050;    0.000
404.086; 2744.300;  161.050;    0.000
404.142; 2863.300;  172.050;    0.000
404.198; 2778.300;  195.050;    0.000
404.254; 2817.300;  167.050;    0.000
404.310; 2842.300;  156.050;    0.000
404.366; 2840.300;  144.050;    0.000
404.422; 2821.300;  161.050;    0.000
404.478; 2847.300;  179.050;    0.000
404.534; 2808.300;  163.050;    0.000
404.590; 2781.300;  183.050;    0.000
404.646; 2776.300;  155.050;    0.000
404.701; 2900.300;  142.050;    0.000
404.757; 2879.300;  175.050;    0.000
404.813; 2902.300;  153.050;    0.000
404.869; 2928.300;  199.050;    0.000
404.925; 2888.300;  153.050;    0.000
404.981; 2842.300;  174.050;    0.000
405.037; 2873.300;  185.050;    0.000
405.092; 2821.300;  166.050;    0.000
405.148; 2900.300;  161.050;    0.000
405.204; 2804.300;  170.050;    0.000
405.260; 2833.300;  154.050;    0.000
405.316; 2882.300;  128.050;    0.000
405.371; 2870.300;  142.050;    0.000
405.427; 2928.300;  196.050;    0.000
405.483; 2798.300;  172.050;    0.000
405.539; 2866.300;  182.050;    0.000
405.594; 2757.300;  153.050;    0.000
405.650; 2879.300;  124.050;    0.000
405.706; 2942.300;  189.050;    0.000
405.761; 3087.300;  165.050;    0.000
405.817; 2843.300;  152.050;    0.000
405.873; 2836.300;  174.050;    0.000
405.928; 2923.300;  167.050;    0.000
405.984; 2889.300;  210.050;    0.000
406.040; 2865.300;  160.050;    0.000
406.095; 2871.300;  163.050;    0.000
406.151; 3004.300;  208.050;    0.000
406.207; 2931.300;  177.050;    0.000
406.262; 2886.300;  176.050;    0.000
406.318; 2922.300;  157.050;    0.000
406.374; 3037.300;  141.050;    0.000
406.429; 2858.300;  189.050;    0.000
406.485; 2935.300;  190.050;    0.000
406.540; 2953.300;  155.050;    0.000
406.596; 3033.300;  182.050;    0.000
406.651; 3050.300;  200.050;    0.000
406.707; 3079.300;  130.050;    0.000
406.763; 2987.300;  174.050;    0.000
406.818; 3082.300;  151.050;    0.000
406.874; 3074.300;  122.050;    0.000
406.929; 3095.300;  153.050;    0.000
406.985; 3097.300;  198.050;    0.000
407.040; 3179.300;  174.050;    0.000
407.095; 3169.300;  161.050;    0.000
407.151; 3183.300;  184.050;    0.000
407.206; 3169.300;  188.050;    0.000
407.262; 3158.300;  180.050;    0.000
407.317; 3219.300;  186.050;    0.000
407.373; 3354.300;  200.050;    0.000
407.428; 3241.300;  211.050;    0.000
407.484; 3206.300;  193.050;    0.000
407.539; 3229.300;  167.050;    0.000
407.594; 3293.300;  178.050;    0.000
407.650; 3271.300;  171.050;    0.000
407.705; 3270.300;  153.050;    0.000
407.760; 3271.300;  196.050;    0.000
407.816; 3160.300;  205.050;    0.000
407.871; 3370.300;  232.050;    0.000
407.926; 3357.300;  215.050;    0.000
407.982; 3265.300;  154.050;    0.000
408.037; 3231.300;  217.050;    0.000
408.092; 3198.300;  190.050;    0.000
408.148; 3323.300;  181.050;    0.000
408.203; 3212.300;  203.050;    0.000
408.258; 3262.300;  154.050;    0.000
408.314; 3269.300;  198.050;    0.000
408.369; 3129.300;  156.050;    0.000
408.424; 3217.300;  216.050;    0.000
408.479; 3136.300;  191.050;    0.000
408.534; 3219.300;  200.050;    0.000
408.590; 3196.300;  182.050;    0.000
408.645; 3184.300;  141.050;    0.000
408.700; 3222.300;  209.050;    0.000
408.755; 3244.300;  205.050;    0.000
408.810; 3123.300;  171.050;    0.000
408.866; 3142.300;  200.050;    0.000
408.921; 3224.300;  188.050;    0.000
408.976; 3121.300;  156.050;    0.000
409.031; 3148.300;  164.050;    0.000
409.086; 3139.300;  155.050;    0.000
409.141; 3061.300;  205.050;    0.000
409.196; 3078.300;  173.050;    0.000
409.252; 3054.300;  179.050;    0.000
409.307; 3088.300;  131.050;    0.000
409.362; 3081.300;  173.050;    0.000
409.417; 3100.300;  120.050;    0.000
409.472; 3159.300;  198.050;    0.000
409.527; 3269.300;  153.050;    0.000
409.582; 3222.300;  177.050;    0.000
409.637; 3272.300;  184.050;    0.000
409.692; 3198.300;  203.050;    0.000
409.747; 3117.300;  158.050;    0.000
409.802; 3182.300;  212.050;    0.000
409.857; 3023.300;  192.050;    0.000
409.912; 3118.300;  179.050;    0.000
409.967; 3067.300;  177.050;    0.000
410.022; 3196.300;  204.050;    0.000
410.077; 3127.300;  175.050;    0.000
410.132; 3155.300;  207.050;    0.000
410.187; 3197.300;  169.050;    0.000
410.242; 3249.300;  186.050;    0.000
410.297; 3128.300;  185.050;    0.000
410.351; 3147.300;  191.050;    0.000
410.406; 3129.300;  215.050;    0.000
410.461; 3170.300;  190.050;    0.000
410.516; 3154.300;  172.050;    0.000
410.571; 3172.300;  190.050;    0.000
410.626; 3185.300;  189.050;    0.000
410.681; 3156.300;  191.050;    0.000
410.736; 3111.300;  166.050;    0.000
410.790; 3165.300;  179.050;    0.000
410.845; 3208.300;  196.050;    0.000
410.900; 3204.300;  168.050;    0.000
410.955; 3196.300;  173.050;    0.000
411.010; 3109.300;  162.050;    0.000
411.064; 3034.300;  205.050;    0.000
411.119; 3248.300;  203.050;    0.000
411.174; 3154.300;  207.050;    0.000
411.229; 3128.300;  218.050;    0.000
411.283; 3174.300;  218.050;    0.000
411.338; 3263.300;  180.050;    0.000
411.393; 3118.300;  191.050;    0.000
411.447; 3097.300;  207.050;    0.000
411.502; 3240.300;  204.050;    0.000
411.557; 3241.300;  208.050;    0.000
411.612; 3195.300;  191.050;    0.000
411.666; 3201.300;  233.050;    0.000
411.721; 3202.300;  193.050;    0.000
411.776; 3210.300;  195.050;    0.000
411.830; 3040.300;  229.050;    0.000
411.885; 3193.300;  181.050;    0.000
411.939; 3200.300;  214.050;    0.000
411.994; 3147.300;  140.050;    0.000
412.049; 3187.300;  205.050;    0.000
412.103; 3184.300;  232.050;    0.000
412.158; 3206.300;  228.050;    0.000
412.212; 3186.300;  204.050;    0.000
412.267; 3289.300;  203.050;    0.000
412.322; 3271.300;  212.050;    0.000
412.376; 3140.300;  195.050;    0.000
412.431; 3301.300;  197.050;    0.000
412.485; 3133.300;  235.050;    0.000
412.540; 3198.300;  197.050;    0.000
412.594; 3241.300;  199.050;    0.000
412.649; 3256.300;  195.050;    0.000
412.703; 3180.300;  214.050;    0.000
412.758; 3176.300;  213.050;    0.000
412.812; 3125.300;  154.050;    0.000
412.866; 3130.300;  159.050;    0.000
412.921; 3188.300;  207.050;    0.000
412.975; 3194.300;  194.050;    0.000
413.030; 3170.300;  214.050;    0.000
413.084; 3092.300;  174.050;    0.000
413.139; 3189.300;  211.050;    0.000
413.193; 3120.300;  223.050;    0.000
413.247; 3125.300;  198.050;    0.000
413.302; 3127.300;  184.050;    0.000
413.356; 3062.300;  194.050;    0.000
413.410; 3138.300;  219.050;    0.000
413.465; 3150.300;  209.050;    0.000
413.519; 3162.300;  178.050;    0.000
413.573; 3181.300;  189.050;    0.000
413.628; 3115.300;  184.050;    0.000
413.682; 3069.300;  189.050;    0.000
413.736; 3093.300;  196.050;    0.000
413.791; 3127.300;  208.050;    0.000
413.845; 3138.300;  206.050;    0.000
413.899; 3101.300;  193.050;    0.000
413.953; 3142.300;  176.050;    0.000
414.008; 3170.300;  163.050;    0.000
414.062; 3101.300;  195.050;    0.000
414.116; 3143.300;  176.050;    0.000
414.170; 3008.300;  218.050;    0.000
414.225; 3203.300;  183.050;    0.000
414.279; 3135.300;  191.050;    0.000
414.333; 3216.300;  215.050;    0.000
414.387; 3121.300;  187.050;    0.000
414.441; 3146.300;  182.050;    0.000
414.496; 3173.300;  205.050;    0.000
414.550; 3045.300;  203.050;    0.000
414.604; 3292.300;  223.050;    0.000
414.658; 3166.300;  159.050;    0.000
414.712; 3119.300;  194.050;    0.000
414.766; 3220.300;  232.050;    0.000
414.820; 3058.300;  235.050;    0.000
414.874; 3192.300;  169.050;    0.000
414.928; 3195.300;  207.050;    0.000
414.982; 3187.300;  174.050;    0.000
415.037; 3176.300;  173.050;    0.000
415.091; 3183.300;  219.050;    0.000
415.145; 3094.300;  174.050;    0.000
415.199; 3203.300;  207.050;    0.000
415.253; 3155.300;  228.050;    0.000
415.307; 3162.300;  182.050;    0.000
415.361; 3121.300;  219.050;    0.000
415.415; 3185.300;  218.050;    0.000
415.469; 3091.300;  233.050;    0.000
415.523; 3123.300;  203.050;    0.000
415.577; 3201.300;  186.050;    0.000
415.631; 3166.300;  215.050;    0.000
415.684; 3190.300;  212.050;    0.000
415.738; 3131.300;  206.050;    0.000
415.792; 3081.300;  219.050;    0.000
415.846; 3128.300;  208.050;    0.000
415.900; 3109.300;  203.050;    0.000
415.954; 3195.300;  237.050;    0.000
416.008; 3167.300;  242.050;    0.000
416.062; 3100.300;  197.050;    0.000
416.116; 3060.300;  189.050;    0.000
416.169; 3042.300;  199.050;    0.000
416.223; 3087.300;  230.050;    0.000
416.277; 3079.300;  226.050;    0.000
416.331; 3082.300;  254.050;    0.000
416.385; 3136.300;  204.050;    0.000
416.439; 3063.300;  201.050;    0.000
416.492; 3139.300;  238.050;    0.000
416.546; 3129.300;  234.050;    0.000
416.600; 3113.300;  244.050;    0.000
416.654; 3190.300;  233.050;    0.000
416.707; 3173.300;  214.050;    0.000
416.761; 3135.300;  214.050;    0.000
416.815; 3170.300;  192.050;    0.000
416.869; 3158.300;  225.050;    0.000
416.922; 3141.300;  214.050;    0.000
416.976; 3088.300;  206.050;    0.000
417.030; 3141.300;  226.050;    0.000
417.083; 3081.300;  207.050;    0.000
417.137; 3085.300;  236.050;    0.000
417.191; 3160.300;  208.050;    0.000
417.244; 3110.300;  260.050;    0.000
417.298; 3092.300;  222.050;    0.000
417.352; 3106.300;  191.050;    0.000
417.405; 3128.300;  229.050;    0.000
417.459; 3132.300;  249.050;    0.000
417.512; 3207.300;  259.050;    0.000
417.566; 3160.300;  220.050;    0.000
417.620; 3119.300;  229.050;    0.000
417.673; 3102.300;  190.050;    0.000
417.727; 3146.300;  204.050;    0.000
417.780; 3141.300;  223.050;    0.000
417.834; 3046.300;  213.050;    0.000
417.887; 3143.300;  238.050;    0.000
417.941; 3093.300;  244.050;    0.000
417.994; 3063.300;  247.050;    0.000
418.048; 3096.300;  225.050;    0.000
418.101; 3037.300;  210.050;    0.000
418.155; 3189.300;  224.050;    0.000
418.208; 3100.300;  229.050;    0.000
418.262; 3167.300;  255.050;    0.000
418.315; 3098.300;  248.050;    0.000
418.369; 3202.300;  212.050;    0.000
418.422; 3172.300;  241.050;    0.000
418.476; 3050.300;  220.050;    0.000
418.529; 3181.300;  257.050;    0.000
418.582; 3081.300;  203.050;    0.000
418.636; 3159.300;  221.050;    0.000
418.689; 2998.300;  202.050;    0.000
418.743; 3095.300;  227.050;    0.000
418.796; 3112.300;  226.050;    0.000
418.849; 3142.300;  199.050;    0.000
418.903; 3157.300;  234.050;    0.000
418.956; 3213.300;  236.050;    0.000
419.009; 3175.300;  305.050;    0.000
419.063; 3130.300;  216.050;    0.000
419.116; 3091.300;  245.050;    0.000
419.169; 3046.300;  208.050;    0.000
419.222; 3156.300;  233.050;    0.000
419.276; 3143.300;  244.050;    0.000
419.329; 3161.300;  197.050;    0.000
419.382; 2983.300;  222.050;    0.000
419.435; 3077.300;  199.050;    0.000
419.489; 3124.300;  226.050;    0.000
419.542; 3133.300;  223.050;    0.000
419.595; 3052.300;  204.050;    0.000
419.648; 3119.300;  234.050;    0.000
419.701; 3072.300;  211.050;    0.000
419.755; 3010.300;  184.050;    0.000
419.808; 3054.300;  223.050;    0.000
419.861; 2984.300;  197.050;    0.000
419.914; 3049.300;  258.050;    0.000
419.967; 3024.300;  205.050;    0.000
420.020; 3047.300;  195.050;    0.000
420.073; 3073.300;  191.050;    0.000
420.127; 3078.300;  256.050;    0.000
420.180; 2998.300;  232.050;    0.000
420.233; 3080.300;  200.050;    0.000
420.286; 2993.300;  207.050;    0.000
420.339; 2994.300;  223.050;    0.000
420.392; 3021.300;  243.050;    0.000
420.445; 3019.300;  195.050;    0.000
420.498; 2968.300;  239.050;    0.000
420.551; 2980.300;  201.050;    0.000
420.604; 2945.300;  245.050;    0.000
420.657; 3058.300;  221.050;    0.000
420.710; 2957.300;  223.050;    0.000
420.763; 3062.300;  241.050;    0.000
420.816; 2916.300;  198.050;    0.000
420.869; 3006.300;  210.050;    0.000
420.922; 2921.300;  206.050;    0.000
420.975; 2994.300;  239.050;    0.000
421.028; 3011.300;  248.050;    0.000
421.081; 2932.300;  236.050;    0.000
421.134; 2993.300;  208.050;    0.000
421.187; 2968.300;  216.050;    0.000
421.239; 3027.300;  199.050;    0.000
421.292; 2973.300;  255.050;    0.000
421.345; 2882.300;  241.050;    0.000
421.398; 2914.300;  221.050;    0.000
421.451; 2876.300;  237.050;    0.000
421.504; 2967.300;  225.050;    0.000
421.557; 2854.300;  213.050;    0.000
421.609; 2921.300;  178.050;    0.000
421.662; 2945.300;  206.050;    0.000
421.715; 2966.300;  212.050;    0.000
421.768; 2917.300;  236.050;    0.000
421.821; 2949.300;  228.050;    0.000
421.873; 2970.300;  200.050;    0.000
421.926; 2928.300;  226.050;    0.000
421.979; 2961.300;  221.050;    0.000
422.032; 2988.300;  219.050;    0.000
422.084; 2880.300;  253.050;    0.000
422.137; 2977.300;  195.050;    0.000
422.190; 2906.300;  192.050;    0.000
422.243; 2910.300;  236.050;    0.000
422.295; 2900.300;  205.050;    0.000
422.348; 2848.300;  198.050;    0.000
422.401; 2912.300;  245.050;    0.000
422.453; 2859.300;  241.050;    0.000
422.506; 2973.300;  255.050;    0.000
422.559; 2898.300;  188.050;    0.000
422.611; 2814.300;  236.050;    0.000
422.664; 2870.300;  218.050;    0.000
422.716; 2795.300;  210.050;    0.000
422.769; 2850.300;  209.050;    0.000
422.822; 2825.300;  213.050;    0.000
422.874; 2831.300;  227.050;    0.000
422.927; 2931.300;  272.050;    0.000
422.979; 2847.300;  204.050;    0.000
423.032; 2859.300;  210.050;    0.000
423.084; 2902.300;  236.050;    0.000
423.137; 2907.300;  223.050;    0.000
423.189; 2897.300;  253.050;    0.000
423.242; 2807.300;  185.050;    0.000
423.294; 2903.300;  232.050;    0.000
423.347; 2885.300;  213.050;    0.000
423.399; 2869.300;  227.050;    0.000
423.452; 2826.300;  236.050;    0.000
423.504; 2805.300;  232.050;    0.000
423.557; 2825.300;  195.050;    0.000
423.609; 2924.300;  238.050;    0.000
423.662; 2906.300;  207.050;    0.000
423.714; 2861.300;  231.050;    0.000
423.766; 2898.300;  211.050;    0.000
423.819; 2812.300;  207.050;    0.000
423.871; 2838.300;  228.050;    0.000
423.923; 2827.300;  223.050;    0.000
423.976; 2868.300;  217.050;    0.000
424.028; 2839.300;  231.050;    0.000
424.081; 2854.300;  219.050;    0.000
424.133; 2845.300;  255.050;    0.000
424.185; 2803.300;  199.050;    0.000
424.238; 2774.300;  238.050;    0.000
424.290; 2923.300;  209.050;    0.000
424.342; 2861.300;  213.050;    0.000
424.394; 2926.300;  215.050;    0.000
424.447; 2871.300;  265.050;    0.000
424.499; 2895.300;  238.050;    0.000
424.551; 2781.300;  256.050;    0.000
424.603; 2842.300;  222.050;    0.000
424.656; 2775.300;  227.050;    0.000
424.708; 2779.300;  250.050;    0.000
424.760; 2693.300;  228.050;    0.000
424.812; 2768.300;  249.050;    0.000
424.864; 2803.300;  222.050;    0.000
424.917; 2749.300;  235.050;    0.000
424.969; 2829.300;  266.050;    0.000
425.021; 2740.300;  233.050;    0.000
425.073; 2834.300;  194.050;    0.000
425.125; 2783.300;  256.050;    0.000
425.177; 2774.300;  225.050;    0.000
425.229; 2754.300;  242.050;    0.000
425.282; 2862.300;  236.050;    0.000
425.334; 2715.300;  250.050;    0.000
425.386; 2835.300;  231.050;    0.000
425.438; 2757.300;  216.050;    0.000
425.490; 2681.300;  240.050;    0.000
425.542; 2823.300;  231.050;    0.000
425.594; 2699.300;  206.050;    0.000
425.646; 2677.300;  201.050;    0.000
425.698; 2720.300;  193.050;    0.000
425.750; 2834.300;  241.050;    0.000
425.802; 2807.300;  199.050;    0.000
425.854; 2817.300;  216.050;    0.000
425.906; 2740.300;  220.050;    0.000
425.958; 2804.300;  200.050;    0.000
426.010; 2715.300;  214.050;    0.000
426.062; 2723.300;  245.050;    0.000
426.114; 2762.300;  241.050;    0.000
426.166; 2736.300;  241.050;    0.000
426.218; 2628.300;  255.050;    0.000
426.270; 2801.300;  228.050;    0.000
426.321; 2741.300;  222.050;    0.000
426.373; 2731.300;  218.050;    0.000
426.425; 2682.300;  258.050;    0.000
426.477; 2658.300;  225.050;    0.000
426.529; 2738.300;  223.050;    0.000
426.581; 2692.300;  198.050;    0.000
426.633; 2705.300;  228.050;    0.000
426.684; 2671.300;  210.050;    0.000
426.736; 2737.300;  208.050;    0.000
426.788; 2699.300;  231.050;    0.000
426.840; 2552.300;  212.050;    0.000
426.892; 2614.300;  221.050;    0.000
426.943; 2665.300;  240.050;    0.000
426.995; 2698.300;  243.050;    0.000
427.047; 2641.300;  231.050;    0.000
427.099; 2712.300;  189.050;    0.000
427.150; 2661.300;  212.050;    0.000
427.202; 2624.300;  219.050;    0.000
427.254; 2633.300;  203.050;    0.000
427.306; 2688.300;  217.050;    0.000
427.357; 2712.300;  232.050;    0.000
427.409; 2688.300;  251.050;    0.000
427.461; 2578.300;  185.050;    0.000
427.512; 2644.300;  239.050;    0.000
427.564; 2652.300;  208.050;    0.000
427.616; 2700.300;  233.050;    0.000
427.667; 2594.300;  223.050;    0.000
427.719; 2653.300;  206.050;    0.000
427.770; 2724.300;  195.050;    0.000
427.822; 2654.300;  223.050;    0.000
427.874; 2610.300;  232.050;    0.000
427.925; 2661.300;  209.050;    0.000
427.977; 2568.300;  208.050;    0.000
428.028; 2656.300;  187.050;    0.000
428.080; 2697.300;  209.050;    0.000
428.131; 2561.300;  237.050;    0.000
428.183; 2640.300;  200.050;    0.000
428.234; 2658.300;  215.050;    0.000
428.286; 2664.300;  229.050;    0.000
428.337; 2550.300;  206.050;    0.000
428.389; 2594.300;  216.050;    0.000
428.440; 2594.300;  287.050;    0.000
428.492; 2731.300;  269.050;    0.000
428.543; 2678.300;  234.050;    0.000
428.595; 2657.300;  214.050;    0.000
428.646; 2591.300;  229.050;    0.000
428.697; 2639.300;  249.050;    0.000
428.749; 2629.300;  250.050;    0.000
428.800; 2581.300;  242.050;    0.000
428.852; 2598.300;  232.050;    0.000
428.903; 2627.300;  196.050;    0.000
428.954; 2627.300;  226.050;    0.000
429.006; 2500.300;  232.050;    0.000
429.057; 2530.300;  188.050;    0.000
429.108; 2613.300;  237.050;    0.000
429.160; 2653.300;  221.050;    0.000
429.211; 2591.300;  222.050;    0.000
429.262; 2538.300;  215.050;    0.000
429.314; 2515.300;  225.050;    0.000
429.365; 2584.300;  220.050;    0.000
429.416; 2570.300;  242.050;    0.000
429.467; 2565.300;  220.050;    0.000
429.519; 2451.300;  217.050;    0.000
429.570; 2557.300;  248.050;    0.000
429.621; 2498.300;  233.050;    0.000
429.672; 2535.300;  220.050;    0.000
429.724; 2480.300;  179.050;    0.000
429.775; 2575.300;  218.050;    0.000
429.826; 2474.300;  197.050;    0.000
429.877; 2499.300;  206.050;    0.000
429.928; 2489.300;  229.050;    0.000
429.980; 2502.300;  207.050;    0.000
430.031; 2525.300;  264.050;    0.000
430.082; 2573.300;  210.050;    0.000
430.133; 2577.300;  218.050;    0.000
430.184; 2566.300;  246.050;    0.000
430.235; 2525.300;  201.050;    0.000
430.286; 2434.300;  207.050;    0.000
430.337; 2442.300;  224.050;    0.000
430.388; 2464.300;  216.050;    0.000
430.439; 2497.300;  210.050;    0.000
430.490; 2508.300;  208.050;    0.000
430.542; 2483.300;  211.050;    0.000
430.593; 2529.300;  203.050;    0.000
430.644; 2464.300;  235.050;    0.000
430.695; 2500.300;  200.050;    0.000
430.746; 2448.300;  215.050;    0.000
430.797; 2539.300;  235.050;    0.000
430.848; 2570.300;  197.050;    0.000
430.898; 2578.300;  209.050;    0.000
430.949; 2538.300;  231.050;    0.000
431.000; 2468.300;  227.050;    0.000
431.051; 2497.300;  225.050;    0.000
431.102; 2479.300;  180.050;    0.000
431.153; 2481.300;  248.050;    0.000
431.204; 2463.300;  185.050;    0.000
431.255; 2484.300;  199.050;    0.000
431.306; 2504.300;  228.050;    0.000
431.357; 2491.300;  237.050;    0.000
431.408; 2592.300;  223.050;    0.000
431.458; 2463.300;  240.050;    0.000
431.509; 2474.300;  207.050;    0.000
431.560; 2476.300;  219.050;    0.000
431.611; 2505.300;  206.050;    0.000
431.662; 2480.300;  253.050;    0.000
431.713; 2463.300;  199.050;    0.000
431.763; 2511.300;  197.050;    0.000
431.814; 2520.300;  205.050;    0.000
431.865; 2506.300;  218.050;    0.000
431.916; 2464.300;  202.050;    0.000
431.966; 2425.300;  203.050;    0.000
432.017; 2489.300;  244.050;    0.000
432.068; 2494.300;  246.050;    0.000
432.118; 2517.300;  212.050;    0.000
432.169; 2552.300;  214.050;    0.000
432.220; 2498.300;  241.050;    0.000
432.271; 2502.300;  237.050;    0.000
432.321; 2493.300;  246.050;    0.000
432.372; 2452.300;  257.050;    0.000
432.423; 2486.300;  198.050;    0.000
432.473; 2495.300;  202.050;    0.000
432.524; 2447.300;  242.050;    0.000
432.574; 2388.300;  202.050;    0.000
432.625; 2426.300;  212.050;    0.000
432.676; 2535.300;  242.050;    0.000
432.726; 2377.300;  268.050;    0.000
432.777; 2509.300;  228.050;    0.000
432.827; 2512.300;  230.050;    0.000
432.878; 2493.300;  221.050;    0.000
432.928; 2439.300;  218.050;    0.000
432.979; 2474.300;  243.050;    0.000
433.029; 2512.300;  217.050;    0.000
433.080; 2426.300;  208.050;    0.000
433.130; 2448.300;  236.050;    0.000
433.181; 2453.300;  282.050;    0.000
433.231; 2507.300;  257.050;    0.000
433.282; 2350.300;  268.050;    0.000
433.332; 2463.300;  241.050;    0.000
433.383; 2532.300;  271.050;    0.000
433.433; 2418.300;  262.050;    0.000
433.484; 2457.300;  266.050;    0.000
433.534; 2455.300;  217.050;    0.000
433.585; 2457.300;  230.050;    0.000
433.635; 2468.300;  245.050;    0.000
433.685; 2461.300;  250.050;    0.000
433.736; 2514.300;  308.050;    0.000
433.786; 2391.300;  242.050;    0.000
433.836; 2566.300;  256.050;    0.000
433.887; 2476.300;  250.050;    0.000
433.937; 2424.300;  250.050;    0.000
433.987; 2423.300;  219.050;    0.000
434.038; 2529.300;  248.050;    0.000
434.088; 2461.300;  231.050;    0.000
434.138; 2566.300;  266.050;    0.000
434.189; 2446.300;  240.050;    0.000
434.239; 2421.300;  245.050;    0.000
434.289; 2482.300;  285.050;    0.000
434.339; 2530.300;  255.050;    0.000
434.389; 2509.300;  242.050;    0.000
434.440; 2553.300;  273.050;    0.000
434.490; 2628.300;  272.050;    0.000
434.540; 2515.300;  264.050;    0.000
434.590; 2505.300;  233.050;    0.000
434.640; 2576.300;  244.050;    0.000
434.691; 2568.300;  226.050;    0.000
434.741; 2578.300;  253.050;    0.000
434.791; 2529.300;  269.050;    0.000
434.841; 2620.300;  252.050;    0.000
434.891; 2564.300;  281.050;    0.000
434.941; 2616.300;  296.050;    0.000
434.991; 2493.300;  264.050;    0.000
435.042; 2540.300;  262.050;    0.000
435.092; 2478.300;  237.050;    0.000
435.142; 2506.300;  232.050;    0.000
435.192; 2518.300;  251.050;    0.000
435.242; 2350.300;  251.050;    0.000
435.292; 2472.300;  246.050;    0.000
435.342; 2503.300;  236.050;    0.000
435.392; 2499.300;  273.050;    0.000
435.442; 2451.300;  273.050;    0.000
435.492; 2547.300;  273.050;    0.000
435.542; 2428.300;  242.050;    0.000
435.592; 2421.300;  213.050;    0.000
435.642; 2457.300;  248.050;    0.000
435.692; 2435.300;  242.050;    0.000
435.742; 2391.300;  222.050;    0.000
435.792; 2456.300;  260.050;    0.000
435.842; 2448.300;  266.050;    0.000
435.891; 2354.300;  227.050;    0.000
435.941; 2459.300;  228.050;    0.000
435.991; 2317.300;  282.050;    0.000
436.041; 2370.300;  231.050;    0.000
436.091; 2438.300;  250.050;    0.000
436.141; 2487.300;  221.050;    0.000
436.191; 2409.300;  223.050;    0.000
436.241; 2420.300;  250.050;    0.000
436.290; 2429.300;  243.050;    0.000
436.340; 2411.300;  236.050;    0.000
436.390; 2393.300;  260.050;    0.000
436.440; 2370.300;  253.050;    0.000
436.490; 2334.300;  236.050;    0.000
436.539; 2368.300;  249.050;    0.000
436.589; 2359.300;  231.050;    0.000
436.639; 2380.300;  237.050;    0.000
436.689; 2365.300;  222.050;    0.000
436.738; 2409.300;  263.050;    0.000
436.788; 2340.300;  230.050;    0.000
436.838; 2357.300;  281.050;    0.000
436.887; 2278.300;  230.050;    0.000
436.937; 2392.300;  250.050;    0.000
436.987; 2354.300;  251.050;    0.000
437.036; 2300.300;  238.050;    0.000
437.086; 2354.300;  234.050;    0.000
437.136; 2395.300;  250.050;    0.000
437.185; 2278.300;  228.050;    0.000
437.235; 2393.300;  309.050;    0.000
437.285; 2336.300;  246.050;    0.000
437.334; 2317.300;  262.050;    0.000
437.384; 2341.300;  228.050;    0.000
437.433; 2241.300;  241.050;    0.000
437.483; 2302.300;  220.050;    0.000
437.532; 2284.300;  252.050;    0.000
437.582; 2294.300;  270.050;    0.000
437.631; 2274.300;  251.050;    0.000
437.681; 2350.300;  284.050;    0.000
437.730; 2281.300;  239.050;    0.000
437.780; 2214.300;  221.050;    0.000
437.829; 2305.300;  254.050;    0.000
437.879; 2327.300;  221.050;    0.000
437.928; 2311.300;  205.050;    0.000
437.978; 2372.300;  223.050;    0.000
438.027; 2367.300;  262.050;    0.000
438.077; 2280.300;  280.050;    0.000
438.126; 2321.300;  254.050;    0.000
438.176; 2225.300;  230.050;    0.000
438.225; 2290.300;  227.050;    0.000
438.274; 2253.300;  264.050;    0.000
438.324; 2192.300;  233.050;    0.000
438.373; 2260.300;  238.050;    0.000
438.422; 2268.300;  260.050;    0.000
438.472; 2247.300;  223.050;    0.000
438.521; 2162.300;  213.050;    0.000
438.570; 2324.300;  236.050;    0.000
438.620; 2350.300;  282.050;    0.000
438.669; 2292.300;  209.050;    0.000
438.718; 2295.300;  245.050;    0.000
438.768; 2285.300;  238.050;    0.000
438.817; 2312.300;  259.050;    0.000
438.866; 2267.300;  232.050;    0.000
438.915; 2356.300;  288.050;    0.000
438.965; 2221.300;  228.050;    0.000
439.014; 2266.300;  246.050;    0.000
439.063; 2262.300;  287.050;    0.000
439.112; 2255.300;  217.050;    0.000
439.162; 2332.300;  275.050;    0.000
439.211; 2210.300;  287.050;    0.000
439.260; 2297.300;  238.050;    0.000
439.309; 2365.300;  225.050;    0.000
439.358; 2275.300;  248.050;    0.000
439.407; 2282.300;  237.050;    0.000
439.456; 2277.300;  223.050;    0.000
439.506; 2266.300;  266.050;    0.000
439.555; 2232.300;  260.050;    0.000
439.604; 2209.300;  233.050;    0.000
439.653; 2223.300;  242.050;    0.000
439.702; 2250.300;  255.050;    0.000
439.751; 2285.300;  202.050;    0.000
439.800; 2308.300;  247.050;    0.000
439.849; 2380.300;  250.050;    0.000
439.898; 2207.300;  216.050;    0.000
439.947; 2247.300;  231.050;    0.000
439.996; 2262.300;  272.050;    0.000
440.045; 2250.300;  217.050;    0.000
440.094; 2310.300;  220.050;    0.000
440.143; 2345.300;  245.050;    0.000
440.192; 2377.300;  267.050;    0.000
440.241; 2237.300;  263.050;    0.000
440.290; 2287.300;  246.050;    0.000
440.339; 2269.300;  225.050;    0.000
440.388; 2270.300;  256.050;    0.000
440.437; 2318.300;  253.050;    0.000
440.486; 2308.300;  249.050;    0.000
440.535; 2375.300;  232.050;    0.000
440.583; 2266.300;  220.050;    0.000
440.632; 2293.300;  239.050;    0.000
440.681; 2319.300;  236.050;    0.000
440.730; 2342.300;  282.050;    0.000
440.779; 2337.300;  245.050;    0.000
440.828; 2295.300;  213.050;    0.000
440.876; 2356.300;  231.050;    0.000
440.925; 2261.300;  271.050;    0.000
440.974; 2337.300;  240.050;    0.000
441.023; 2280.300;  214.050;    0.000
441.072; 2325.300;  236.050;    0.000
441.120; 2410.300;  271.050;    0.000
441.169; 2410.300;  281.050;    0.000
441.218; 2356.300;  255.050;    0.000
441.267; 2352.300;  272.050;    0.000
441.315; 2380.300;  229.050;    0.000
441.364; 2361.300;  241.050;    0.000
441.413; 2343.300;  224.050;    0.000
441.461; 2356.300;  241.050;    0.000
441.510; 2442.300;  289.050;    0.000
441.559; 2422.300;  222.050;    0.000
441.607; 2490.300;  242.050;    0.000
441.656; 2403.300;  255.050;    0.000
441.705; 2466.300;  260.050;    0.000
441.753; 2467.300;  290.050;    0.000
441.802; 2483.300;  264.050;    0.000
441.850; 2463.300;  224.050;    0.000
441.899; 2391.300;  275.050;    0.000
441.948; 2389.300;  227.050;    0.000
441.996; 2355.300;  216.050;    0.000
442.045; 2401.300;  271.050;    0.000
442.093; 2419.300;  227.050;    0.000
442.142; 2411.300;  273.050;    0.000
442.190; 2428.300;  257.050;    0.000
442.239; 2409.300;  269.050;    0.000
442.287; 2306.300;  257.050;    0.000
442.336; 2441.300;  237.050;    0.000
442.384; 2309.300;  214.050;    0.000
442.433; 2442.300;  272.050;    0.000
442.481; 2360.300;  258.050;    0.000
442.529; 2335.300;  242.050;    0.000
442.578; 2364.300;  278.050;    0.000
442.626; 2298.300;  264.050;    0.000
442.675; 2397.300;  293.050;    0.000
442.723; 2346.300;  244.050;    0.000
442.771; 2319.300;  232.050;    0.000
442.820; 2434.300;  266.050;    0.000
442.868; 2287.300;  253.050;    0.000
442.917; 2290.300;  250.050;    0.000
442.965; 2383.300;  279.050;    0.000
443.013; 2369.300;  253.050;    0.000
443.062; 2371.300;  282.050;    0.000
443.110; 2377.300;  258.050;    0.000
443.158; 2441.300;  246.050;    0.000
443.206; 2347.300;  255.050;    0.000
443.255; 2434.300;  296.050;    0.000
443.303; 2469.300;  272.050;    0.000
443.351; 2398.300;  270.050;    0.000
443.399; 2362.300;  258.050;    0.000
443.448; 2447.300;  265.050;    0.000
443.496; 2443.300;  219.050;    0.000
443.544; 2274.300;  205.050;    0.000
443.592; 2357.300;  266.050;    0.000
443.640; 2461.300;  260.050;    0.000
443.689; 2433.300;  232.050;    0.000
443.737; 2505.300;  281.050;    0.000
443.785; 2509.300;  248.050;    0.000
443.833; 2518.300;  286.050;    0.000
443.881; 2392.300;  225.050;    0.000
443.929; 2462.300;  255.050;    0.000
443.977; 2554.300;  248.050;    0.000
444.025; 2446.300;  255.050;    0.000
444.074; 2505.300;  266.050;    0.000
444.122; 2522.300;  266.050;    0.000
444.170; 2453.300;  207.050;    0.000
444.218; 2511.300;  253.050;    0.000
444.266; 2523.300;  263.050;    0.000
444.314; 2444.300;  272.050;    0.000
444.362; 2471.300;  272.050;    0.000
444.410; 2506.300;  255.050;    0.000
444.458; 2623.300;  288.050;    0.000
444.506; 2545.300;  263.050;    0.000
444.554; 2506.300;  243.050;    0.000
444.602; 2523.300;  285.050;    0.000
444.650; 2545.300;  273.050;    0.000
444.698; 2505.300;  221.050;    0.000
444.746; 2504.300;  243.050;    0.000
444.793; 2531.300;  217.050;    0.000
444.841; 2619.300;  262.050;    0.000
444.889; 2604.300;  264.050;    0.000
444.937; 2570.300;  226.050;    0.000
444.985; 2544.300;  257.050;    0.000
445.033; 2495.300;  264.050;    0.000
445.081; 2545.300;  264.050;    0.000
445.129; 2544.300;  187.050;    0.000
445.176; 2583.300;  212.050;    0.000
445.224; 2508.300;  198.050;    0.000
445.272; 2585.300;  265.050;    0.000
445.320; 2602.300;  239.050;    0.000
445.368; 2610.300;  245.050;    0.000
445.415; 2499.300;  215.050;    0.000
445.463; 2554.300;  202.050;    0.000
445.511; 2600.300;  234.050;    0.000
445.559; 2585.300;  269.050;    0.000
445.606; 2599.300;  214.050;    0.000
445.654; 2575.300;  227.050;    0.000
445.702; 2531.300;  276.050;    0.000
445.749; 2560.300;  256.050;    0.000
445.797; 2540.300;  236.050;    0.000
445.845; 2573.300;  230.050;    0.000
445.892; 2565.300;  233.050;    0.000
445.940; 2487.300;  257.050;    0.000
445.988; 2526.300;  253.050;    0.000
446.035; 2560.300;  265.050;    0.000
446.083; 2612.300;  254.050;    0.000
446.130; 2528.300;  228.050;    0.000
446.178; 2587.300;  256.050;    0.000
446.226; 2559.300;  238.050;    0.000
446.273; 2590.300;  228.050;    0.000
446.321; 2578.300;  220.050;    0.000
446.368; 2554.300;  249.050;    0.000
446.416; 2633.300;  221.050;    0.000
446.463; 2637.300;  232.050;    0.000
446.511; 2643.300;  243.050;    0.000
446.558; 2569.300;  217.050;    0.000
446.606; 2693.300;  256.050;    0.000
446.653; 2642.300;  238.050;    0.000
446.701; 2640.300;  259.050;    0.000
446.748; 2665.300;  227.050;    0.000
446.796; 2724.300;  236.050;    0.000
446.843; 2672.300;  241.050;    0.000
446.891; 2661.300;  292.050;    0.000
446.938; 2746.300;  219.050;    0.000
446.985; 2688.300;  255.050;    0.000
447.033; 2764.300;  237.050;    0.000
447.080; 2742.300;  278.050;    0.000
447.128; 2820.300;  237.050;    0.000
447.175; 2765.300;  247.050;    0.000
447.222; 2832.300;  235.050;    0.000
447.270; 2872.300;  274.050;    0.000
447.317; 2865.300;  222.050;    0.000
447.364; 2910.300;  230.050;    0.000
447.411; 2950.300;  297.050;    0.000
447.459; 2880.300;  243.050;    0.000
447.506; 2944.300;  202.050;    0.000
447.553; 2902.300;  232.050;    0.000
447.601; 2987.300;  262.050;    0.000
447.648; 2983.300;  254.050;    0.000
447.695; 2994.300;  287.050;    0.000
447.742; 3054.300;  232.050;    0.000
447.789; 3047.300;  257.050;    0.000
447.837; 3057.300;  260.050;    0.000
447.884; 3199.300;  272.050;    0.000
447.931; 3203.300;  241.050;    0.000
447.978; 3265.300;  241.050;    0.000
448.025; 3207.300;  264.050;    0.000
448.072; 3322.300;  279.050;    0.000
448.120; 3363.300;  263.050;    0.000
448.167; 3315.300;  284.050;    0.000
448.214; 3226.300;  252.050;    0.000
448.261; 3257.300;  247.050;    0.000
448.308; 3227.300;  249.050;    0.000
448.355; 3131.300;  263.050;    0.000
448.402; 3069.300;  251.050;    0.000
448.449; 3093.300;  257.050;    0.000
448.496; 3066.300;  243.050;    0.000
448.543; 2953.300;  274.050;    0.000
448.590; 2871.300;  299.050;    0.000
448.637; 2952.300;  259.050;    0.000
448.684; 2860.300;  266.050;    0.000
448.731; 2843.300;  261.050;    0.000
448.778; 2818.300;  292.050;    0.000
448.825; 2823.300;  253.050;    0.000
448.872; 2656.300;  253.050;    0.000
448.919; 2806.300;  218.050;    0.000
448.966; 2731.300;  254.050;    0.000
449.013; 2707.300;  263.050;    0.000
449.060; 2747.300;  282.050;    0.000
449.107; 2674.300;  244.050;    0.000
449.154; 2629.300;  236.050;    0.000
449.200; 2663.300;  226.050;    0.000
449.247; 2675.300;  273.050;    0.000
449.294; 2673.300;  270.050;    0.000
449.341; 2663.300;  283.050;    0.000
449.388; 2578.300;  261.050;    0.000
449.435; 2667.300;  254.050;    0.000
449.481; 2601.300;  318.050;    0.000
449.528; 2566.300;  274.050;    0.000
449.575; 2531.300;  251.050;    0.000
449.622; 2425.300;  276.050;    0.000
449.668; 2517.300;  242.050;    0.000
449.715; 2502.300;  286.050;    0.000
449.762; 2455.300;  268.050;    0.000
449.809; 2605.300;  285.050;    0.000
449.855; 2472.300;  277.050;    0.000
449.902; 2548.300;  246.050;    0.000
449.949; 2487.300;  268.050;    0.000
449.995; 2471.300;  289.050;    0.000
450.042; 2420.300;  256.050;    0.000
450.089; 2494.300;  290.050;    0.000
450.135; 2458.300;  300.050;    0.000
450.182; 2461.300;  317.050;    0.000
450.229; 2431.300;  282.050;    0.000
450.275; 2398.300;  307.050;    0.000
450.322; 2515.300;  260.050;    0.000
450.368; 2507.300;  315.050;    0.000
450.415; 2438.300;  306.050;    0.000
450.462; 2457.300;  314.050;    0.000
450.508; 2433.300;  303.050;    0.000
450.555; 2371.300;  281.050;    0.000
450.601; 2395.300;  291.050;    0.000
450.648; 2387.300;  288.050;    0.000
450.694; 2372.300;  290.050;    0.000
450.741; 2342.300;  303.050;    0.000
450.787; 2353.300;  298.050;    0.000
450.834; 2267.300;  265.050;    0.000
450.880; 2405.300;  273.050;    0.000
450.927; 2356.300;  312.050;    0.000
450.973; 2337.300;  303.050;    0.000
451.019; 2312.300;  222.050;    0.000
451.066; 2271.300;  284.050;    0.000
451.112; 2366.300;  296.050;    0.000
451.159; 2322.300;  299.050;    0.000
451.205; 2338.300;  311.050;    0.000
451.251; 2278.300;  306.050;    0.000
451.298; 2343.300;  281.050;    0.000
451.344; 2341.300;  311.050;    0.000
451.390; 2343.300;  331.050;    0.000
451.437; 2375.300;  303.050;    0.000
451.483; 2357.300;  284.050;    0.000
451.529; 2301.300;  310.050;    0.000
451.576; 2362.300;  301.050;    0.000
451.622; 2277.300;  275.050;    0.000
451.668; 2369.300;  269.050;    0.000
451.714; 2240.300;  277.050;    0.000
451.761; 2306.300;  298.050;    0.000
451.807; 2349.300;  316.050;    0.000
451.853; 2288.300;  301.050;    0.000
451.899; 2288.300;  292.050;    0.000
451.945; 2362.300;  324.050;    0.000
451.992; 2301.300;  292.050;    0.000
452.038; 2286.300;  261.050;    0.000
452.084; 2252.300;  286.050;    0.000
452.130; 2228.300;  301.050;    0.000
452.176; 2237.300;  287.050;    0.000
452.222; 2282.300;  265.050;    0.000
452.268; 2223.300;  268.050;    0.000
452.315; 2234.300;  272.050;    0.000
452.361; 2268.300;  258.050;    0.000
452.407; 2230.300;  279.050;    0.000
452.453; 2215.300;  252.050;    0.000
452.499; 2299.300;  305.050;    0.000
452.545; 2237.300;  263.050;    0.000
452.591; 2238.300;  284.050;    0.000
452.637; 2223.300;  289.050;    0.000
452.683; 2183.300;  249.050;    0.000
452.729; 2261.300;  290.050;    0.000
452.775; 2272.300;  315.050;    0.000
452.821; 2219.300;  271.050;    0.000
452.867; 2203.300;  258.050;    0.000
452.913; 2241.300;  256.050;    0.000
452.959; 2188.300;  266.050;    0.000
453.005; 2222.300;  299.050;    0.000
453.051; 2121.300;  299.050;    0.000
453.097; 2229.300;  268.050;    0.000
453.142; 2206.300;  251.050;    0.000
453.188; 2248.300;  284.050;    0.000
453.234; 2197.300;  285.050;    0.000
453.280; 2208.300;  263.050;    0.000
453.326; 2220.300;  273.050;    0.000
453.372; 2117.300;  253.050;    0.000
453.418; 2210.300;  269.050;    0.000
453.463; 2074.300;  250.050;    0.000
453.509; 2128.300;  289.050;    0.000
453.555; 2156.300;  262.050;    0.000
453.601; 2110.300;  274.050;    0.000
453.647; 2139.300;  306.050;    0.000
453.692; 2149.300;  264.050;    0.000
453.738; 2184.300;  312.050;    0.000
453.784; 2124.300;  300.050;    0.000
453.829; 2127.300;  284.050;    0.000
453.875; 2097.300;  270.050;    0.000
453.921; 2134.300;  237.050;    0.000
453.967; 2148.300;  263.050;    0.000
454.012; 2130.300;  295.050;    0.000
454.058; 2203.300;  293.050;    0.000
454.104; 2170.300;  264.050;    0.000
454.149; 2119.300;  282.050;    0.000
454.195; 2174.300;  277.050;    0.000
454.240; 2211.300;  307.050;    0.000
454.286; 2145.300;  282.050;    0.000
454.332; 2191.300;  291.050;    0.000
454.377; 2147.300;  302.050;    0.000
454.423; 2153.300;  276.050;    0.000
454.468; 2109.300;  281.050;    0.000
454.514; 2154.300;  290.050;    0.000
454.559; 2145.300;  289.050;    0.000
454.605; 2147.300;  258.050;    0.000
454.650; 2204.300;  281.050;    0.000
454.696; 2170.300;  308.050;    0.000
454.741; 2177.300;  288.050;    0.000
454.787; 2108.300;  284.050;    0.000
454.832; 2217.300;  306.050;    0.000
454.878; 2150.300;  288.050;    0.000
454.923; 2073.300;  287.050;    0.000
454.969; 2176.300;  325.050;    0.000
455.014; 2180.300;  323.050;    0.000
455.060; 2182.300;  290.050;    0.000
455.105; 2165.300;  285.050;    0.000
455.150; 2070.300;  303.050;    0.000
455.196; 2194.300;  282.050;    0.000
455.241; 2246.300;  281.050;    0.000
455.286; 2157.300;  290.050;    0.000
455.332; 2118.300;  280.050;    0.000
455.377; 2135.300;  243.050;    0.000
455.422; 2111.300;  308.050;    0.000
455.468; 2093.300;  308.050;    0.000
455.513; 2134.300;  290.050;    0.000
455.558; 2139.300;  211.050;    0.000
455.604; 2149.300;  289.050;    0.000
455.649; 2181.300;  297.050;    0.000
455.694; 2092.300;  287.050;    0.000
455.739; 2177.300;  296.050;    0.000
455.785; 2259.300;  315.050;    0.000
455.830; 2188.300;  328.050;    0.000
455.875; 2148.300;  310.050;    0.000
455.920; 2102.300;  261.050;    0.000
455.965; 2066.300;  277.050;    0.000
456.010; 2193.300;  317.050;    0.000
456.056; 2128.300;  299.050;    0.000
456.101; 2098.300;  262.050;    0.000
456.146; 2153.300;  318.050;    0.000
456.191; 2207.300;  274.050;    0.000
456.236; 2092.300;  274.050;    0.000
456.281; 2088.300;  275.050;    0.000
456.326; 2115.300;  256.050;    0.000
456.371; 2102.300;  260.050;    0.000
456.416; 2145.300;  304.050;    0.000
456.461; 2108.300;  278.050;    0.000
456.507; 2118.300;  299.050;    0.000
456.552; 2119.300;  305.050;    0.000
456.597; 2115.300;  271.050;    0.000
456.642; 2096.300;  273.050;    0.000
456.687; 2208.300;  290.050;    0.000
456.732; 2135.300;  327.050;    0.000
456.776; 2189.300;  284.050;    0.000
456.821; 2179.300;  321.050;    0.000
456.866; 2130.300;  272.050;    0.000
456.911; 2186.300;  232.050;    0.000
456.956; 2157.300;  263.050;    0.000
457.001; 2150.300;  277.050;    0.000
457.046; 2205.300;  284.050;    0.000
457.091; 2155.300;  269.050;    0.000
457.136; 2119.300;  269.050;    0.000
457.181; 2068.300;  275.050;    0.000
457.225; 2209.300;  310.050;    0.000
457.270; 2138.300;  295.050;    0.000
457.315; 2139.300;  284.050;    0.000
457.360; 2057.300;  264.050;    0.000
457.405; 2130.300;  273.050;    0.000
457.450; 2188.300;  284.050;    0.000
457.494; 2115.300;  273.050;    0.000
457.539; 2137.300;  287.050;    0.000
457.584; 2160.300;  279.050;    0.000
457.629; 2157.300;  288.050;    0.000
457.673; 2144.300;  297.050;    0.000
457.718; 2151.300;  270.050;    0.000
457.763; 2122.300;  295.050;    0.000
457.807; 2156.300;  321.050;    0.000
457.852; 2114.300;  293.050;    0.000
457.897; 2156.300;  282.050;    0.000
457.941; 2213.300;  320.050;    0.000
457.986; 2175.300;  295.050;    0.000
458.031; 2192.300;  314.050;    0.000
458.075; 2233.300;  280.050;    0.000
458.120; 2218.300;  314.050;    0.000
458.165; 2110.300;  289.050;    0.000
458.209; 2121.300;  289.050;    0.000
458.254; 2190.300;  272.050;    0.000
458.298; 2224.300;  305.050;    0.000
458.343; 2171.300;  284.050;    0.000
458.387; 2247.300;  340.050;    0.000
458.432; 2248.300;  306.050;    0.000
458.476; 2253.300;  311.050;    0.000
458.521; 2204.300;  304.050;    0.000
458.565; 2215.300;  329.050;    0.000
458.610; 2285.300;  287.050;    0.000
458.654; 2194.300;  300.050;    0.000
458.699; 2232.300;  295.050;    0.000
458.743; 2228.300;  269.050;    0.000
458.788; 2251.300;  294.050;    0.000
458.832; 2262.300;  301.050;    0.000
458.877; 2281.300;  303.050;    0.000
458.921; 2270.300;  259.050;    0.000
458.965; 2246.300;  308.050;    0.000
459.010; 2355.300;  330.050;    0.000
459.054; 2303.300;  298.050;    0.000
459.099; 2306.300;  303.050;    0.000
459.143; 2409.300;  333.050;    0.000
459.187; 2343.300;  291.050;    0.000
459.231; 2319.300;  316.050;    0.000
459.276; 2377.300;  294.050;    0.000
459.320; 2345.300;  291.050;    0.000
459.364; 2310.300;  318.050;    0.000
459.409; 2267.300;  325.050;    0.000
459.453; 2329.300;  293.050;    0.000
459.497; 2460.300;  354.050;    0.000
459.541; 2328.300;  313.050;    0.000
459.586; 2355.300;  282.050;    0.000
459.630; 2393.300;  286.050;    0.000
459.674; 2368.300;  292.050;    0.000
459.718; 2306.300;  280.050;    0.000
459.762; 2378.300;  304.050;    0.000
459.807; 2397.300;  352.050;    0.000
459.851; 2298.300;  300.050;    0.000
459.895; 2366.300;  311.050;    0.000
459.939; 2311.300;  303.050;    0.000
459.983; 2309.300;  299.050;    0.000
460.027; 2382.300;  307.050;    0.000
460.071; 2411.300;  313.050;    0.000
460.115; 2453.300;  325.050;    0.000
460.159; 2379.300;  331.050;    0.000
460.204; 2410.300;  301.050;    0.000
460.248; 2419.300;  329.050;    0.000
460.292; 2409.300;  310.050;    0.000
460.336; 2402.300;  304.050;    0.000
460.380; 2405.300;  313.050;    0.000
460.424; 2435.300;  300.050;    0.000
460.468; 2377.300;  338.050;    0.000
460.512; 2284.300;  310.050;    0.000
460.556; 2373.300;  337.050;    0.000
460.599; 2370.300;  310.050;    0.000
460.643; 2467.300;  303.050;    0.000
460.687; 2446.300;  316.050;    0.000
460.731; 2400.300;  292.050;    0.000
460.775; 2342.300;  294.050;    0.000
460.819; 2475.300;  310.050;    0.000
460.863; 2467.300;  349.050;    0.000
460.907; 2337.300;  265.050;    0.000
460.951; 2400.300;  325.050;    0.000
460.995; 2395.300;  338.050;    0.000
461.038; 2435.300;  304.050;    0.000
461.082; 2467.300;  312.050;    0.000
461.126; 2386.300;  358.050;    0.000
461.170; 2430.300;  306.050;    0.000
461.214; 2409.300;  330.050;    0.000
461.257; 2445.300;  311.050;    0.000
461.301; 2419.300;  303.050;    0.000
461.345; 2501.300;  310.050;    0.000
461.389; 2437.300;  296.050;    0.000
461.432; 2536.300;  304.050;    0.000
461.476; 2446.300;  305.050;    0.000
461.520; 2465.300;  319.050;    0.000
461.563; 2460.300;  294.050;    0.000
461.607; 2524.300;  295.050;    0.000
461.651; 2480.300;  335.050;    0.000
461.694; 2425.300;  276.050;    0.000
461.738; 2506.300;  327.050;    0.000
461.782; 2482.300;  288.050;    0.000
461.825; 2464.300;  319.050;    0.000
461.869; 2488.300;  305.050;    0.000
461.913; 2356.300;  281.050;    0.000
461.956; 2551.300;  281.050;    0.000
462.000; 2481.300;  339.050;    0.000
462.043; 2580.300;  347.050;    0.000
462.087; 2474.300;  314.050;    0.000
462.130; 2470.300;  332.050;    0.000
462.174; 2529.300;  332.050;    0.000
462.217; 2492.300;  299.050;    0.000
462.261; 2554.300;  323.050;    0.000
462.304; 2531.300;  286.050;    0.000
462.348; 2467.300;  305.050;    0.000
462.391; 2416.300;  293.050;    0.000
462.435; 2544.300;  365.050;    0.000
462.478; 2599.300;  329.050;    0.000
462.522; 2563.300;  316.050;    0.000
462.565; 2505.300;  328.050;    0.000
462.608; 2666.300;  350.050;    0.000
462.652; 2626.300;  328.050;    0.000
462.695; 2653.300;  358.050;    0.000
462.739; 2609.300;  317.050;    0.000
462.782; 2682.300;  329.050;    0.000
462.825; 2569.300;  368.050;    0.000
462.869; 2693.300;  343.050;    0.000
462.912; 2684.300;  404.050;    0.000
462.955; 2670.300;  328.050;    0.000
462.998; 2635.300;  340.050;    0.000
463.042; 2706.300;  361.050;    0.000
463.085; 2756.300;  337.050;    0.000
463.128; 2746.300;  373.050;    0.000
463.172; 2633.300;  347.050;    0.000
463.215;  387.300;  305.050;    0.000
463.258;  345.300;  324.050;    0.000
463.301;  280.300;  296.050;    0.000
463.344;  353.300;  332.050;    0.000
463.388;  304.300;  309.050;    0.000
463.431;  287.300;  298.050;    0.000
463.474;  340.300;  351.050;    0.000
463.517;  318.300;  319.050;    0.000
463.560;  314.300;  325.050;    0.000
463.603;  334.300;  330.050;    0.000
463.646;  339.300;  332.050;    0.000
463.690;  320.300;  325.050;    0.000
463.733;  315.300;  323.050;    0.000
463.776;  311.300;  276.050;    0.000
463.819;  327.300;  320.050;    0.000
463.862;  293.300;  275.050;    0.000

