
Integration time [ms]:   0.300
Averaging Nr. [scans]: 1
Smoothing Nr. [pixels]: 0
Data measured with spectrometer [name]: UV1
Wave   ;Sample   ;Dark     ;Reference
[nm]   ;[counts] ;[counts] ;[counts] 

236.381;  166.875;  160.350;    0.000
236.451;  178.875;  198.350;    0.000
236.520;  211.875;  179.350;    0.000
236.590;  191.875;  205.350;    0.000
236.660;  180.875;  199.350;    0.000
236.730;  160.875;  178.350;    0.000
236.799;  204.875;  201.350;    0.000
236.869;  157.875;  197.350;    0.000
236.939;  173.875;  180.350;    0.000
237.009;  191.875;  165.350;    0.000
237.078;  171.875;  191.350;    0.000
237.148;  141.875;  146.350;    0.000
237.218;  182.875;  142.350;    0.000
237.287;  214.875;  190.350;    0.000
237.357;  179.875;  182.350;    0.000
237.427;  171.875;  139.350;    0.000
237.496;  982.875;  221.350;    0.000
237.566; 1004.875;  183.350;    0.000
237.636;  968.875;  157.350;    0.000
237.705;  981.875;  189.350;    0.000
237.775; 1015.875;  169.350;    0.000
237.845; 1018.875;  156.350;    0.000
237.914;  999.875;  185.350;    0.000
237.984;  967.875;  194.350;    0.000
238.054;  972.875;  138.350;    0.000
238.123; 1011.875;  166.350;    0.000
238.193; 1012.875;  174.350;    0.000
238.263; 1013.875;  158.350;    0.000
238.332;  997.875;  167.350;    0.000
238.402; 1011.875;  173.350;    0.000
238.471;  927.875;  153.350;    0.000
238.541;  929.875;  167.350;    0.000
238.611;  976.875;  165.350;    0.000
238.680;  974.875;  157.350;    0.000
238.750;  987.875;  152.350;    0.000
238.819;  959.875;  190.350;    0.000
238.889;  908.875;  151.350;    0.000
238.958;  979.875;  166.350;    0.000
239.028;  946.875;  180.350;    0.000
239.097;  917.875;  170.350;    0.000
239.167;  997.875;  177.350;    0.000
239.237; 1029.875;  195.350;    0.000
239.306;  913.875;  145.350;    0.000
239.376;  996.875;  158.350;    0.000
239.445; 1032.875;  187.350;    0.000
239.515;  998.875;  160.350;    0.000
239.584;  996.875;  173.350;    0.000
239.654;  866.875;  184.350;    0.000
239.723; 1009.875;  195.350;    0.000
239.793;  979.875;  183.350;    0.000
239.862;  952.875;  190.350;    0.000
239.932;  957.875;  168.350;    0.000
240.001;  888.875;  164.350;    0.000
240.070;  938.875;  183.350;    0.000
240.140;  985.875;  175.350;    0.000
240.209;  891.875;  135.350;    0.000
240.279;  932.875;  176.350;    0.000
240.348;  993.875;  184.350;    0.000
240.418;  948.875;  157.350;    0.000
240.487;  914.875;  189.350;    0.000
240.556;  971.875;  157.350;    0.000
240.626;  923.875;  174.350;    0.000
240.695;  988.875;  180.350;    0.000
240.765;  929.875;  152.350;    0.000
240.834;  978.875;  136.350;    0.000
240.903;  923.875;  196.350;    0.000
240.973;  967.875;  183.350;    0.000
241.042;  881.875;  150.350;    0.000
241.112;  950.875;  168.350;    0.000
241.181;  976.875;  152.350;    0.000
241.250;  913.875;  132.350;    0.000
241.320;  953.875;  209.350;    0.000
241.389;  952.875;  169.350;    0.000
241.458;  910.875;  204.350;    0.000
241.528;  957.875;  176.350;    0.000
241.597;  920.875;  170.350;    0.000
241.666;  902.875;  168.350;    0.000
241.736;  933.875;  172.350;    0.000
241.805;  940.875;  160.350;    0.000
241.874;  946.875;  176.350;    0.000
241.943;  953.875;  165.350;    0.000
242.013;  988.875;  206.350;    0.000
242.082;  904.875;  162.350;    0.000
242.151;  925.875;  180.350;    0.000
242.221;  936.875;  154.350;    0.000
242.290;  916.875;  122.350;    0.000
242.359;  899.875;  121.350;    0.000
242.428;  965.875;  187.350;    0.000
242.498;  892.875;  140.350;    0.000
242.567;  965.875;  173.350;    0.000
242.636;  939.875;  155.350;    0.000
242.705;  989.875;  108.350;    0.000
242.774;  918.875;  145.350;    0.000
242.844;  921.875;  162.350;    0.000
242.913;  918.875;  178.350;    0.000
242.982;  937.875;  163.350;    0.000
243.051;  930.875;  138.350;    0.000
243.120;  878.875;  172.350;    0.000
243.190;  854.875;  155.350;    0.000
243.259;  942.875;  159.350;    0.000
243.328;  894.875;  173.350;    0.000
243.397;  874.875;  175.350;    0.000
243.466;  926.875;  170.350;    0.000
243.535;  918.875;  161.350;    0.000
243.605;  956.875;  149.350;    0.000
243.674;  938.875;  162.350;    0.000
243.743;  958.875;  175.350;    0.000
243.812;  842.875;  159.350;    0.000
243.881;  916.875;  158.350;    0.000
243.950;  935.875;  154.350;    0.000
244.019;  938.875;  185.350;    0.000
244.088;  912.875;  175.350;    0.000
244.158;  960.875;  167.350;    0.000
244.227;  887.875;  159.350;    0.000
244.296;  901.875;  143.350;    0.000
244.365;  964.875;  182.350;    0.000
244.434;  885.875;  117.350;    0.000
244.503;  853.875;  109.350;    0.000
244.572;  889.875;  147.350;    0.000
244.641;  878.875;  129.350;    0.000
244.710;  869.875;  159.350;    0.000
244.779;  886.875;  166.350;    0.000
244.848;  878.875;  122.350;    0.000
244.917;  962.875;  167.350;    0.000
244.986;  882.875;  158.350;    0.000
245.055;  926.875;  175.350;    0.000
245.124;  824.875;  153.350;    0.000
245.193;  826.875;  155.350;    0.000
245.262;  818.875;  137.350;    0.000
245.331;  844.875;  145.350;    0.000
245.400;  840.875;  107.350;    0.000
245.469;  851.875;  162.350;    0.000
245.538;  842.875;  165.350;    0.000
245.607;  834.875;  178.350;    0.000
245.676;  825.875;  166.350;    0.000
245.745;  791.875;  169.350;    0.000
245.814;  779.875;  155.350;    0.000
245.883;  850.875;  186.350;    0.000
245.952;  844.875;  165.350;    0.000
246.021;  866.875;  169.350;    0.000
246.090;  803.875;  170.350;    0.000
246.159;  749.875;  155.350;    0.000
246.227;  830.875;  161.350;    0.000
246.296;  797.875;  142.350;    0.000
246.365;  802.875;  160.350;    0.000
246.434;  849.875;  199.350;    0.000
246.503;  830.875;  155.350;    0.000
246.572;  822.875;  206.350;    0.000
246.641;  836.875;  177.350;    0.000
246.710;  790.875;  178.350;    0.000
246.779;  786.875;  193.350;    0.000
246.847;  826.875;  147.350;    0.000
246.916;  788.875;  131.350;    0.000
246.985;  783.875;  168.350;    0.000
247.054;  788.875;  143.350;    0.000
247.123;  716.875;  130.350;    0.000
247.192;  772.875;  175.350;    0.000
247.260;  775.875;  171.350;    0.000
247.329;  727.875;  162.350;    0.000
247.398;  753.875;  163.350;    0.000
247.467;  777.875;  155.350;    0.000
247.536;  823.875;  149.350;    0.000
247.604;  823.875;  191.350;    0.000
247.673;  731.875;  193.350;    0.000
247.742;  750.875;  159.350;    0.000
247.811;  712.875;  167.350;    0.000
247.879;  785.875;  176.350;    0.000
247.948;  817.875;  157.350;    0.000
248.017;  785.875;  150.350;    0.000
248.086;  750.875;  153.350;    0.000
248.154;  755.875;  157.350;    0.000
248.223;  794.875;  198.350;    0.000
248.292;  786.875;  188.350;    0.000
248.361;  788.875;  157.350;    0.000
248.429;  772.875;  138.350;    0.000
248.498;  731.875;  166.350;    0.000
248.567;  780.875;  179.350;    0.000
248.635;  786.875;  210.350;    0.000
248.704;  717.875;  168.350;    0.000
248.773;  741.875;  147.350;    0.000
248.841;  789.875;  155.350;    0.000
248.910;  759.875;  183.350;    0.000
248.979;  784.875;  171.350;    0.000
249.047;  722.875;  152.350;    0.000
249.116;  784.875;  155.350;    0.000
249.185;  784.875;  217.350;    0.000
249.253;  779.875;  149.350;    0.000
249.322;  765.875;  167.350;    0.000
249.390;  780.875;  182.350;    0.000
249.459;  769.875;  173.350;    0.000
249.528;  751.875;  162.350;    0.000
249.596;  749.875;  162.350;    0.000
249.665;  732.875;  163.350;    0.000
249.733;  781.875;  147.350;    0.000
249.802;  770.875;  170.350;    0.000
249.871;  745.875;  179.350;    0.000
249.939;  708.875;  179.350;    0.000
250.008;  699.875;  201.350;    0.000
250.076;  778.875;  189.350;    0.000
250.145;  732.875;  171.350;    0.000
250.213;  700.875;  161.350;    0.000
250.282;  703.875;  171.350;    0.000
250.350;  725.875;  138.350;    0.000
250.419;  744.875;  172.350;    0.000
250.487;  731.875;  207.350;    0.000
250.556;  737.875;  160.350;    0.000
250.624;  709.875;  187.350;    0.000
250.693;  722.875;  141.350;    0.000
250.761;  707.875;  182.350;    0.000
250.830;  719.875;  203.350;    0.000
250.898;  738.875;  160.350;    0.000
250.967;  704.875;  143.350;    0.000
251.035;  712.875;  142.350;    0.000
251.104;  719.875;  159.350;    0.000
251.172;  723.875;  189.350;    0.000
251.241;  716.875;  134.350;    0.000
251.309;  725.875;  179.350;    0.000
251.378;  727.875;  203.350;    0.000
251.446;  695.875;  151.350;    0.000
251.514;  727.875;  176.350;    0.000
251.583;  749.875;  173.350;    0.000
251.651;  690.875;  163.350;    0.000
251.720;  709.875;  151.350;    0.000
251.788;  751.875;  205.350;    0.000
251.856;  683.875;  126.350;    0.000
251.925;  698.875;  118.350;    0.000
251.993;  706.875;  139.350;    0.000
252.062;  730.875;  161.350;    0.000
252.130;  731.875;  180.350;    0.000
252.198;  671.875;  141.350;    0.000
252.267;  664.875;  145.350;    0.000
252.335;  692.875;  159.350;    0.000
252.403;  686.875;  158.350;    0.000
252.472;  689.875;  142.350;    0.000
252.540;  681.875;  162.350;    0.000
252.608;  687.875;  180.350;    0.000
252.677;  609.875;  137.350;    0.000
252.745;  634.875;  183.350;    0.000
252.813;  672.875;  151.350;    0.000
252.881;  606.875;  109.350;    0.000
252.950;  625.875;  174.350;    0.000
253.018;  620.875;  136.350;    0.000
253.086;  592.875;  149.350;    0.000
253.155;  575.875;  127.350;    0.000
253.223;  560.875;  156.350;    0.000
253.291;  592.875;  163.350;    0.000
253.359;  571.875;  174.350;    0.000
253.428;  637.875;  174.350;    0.000
253.496;  571.875;  161.350;    0.000
253.564;  563.875;  128.350;    0.000
253.632;  547.875;  153.350;    0.000
253.700;  551.875;  185.350;    0.000
253.769;  536.875;  163.350;    0.000
253.837;  537.875;  176.350;    0.000
253.905;  519.875;  164.350;    0.000
253.973;  515.875;  156.350;    0.000
254.041;  599.875;  154.350;    0.000
254.110;  531.875;  165.350;    0.000
254.178;  550.875;  148.350;    0.000
254.246;  521.875;  138.350;    0.000
254.314;  593.875;  164.350;    0.000
254.382;  545.875;  167.350;    0.000
254.450;  549.875;  134.350;    0.000
254.518;  558.875;  192.350;    0.000
254.587;  544.875;  139.350;    0.000
254.655;  560.875;  162.350;    0.000
254.723;  538.875;  131.350;    0.000
254.791;  558.875;  181.350;    0.000
254.859;  586.875;  146.350;    0.000
254.927;  583.875;  189.350;    0.000
254.995;  521.875;  141.350;    0.000
255.063;  550.875;  181.350;    0.000
255.131;  532.875;  156.350;    0.000
255.199;  526.875;  175.350;    0.000
255.267;  525.875;  120.350;    0.000
255.336;  548.875;  186.350;    0.000
255.404;  550.875;  134.350;    0.000
255.472;  521.875;  172.350;    0.000
255.540;  556.875;  157.350;    0.000
255.608;  490.875;  186.350;    0.000
255.676;  583.875;  155.350;    0.000
255.744;  548.875;  143.350;    0.000
255.812;  568.875;  134.350;    0.000
255.880;  569.875;  188.350;    0.000
255.948;  622.875;  163.350;    0.000
256.016;  645.875;  175.350;    0.000
256.084;  559.875;  191.350;    0.000
256.152;  615.875;  187.350;    0.000
256.220;  570.875;  152.350;    0.000
256.288;  604.875;  141.350;    0.000
256.356;  580.875;  139.350;    0.000
256.424;  571.875;  121.350;    0.000
256.491;  589.875;  139.350;    0.000
256.559;  622.875;  144.350;    0.000
256.627;  577.875;  158.350;    0.000
256.695;  581.875;  121.350;    0.000
256.763;  589.875;  150.350;    0.000
256.831;  610.875;  181.350;    0.000
256.899;  626.875;  146.350;    0.000
256.967;  622.875;   71.350;    0.000
257.035;  638.875;  164.350;    0.000
257.103;  654.875;  191.350;    0.000
257.171;  656.875;  140.350;    0.000
257.238;  658.875;  165.350;    0.000
257.306;  660.875;  127.350;    0.000
257.374;  680.875;  120.350;    0.000
257.442;  668.875;  139.350;    0.000
257.510;  691.875;  158.350;    0.000
257.578;  636.875;  164.350;    0.000
257.646;  699.875;  151.350;    0.000
257.713;  685.875;  136.350;    0.000
257.781;  733.875;  137.350;    0.000
257.849;  737.875;  151.350;    0.000
257.917;  691.875;  154.350;    0.000
257.985;  723.875;  113.350;    0.000
258.052;  736.875;  140.350;    0.000
258.120;  748.875;  176.350;    0.000
258.188;  754.875;  157.350;    0.000
258.256;  705.875;  153.350;    0.000
258.324;  769.875;  184.350;    0.000
258.391;  797.875;  144.350;    0.000
258.459;  817.875;  162.350;    0.000
258.527;  806.875;  154.350;    0.000
258.595;  802.875;  122.350;    0.000
258.662;  748.875;  164.350;    0.000
258.730;  854.875;  114.350;    0.000
258.798;  848.875;  131.350;    0.000
258.865;  806.875;  171.350;    0.000
258.933;  800.875;  145.350;    0.000
259.001;  865.875;  150.350;    0.000
259.069;  906.875;  123.350;    0.000
259.136;  857.875;  139.350;    0.000
259.204;  896.875;  165.350;    0.000
259.272;  903.875;  114.350;    0.000
259.339;  884.875;  179.350;    0.000
259.407;  856.875;  153.350;    0.000
259.475;  940.875;  143.350;    0.000
259.542;  963.875;  136.350;    0.000
259.610;  941.875;  133.350;    0.000
259.677;  919.875;  159.350;    0.000
259.745;  991.875;  130.350;    0.000
259.813;  959.875;  175.350;    0.000
259.880;  985.875;  158.350;    0.000
259.948; 1014.875;  124.350;    0.000
260.016; 1037.875;  105.350;    0.000
260.083; 1081.875;  169.350;    0.000
260.151; 1023.875;  133.350;    0.000
260.218; 1030.875;  143.350;    0.000
260.286; 1048.875;  134.350;    0.000
260.353; 1024.875;  160.350;    0.000
260.421; 1096.875;  128.350;    0.000
260.489; 1095.875;  150.350;    0.000
260.556; 1138.875;  179.350;    0.000
260.624; 1067.875;  113.350;    0.000
260.691; 1051.875;  128.350;    0.000
260.759; 1123.875;  146.350;    0.000
260.826; 1067.875;  111.350;    0.000
260.894; 1106.875;  115.350;    0.000
260.961; 1201.875;  138.350;    0.000
261.029; 1197.875;  152.350;    0.000
261.096; 1135.875;  175.350;    0.000
261.164; 1165.875;  131.350;    0.000
261.231; 1238.875;  141.350;    0.000
261.299; 1220.875;  125.350;    0.000
261.366; 1208.875;  142.350;    0.000
261.434; 1155.875;  133.350;    0.000
261.501; 1176.875;  137.350;    0.000
261.568; 1230.875;  184.350;    0.000
261.636; 1247.875;  138.350;    0.000
261.703; 1325.875;  161.350;    0.000
261.771; 1287.875;  160.350;    0.000
261.838; 1277.875;  178.350;    0.000
261.906; 1300.875;  128.350;    0.000
261.973; 1309.875;  139.350;    0.000
262.040; 1228.875;  148.350;    0.000
262.108; 1349.875;  130.350;    0.000
262.175; 1310.875;  117.350;    0.000
262.243; 1431.875;  174.350;    0.000
262.310; 1294.875;  145.350;    0.000
262.377; 1355.875;  108.350;    0.000
262.445; 1420.875;  147.350;    0.000
262.512; 1440.875;  124.350;    0.000
262.579; 1423.875;  127.350;    0.000
262.647; 1482.875;  166.350;    0.000
262.714; 1433.875;  150.350;    0.000
262.781; 1497.875;  121.350;    0.000
262.849; 1479.875;  126.350;    0.000
262.916; 1463.875;  119.350;    0.000
262.983; 1450.875;  155.350;    0.000
263.051; 1436.875;  137.350;    0.000
263.118; 1422.875;  160.350;    0.000
263.185; 1491.875;  151.350;    0.000
263.252; 1459.875;  167.350;    0.000
263.320; 1484.875;  123.350;    0.000
263.387; 1447.875;  134.350;    0.000
263.454; 1564.875;  144.350;    0.000
263.522; 1555.875;  153.350;    0.000
263.589; 1567.875;  161.350;    0.000
263.656; 1625.875;  117.350;    0.000
263.723; 1605.875;  101.350;    0.000
263.790; 1581.875;  128.350;    0.000
263.858; 1615.875;  142.350;    0.000
263.925; 1633.875;  182.350;    0.000
263.992; 1540.875;  146.350;    0.000
264.059; 1606.875;  132.350;    0.000
264.126; 1652.875;  154.350;    0.000
264.194; 1687.875;  153.350;    0.000
264.261; 1740.875;  157.350;    0.000
264.328; 1663.875;  171.350;    0.000
264.395; 1684.875;  166.350;    0.000
264.462; 1669.875;  165.350;    0.000
264.529; 1637.875;  124.350;    0.000
264.597; 1759.875;  120.350;    0.000
264.664; 1671.875;  159.350;    0.000
264.731; 1789.875;  145.350;    0.000
264.798; 1636.875;  100.350;    0.000
264.865; 1754.875;  166.350;    0.000
264.932; 1765.875;  132.350;    0.000
264.999; 1757.875;  137.350;    0.000
265.066; 1730.875;  124.350;    0.000
265.133; 1855.875;  162.350;    0.000
265.201; 1820.875;  163.350;    0.000
265.268; 1800.875;  174.350;    0.000
265.335; 1800.875;  132.350;    0.000
265.402; 1834.875;  116.350;    0.000
265.469; 1807.875;  121.350;    0.000
265.536; 1863.875;  157.350;    0.000
265.603; 1871.875;  151.350;    0.000
265.670; 1797.875;  164.350;    0.000
265.737; 1944.875;  142.350;    0.000
265.804; 1877.875;  146.350;    0.000
265.871; 1929.875;  168.350;    0.000
265.938; 1915.875;  131.350;    0.000
266.005; 1916.875;  208.350;    0.000
266.072; 1881.875;  125.350;    0.000
266.139; 1904.875;  161.350;    0.000
266.206; 1958.875;  134.350;    0.000
266.273; 1961.875;  155.350;    0.000
266.340; 1923.875;  122.350;    0.000
266.407; 1890.875;  134.350;    0.000
266.474; 1931.875;  126.350;    0.000
266.541; 1918.875;  153.350;    0.000
266.608; 1932.875;  129.350;    0.000
266.675; 1967.875;  185.350;    0.000
266.742; 2004.875;  153.350;    0.000
266.808; 1993.875;  169.350;    0.000
266.875; 2036.875;  156.350;    0.000
266.942; 1989.875;  172.350;    0.000
267.009; 2045.875;  150.350;    0.000
267.076; 2099.875;  184.350;    0.000
267.143; 2028.875;  170.350;    0.000
267.210; 2013.875;  132.350;    0.000
267.277; 2104.875;  146.350;    0.000
267.344; 2034.875;  159.350;    0.000
267.410; 2057.875;  174.350;    0.000
267.477; 2143.875;  169.350;    0.000
267.544; 2150.875;  130.350;    0.000
267.611; 2097.875;  169.350;    0.000
267.678; 1996.875;  197.350;    0.000
267.745; 2178.875;  185.350;    0.000
267.811; 2117.875;  160.350;    0.000
267.878; 2114.875;  143.350;    0.000
267.945; 2164.875;  126.350;    0.000
268.012; 2067.875;  172.350;    0.000
268.079; 2124.875;  156.350;    0.000
268.145; 2234.875;  128.350;    0.000
268.212; 2160.875;  107.350;    0.000
268.279; 2091.875;  135.350;    0.000
268.346; 2077.875;  166.350;    0.000
268.412; 2171.875;  150.350;    0.000
268.479; 2030.875;  176.350;    0.000
268.546; 2053.875;  119.350;    0.000
268.613; 2055.875;  201.350;    0.000
268.679; 2138.875;  141.350;    0.000
268.746; 2177.875;  177.350;    0.000
268.813; 2212.875;  134.350;    0.000
268.879; 2110.875;  141.350;    0.000
268.946; 2117.875;  172.350;    0.000
269.013; 2094.875;  150.350;    0.000
269.079; 2098.875;  124.350;    0.000
269.146; 2173.875;  135.350;    0.000
269.213; 2078.875;  200.350;    0.000
269.280; 2094.875;  142.350;    0.000
269.346; 2132.875;  153.350;    0.000
269.413; 2128.875;  140.350;    0.000
269.479; 2100.875;  171.350;    0.000
269.546; 2132.875;  156.350;    0.000
269.613; 2056.875;  145.350;    0.000
269.679; 2145.875;  168.350;    0.000
269.746; 2125.875;  136.350;    0.000
269.813; 2085.875;  153.350;    0.000
269.879; 2013.875;  162.350;    0.000
269.946; 2115.875;  156.350;    0.000
270.012; 2098.875;  178.350;    0.000
270.079; 2118.875;  132.350;    0.000
270.145; 2094.875;  146.350;    0.000
270.212; 2046.875;  145.350;    0.000
270.279; 2121.875;  184.350;    0.000
270.345; 2086.875;  143.350;    0.000
270.412; 2110.875;  158.350;    0.000
270.478; 2096.875;  143.350;    0.000
270.545; 2066.875;  150.350;    0.000
270.611; 2134.875;  156.350;    0.000
270.678; 2062.875;  121.350;    0.000
270.744; 2090.875;  161.350;    0.000
270.811; 2047.875;  173.350;    0.000
270.877; 2044.875;  115.350;    0.000
270.944; 2064.875;  114.350;    0.000
271.010; 2078.875;  122.350;    0.000
271.077; 2094.875;  142.350;    0.000
271.143; 1987.875;  152.350;    0.000
271.210; 2095.875;  135.350;    0.000
271.276; 2087.875;  107.350;    0.000
271.342; 2090.875;  173.350;    0.000
271.409; 2064.875;  171.350;    0.000
271.475; 2081.875;  136.350;    0.000
271.542; 2081.875;  121.350;    0.000
271.608; 2095.875;  133.350;    0.000
271.675; 2022.875;  136.350;    0.000
271.741; 2045.875;  151.350;    0.000
271.807; 2118.875;  130.350;    0.000
271.874; 2118.875;  168.350;    0.000
271.940; 2099.875;  156.350;    0.000
272.007; 2070.875;  122.350;    0.000
272.073; 2062.875;  121.350;    0.000
272.139; 2136.875;  137.350;    0.000
272.206; 2106.875;  152.350;    0.000
272.272; 2079.875;  162.350;    0.000
272.338; 2136.875;  197.350;    0.000
272.405; 2156.875;  144.350;    0.000
272.471; 2115.875;  160.350;    0.000
272.537; 2132.875;  142.350;    0.000
272.604; 2117.875;  141.350;    0.000
272.670; 2091.875;  182.350;    0.000
272.736; 2075.875;  126.350;    0.000
272.802; 2051.875;  146.350;    0.000
272.869; 2113.875;  163.350;    0.000
272.935; 2192.875;  132.350;    0.000
273.001; 2109.875;  119.350;    0.000
273.068; 2149.875;  137.350;    0.000
273.134; 2173.875;  155.350;    0.000
273.200; 2110.875;  165.350;    0.000
273.266; 2111.875;  156.350;    0.000
273.333; 2242.875;  143.350;    0.000
273.399; 2096.875;  128.350;    0.000
273.465; 2198.875;  167.350;    0.000
273.531; 2218.875;  122.350;    0.000
273.597; 2209.875;  182.350;    0.000
273.664; 2226.875;  177.350;    0.000
273.730; 2155.875;  124.350;    0.000
273.796; 2238.875;  143.350;    0.000
273.862; 2164.875;  155.350;    0.000
273.928; 2210.875;  137.350;    0.000
273.995; 2226.875;  188.350;    0.000
274.061; 2335.875;  154.350;    0.000
274.127; 2274.875;  161.350;    0.000
274.193; 2205.875;   95.350;    0.000
274.259; 2252.875;  128.350;    0.000
274.325; 2300.875;  146.350;    0.000
274.391; 2261.875;  113.350;    0.000
274.457; 2340.875;  150.350;    0.000
274.524; 2346.875;  165.350;    0.000
274.590; 2275.875;  140.350;    0.000
274.656; 2349.875;  165.350;    0.000
274.722; 2272.875;  118.350;    0.000
274.788; 2309.875;  143.350;    0.000
274.854; 2384.875;  150.350;    0.000
274.920; 2311.875;   88.350;    0.000
274.986; 2410.875;  178.350;    0.000
275.052; 2383.875;  145.350;    0.000
275.118; 2374.875;  105.350;    0.000
275.184; 2467.875;  129.350;    0.000
275.250; 2461.875;  138.350;    0.000
275.316; 2444.875;  173.350;    0.000
275.382; 2455.875;  106.350;    0.000
275.448; 2426.875;  160.350;    0.000
275.514; 2541.875;  162.350;    0.000
275.580; 2498.875;  135.350;    0.000
275.646; 2585.875;  120.350;    0.000
275.712; 2677.875;  157.350;    0.000
275.778; 2544.875;  128.350;    0.000
275.844; 2678.875;  117.350;    0.000
275.910; 2638.875;  121.350;    0.000
275.976; 2856.875;  172.350;    0.000
276.042; 2752.875;  114.350;    0.000
276.108; 2855.875;  200.350;    0.000
276.174; 2836.875;  132.350;    0.000
276.240; 2784.875;  128.350;    0.000
276.306; 2835.875;  124.350;    0.000
276.372; 3001.875;  133.350;    0.000
276.437; 3001.875;  146.350;    0.000
276.503; 3141.875;  136.350;    0.000
276.569; 3159.875;  162.350;    0.000
276.635; 3095.875;  128.350;    0.000
276.701; 3204.875;  148.350;    0.000
276.767; 3232.875;  155.350;    0.000
276.833; 3386.875;  128.350;    0.000
276.899; 3481.875;  145.350;    0.000
276.964; 3495.875;  124.350;    0.000
277.030; 3555.875;  130.350;    0.000
277.096; 3597.875;  139.350;    0.000
277.162; 3650.875;  164.350;    0.000
277.228; 3828.875;  108.350;    0.000
277.293; 3953.875;  138.350;    0.000
277.359; 4085.875;  123.350;    0.000
277.425; 4342.875;  183.350;    0.000
277.491; 4496.875;  144.350;    0.000
277.557; 5427.875;  130.350;    0.000
277.622; 7026.875;  151.350;    0.000
277.688; 7090.875;  169.350;    0.000
277.754; 7254.875;  199.350;    0.000
277.820; 7827.875;  170.350;    0.000
277.885; 9287.875;  173.350;    0.000
277.951;11268.875;  187.350;    0.000
278.017; 9724.875;  152.350;    0.000
278.083; 8692.875;  137.350;    0.000
278.148; 8415.875;  147.350;    0.000
278.214; 8393.875;  162.350;    0.000
278.280; 9051.875;  171.350;    0.000
278.345; 8147.875;  174.350;    0.000
278.411; 7733.875;  152.350;    0.000
278.477; 7967.875;  173.350;    0.000
278.542; 8486.875;  161.350;    0.000
278.608; 9079.875;  155.350;    0.000
278.674;10045.875;  169.350;    0.000
278.739;11066.875;  142.350;    0.000
278.805;12637.875;  164.350;    0.000
278.871;14888.875;  160.350;    0.000
278.936;18579.875;  121.350;    0.000
279.002;26612.875;  166.350;    0.000
279.067;34406.875;  199.350;    0.000
279.133;33764.875;  150.350;    0.000
279.199;30983.875;  154.350;    0.000
279.264;31667.875;  154.350;    0.000
279.330;36523.875;  159.350;    0.000
279.395;45296.875;  143.350;    0.000
279.461;54093.875;  173.350;    0.000
279.527;58037.875;  163.350;    0.000
279.592;56529.875;  167.350;    0.000
279.658;50363.875;  189.350;    0.000
279.723;50101.875;  153.350;    0.000
279.789;51098.875;  174.350;    0.000
279.854;46390.875;  129.350;    0.000
279.920;39034.875;  165.350;    0.000
279.985;36083.875;  152.350;    0.000
280.051;36992.875;  164.350;    0.000
280.116;42728.875;  187.350;    0.000
280.182;51922.875;  160.350;    0.000
280.247;56568.875;  124.350;    0.000
280.313;50667.875;  154.350;    0.000
280.378;38879.875;  152.350;    0.000
280.444;29431.875;  165.350;    0.000
280.509;23776.875;  164.350;    0.000
280.574;19789.875;  160.350;    0.000
280.640;17149.875;  167.350;    0.000
280.705;15355.875;  190.350;    0.000
280.771;13817.875;  154.350;    0.000
280.836;12793.875;  158.350;    0.000
280.902;11652.875;  124.350;    0.000
280.967;11128.875;  179.350;    0.000
281.032;10443.875;  187.350;    0.000
281.098; 9664.875;  155.350;    0.000
281.163; 9470.875;  133.350;    0.000
281.229; 8829.875;  170.350;    0.000
281.294; 8463.875;  175.350;    0.000
281.359; 7889.875;  163.350;    0.000
281.425; 7751.875;  161.350;    0.000
281.490; 7532.875;  162.350;    0.000
281.555; 7072.875;  137.350;    0.000
281.621; 6991.875;  163.350;    0.000
281.686; 6770.875;  155.350;    0.000
281.751; 6569.875;  158.350;    0.000
281.816; 6343.875;  139.350;    0.000
281.882; 6325.875;  150.350;    0.000
281.947; 5997.875;  165.350;    0.000
282.012; 5752.875;  171.350;    0.000
282.078; 5676.875;  177.350;    0.000
282.143; 5473.875;  149.350;    0.000
282.208; 5454.875;  181.350;    0.000
282.273; 5322.875;  166.350;    0.000
282.339; 5217.875;  165.350;    0.000
282.404; 5251.875;  166.350;    0.000
282.469; 5084.875;  150.350;    0.000
282.534; 4982.875;  176.350;    0.000
282.600; 4720.875;  117.350;    0.000
282.665; 4948.875;  134.350;    0.000
282.730; 4821.875;  155.350;    0.000
282.795; 4829.875;  193.350;    0.000
282.860; 4780.875;  160.350;    0.000
282.926; 4561.875;  174.350;    0.000
282.991; 4471.875;  161.350;    0.000
283.056; 4506.875;  157.350;    0.000
283.121; 4536.875;  178.350;    0.000
283.186; 4551.875;  152.350;    0.000
283.251; 4394.875;  167.350;    0.000
283.316; 4337.875;  186.350;    0.000
283.382; 4350.875;  148.350;    0.000
283.447; 4277.875;  191.350;    0.000
283.512; 4331.875;  132.350;    0.000
283.577; 4250.875;  179.350;    0.000
283.642; 4120.875;  185.350;    0.000
283.707; 4192.875;  136.350;    0.000
283.772; 4086.875;  119.350;    0.000
283.837; 4303.875;  136.350;    0.000
283.902; 4172.875;  135.350;    0.000
283.967; 4085.875;  146.350;    0.000
284.032; 4253.875;  140.350;    0.000
284.097; 4250.875;  199.350;    0.000
284.163; 4117.875;  144.350;    0.000
284.228; 4243.875;  183.350;    0.000
284.293; 4186.875;  141.350;    0.000
284.358; 4246.875;  146.350;    0.000
284.423; 4096.875;  127.350;    0.000
284.488; 4364.875;  186.350;    0.000
284.553; 4547.875;  155.350;    0.000
284.618; 4574.875;  118.350;    0.000
284.683; 4710.875;  145.350;    0.000
284.748; 4823.875;  139.350;    0.000
284.812; 5299.875;  147.350;    0.000
284.877; 5661.875;  123.350;    0.000
284.942; 6376.875;  153.350;    0.000
285.007; 7742.875;  168.350;    0.000
285.072;10175.875;  181.350;    0.000
285.137;14757.875;  147.350;    0.000
285.202;18802.875;  175.350;    0.000
285.267;17353.875;  182.350;    0.000
285.332;12554.875;  136.350;    0.000
285.397; 9345.875;  138.350;    0.000
285.462; 7764.875;  151.350;    0.000
285.527; 6796.875;  159.350;    0.000
285.591; 6166.875;  177.350;    0.000
285.656; 5596.875;  144.350;    0.000
285.721; 5222.875;  125.350;    0.000
285.786; 4965.875;  169.350;    0.000
285.851; 4781.875;  175.350;    0.000
285.916; 4676.875;  164.350;    0.000
285.981; 4515.875;  134.350;    0.000
286.045; 4428.875;  154.350;    0.000
286.110; 4296.875;  136.350;    0.000
286.175; 4314.875;  155.350;    0.000
286.240; 4207.875;  138.350;    0.000
286.305; 4165.875;  213.350;    0.000
286.369; 3973.875;  221.350;    0.000
286.434; 4031.875;  172.350;    0.000
286.499; 3912.875;  161.350;    0.000
286.564; 3855.875;  189.350;    0.000
286.628; 3850.875;  144.350;    0.000
286.693; 3796.875;  176.350;    0.000
286.758; 3829.875;  168.350;    0.000
286.823; 3865.875;  142.350;    0.000
286.887; 3799.875;  134.350;    0.000
286.952; 3824.875;  180.350;    0.000
287.017; 3777.875;  204.350;    0.000
287.082; 3622.875;  120.350;    0.000
287.146; 3720.875;  173.350;    0.000
287.211; 3729.875;  167.350;    0.000
287.276; 3667.875;  164.350;    0.000
287.340; 3696.875;  138.350;    0.000
287.405; 3584.875;  172.350;    0.000
287.470; 3619.875;  142.350;    0.000
287.534; 3674.875;  155.350;    0.000
287.599; 3591.875;  166.350;    0.000
287.663; 3593.875;  171.350;    0.000
287.728; 3547.875;  190.350;    0.000
287.793; 3621.875;  197.350;    0.000
287.857; 3646.875;  165.350;    0.000
287.922; 3623.875;  147.350;    0.000
287.987; 3572.875;  167.350;    0.000
288.051; 3475.875;  151.350;    0.000
288.116; 3598.875;  154.350;    0.000
288.180; 3584.875;  186.350;    0.000
288.245; 3509.875;  161.350;    0.000
288.309; 3505.875;  177.350;    0.000
288.374; 3599.875;  151.350;    0.000
288.439; 3422.875;  169.350;    0.000
288.503; 3447.875;  133.350;    0.000
288.568; 3490.875;  206.350;    0.000
288.632; 3406.875;  192.350;    0.000
288.697; 3415.875;  183.350;    0.000
288.761; 3514.875;  148.350;    0.000
288.826; 3467.875;  136.350;    0.000
288.890; 3434.875;  185.350;    0.000
288.955; 3436.875;  150.350;    0.000
289.019; 3377.875;  165.350;    0.000
289.084; 3456.875;  150.350;    0.000
289.148; 3427.875;  146.350;    0.000
289.212; 3456.875;  172.350;    0.000
289.277; 3489.875;  177.350;    0.000
289.341; 3454.875;  190.350;    0.000
289.406; 3307.875;  117.350;    0.000
289.470; 3527.875;  173.350;    0.000
289.535; 3351.875;  170.350;    0.000
289.599; 3310.875;  154.350;    0.000
289.663; 3436.875;  173.350;    0.000
289.728; 3421.875;  176.350;    0.000
289.792; 3325.875;  138.350;    0.000
289.857; 3449.875;  203.350;    0.000
289.921; 3416.875;  143.350;    0.000
289.985; 3415.875;  150.350;    0.000
290.050; 3314.875;  170.350;    0.000
290.114; 3478.875;  125.350;    0.000
290.178; 3402.875;  161.350;    0.000
290.243; 3291.875;  119.350;    0.000
290.307; 3411.875;  169.350;    0.000
290.371; 3332.875;  169.350;    0.000
290.436; 3328.875;  170.350;    0.000
290.500; 3376.875;  144.350;    0.000
290.564; 3433.875;  179.350;    0.000
290.629; 3419.875;  166.350;    0.000
290.693; 3367.875;  156.350;    0.000
290.757; 3451.875;  147.350;    0.000
290.821; 3381.875;  170.350;    0.000
290.886; 3532.875;  167.350;    0.000
290.950; 3399.875;  187.350;    0.000
291.014; 3527.875;  164.350;    0.000
291.078; 3545.875;  115.350;    0.000
291.143; 3408.875;  149.350;    0.000
291.207; 3409.875;  163.350;    0.000
291.271; 3503.875;  177.350;    0.000
291.335; 3647.875;  148.350;    0.000
291.399; 3680.875;  155.350;    0.000
291.464; 3925.875;  114.350;    0.000
291.528; 3968.875;  153.350;    0.000
291.592; 3823.875;  156.350;    0.000
291.656; 3823.875;  170.350;    0.000
291.720; 3679.875;  159.350;    0.000
291.784; 3724.875;  159.350;    0.000
291.849; 3629.875;  154.350;    0.000
291.913; 3709.875;  118.350;    0.000
291.977; 3715.875;  157.350;    0.000
292.041; 3661.875;  163.350;    0.000
292.105; 3645.875;  135.350;    0.000
292.169; 3768.875;  155.350;    0.000
292.233; 3764.875;  163.350;    0.000
292.297; 3893.875;  144.350;    0.000
292.361; 3862.875;  143.350;    0.000
292.425; 3868.875;  177.350;    0.000
292.490; 4003.875;  159.350;    0.000
292.554; 4277.875;  137.350;    0.000
292.618; 4516.875;  144.350;    0.000
292.682; 4816.875;  169.350;    0.000
292.746; 5513.875;  166.350;    0.000
292.810; 7251.875;  147.350;    0.000
292.874; 8948.875;  160.350;    0.000
292.938; 9121.875;  174.350;    0.000
293.002; 8249.875;  148.350;    0.000
293.066; 7496.875;  115.350;    0.000
293.130; 6833.875;  133.350;    0.000
293.194; 6529.875;  148.350;    0.000
293.258; 6308.875;  167.350;    0.000
293.322; 6356.875;  166.350;    0.000
293.386; 6353.875;  193.350;    0.000
293.450; 6762.875;  142.350;    0.000
293.514; 7622.875;  170.350;    0.000
293.577; 9909.875;  153.350;    0.000
293.641;13479.875;  171.350;    0.000
293.705;14354.875;  168.350;    0.000
293.769;12904.875;  155.350;    0.000
293.833;11226.875;  161.350;    0.000
293.897; 9736.875;  124.350;    0.000
293.961; 8957.875;  165.350;    0.000
294.025; 7858.875;  118.350;    0.000
294.089; 7493.875;  125.350;    0.000
294.152; 6734.875;  160.350;    0.000
294.216; 6289.875;  160.350;    0.000
294.280; 6022.875;  158.350;    0.000
294.344; 5614.875;  119.350;    0.000
294.408; 5388.875;  168.350;    0.000
294.472; 5114.875;  156.350;    0.000
294.536; 4798.875;  192.350;    0.000
294.599; 4882.875;  171.350;    0.000
294.663; 4562.875;  139.350;    0.000
294.727; 4511.875;  136.350;    0.000
294.791; 4310.875;  118.350;    0.000
294.855; 4316.875;  118.350;    0.000
294.918; 4192.875;  127.350;    0.000
294.982; 4034.875;  167.350;    0.000
295.046; 4067.875;  178.350;    0.000
295.110; 4054.875;  157.350;    0.000
295.173; 3987.875;  101.350;    0.000
295.237; 3931.875;  145.350;    0.000
295.301; 3900.875;  135.350;    0.000
295.364; 3875.875;  185.350;    0.000
295.428; 3702.875;  112.350;    0.000
295.492; 3755.875;  142.350;    0.000
295.556; 3749.875;  170.350;    0.000
295.619; 3533.875;  193.350;    0.000
295.683; 3661.875;  144.350;    0.000
295.747; 3538.875;  152.350;    0.000
295.810; 3631.875;  139.350;    0.000
295.874; 3478.875;  157.350;    0.000
295.938; 3414.875;  128.350;    0.000
296.001; 3384.875;  164.350;    0.000
296.065; 3446.875;  184.350;    0.000
296.128; 3459.875;  127.350;    0.000
296.192; 3334.875;  166.350;    0.000
296.256; 3440.875;  154.350;    0.000
296.319; 3217.875;  128.350;    0.000
296.383; 3286.875;  146.350;    0.000
296.447; 3353.875;  155.350;    0.000
296.510; 3220.875;  177.350;    0.000
296.574; 3227.875;  169.350;    0.000
296.637; 3234.875;  140.350;    0.000
296.701; 3244.875;  181.350;    0.000
296.764; 3190.875;  131.350;    0.000
296.828; 3135.875;  194.350;    0.000
296.891; 3217.875;  146.350;    0.000
296.955; 3180.875;  160.350;    0.000
297.018; 3093.875;  174.350;    0.000
297.082; 3188.875;  153.350;    0.000
297.145; 3041.875;  133.350;    0.000
297.209; 3144.875;  149.350;    0.000
297.272; 3017.875;  150.350;    0.000
297.336; 3098.875;  119.350;    0.000
297.399; 3013.875;  160.350;    0.000
297.463; 3106.875;  158.350;    0.000
297.526; 3055.875;  160.350;    0.000
297.590; 3132.875;  173.350;    0.000
297.653; 3120.875;  121.350;    0.000
297.717; 3032.875;  168.350;    0.000
297.780; 2950.875;  131.350;    0.000
297.843; 3019.875;  154.350;    0.000
297.907; 3023.875;  126.350;    0.000
297.970; 2959.875;  180.350;    0.000
298.034; 3037.875;  140.350;    0.000
298.097; 2966.875;  207.350;    0.000
298.160; 3091.875;  177.350;    0.000
298.224; 3055.875;  165.350;    0.000
298.287; 2939.875;  160.350;    0.000
298.350; 3028.875;  176.350;    0.000
298.414; 3044.875;  155.350;    0.000
298.477; 2907.875;  132.350;    0.000
298.540; 2991.875;  162.350;    0.000
298.604; 2991.875;  180.350;    0.000
298.667; 2891.875;  208.350;    0.000
298.730; 2809.875;  177.350;    0.000
298.794; 2727.875;  126.350;    0.000
298.857; 2889.875;  171.350;    0.000
298.920; 2839.875;  124.350;    0.000
298.984; 2827.875;  146.350;    0.000
299.047; 2852.875;  140.350;    0.000
299.110; 2861.875;  159.350;    0.000
299.173; 2784.875;  177.350;    0.000
299.237; 2869.875;  196.350;    0.000
299.300; 2893.875;  121.350;    0.000
299.363; 2855.875;  172.350;    0.000
299.426; 2708.875;  117.350;    0.000
299.489; 2723.875;  138.350;    0.000
299.553; 2770.875;  198.350;    0.000
299.616; 2780.875;  158.350;    0.000
299.679; 2803.875;  148.350;    0.000
299.742; 2777.875;  138.350;    0.000
299.805; 2689.875;  157.350;    0.000
299.868; 2730.875;  183.350;    0.000
299.932; 2785.875;  137.350;    0.000
299.995; 2745.875;  152.350;    0.000
300.058; 2730.875;  171.350;    0.000
300.121; 2776.875;  172.350;    0.000
300.184; 2738.875;  161.350;    0.000
300.247; 2732.875;  156.350;    0.000
300.310; 2660.875;  154.350;    0.000
300.374; 2734.875;  147.350;    0.000
300.437; 2687.875;  144.350;    0.000
300.500; 2648.875;  152.350;    0.000
300.563; 2661.875;  160.350;    0.000
300.626; 2723.875;  167.350;    0.000
300.689; 2730.875;  193.350;    0.000
300.752; 2641.875;  134.350;    0.000
300.815; 2647.875;  194.350;    0.000
300.878; 2716.875;  156.350;    0.000
300.941; 2663.875;  177.350;    0.000
301.004; 2602.875;  160.350;    0.000
301.067; 2670.875;  153.350;    0.000
301.130; 2653.875;  167.350;    0.000
301.193; 2683.875;  156.350;    0.000
301.256; 2631.875;  176.350;    0.000
301.319; 2594.875;  172.350;    0.000
301.382; 2594.875;  150.350;    0.000
301.445; 2614.875;  183.350;    0.000
301.508; 2635.875;  118.350;    0.000
301.571; 2609.875;  142.350;    0.000
301.634; 2604.875;  164.350;    0.000
301.697; 2594.875;  169.350;    0.000
301.760; 2650.875;  197.350;    0.000
301.823; 2677.875;  155.350;    0.000
301.885; 2638.875;  165.350;    0.000
301.948; 2605.875;  168.350;    0.000
302.011; 2518.875;  172.350;    0.000
302.074; 2672.875;  182.350;    0.000
302.137; 2494.875;  161.350;    0.000
302.200; 2586.875;  174.350;    0.000
302.263; 2584.875;  158.350;    0.000
302.326; 2600.875;  168.350;    0.000
302.388; 2535.875;  165.350;    0.000
302.451; 2492.875;  158.350;    0.000
302.514; 2576.875;  181.350;    0.000
302.577; 2647.875;  147.350;    0.000
302.640; 2531.875;  178.350;    0.000
302.703; 2593.875;  164.350;    0.000
302.765; 2643.875;  149.350;    0.000
302.828; 2587.875;  192.350;    0.000
302.891; 2579.875;  201.350;    0.000
302.954; 2545.875;  135.350;    0.000
303.016; 2508.875;  180.350;    0.000
303.079; 2531.875;  192.350;    0.000
303.142; 2577.875;  176.350;    0.000
303.205; 2607.875;  176.350;    0.000
303.267; 2586.875;  163.350;    0.000
303.330; 2581.875;  162.350;    0.000
303.393; 2489.875;  164.350;    0.000
303.456; 2572.875;  180.350;    0.000
303.518; 2565.875;  162.350;    0.000
303.581; 2658.875;  137.350;    0.000
303.644; 2546.875;  135.350;    0.000
303.706; 2488.875;  170.350;    0.000
303.769; 2575.875;  216.350;    0.000
303.832; 2514.875;  143.350;    0.000
303.894; 2638.875;  162.350;    0.000
303.957; 2514.875;  149.350;    0.000
304.020; 2505.875;  111.350;    0.000
304.082; 2623.875;  158.350;    0.000
304.145; 2722.875;  149.350;    0.000
304.207; 2534.875;  169.350;    0.000
304.270; 2556.875;  170.350;    0.000
304.333; 2628.875;  185.350;    0.000
304.395; 2585.875;  179.350;    0.000
304.458; 2538.875;  174.350;    0.000
304.520; 2566.875;  160.350;    0.000
304.583; 2489.875;  175.350;    0.000
304.646; 2623.875;  160.350;    0.000
304.708; 2570.875;  173.350;    0.000
304.771; 2500.875;  115.350;    0.000
304.833; 2532.875;  172.350;    0.000
304.896; 2634.875;  187.350;    0.000
304.958; 2573.875;  142.350;    0.000
305.021; 2500.875;  164.350;    0.000
305.083; 2563.875;  139.350;    0.000
305.146; 2663.875;  162.350;    0.000
305.208; 2458.875;  135.350;    0.000
305.271; 2520.875;  159.350;    0.000
305.333; 2631.875;  210.350;    0.000
305.396; 2673.875;  151.350;    0.000
305.458; 2639.875;  195.350;    0.000
305.520; 2650.875;  179.350;    0.000
305.583; 2629.875;  157.350;    0.000
305.645; 2589.875;  187.350;    0.000
305.708; 2580.875;  159.350;    0.000
305.770; 2581.875;  189.350;    0.000
305.833; 2556.875;  147.350;    0.000
305.895; 2636.875;  154.350;    0.000
305.957; 2594.875;  143.350;    0.000
306.020; 2479.875;  133.350;    0.000
306.082; 2522.875;  146.350;    0.000
306.144; 2547.875;  171.350;    0.000
306.207; 2577.875;  151.350;    0.000
306.269; 2606.875;  169.350;    0.000
306.331; 2539.875;  162.350;    0.000
306.394; 2558.875;  171.350;    0.000
306.456; 2579.875;  155.350;    0.000
306.518; 2552.875;  183.350;    0.000
306.581; 2548.875;  180.350;    0.000
306.643; 2489.875;  199.350;    0.000
306.705; 2614.875;  163.350;    0.000
306.768; 2605.875;  183.350;    0.000
306.830; 2709.875;  183.350;    0.000
306.892; 2631.875;  190.350;    0.000
306.954; 2598.875;  161.350;    0.000
307.017; 2688.875;  151.350;    0.000
307.079; 2576.875;  147.350;    0.000
307.141; 2690.875;  179.350;    0.000
307.203; 2599.875;  143.350;    0.000
307.266; 2590.875;  142.350;    0.000
307.328; 2717.875;  161.350;    0.000
307.390; 2733.875;  189.350;    0.000
307.452; 2620.875;  155.350;    0.000
307.514; 2731.875;  211.350;    0.000
307.577; 2700.875;  201.350;    0.000
307.639; 2694.875;  192.350;    0.000
307.701; 2650.875;  162.350;    0.000
307.763; 2741.875;  155.350;    0.000
307.825; 2683.875;  193.350;    0.000
307.887; 2721.875;  214.350;    0.000
307.949; 2740.875;  208.350;    0.000
308.012; 2736.875;  175.350;    0.000
308.074; 2704.875;  155.350;    0.000
308.136; 2699.875;  172.350;    0.000
308.198; 2818.875;  171.350;    0.000
308.260; 2771.875;  182.350;    0.000
308.322; 2713.875;  177.350;    0.000
308.384; 2807.875;  207.350;    0.000
308.446; 2753.875;  170.350;    0.000
308.508; 2754.875;  177.350;    0.000
308.570; 2777.875;  195.350;    0.000
308.632; 2848.875;  190.350;    0.000
308.694; 2825.875;  161.350;    0.000
308.756; 2892.875;  173.350;    0.000
308.818; 2884.875;  190.350;    0.000
308.880; 2940.875;  197.350;    0.000
308.942; 2859.875;  223.350;    0.000
309.004; 2944.875;  176.350;    0.000
309.066; 3071.875;  182.350;    0.000
309.128; 3083.875;  185.350;    0.000
309.190; 3079.875;  166.350;    0.000
309.252; 3273.875;  191.350;    0.000
309.314; 3215.875;  208.350;    0.000
309.376; 3181.875;  205.350;    0.000
309.438; 3319.875;  166.350;    0.000
309.500; 3157.875;  195.350;    0.000
309.562; 3156.875;  163.350;    0.000
309.624; 3253.875;  162.350;    0.000
309.686; 3348.875;  194.350;    0.000
309.747; 3179.875;  179.350;    0.000
309.809; 3196.875;  211.350;    0.000
309.871; 3197.875;  191.350;    0.000
309.933; 3048.875;  151.350;    0.000
309.995; 3143.875;  179.350;    0.000
310.057; 3069.875;  175.350;    0.000
310.119; 2971.875;  161.350;    0.000
310.180; 3010.875;  167.350;    0.000
310.242; 2983.875;  171.350;    0.000
310.304; 2945.875;  209.350;    0.000
310.366; 3010.875;  229.350;    0.000
310.428; 2889.875;  132.350;    0.000
310.489; 2858.875;  165.350;    0.000
310.551; 2993.875;  193.350;    0.000
310.613; 2904.875;  182.350;    0.000
310.675; 2946.875;  186.350;    0.000
310.737; 2864.875;  192.350;    0.000
310.798; 2920.875;  194.350;    0.000
310.860; 2852.875;  220.350;    0.000
310.922; 2879.875;  161.350;    0.000
310.983; 2860.875;  203.350;    0.000
311.045; 2891.875;  198.350;    0.000
311.107; 2853.875;  179.350;    0.000
311.169; 2739.875;  154.350;    0.000
311.230; 2867.875;  134.350;    0.000
311.292; 2965.875;  215.350;    0.000
311.354; 2901.875;  171.350;    0.000
311.415; 2914.875;  195.350;    0.000
311.477; 2721.875;  185.350;    0.000
311.539; 2899.875;  183.350;    0.000
311.600; 2796.875;  183.350;    0.000
311.662; 2884.875;  207.350;    0.000
311.724; 2798.875;  193.350;    0.000
311.785; 2804.875;  180.350;    0.000
311.847; 2881.875;  155.350;    0.000
311.908; 2833.875;  179.350;    0.000
311.970; 2851.875;  193.350;    0.000
312.032; 2842.875;  188.350;    0.000
312.093; 2907.875;  166.350;    0.000
312.155; 2926.875;  147.350;    0.000
312.216; 2804.875;  177.350;    0.000
312.278; 2825.875;  162.350;    0.000
312.339; 2854.875;  158.350;    0.000
312.401; 2897.875;  181.350;    0.000
312.462; 2752.875;  153.350;    0.000
312.524; 2857.875;  186.350;    0.000
312.585; 2894.875;  191.350;    0.000
312.647; 2794.875;  131.350;    0.000
312.708; 2876.875;  170.350;    0.000
312.770; 2831.875;  194.350;    0.000
312.831; 2762.875;  161.350;    0.000
312.893; 2820.875;  179.350;    0.000
312.954; 2876.875;  183.350;    0.000
313.016; 2939.875;  189.350;    0.000
313.077; 2835.875;  169.350;    0.000
313.139; 2958.875;  148.350;    0.000
313.200; 2863.875;  155.350;    0.000
313.261; 2957.875;  213.350;    0.000
313.323; 2845.875;  162.350;    0.000
313.384; 2901.875;  160.350;    0.000
313.446; 2796.875;  202.350;    0.000
313.507; 2807.875;  149.350;    0.000
313.568; 2924.875;  194.350;    0.000
313.630; 2892.875;  163.350;    0.000
313.691; 2902.875;  158.350;    0.000
313.752; 2743.875;  179.350;    0.000
313.814; 2747.875;  180.350;    0.000
313.875; 2813.875;  191.350;    0.000
313.936; 2849.875;  169.350;    0.000
313.998; 2872.875;  165.350;    0.000
314.059; 2803.875;  211.350;    0.000
314.120; 2795.875;  190.350;    0.000
314.182; 2838.875;  185.350;    0.000
314.243; 2838.875;  186.350;    0.000
314.304; 2797.875;  178.350;    0.000
314.365; 2831.875;  187.350;    0.000
314.427; 2893.875;  145.350;    0.000
314.488; 2840.875;  184.350;    0.000
314.549; 2698.875;  181.350;    0.000
314.610; 2804.875;  151.350;    0.000
314.672; 2909.875;  153.350;    0.000
314.733; 2808.875;  148.350;    0.000
314.794; 2827.875;  156.350;    0.000
314.855; 2832.875;  196.350;    0.000
314.917; 2815.875;  157.350;    0.000
314.978; 2810.875;  174.350;    0.000
315.039; 2831.875;  168.350;    0.000
315.100; 2913.875;  154.350;    0.000
315.161; 2825.875;  176.350;    0.000
315.222; 2797.875;  198.350;    0.000
315.283; 2764.875;  169.350;    0.000
315.345; 2865.875;  162.350;    0.000
315.406; 2776.875;  199.350;    0.000
315.467; 2828.875;  180.350;    0.000
315.528; 2776.875;  179.350;    0.000
315.589; 2775.875;  166.350;    0.000
315.650; 2728.875;  179.350;    0.000
315.711; 2839.875;  177.350;    0.000
315.772; 2773.875;  180.350;    0.000
315.833; 2855.875;  157.350;    0.000
315.894; 2687.875;  133.350;    0.000
315.955; 2771.875;  205.350;    0.000
316.016; 2843.875;  190.350;    0.000
316.078; 2788.875;  174.350;    0.000
316.139; 2773.875;  208.350;    0.000
316.200; 2715.875;  166.350;    0.000
316.261; 2833.875;  186.350;    0.000
316.322; 2779.875;  185.350;    0.000
316.383; 2813.875;  179.350;    0.000
316.444; 2764.875;  172.350;    0.000
316.504; 2685.875;  181.350;    0.000
316.565; 2864.875;  197.350;    0.000
316.626; 2731.875;  196.350;    0.000
316.687; 2806.875;  173.350;    0.000
316.748; 2767.875;  178.350;    0.000
316.809; 2906.875;  178.350;    0.000
316.870; 2775.875;  134.350;    0.000
316.931; 2817.875;  166.350;    0.000
316.992; 2818.875;  200.350;    0.000
317.053; 2757.875;  169.350;    0.000
317.114; 2804.875;  185.350;    0.000
317.175; 2753.875;  213.350;    0.000
317.235; 2738.875;  199.350;    0.000
317.296; 2824.875;  190.350;    0.000
317.357; 2738.875;  152.350;    0.000
317.418; 2777.875;  192.350;    0.000
317.479; 2812.875;  170.350;    0.000
317.540; 2706.875;  179.350;    0.000
317.601; 2823.875;  155.350;    0.000
317.661; 2672.875;  154.350;    0.000
317.722; 2728.875;  190.350;    0.000
317.783; 2823.875;  149.350;    0.000
317.844; 2812.875;  207.350;    0.000
317.904; 2775.875;  153.350;    0.000
317.965; 2705.875;  179.350;    0.000
318.026; 2761.875;  235.350;    0.000
318.087; 2801.875;  184.350;    0.000
318.148; 2775.875;  201.350;    0.000
318.208; 2799.875;  220.350;    0.000
318.269; 2780.875;  175.350;    0.000
318.330; 2758.875;  185.350;    0.000
318.390; 2664.875;  180.350;    0.000
318.451; 2767.875;  164.350;    0.000
318.512; 2821.875;  150.350;    0.000
318.572; 2733.875;  205.350;    0.000
318.633; 2774.875;  224.350;    0.000
318.694; 2749.875;  202.350;    0.000
318.754; 2769.875;  196.350;    0.000
318.815; 2706.875;  187.350;    0.000
318.876; 2754.875;  200.350;    0.000
318.936; 2820.875;  232.350;    0.000
318.997; 2738.875;  211.350;    0.000
319.058; 2792.875;  194.350;    0.000
319.118; 2758.875;  197.350;    0.000
319.179; 2778.875;  162.350;    0.000
319.239; 2705.875;  188.350;    0.000
319.300; 2760.875;  205.350;    0.000
319.361; 2791.875;  179.350;    0.000
319.421; 2680.875;  182.350;    0.000
319.482; 2660.875;  189.350;    0.000
319.542; 2700.875;  180.350;    0.000
319.603; 2727.875;  204.350;    0.000
319.663; 2751.875;  195.350;    0.000
319.724; 2697.875;  135.350;    0.000
319.784; 2725.875;  184.350;    0.000
319.845; 2677.875;  160.350;    0.000
319.905; 2779.875;  206.350;    0.000
319.966; 2675.875;  203.350;    0.000
320.026; 2714.875;  203.350;    0.000
320.087; 2730.875;  206.350;    0.000
320.147; 2662.875;  180.350;    0.000
320.208; 2681.875;  189.350;    0.000
320.268; 2767.875;  179.350;    0.000
320.329; 2638.875;  215.350;    0.000
320.389; 2656.875;  193.350;    0.000
320.449; 2712.875;  210.350;    0.000
320.510; 2706.875;  206.350;    0.000
320.570; 2731.875;  221.350;    0.000
320.631; 2716.875;  203.350;    0.000
320.691; 2783.875;  190.350;    0.000
320.751; 2679.875;  205.350;    0.000
320.812; 2654.875;  191.350;    0.000
320.872; 2741.875;  216.350;    0.000
320.932; 2737.875;  209.350;    0.000
320.993; 2613.875;  189.350;    0.000
321.053; 2667.875;  228.350;    0.000
321.113; 2716.875;  163.350;    0.000
321.174; 2720.875;  204.350;    0.000
321.234; 2740.875;  214.350;    0.000
321.294; 2644.875;  184.350;    0.000
321.355; 2713.875;  216.350;    0.000
321.415; 2743.875;  187.350;    0.000
321.475; 2719.875;  216.350;    0.000
321.535; 2725.875;  189.350;    0.000
321.596; 2695.875;  186.350;    0.000
321.656; 2710.875;  204.350;    0.000
321.716; 2711.875;  183.350;    0.000
321.776; 2637.875;  194.350;    0.000
321.837; 2750.875;  190.350;    0.000
321.897; 2593.875;  219.350;    0.000
321.957; 2694.875;  222.350;    0.000
322.017; 2743.875;  183.350;    0.000
322.077; 2666.875;  239.350;    0.000
322.138; 2616.875;  219.350;    0.000
322.198; 2648.875;  185.350;    0.000
322.258; 2740.875;  231.350;    0.000
322.318; 2581.875;  197.350;    0.000
322.378; 2664.875;  179.350;    0.000
322.438; 2683.875;  217.350;    0.000
322.499; 2711.875;  238.350;    0.000
322.559; 2625.875;  197.350;    0.000
322.619; 2662.875;  204.350;    0.000
322.679; 2623.875;  199.350;    0.000
322.739; 2621.875;  194.350;    0.000
322.799; 2605.875;  203.350;    0.000
322.859; 2650.875;  234.350;    0.000
322.919; 2686.875;  194.350;    0.000
322.979; 2623.875;  219.350;    0.000
323.039; 2748.875;  193.350;    0.000
323.099; 2684.875;  207.350;    0.000
323.159; 2686.875;  213.350;    0.000
323.219; 2572.875;  171.350;    0.000
323.279; 2785.875;  215.350;    0.000
323.339; 2723.875;  170.350;    0.000
323.399; 2697.875;  195.350;    0.000
323.459; 2636.875;  234.350;    0.000
323.519; 2649.875;  201.350;    0.000
323.579; 2676.875;  167.350;    0.000
323.639; 2663.875;  209.350;    0.000
323.699; 2706.875;  217.350;    0.000
323.759; 2613.875;  213.350;    0.000
323.819; 2636.875;  216.350;    0.000
323.879; 2627.875;  193.350;    0.000
323.939; 2647.875;  182.350;    0.000
323.999; 2622.875;  206.350;    0.000
324.059; 2594.875;  196.350;    0.000
324.119; 2709.875;  240.350;    0.000
324.178; 2543.875;  186.350;    0.000
324.238; 2541.875;  179.350;    0.000
324.298; 2692.875;  195.350;    0.000
324.358; 2624.875;  208.350;    0.000
324.418; 2692.875;  190.350;    0.000
324.478; 2619.875;  197.350;    0.000
324.538; 2574.875;  157.350;    0.000
324.597; 2687.875;  219.350;    0.000
324.657; 2555.875;  176.350;    0.000
324.717; 2599.875;  179.350;    0.000
324.777; 2659.875;  190.350;    0.000
324.837; 2628.875;  172.350;    0.000
324.896; 2583.875;  199.350;    0.000
324.956; 2681.875;  216.350;    0.000
325.016; 2613.875;  191.350;    0.000
325.076; 2591.875;  185.350;    0.000
325.135; 2649.875;  174.350;    0.000
325.195; 2639.875;  175.350;    0.000
325.255; 2576.875;  144.350;    0.000
325.315; 2568.875;  201.350;    0.000
325.374; 2635.875;  198.350;    0.000
325.434; 2640.875;  181.350;    0.000
325.494; 2683.875;  183.350;    0.000
325.553; 2669.875;  172.350;    0.000
325.613; 2535.875;  200.350;    0.000
325.673; 2609.875;  177.350;    0.000
325.732; 2647.875;  174.350;    0.000
325.792; 2601.875;  181.350;    0.000
325.852; 2644.875;  214.350;    0.000
325.911; 2593.875;  230.350;    0.000
325.971; 2718.875;  198.350;    0.000
326.031; 2623.875;  201.350;    0.000
326.090; 2546.875;  214.350;    0.000
326.150; 2497.875;  163.350;    0.000
326.209; 2602.875;  207.350;    0.000
326.269; 2552.875;  201.350;    0.000
326.328; 2599.875;  208.350;    0.000
326.388; 2498.875;  169.350;    0.000
326.448; 2646.875;  229.350;    0.000
326.507; 2580.875;  243.350;    0.000
326.567; 2553.875;  162.350;    0.000
326.626; 2615.875;  200.350;    0.000
326.686; 2478.875;  166.350;    0.000
326.745; 2542.875;  178.350;    0.000
326.805; 2581.875;  185.350;    0.000
326.864; 2548.875;  209.350;    0.000
326.924; 2545.875;  234.350;    0.000
326.983; 2588.875;  197.350;    0.000
327.043; 2568.875;  217.350;    0.000
327.102; 2580.875;  174.350;    0.000
327.161; 2503.875;  172.350;    0.000
327.221; 2440.875;  183.350;    0.000
327.280; 2529.875;  200.350;    0.000
327.340; 2625.875;  200.350;    0.000
327.399; 2529.875;  219.350;    0.000
327.459; 2521.875;  246.350;    0.000
327.518; 2503.875;  217.350;    0.000
327.577; 2524.875;  212.350;    0.000
327.637; 2476.875;  188.350;    0.000
327.696; 2554.875;  201.350;    0.000
327.755; 2524.875;  199.350;    0.000
327.815; 2589.875;  224.350;    0.000
327.874; 2489.875;  236.350;    0.000
327.933; 2507.875;  182.350;    0.000
327.993; 2612.875;  206.350;    0.000
328.052; 2565.875;  191.350;    0.000
328.111; 2576.875;  222.350;    0.000
328.171; 2476.875;  200.350;    0.000
328.230; 2541.875;  203.350;    0.000
328.289; 2499.875;  219.350;    0.000
328.349; 2562.875;  231.350;    0.000
328.408; 2499.875;  223.350;    0.000
328.467; 2425.875;  226.350;    0.000
328.526; 2554.875;  197.350;    0.000
328.586; 2575.875;  221.350;    0.000
328.645; 2604.875;  199.350;    0.000
328.704; 2551.875;  227.350;    0.000
328.763; 2514.875;  201.350;    0.000
328.822; 2420.875;  230.350;    0.000
328.882; 2459.875;  244.350;    0.000
328.941; 2479.875;  221.350;    0.000
329.000; 2423.875;  207.350;    0.000
329.059; 2454.875;  208.350;    0.000
329.118; 2435.875;  203.350;    0.000
329.177; 2505.875;  198.350;    0.000
329.237; 2565.875;  218.350;    0.000
329.296; 2547.875;  213.350;    0.000
329.355; 2554.875;  208.350;    0.000
329.414; 2557.875;  231.350;    0.000
329.473; 2510.875;  221.350;    0.000
329.532; 2570.875;  243.350;    0.000
329.591; 2525.875;  210.350;    0.000
329.650; 2576.875;  232.350;    0.000
329.709; 2724.875;  211.350;    0.000
329.768; 2568.875;  194.350;    0.000
329.827; 2606.875;  237.350;    0.000
329.886; 2614.875;  213.350;    0.000
329.945; 2691.875;  190.350;    0.000
330.004; 2699.875;  233.350;    0.000
330.063; 2855.875;  191.350;    0.000
330.122; 2978.875;  234.350;    0.000
330.181; 3338.875;  220.350;    0.000
330.240; 3319.875;  191.350;    0.000
330.299; 3153.875;  210.350;    0.000
330.358; 2775.875;  191.350;    0.000
330.417; 2582.875;  225.350;    0.000
330.476; 2648.875;  226.350;    0.000
330.535; 2549.875;  217.350;    0.000
330.594; 2518.875;  205.350;    0.000
330.653; 2481.875;  193.350;    0.000
330.712; 2486.875;  206.350;    0.000
330.771; 2503.875;  175.350;    0.000
330.830; 2466.875;  204.350;    0.000
330.889; 2474.875;  198.350;    0.000
330.948; 2380.875;  198.350;    0.000
331.006; 2488.875;  207.350;    0.000
331.065; 2423.875;  203.350;    0.000
331.124; 2468.875;  210.350;    0.000
331.183; 2368.875;  165.350;    0.000
331.242; 2421.875;  195.350;    0.000
331.301; 2427.875;  191.350;    0.000
331.359; 2403.875;  205.350;    0.000
331.418; 2395.875;  183.350;    0.000
331.477; 2451.875;  198.350;    0.000
331.536; 2414.875;  211.350;    0.000
331.595; 2369.875;  191.350;    0.000
331.653; 2383.875;  232.350;    0.000
331.712; 2347.875;  225.350;    0.000
331.771; 2375.875;  199.350;    0.000
331.830; 2408.875;  189.350;    0.000
331.888; 2326.875;  219.350;    0.000
331.947; 2395.875;  188.350;    0.000
332.006; 2337.875;  180.350;    0.000
332.065; 2435.875;  177.350;    0.000
332.123; 2317.875;  214.350;    0.000
332.182; 2358.875;  223.350;    0.000
332.241; 2309.875;  202.350;    0.000
332.299; 2376.875;  180.350;    0.000
332.358; 2403.875;  206.350;    0.000
332.417; 2334.875;  195.350;    0.000
332.475; 2330.875;  221.350;    0.000
332.534; 2356.875;  207.350;    0.000
332.592; 2309.875;  190.350;    0.000
332.651; 2421.875;  203.350;    0.000
332.710; 2404.875;  219.350;    0.000
332.768; 2330.875;  210.350;    0.000
332.827; 2423.875;  173.350;    0.000
332.885; 2532.875;  239.350;    0.000
332.944; 2458.875;  145.350;    0.000
333.003; 2471.875;  197.350;    0.000
333.061; 2480.875;  179.350;    0.000
333.120; 2473.875;  198.350;    0.000
333.178; 2535.875;  185.350;    0.000
333.237; 2590.875;  204.350;    0.000
333.295; 2599.875;  266.350;    0.000
333.354; 2535.875;  181.350;    0.000
333.412; 2476.875;  189.350;    0.000
333.471; 2533.875;  216.350;    0.000
333.529; 2544.875;  220.350;    0.000
333.588; 2715.875;  193.350;    0.000
333.646; 2723.875;  186.350;    0.000
333.705; 2649.875;  210.350;    0.000
333.763; 2604.875;  222.350;    0.000
333.822; 2613.875;  222.350;    0.000
333.880; 2597.875;  202.350;    0.000
333.938; 2529.875;  205.350;    0.000
333.997; 2590.875;  199.350;    0.000
334.055; 2601.875;  199.350;    0.000
334.114; 2568.875;  237.350;    0.000
334.172; 2466.875;  155.350;    0.000
334.230; 2602.875;  208.350;    0.000
334.289; 2462.875;  191.350;    0.000
334.347; 2518.875;  211.350;    0.000
334.405; 2549.875;  212.350;    0.000
334.464; 2422.875;  179.350;    0.000
334.522; 2484.875;  160.350;    0.000
334.580; 2500.875;  195.350;    0.000
334.639; 2478.875;  191.350;    0.000
334.697; 2508.875;  194.350;    0.000
334.755; 2480.875;  185.350;    0.000
334.814; 2485.875;  214.350;    0.000
334.872; 2469.875;  179.350;    0.000
334.930; 2444.875;  169.350;    0.000
334.988; 2535.875;  201.350;    0.000
335.047; 2525.875;  188.350;    0.000
335.105; 2496.875;  175.350;    0.000
335.163; 2462.875;  191.350;    0.000
335.221; 2523.875;  196.350;    0.000
335.280; 2565.875;  182.350;    0.000
335.338; 2498.875;  202.350;    0.000
335.396; 2455.875;  219.350;    0.000
335.454; 2518.875;  187.350;    0.000
335.512; 2553.875;  236.350;    0.000
335.570; 2460.875;  209.350;    0.000
335.629; 2458.875;  247.350;    0.000
335.687; 2597.875;  219.350;    0.000
335.745; 2482.875;  203.350;    0.000
335.803; 2584.875;  220.350;    0.000
335.861; 2523.875;  208.350;    0.000
335.919; 2498.875;  223.350;    0.000
335.977; 2494.875;  201.350;    0.000
336.035; 2522.875;  193.350;    0.000
336.094; 2533.875;  178.350;    0.000
336.152; 2475.875;  182.350;    0.000
336.210; 2534.875;  199.350;    0.000
336.268; 2504.875;  216.350;    0.000
336.326; 2550.875;  216.350;    0.000
336.384; 2582.875;  201.350;    0.000
336.442; 2531.875;  197.350;    0.000
336.500; 2456.875;  203.350;    0.000
336.558; 2543.875;  198.350;    0.000
336.616; 2514.875;  210.350;    0.000
336.674; 2490.875;  192.350;    0.000
336.732; 2477.875;  182.350;    0.000
336.790; 2393.875;  189.350;    0.000
336.848; 2473.875;  233.350;    0.000
336.906; 2494.875;  235.350;    0.000
336.964; 2486.875;  208.350;    0.000
337.022; 2564.875;  249.350;    0.000
337.080; 2604.875;  204.350;    0.000
337.138; 2552.875;  176.350;    0.000
337.195; 2442.875;  207.350;    0.000
337.253; 2504.875;  214.350;    0.000
337.311; 2535.875;  210.350;    0.000
337.369; 2429.875;  222.350;    0.000
337.427; 2427.875;  236.350;    0.000
337.485; 2454.875;  241.350;    0.000
337.543; 2407.875;  217.350;    0.000
337.601; 2439.875;  221.350;    0.000
337.658; 2414.875;  205.350;    0.000
337.716; 2409.875;  210.350;    0.000
337.774; 2320.875;  196.350;    0.000
337.832; 2391.875;  200.350;    0.000
337.890; 2335.875;  192.350;    0.000
337.947; 2408.875;  192.350;    0.000
338.005; 2348.875;  211.350;    0.000
338.063; 2389.875;  176.350;    0.000
338.121; 2505.875;  222.350;    0.000
338.178; 2417.875;  198.350;    0.000
338.236; 2385.875;  210.350;    0.000
338.294; 2367.875;  211.350;    0.000
338.352; 2368.875;  212.350;    0.000
338.409; 2384.875;  199.350;    0.000
338.467; 2288.875;  205.350;    0.000
338.525; 2354.875;  217.350;    0.000
338.583; 2309.875;  197.350;    0.000
338.640; 2397.875;  226.350;    0.000
338.698; 2369.875;  201.350;    0.000
338.756; 2391.875;  192.350;    0.000
338.813; 2416.875;  220.350;    0.000
338.871; 2394.875;  258.350;    0.000
338.928; 2430.875;  223.350;    0.000
338.986; 2432.875;  200.350;    0.000
339.044; 2469.875;  206.350;    0.000
339.101; 2287.875;  250.350;    0.000
339.159; 2320.875;  245.350;    0.000
339.216; 2342.875;  227.350;    0.000
339.274; 2353.875;  260.350;    0.000
339.332; 2352.875;  223.350;    0.000
339.389; 2347.875;  233.350;    0.000
339.447; 2451.875;  206.350;    0.000
339.504; 2418.875;  229.350;    0.000
339.562; 2308.875;  194.350;    0.000
339.619; 2455.875;  245.350;    0.000
339.677; 2287.875;  238.350;    0.000
339.734; 2329.875;  197.350;    0.000
339.792; 2360.875;  210.350;    0.000
339.849; 2391.875;  201.350;    0.000
339.907; 2363.875;  252.350;    0.000
339.964; 2317.875;  191.350;    0.000
340.022; 2392.875;  246.350;    0.000
340.079; 2411.875;  213.350;    0.000
340.137; 2333.875;  240.350;    0.000
340.194; 2395.875;  208.350;    0.000
340.252; 2306.875;  215.350;    0.000
340.309; 2265.875;  203.350;    0.000
340.366; 2263.875;  194.350;    0.000
340.424; 2262.875;  226.350;    0.000
340.481; 2421.875;  234.350;    0.000
340.538; 2356.875;  205.350;    0.000
340.596; 2278.875;  197.350;    0.000
340.653; 2419.875;  233.350;    0.000
340.711; 2408.875;  273.350;    0.000
340.768; 2388.875;  237.350;    0.000
340.825; 2441.875;  224.350;    0.000
340.883; 2338.875;  240.350;    0.000
340.940; 2399.875;  216.350;    0.000
340.997; 2387.875;  228.350;    0.000
341.054; 2285.875;  200.350;    0.000
341.112; 2354.875;  220.350;    0.000
341.169; 2388.875;  226.350;    0.000
341.226; 2467.875;  206.350;    0.000
341.284; 2305.875;  204.350;    0.000
341.341; 2398.875;  214.350;    0.000
341.398; 2390.875;  160.350;    0.000
341.455; 2417.875;  209.350;    0.000
341.512; 2435.875;  233.350;    0.000
341.570; 2502.875;  240.350;    0.000
341.627; 2438.875;  209.350;    0.000
341.684; 2358.875;  178.350;    0.000
341.741; 2434.875;  254.350;    0.000
341.798; 2421.875;  232.350;    0.000
341.856; 2366.875;  196.350;    0.000
341.913; 2416.875;  244.350;    0.000
341.970; 2370.875;  203.350;    0.000
342.027; 2500.875;  235.350;    0.000
342.084; 2364.875;  214.350;    0.000
342.141; 2428.875;  194.350;    0.000
342.198; 2413.875;  194.350;    0.000
342.255; 2516.875;  219.350;    0.000
342.313; 2385.875;  195.350;    0.000
342.370; 2479.875;  207.350;    0.000
342.427; 2449.875;  217.350;    0.000
342.484; 2352.875;  213.350;    0.000
342.541; 2325.875;  215.350;    0.000
342.598; 2464.875;  247.350;    0.000
342.655; 2391.875;  205.350;    0.000
342.712; 2398.875;  226.350;    0.000
342.769; 2323.875;  212.350;    0.000
342.826; 2386.875;  203.350;    0.000
342.883; 2349.875;  207.350;    0.000
342.940; 2383.875;  204.350;    0.000
342.997; 2398.875;  237.350;    0.000
343.054; 2357.875;  210.350;    0.000
343.111; 2358.875;  209.350;    0.000
343.168; 2368.875;  201.350;    0.000
343.225; 2449.875;  208.350;    0.000
343.282; 2524.875;  216.350;    0.000
343.339; 2466.875;  237.350;    0.000
343.395; 2408.875;  218.350;    0.000
343.452; 2431.875;  234.350;    0.000
343.509; 2458.875;  214.350;    0.000
343.566; 2483.875;  222.350;    0.000
343.623; 2556.875;  226.350;    0.000
343.680; 2507.875;  245.350;    0.000
343.737; 2543.875;  209.350;    0.000
343.794; 2564.875;  227.350;    0.000
343.850; 2603.875;  197.350;    0.000
343.907; 2469.875;  211.350;    0.000
343.964; 2577.875;  190.350;    0.000
344.021; 2657.875;  252.350;    0.000
344.078; 2651.875;  261.350;    0.000
344.134; 2533.875;  206.350;    0.000
344.191; 2450.875;  231.350;    0.000
344.248; 2646.875;  225.350;    0.000
344.305; 2626.875;  210.350;    0.000
344.361; 2575.875;  194.350;    0.000
344.418; 2516.875;  219.350;    0.000
344.475; 2514.875;  245.350;    0.000
344.532; 2540.875;  238.350;    0.000
344.588; 2596.875;  235.350;    0.000
344.645; 2555.875;  229.350;    0.000
344.702; 2525.875;  145.350;    0.000
344.758; 2566.875;  240.350;    0.000
344.815; 2533.875;  215.350;    0.000
344.872; 2569.875;  203.350;    0.000
344.928; 2619.875;  208.350;    0.000
344.985; 2570.875;  216.350;    0.000
345.042; 2618.875;  234.350;    0.000
345.098; 2562.875;  183.350;    0.000
345.155; 2584.875;  241.350;    0.000
345.212; 2455.875;  222.350;    0.000
345.268; 2484.875;  234.350;    0.000
345.325; 2556.875;  181.350;    0.000
345.381; 2606.875;  251.350;    0.000
345.438; 2469.875;  256.350;    0.000
345.495; 2555.875;  247.350;    0.000
345.551; 2513.875;  231.350;    0.000
345.608; 2507.875;  206.350;    0.000
345.664; 2584.875;  201.350;    0.000
345.721; 2462.875;  216.350;    0.000
345.777; 2585.875;  195.350;    0.000
345.834; 2494.875;  195.350;    0.000
345.890; 2475.875;  227.350;    0.000
345.947; 2535.875;  240.350;    0.000
346.003; 2560.875;  248.350;    0.000
346.060; 2456.875;  213.350;    0.000
346.116; 2438.875;  225.350;    0.000
346.173; 2527.875;  199.350;    0.000
346.229; 2585.875;  264.350;    0.000
346.285; 2525.875;  246.350;    0.000
346.342; 2579.875;  240.350;    0.000
346.398; 2512.875;  222.350;    0.000
346.455; 2623.875;  231.350;    0.000
346.511; 2656.875;  214.350;    0.000
346.567; 2634.875;  231.350;    0.000
346.624; 2575.875;  222.350;    0.000
346.680; 2571.875;  197.350;    0.000
346.737; 2529.875;  225.350;    0.000
346.793; 2569.875;  255.350;    0.000
346.849; 2616.875;  245.350;    0.000
346.906; 2553.875;  221.350;    0.000
346.962; 2569.875;  260.350;    0.000
347.018; 2680.875;  238.350;    0.000
347.074; 2616.875;  257.350;    0.000
347.131; 2587.875;  200.350;    0.000
347.187; 2616.875;  232.350;    0.000
347.243; 2580.875;  240.350;    0.000
347.300; 2569.875;  249.350;    0.000
347.356; 2539.875;  250.350;    0.000
347.412; 2585.875;  252.350;    0.000
347.468; 2571.875;  254.350;    0.000
347.524; 2605.875;  280.350;    0.000
347.581; 2606.875;  228.350;    0.000
347.637; 2667.875;  261.350;    0.000
347.693; 2628.875;  238.350;    0.000
347.749; 2601.875;  261.350;    0.000
347.805; 2580.875;  238.350;    0.000
347.862; 2638.875;  246.350;    0.000
347.918; 2569.875;  256.350;    0.000
347.974; 2569.875;  277.350;    0.000
348.030; 2632.875;  242.350;    0.000
348.086; 2709.875;  223.350;    0.000
348.142; 2594.875;  215.350;    0.000
348.198; 2614.875;  272.350;    0.000
348.254; 2586.875;  292.350;    0.000
348.311; 2619.875;  235.350;    0.000
348.367; 2548.875;  263.350;    0.000
348.423; 2678.875;  193.350;    0.000
348.479; 2490.875;  266.350;    0.000
348.535; 2548.875;  238.350;    0.000
348.591; 2613.875;  237.350;    0.000
348.647; 2639.875;  239.350;    0.000
348.703; 2604.875;  240.350;    0.000
348.759; 2588.875;  253.350;    0.000
348.815; 2693.875;  255.350;    0.000
348.871; 2694.875;  256.350;    0.000
348.927; 2563.875;  261.350;    0.000
348.983; 2609.875;  258.350;    0.000
349.039; 2553.875;  204.350;    0.000
349.095; 2652.875;  215.350;    0.000
349.151; 2598.875;  230.350;    0.000
349.207; 2535.875;  216.350;    0.000
349.263; 2692.875;  235.350;    0.000
349.319; 2566.875;  244.350;    0.000
349.374; 2601.875;  213.350;    0.000
349.430; 2656.875;  241.350;    0.000
349.486; 2641.875;  248.350;    0.000
349.542; 2723.875;  259.350;    0.000
349.598; 2660.875;  208.350;    0.000
349.654; 2650.875;  242.350;    0.000
349.710; 2727.875;  246.350;    0.000
349.766; 2686.875;  226.350;    0.000
349.821; 2601.875;  227.350;    0.000
349.877; 2679.875;  226.350;    0.000
349.933; 2690.875;  249.350;    0.000
349.989; 2619.875;  263.350;    0.000
350.045; 2584.875;  267.350;    0.000
350.100; 2616.875;  219.350;    0.000
350.156; 2661.875;  207.350;    0.000
350.212; 2694.875;  230.350;    0.000
350.268; 2677.875;  223.350;    0.000
350.323; 2709.875;  217.350;    0.000
350.379; 2637.875;  227.350;    0.000
350.435; 2664.875;  219.350;    0.000
350.491; 2594.875;  195.350;    0.000
350.546; 2650.875;  229.350;    0.000
350.602; 2632.875;  222.350;    0.000
350.658; 2610.875;  225.350;    0.000
350.713; 2673.875;  231.350;    0.000
350.769; 2688.875;  193.350;    0.000
350.825; 2602.875;  182.350;    0.000
350.880; 2593.875;  193.350;    0.000
350.936; 2642.875;  222.350;    0.000
350.992; 2592.875;  217.350;    0.000
351.047; 2697.875;  226.350;    0.000
351.103; 2662.875;  187.350;    0.000
351.158; 2634.875;  212.350;    0.000
351.214; 2656.875;  207.350;    0.000
351.270; 2665.875;  194.350;    0.000
351.325; 2576.875;  213.350;    0.000
351.381; 2652.875;  223.350;    0.000
351.436; 2712.875;  222.350;    0.000
351.492; 2675.875;  219.350;    0.000
351.547; 2670.875;  205.350;    0.000
351.603; 2685.875;  218.350;    0.000
351.658; 2607.875;  199.350;    0.000
351.714; 2685.875;  201.350;    0.000
351.769; 2681.875;  209.350;    0.000
351.825; 2622.875;  226.350;    0.000
351.880; 2650.875;  189.350;    0.000
351.936; 2693.875;  201.350;    0.000
351.991; 2734.875;  220.350;    0.000
352.047; 2746.875;  232.350;    0.000
352.102; 2634.875;  185.350;    0.000
352.158; 2664.875;  228.350;    0.000
352.213; 2628.875;  204.350;    0.000
352.268; 2590.875;  220.350;    0.000
352.324; 2670.875;  206.350;    0.000
352.379; 2688.875;  182.350;    0.000
352.434; 2679.875;  214.350;    0.000
352.490; 2701.875;  250.350;    0.000
352.545; 2760.875;  290.350;    0.000
352.601; 2762.875;  247.350;    0.000
352.656; 2739.875;  203.350;    0.000
352.711; 2629.875;  197.350;    0.000
352.767; 2600.875;  169.350;    0.000
352.822; 2675.875;  191.350;    0.000
352.877; 2658.875;  235.350;    0.000
352.932; 2649.875;  231.350;    0.000
352.988; 2626.875;  224.350;    0.000
353.043; 2731.875;  226.350;    0.000
353.098; 2757.875;  227.350;    0.000
353.153; 2682.875;  239.350;    0.000
353.209; 2670.875;  217.350;    0.000
353.264; 2802.875;  198.350;    0.000
353.319; 2629.875;  247.350;    0.000
353.374; 2616.875;  199.350;    0.000
353.430; 2668.875;  247.350;    0.000
353.485; 2686.875;  242.350;    0.000
353.540; 2728.875;  237.350;    0.000
353.595; 2670.875;  233.350;    0.000
353.650; 2727.875;  221.350;    0.000
353.705; 2701.875;  259.350;    0.000
353.761; 2606.875;  223.350;    0.000
353.816; 2731.875;  234.350;    0.000
353.871; 2656.875;  226.350;    0.000
353.926; 2639.875;  232.350;    0.000
353.981; 2744.875;  245.350;    0.000
354.036; 2670.875;  247.350;    0.000
354.091; 2653.875;  233.350;    0.000
354.146; 2643.875;  253.350;    0.000
354.201; 2771.875;  236.350;    0.000
354.256; 2671.875;  210.350;    0.000
354.311; 2750.875;  279.350;    0.000
354.367; 2722.875;  208.350;    0.000
354.422; 2719.875;  228.350;    0.000
354.477; 2729.875;  202.350;    0.000
354.532; 2697.875;  215.350;    0.000
354.587; 2704.875;  249.350;    0.000
354.642; 2664.875;  206.350;    0.000
354.697; 2769.875;  226.350;    0.000
354.751; 2702.875;  241.350;    0.000
354.806; 2700.875;  249.350;    0.000
354.861; 2747.875;  216.350;    0.000
354.916; 2659.875;  249.350;    0.000
354.971; 2826.875;  217.350;    0.000
355.026; 2778.875;  236.350;    0.000
355.081; 2695.875;  242.350;    0.000
355.136; 2671.875;  216.350;    0.000
355.191; 2637.875;  216.350;    0.000
355.246; 2648.875;  258.350;    0.000
355.301; 2780.875;  250.350;    0.000
355.355; 2757.875;  251.350;    0.000
355.410; 2771.875;  216.350;    0.000
355.465; 2696.875;  224.350;    0.000
355.520; 2747.875;  221.350;    0.000
355.575; 2723.875;  255.350;    0.000
355.630; 2750.875;  225.350;    0.000
355.684; 2749.875;  210.350;    0.000
355.739; 2653.875;  232.350;    0.000
355.794; 2737.875;  202.350;    0.000
355.849; 2779.875;  211.350;    0.000
355.904; 2706.875;  226.350;    0.000
355.958; 2700.875;  191.350;    0.000
356.013; 2750.875;  208.350;    0.000
356.068; 2648.875;  229.350;    0.000
356.123; 2747.875;  243.350;    0.000
356.177; 2728.875;  227.350;    0.000
356.232; 2723.875;  243.350;    0.000
356.287; 2726.875;  216.350;    0.000
356.341; 2683.875;  242.350;    0.000
356.396; 2661.875;  175.350;    0.000
356.451; 2713.875;  271.350;    0.000
356.505; 2701.875;  225.350;    0.000
356.560; 2706.875;  260.350;    0.000
356.615; 2705.875;  213.350;    0.000
356.669; 2770.875;  213.350;    0.000
356.724; 2760.875;  221.350;    0.000
356.778; 2678.875;  232.350;    0.000
356.833; 2692.875;  178.350;    0.000
356.888; 2732.875;  236.350;    0.000
356.942; 2804.875;  224.350;    0.000
356.997; 2749.875;  228.350;    0.000
357.051; 2700.875;  226.350;    0.000
357.106; 2737.875;  185.350;    0.000
357.160; 2723.875;  202.350;    0.000
357.215; 2667.875;  232.350;    0.000
357.269; 2752.875;  224.350;    0.000
357.324; 2681.875;  219.350;    0.000
357.378; 2708.875;  196.350;    0.000
357.433; 2761.875;  241.350;    0.000
357.487; 2711.875;  244.350;    0.000
357.542; 2729.875;  210.350;    0.000
357.596; 2660.875;  231.350;    0.000
357.651; 2773.875;  248.350;    0.000
357.705; 2744.875;  232.350;    0.000
357.760; 2641.875;  224.350;    0.000
357.814; 2710.875;  221.350;    0.000
357.868; 2761.875;  207.350;    0.000
357.923; 2680.875;  234.350;    0.000
357.977; 2749.875;  218.350;    0.000
358.032; 2696.875;  244.350;    0.000
358.086; 2682.875;  246.350;    0.000
358.140; 2732.875;  235.350;    0.000
358.195; 2671.875;  237.350;    0.000
358.249; 2706.875;  233.350;    0.000
358.303; 2811.875;  254.350;    0.000
358.358; 2632.875;  217.350;    0.000
358.412; 2665.875;  245.350;    0.000
358.466; 2731.875;  230.350;    0.000
358.521; 2748.875;  214.350;    0.000
358.575; 2669.875;  243.350;    0.000
358.629; 2739.875;  230.350;    0.000
358.683; 2708.875;  232.350;    0.000
358.738; 2675.875;  249.350;    0.000
358.792; 2747.875;  249.350;    0.000
358.846; 2668.875;  271.350;    0.000
358.900; 2627.875;  265.350;    0.000
358.954; 2735.875;  236.350;    0.000
359.009; 2613.875;  254.350;    0.000
359.063; 2771.875;  216.350;    0.000
359.117; 2747.875;  245.350;    0.000
359.171; 2713.875;  252.350;    0.000
359.225; 2691.875;  240.350;    0.000
359.280; 2668.875;  239.350;    0.000
359.334; 2715.875;  234.350;    0.000
359.388; 2669.875;  258.350;    0.000
359.442; 2830.875;  220.350;    0.000
359.496; 2609.875;  206.350;    0.000
359.550; 2681.875;  279.350;    0.000
359.604; 2713.875;  263.350;    0.000
359.658; 2754.875;  251.350;    0.000
359.712; 2818.875;  244.350;    0.000
359.766; 2682.875;  217.350;    0.000
359.820; 2630.875;  235.350;    0.000
359.875; 2698.875;  249.350;    0.000
359.929; 2792.875;  269.350;    0.000
359.983; 2690.875;  240.350;    0.000
360.037; 2614.875;  252.350;    0.000
360.091; 2810.875;  271.350;    0.000
360.145; 2682.875;  222.350;    0.000
360.199; 2663.875;  302.350;    0.000
360.253; 2658.875;  234.350;    0.000
360.306; 2798.875;  258.350;    0.000
360.360; 2726.875;  249.350;    0.000
360.414; 2586.875;  231.350;    0.000
360.468; 2633.875;  261.350;    0.000
360.522; 2716.875;  277.350;    0.000
360.576; 2668.875;  273.350;    0.000
360.630; 2728.875;  264.350;    0.000
360.684; 2772.875;  223.350;    0.000
360.738; 2722.875;  266.350;    0.000
360.792; 2817.875;  252.350;    0.000
360.846; 2713.875;  234.350;    0.000
360.899; 2641.875;  296.350;    0.000
360.953; 2741.875;  273.350;    0.000
361.007; 2686.875;  251.350;    0.000
361.061; 2702.875;  250.350;    0.000
361.115; 2768.875;  267.350;    0.000
361.168; 2814.875;  308.350;    0.000
361.222; 2706.875;  246.350;    0.000
361.276; 2664.875;  261.350;    0.000
361.330; 2694.875;  233.350;    0.000
361.384; 2667.875;  269.350;    0.000
361.437; 2750.875;  270.350;    0.000
361.491; 2714.875;  263.350;    0.000
361.545; 2671.875;  288.350;    0.000
361.599; 2698.875;  270.350;    0.000
361.652; 2797.875;  256.350;    0.000
361.706; 2756.875;  263.350;    0.000
361.760; 2716.875;  237.350;    0.000
361.813; 2799.875;  278.350;    0.000
361.867; 2670.875;  317.350;    0.000
361.921; 2700.875;  260.350;    0.000
361.974; 2695.875;  239.350;    0.000
362.028; 2679.875;  266.350;    0.000
362.082; 2709.875;  269.350;    0.000
362.135; 2614.875;  262.350;    0.000
362.189; 2705.875;  258.350;    0.000
362.242; 2709.875;  273.350;    0.000
362.296; 2615.875;  261.350;    0.000
362.350; 2654.875;  272.350;    0.000
362.403; 2626.875;  291.350;    0.000
362.457; 2666.875;  253.350;    0.000
362.510; 2722.875;  266.350;    0.000
362.564; 2679.875;  260.350;    0.000
362.617; 2724.875;  280.350;    0.000
362.671; 2694.875;  281.350;    0.000
362.724; 2670.875;  234.350;    0.000
362.778; 2714.875;  311.350;    0.000
362.831; 2685.875;  276.350;    0.000
362.885; 2633.875;  288.350;    0.000
362.938; 2620.875;  284.350;    0.000
362.992;  320.875;  245.350;    0.000
363.045;  284.875;  277.350;    0.000
363.099;  270.875;  246.350;    0.000
363.152;  286.875;  290.350;    0.000
363.205;  247.875;  256.350;    0.000
363.259;  279.875;  238.350;    0.000
363.312;  291.875;  290.350;    0.000
363.366;  272.875;  287.350;    0.000
363.419;  310.875;  279.350;    0.000
363.472;  299.875;  304.350;    0.000
363.526;  297.875;  305.350;    0.000
363.579;  285.875;  281.350;    0.000
363.632;  283.875;  279.350;    0.000
363.686;  298.875;  277.350;    0.000
363.739;  283.875;  268.350;    0.000
363.792;  276.875;  274.350;    0.000

