
Integration time [ms]:   0.300
Averaging Nr. [scans]: 1
Smoothing Nr. [pixels]: 0
Data measured with spectrometer [name]: UV2
Wave   ;Sample   ;Dark     ;Reference
[nm]   ;[counts] ;[counts] ;[counts] 

353.533;  204.475;  178.050;    0.000
353.597;  227.475;  251.050;    0.000
353.660;  189.475;  213.050;    0.000
353.723;  161.475;  185.050;    0.000
353.786;  172.475;  191.050;    0.000
353.850;  220.475;  238.050;    0.000
353.913;  175.475;  181.050;    0.000
353.976;  214.475;  190.050;    0.000
354.039;  180.475;  184.050;    0.000
354.102;  214.475;  231.050;    0.000
354.166;  208.475;  188.050;    0.000
354.229;  181.475;  224.050;    0.000
354.292;  177.475;  186.050;    0.000
354.355;  194.475;  175.050;    0.000
354.418;  195.475;  191.050;    0.000
354.481;  216.475;  181.050;    0.000
354.545;  698.475;  193.050;    0.000
354.608;  736.475;  210.050;    0.000
354.671;  715.475;  183.050;    0.000
354.734;  729.475;  189.050;    0.000
354.797;  700.475;  168.050;    0.000
354.860;  725.475;  178.050;    0.000
354.923;  680.475;  236.050;    0.000
354.986;  779.475;  181.050;    0.000
355.050;  778.475;  168.050;    0.000
355.113;  758.475;  201.050;    0.000
355.176;  776.475;  206.050;    0.000
355.239;  862.475;  213.050;    0.000
355.302;  813.475;  198.050;    0.000
355.365;  861.475;  199.050;    0.000
355.428;  847.475;  200.050;    0.000
355.491;  902.475;  232.050;    0.000
355.554;  817.475;  184.050;    0.000
355.617;  862.475;  214.050;    0.000
355.680;  888.475;  191.050;    0.000
355.743;  885.475;  161.050;    0.000
355.806;  869.475;  153.050;    0.000
355.869;  966.475;  221.050;    0.000
355.932;  891.475;  152.050;    0.000
355.995;  924.475;  195.050;    0.000
356.058;  968.475;  172.050;    0.000
356.121;  944.475;  186.050;    0.000
356.184;  995.475;  196.050;    0.000
356.247;  897.475;  183.050;    0.000
356.310;  946.475;  159.050;    0.000
356.373;  972.475;  183.050;    0.000
356.436;  944.475;  176.050;    0.000
356.498;  921.475;  191.050;    0.000
356.561;  944.475;  145.050;    0.000
356.624;  923.475;  187.050;    0.000
356.687;  984.475;  181.050;    0.000
356.750;  954.475;  227.050;    0.000
356.813; 1018.475;  147.050;    0.000
356.876; 1016.475;  184.050;    0.000
356.939;  951.475;  141.050;    0.000
357.001;  970.475;  188.050;    0.000
357.064;  957.475;  173.050;    0.000
357.127;  983.475;  159.050;    0.000
357.190; 1024.475;  185.050;    0.000
357.253; 1017.475;  180.050;    0.000
357.316; 1017.475;  199.050;    0.000
357.378;  986.475;  196.050;    0.000
357.441;  985.475;  175.050;    0.000
357.504; 1080.475;  164.050;    0.000
357.567;  952.475;  145.050;    0.000
357.629; 1006.475;  205.050;    0.000
357.692; 1013.475;  175.050;    0.000
357.755;  988.475;  205.050;    0.000
357.818;  954.475;  141.050;    0.000
357.880; 1076.475;  170.050;    0.000
357.943; 1003.475;  152.050;    0.000
358.006;  964.475;  145.050;    0.000
358.069; 1078.475;  164.050;    0.000
358.131; 1093.475;  148.050;    0.000
358.194; 1054.475;  122.050;    0.000
358.257; 1023.475;  147.050;    0.000
358.319; 1018.475;  156.050;    0.000
358.382; 1027.475;  193.050;    0.000
358.445; 1010.475;  155.050;    0.000
358.507; 1055.475;  160.050;    0.000
358.570; 1053.475;  159.050;    0.000
358.633; 1055.475;  163.050;    0.000
358.695; 1041.475;  174.050;    0.000
358.758; 1073.475;  127.050;    0.000
358.821; 1047.475;  165.050;    0.000
358.883; 1058.475;  145.050;    0.000
358.946;  993.475;  127.050;    0.000
359.008; 1112.475;  180.050;    0.000
359.071; 1074.475;  173.050;    0.000
359.134; 1055.475;  150.050;    0.000
359.196; 1147.475;  158.050;    0.000
359.259; 1094.475;  159.050;    0.000
359.321; 1032.475;  159.050;    0.000
359.384; 1145.475;  182.050;    0.000
359.446; 1101.475;  140.050;    0.000
359.509; 1089.475;  146.050;    0.000
359.571; 1089.475;  133.050;    0.000
359.634; 1070.475;   93.050;    0.000
359.696; 1112.475;  142.050;    0.000
359.759; 1110.475;  161.050;    0.000
359.821; 1118.475;  110.050;    0.000
359.884; 1158.475;  114.050;    0.000
359.946; 1133.475;  180.050;    0.000
360.009; 1146.475;  158.050;    0.000
360.071; 1053.475;  116.050;    0.000
360.134; 1131.475;  170.050;    0.000
360.196; 1079.475;  128.050;    0.000
360.259; 1092.475;  157.050;    0.000
360.321; 1195.475;  122.050;    0.000
360.384; 1132.475;  119.050;    0.000
360.446; 1127.475;  122.050;    0.000
360.508; 1125.475;  195.050;    0.000
360.571; 1192.475;  128.050;    0.000
360.633; 1131.475;  172.050;    0.000
360.696; 1076.475;  115.050;    0.000
360.758; 1181.475;  162.050;    0.000
360.820; 1180.475;  149.050;    0.000
360.883; 1162.475;  151.050;    0.000
360.945; 1147.475;  149.050;    0.000
361.007; 1160.475;  135.050;    0.000
361.070; 1242.475;  162.050;    0.000
361.132; 1200.475;  198.050;    0.000
361.194; 1143.475;  141.050;    0.000
361.257; 1165.475;  154.050;    0.000
361.319; 1176.475;  147.050;    0.000
361.381; 1127.475;  154.050;    0.000
361.443; 1124.475;  144.050;    0.000
361.506; 1233.475;  164.050;    0.000
361.568; 1134.475;  148.050;    0.000
361.630; 1178.475;  127.050;    0.000
361.693; 1203.475;  158.050;    0.000
361.755; 1156.475;  161.050;    0.000
361.817; 1252.475;  173.050;    0.000
361.879; 1233.475;  159.050;    0.000
361.941; 1147.475;  153.050;    0.000
362.004; 1143.475;  148.050;    0.000
362.066; 1158.475;  150.050;    0.000
362.128; 1190.475;  132.050;    0.000
362.190; 1236.475;  207.050;    0.000
362.252; 1225.475;  142.050;    0.000
362.315; 1169.475;  153.050;    0.000
362.377; 1235.475;  164.050;    0.000
362.439; 1287.475;  155.050;    0.000
362.501; 1256.475;  157.050;    0.000
362.563; 1264.475;  188.050;    0.000
362.625; 1228.475;  194.050;    0.000
362.688; 1199.475;  159.050;    0.000
362.750; 1279.475;  205.050;    0.000
362.812; 1262.475;  148.050;    0.000
362.874; 1254.475;  173.050;    0.000
362.936; 1258.475;  152.050;    0.000
362.998; 1233.475;  145.050;    0.000
363.060; 1281.475;  184.050;    0.000
363.122; 1213.475;  147.050;    0.000
363.184; 1333.475;  136.050;    0.000
363.246; 1265.475;  171.050;    0.000
363.308; 1228.475;  154.050;    0.000
363.370; 1264.475;  175.050;    0.000
363.432; 1272.475;  139.050;    0.000
363.494; 1270.475;  163.050;    0.000
363.556; 1232.475;  117.050;    0.000
363.618; 1240.475;  126.050;    0.000
363.680; 1276.475;  147.050;    0.000
363.742; 1268.475;  161.050;    0.000
363.804; 1305.475;  159.050;    0.000
363.866; 1326.475;  170.050;    0.000
363.928; 1240.475;  122.050;    0.000
363.990; 1276.475;  167.050;    0.000
364.052; 1304.475;  180.050;    0.000
364.114; 1256.475;  119.050;    0.000
364.176; 1341.475;  184.050;    0.000
364.238; 1294.475;  180.050;    0.000
364.300; 1274.475;  159.050;    0.000
364.362; 1264.475;  163.050;    0.000
364.424; 1228.475;  139.050;    0.000
364.486; 1324.475;  189.050;    0.000
364.548; 1255.475;  167.050;    0.000
364.609; 1267.475;  165.050;    0.000
364.671; 1298.475;  171.050;    0.000
364.733; 1238.475;  165.050;    0.000
364.795; 1258.475;  122.050;    0.000
364.857; 1285.475;  147.050;    0.000
364.919; 1283.475;  104.050;    0.000
364.981; 1287.475;  143.050;    0.000
365.042; 1313.475;  166.050;    0.000
365.104; 1255.475;  162.050;    0.000
365.166; 1238.475;  155.050;    0.000
365.228; 1293.475;  179.050;    0.000
365.290; 1263.475;  133.050;    0.000
365.351; 1262.475;  142.050;    0.000
365.413; 1277.475;  144.050;    0.000
365.475; 1255.475;  139.050;    0.000
365.537; 1338.475;  181.050;    0.000
365.598; 1313.475;  166.050;    0.000
365.660; 1305.475;  130.050;    0.000
365.722; 1342.475;  177.050;    0.000
365.784; 1301.475;  149.050;    0.000
365.845; 1249.475;  156.050;    0.000
365.907; 1284.475;  122.050;    0.000
365.969; 1368.475;  140.050;    0.000
366.030; 1309.475;  156.050;    0.000
366.092; 1262.475;  140.050;    0.000
366.154; 1354.475;  169.050;    0.000
366.215; 1336.475;  170.050;    0.000
366.277; 1310.475;  143.050;    0.000
366.339; 1326.475;  139.050;    0.000
366.400; 1207.475;  139.050;    0.000
366.462; 1295.475;  140.050;    0.000
366.524; 1338.475;  150.050;    0.000
366.585; 1335.475;  163.050;    0.000
366.647; 1395.475;  193.050;    0.000
366.708; 1247.475;  135.050;    0.000
366.770; 1339.475;  165.050;    0.000
366.832; 1335.475;  168.050;    0.000
366.893; 1359.475;  157.050;    0.000
366.955; 1367.475;  132.050;    0.000
367.016; 1341.475;  127.050;    0.000
367.078; 1423.475;  146.050;    0.000
367.139; 1375.475;  129.050;    0.000
367.201; 1303.475;  148.050;    0.000
367.262; 1409.475;  165.050;    0.000
367.324; 1354.475;  171.050;    0.000
367.385; 1291.475;  118.050;    0.000
367.447; 1345.475;  144.050;    0.000
367.508; 1357.475;  135.050;    0.000
367.570; 1394.475;  160.050;    0.000
367.631; 1403.475;  157.050;    0.000
367.693; 1403.475;  168.050;    0.000
367.754; 1340.475;  139.050;    0.000
367.816; 1310.475;  141.050;    0.000
367.877; 1403.475;  195.050;    0.000
367.939; 1383.475;  166.050;    0.000
368.000; 1351.475;  127.050;    0.000
368.062; 1350.475;  143.050;    0.000
368.123; 1327.475;  156.050;    0.000
368.184; 1283.475;  179.050;    0.000
368.246; 1331.475;  168.050;    0.000
368.307; 1419.475;  203.050;    0.000
368.369; 1389.475;  149.050;    0.000
368.430; 1347.475;  121.050;    0.000
368.491; 1359.475;  131.050;    0.000
368.553; 1357.475;  161.050;    0.000
368.614; 1365.475;  157.050;    0.000
368.675; 1310.475;  152.050;    0.000
368.737; 1343.475;  168.050;    0.000
368.798; 1467.475;  147.050;    0.000
368.859; 1404.475;  174.050;    0.000
368.921; 1390.475;  168.050;    0.000
368.982; 1357.475;  151.050;    0.000
369.043; 1313.475;  169.050;    0.000
369.104; 1373.475;  149.050;    0.000
369.166; 1382.475;  178.050;    0.000
369.227; 1435.475;  149.050;    0.000
369.288; 1436.475;  131.050;    0.000
369.349; 1426.475;  128.050;    0.000
369.411; 1418.475;  198.050;    0.000
369.472; 1463.475;  156.050;    0.000
369.533; 1403.475;  142.050;    0.000
369.594; 1402.475;  125.050;    0.000
369.656; 1431.475;  153.050;    0.000
369.717; 1305.475;  124.050;    0.000
369.778; 1387.475;  163.050;    0.000
369.839; 1455.475;  130.050;    0.000
369.900; 1395.475;  170.050;    0.000
369.961; 1313.475;  142.050;    0.000
370.023; 1454.475;  197.050;    0.000
370.084; 1413.475;  151.050;    0.000
370.145; 1369.475;  128.050;    0.000
370.206; 1473.475;  152.050;    0.000
370.267; 1470.475;  154.050;    0.000
370.328; 1469.475;  154.050;    0.000
370.389; 1366.475;  173.050;    0.000
370.451; 1420.475;  191.050;    0.000
370.512; 1388.475;  155.050;    0.000
370.573; 1421.475;  134.050;    0.000
370.634; 1434.475;  160.050;    0.000
370.695; 1399.475;  124.050;    0.000
370.756; 1474.475;  169.050;    0.000
370.817; 1428.475;  169.050;    0.000
370.878; 1498.475;  200.050;    0.000
370.939; 1479.475;  157.050;    0.000
371.000; 1419.475;  131.050;    0.000
371.061; 1409.475;  136.050;    0.000
371.122; 1434.475;  176.050;    0.000
371.183; 1447.475;   81.050;    0.000
371.244; 1461.475;  156.050;    0.000
371.305; 1453.475;  131.050;    0.000
371.366; 1430.475;  161.050;    0.000
371.427; 1457.475;  127.050;    0.000
371.488; 1387.475;  184.050;    0.000
371.549; 1452.475;  159.050;    0.000
371.610; 1464.475;  147.050;    0.000
371.671; 1455.475;  132.050;    0.000
371.732; 1404.475;  163.050;    0.000
371.793; 1489.475;  179.050;    0.000
371.853; 1454.475;  179.050;    0.000
371.914; 1524.475;  149.050;    0.000
371.975; 1469.475;  117.050;    0.000
372.036; 1480.475;  141.050;    0.000
372.097; 1456.475;  101.050;    0.000
372.158; 1497.475;  115.050;    0.000
372.219; 1494.475;  174.050;    0.000
372.280; 1474.475;  134.050;    0.000
372.340; 1492.475;  180.050;    0.000
372.401; 1504.475;  166.050;    0.000
372.462; 1486.475;  171.050;    0.000
372.523; 1463.475;  132.050;    0.000
372.584; 1503.475;  182.050;    0.000
372.645; 1472.475;  149.050;    0.000
372.705; 1550.475;  182.050;    0.000
372.766; 1455.475;  145.050;    0.000
372.827; 1509.475;  161.050;    0.000
372.888; 1453.475;  156.050;    0.000
372.948; 1470.475;  158.050;    0.000
373.009; 1527.475;  178.050;    0.000
373.070; 1415.475;  166.050;    0.000
373.131; 1442.475;  154.050;    0.000
373.191; 1542.475;  193.050;    0.000
373.252; 1559.475;  148.050;    0.000
373.313; 1451.475;  152.050;    0.000
373.373; 1433.475;  156.050;    0.000
373.434; 1487.475;  166.050;    0.000
373.495; 1431.475;  152.050;    0.000
373.555; 1469.475;  145.050;    0.000
373.616; 1485.475;  141.050;    0.000
373.677; 1514.475;  169.050;    0.000
373.737; 1489.475;  166.050;    0.000
373.798; 1503.475;  151.050;    0.000
373.859; 1588.475;  170.050;    0.000
373.919; 1528.475;  206.050;    0.000
373.980; 1497.475;  140.050;    0.000
374.041; 1518.475;  148.050;    0.000
374.101; 1491.475;  165.050;    0.000
374.162; 1566.475;  166.050;    0.000
374.222; 1556.475;  156.050;    0.000
374.283; 1474.475;  161.050;    0.000
374.343; 1509.475;  185.050;    0.000
374.404; 1553.475;  148.050;    0.000
374.465; 1491.475;  162.050;    0.000
374.525; 1502.475;  177.050;    0.000
374.586; 1503.475;  164.050;    0.000
374.646; 1602.475;  180.050;    0.000
374.707; 1652.475;  203.050;    0.000
374.767; 1575.475;  148.050;    0.000
374.828; 1551.475;  142.050;    0.000
374.888; 1591.475;  187.050;    0.000
374.949; 1617.475;  137.050;    0.000
375.009; 1610.475;  155.050;    0.000
375.070; 1675.475;  165.050;    0.000
375.130; 1645.475;  168.050;    0.000
375.190; 1549.475;  157.050;    0.000
375.251; 1654.475;  206.050;    0.000
375.311; 1605.475;  141.050;    0.000
375.372; 1549.475;  144.050;    0.000
375.432; 1580.475;  153.050;    0.000
375.493; 1564.475;  168.050;    0.000
375.553; 1545.475;  146.050;    0.000
375.613; 1550.475;  142.050;    0.000
375.674; 1676.475;  153.050;    0.000
375.734; 1546.475;  166.050;    0.000
375.794; 1566.475;  145.050;    0.000
375.855; 1556.475;  162.050;    0.000
375.915; 1537.475;  162.050;    0.000
375.975; 1594.475;  144.050;    0.000
376.036; 1549.475;  128.050;    0.000
376.096; 1563.475;  122.050;    0.000
376.156; 1578.475;  140.050;    0.000
376.217; 1624.475;  158.050;    0.000
376.277; 1677.475;  163.050;    0.000
376.337; 1586.475;  139.050;    0.000
376.398; 1647.475;  176.050;    0.000
376.458; 1611.475;  143.050;    0.000
376.518; 1544.475;  136.050;    0.000
376.578; 1574.475;  177.050;    0.000
376.639; 1603.475;  163.050;    0.000
376.699; 1647.475;  183.050;    0.000
376.759; 1597.475;  169.050;    0.000
376.819; 1682.475;  147.050;    0.000
376.880; 1583.475;  188.050;    0.000
376.940; 1665.475;  185.050;    0.000
377.000; 1579.475;  131.050;    0.000
377.060; 1648.475;  182.050;    0.000
377.120; 1607.475;  165.050;    0.000
377.180; 1635.475;  169.050;    0.000
377.241; 1592.475;  146.050;    0.000
377.301; 1603.475;  183.050;    0.000
377.361; 1574.475;  124.050;    0.000
377.421; 1729.475;  186.050;    0.000
377.481; 1555.475;  178.050;    0.000
377.541; 1650.475;  140.050;    0.000
377.601; 1717.475;  175.050;    0.000
377.661; 1695.475;  169.050;    0.000
377.722; 1676.475;  144.050;    0.000
377.782; 1641.475;  182.050;    0.000
377.842; 1733.475;  161.050;    0.000
377.902; 1790.475;  151.050;    0.000
377.962; 1611.475;  134.050;    0.000
378.022; 1684.475;  153.050;    0.000
378.082; 1664.475;  178.050;    0.000
378.142; 1750.475;  118.050;    0.000
378.202; 1743.475;  153.050;    0.000
378.262; 1667.475;  166.050;    0.000
378.322; 1730.475;  174.050;    0.000
378.382; 1692.475;  148.050;    0.000
378.442; 1745.475;  190.050;    0.000
378.502; 1715.475;  136.050;    0.000
378.562; 1719.475;  130.050;    0.000
378.622; 1723.475;  188.050;    0.000
378.682; 1742.475;  163.050;    0.000
378.742; 1714.475;  150.050;    0.000
378.802; 1715.475;  127.050;    0.000
378.862; 1803.475;  186.050;    0.000
378.921; 1811.475;  203.050;    0.000
378.981; 1811.475;  177.050;    0.000
379.041; 1801.475;  134.050;    0.000
379.101; 1775.475;  167.050;    0.000
379.161; 1717.475;  130.050;    0.000
379.221; 1857.475;  169.050;    0.000
379.281; 1785.475;  162.050;    0.000
379.341; 1810.475;  134.050;    0.000
379.401; 1857.475;  151.050;    0.000
379.460; 1910.475;  190.050;    0.000
379.520; 1824.475;  158.050;    0.000
379.580; 1872.475;  162.050;    0.000
379.640; 1907.475;  146.050;    0.000
379.700; 1924.475;  167.050;    0.000
379.759; 1973.475;  194.050;    0.000
379.819; 1894.475;  176.050;    0.000
379.879; 1812.475;  140.050;    0.000
379.939; 1921.475;  184.050;    0.000
379.999; 1890.475;  165.050;    0.000
380.058; 1942.475;  194.050;    0.000
380.118; 1915.475;  137.050;    0.000
380.178; 1886.475;  139.050;    0.000
380.237; 1942.475;  139.050;    0.000
380.297; 1863.475;  160.050;    0.000
380.357; 1941.475;  194.050;    0.000
380.417; 1947.475;  174.050;    0.000
380.476; 2025.475;  153.050;    0.000
380.536; 1943.475;  169.050;    0.000
380.596; 2061.475;  159.050;    0.000
380.655; 1936.475;  178.050;    0.000
380.715; 1979.475;  196.050;    0.000
380.775; 1992.475;  202.050;    0.000
380.834; 2029.475;  186.050;    0.000
380.894; 1966.475;  167.050;    0.000
380.954; 1986.475;  150.050;    0.000
381.013; 1983.475;  187.050;    0.000
381.073; 2018.475;  114.050;    0.000
381.132; 2046.475;  176.050;    0.000
381.192; 2019.475;  197.050;    0.000
381.252; 2035.475;  172.050;    0.000
381.311; 2079.475;  155.050;    0.000
381.371; 2085.475;  172.050;    0.000
381.430; 2053.475;  143.050;    0.000
381.490; 2011.475;  136.050;    0.000
381.549; 2091.475;  131.050;    0.000
381.609; 2171.475;  203.050;    0.000
381.668; 2148.475;  135.050;    0.000
381.728; 2178.475;  163.050;    0.000
381.787; 2177.475;  195.050;    0.000
381.847; 2193.475;  185.050;    0.000
381.906; 2277.475;  187.050;    0.000
381.966; 2234.475;  153.050;    0.000
382.025; 2251.475;  175.050;    0.000
382.085; 2290.475;  195.050;    0.000
382.144; 2338.475;  210.050;    0.000
382.204; 2378.475;  201.050;    0.000
382.263; 2401.475;  178.050;    0.000
382.323; 2405.475;  151.050;    0.000
382.382; 2419.475;  147.050;    0.000
382.441; 2363.475;  144.050;    0.000
382.501; 2611.475;  156.050;    0.000
382.560; 2670.475;  160.050;    0.000
382.619; 2722.475;  173.050;    0.000
382.679; 2849.475;  167.050;    0.000
382.738; 2901.475;  189.050;    0.000
382.798; 3119.475;  181.050;    0.000
382.857; 3337.475;  161.050;    0.000
382.916; 3705.475;  162.050;    0.000
382.976; 3712.475;  169.050;    0.000
383.035; 3618.475;  174.050;    0.000
383.094; 3717.475;  178.050;    0.000
383.154; 4262.475;  188.050;    0.000
383.213; 4736.475;  162.050;    0.000
383.272; 4544.475;  144.050;    0.000
383.331; 3789.475;  144.050;    0.000
383.391; 3596.475;  198.050;    0.000
383.450; 3375.475;  185.050;    0.000
383.509; 3370.475;  132.050;    0.000
383.568; 3540.475;  171.050;    0.000
383.628; 3700.475;  171.050;    0.000
383.687; 4210.475;  172.050;    0.000
383.746; 4593.475;  144.050;    0.000
383.805; 5469.475;  177.050;    0.000
383.864; 5314.475;  145.050;    0.000
383.924; 4262.475;  203.050;    0.000
383.983; 3485.475;  153.050;    0.000
384.042; 3136.475;  171.050;    0.000
384.101; 2990.475;  186.050;    0.000
384.160; 2847.475;  132.050;    0.000
384.219; 2747.475;  157.050;    0.000
384.279; 2700.475;  166.050;    0.000
384.338; 2512.475;  141.050;    0.000
384.397; 2507.475;  142.050;    0.000
384.456; 2481.475;  155.050;    0.000
384.515; 2417.475;  158.050;    0.000
384.574; 2466.475;  208.050;    0.000
384.633; 2400.475;  158.050;    0.000
384.692; 2391.475;  162.050;    0.000
384.751; 2456.475;  179.050;    0.000
384.810; 2416.475;  150.050;    0.000
384.869; 2271.475;  147.050;    0.000
384.929; 2312.475;  132.050;    0.000
384.988; 2279.475;  166.050;    0.000
385.047; 2358.475;  161.050;    0.000
385.106; 2242.475;  180.050;    0.000
385.165; 2291.475;  123.050;    0.000
385.224; 2240.475;  153.050;    0.000
385.283; 2295.475;  158.050;    0.000
385.342; 2289.475;  184.050;    0.000
385.401; 2315.475;  191.050;    0.000
385.459; 2277.475;  143.050;    0.000
385.518; 2196.475;  152.050;    0.000
385.577; 2245.475;  134.050;    0.000
385.636; 2260.475;  187.050;    0.000
385.695; 2283.475;  141.050;    0.000
385.754; 2254.475;  143.050;    0.000
385.813; 2334.475;  145.050;    0.000
385.872; 2286.475;  116.050;    0.000
385.931; 2334.475;  147.050;    0.000
385.990; 2293.475;  170.050;    0.000
386.049; 2305.475;  189.050;    0.000
386.107; 2243.475;  122.050;    0.000
386.166; 2271.475;  155.050;    0.000
386.225; 2283.475;  173.050;    0.000
386.284; 2156.475;  138.050;    0.000
386.343; 2278.475;  216.050;    0.000
386.402; 2281.475;  162.050;    0.000
386.460; 2223.475;  131.050;    0.000
386.519; 2205.475;  122.050;    0.000
386.578; 2262.475;  140.050;    0.000
386.637; 2197.475;  169.050;    0.000
386.696; 2244.475;  176.050;    0.000
386.754; 2237.475;  127.050;    0.000
386.813; 2210.475;  138.050;    0.000
386.872; 2213.475;  135.050;    0.000
386.931; 2278.475;  170.050;    0.000
386.989; 2220.475;  167.050;    0.000
387.048; 2172.475;  131.050;    0.000
387.107; 2233.475;  176.050;    0.000
387.165; 2134.475;  139.050;    0.000
387.224; 2227.475;  150.050;    0.000
387.283; 2228.475;  169.050;    0.000
387.342; 2216.475;  191.050;    0.000
387.400; 2170.475;  131.050;    0.000
387.459; 2161.475;  139.050;    0.000
387.517; 2201.475;  214.050;    0.000
387.576; 2148.475;  146.050;    0.000
387.635; 2158.475;  161.050;    0.000
387.693; 2213.475;  197.050;    0.000
387.752; 2156.475;  159.050;    0.000
387.811; 2152.475;  144.050;    0.000
387.869; 2084.475;  172.050;    0.000
387.928; 2165.475;  160.050;    0.000
387.986; 2238.475;  192.050;    0.000
388.045; 2108.475;  121.050;    0.000
388.103; 2172.475;  129.050;    0.000
388.162; 2130.475;  169.050;    0.000
388.221; 2116.475;  171.050;    0.000
388.279; 2121.475;  135.050;    0.000
388.338; 2170.475;  222.050;    0.000
388.396; 2104.475;  168.050;    0.000
388.455; 2125.475;  178.050;    0.000
388.513; 2096.475;  151.050;    0.000
388.572; 2234.475;  147.050;    0.000
388.630; 2193.475;  158.050;    0.000
388.689; 2158.475;  163.050;    0.000
388.747; 2134.475;  180.050;    0.000
388.806; 2078.475;  119.050;    0.000
388.864; 2137.475;  159.050;    0.000
388.922; 2140.475;  152.050;    0.000
388.981; 2119.475;  125.050;    0.000
389.039; 2183.475;  151.050;    0.000
389.098; 2061.475;  151.050;    0.000
389.156; 2038.475;  175.050;    0.000
389.214; 2090.475;  133.050;    0.000
389.273; 2189.475;  142.050;    0.000
389.331; 2111.475;  179.050;    0.000
389.390; 2166.475;  179.050;    0.000
389.448; 2107.475;  159.050;    0.000
389.506; 2179.475;  140.050;    0.000
389.565; 2186.475;  160.050;    0.000
389.623; 2131.475;  181.050;    0.000
389.681; 2139.475;  181.050;    0.000
389.740; 2167.475;  187.050;    0.000
389.798; 2081.475;  163.050;    0.000
389.856; 2101.475;  185.050;    0.000
389.914; 2159.475;  170.050;    0.000
389.973; 2117.475;  150.050;    0.000
390.031; 2103.475;  149.050;    0.000
390.089; 2100.475;  191.050;    0.000
390.147; 2064.475;  126.050;    0.000
390.206; 2169.475;  174.050;    0.000
390.264; 2126.475;  164.050;    0.000
390.322; 2133.475;  150.050;    0.000
390.380; 2102.475;  137.050;    0.000
390.439; 2062.475;  176.050;    0.000
390.497; 2070.475;  188.050;    0.000
390.555; 2059.475;  143.050;    0.000
390.613; 2130.475;  174.050;    0.000
390.671; 2183.475;  208.050;    0.000
390.729; 2101.475;  135.050;    0.000
390.788; 2151.475;  169.050;    0.000
390.846; 2119.475;  173.050;    0.000
390.904; 2187.475;  176.050;    0.000
390.962; 2143.475;  179.050;    0.000
391.020; 2082.475;  201.050;    0.000
391.078; 2121.475;  192.050;    0.000
391.136; 2065.475;  170.050;    0.000
391.194; 2071.475;  163.050;    0.000
391.253; 2243.475;  203.050;    0.000
391.311; 2117.475;  170.050;    0.000
391.369; 2196.475;  191.050;    0.000
391.427; 2202.475;  226.050;    0.000
391.485; 2169.475;  181.050;    0.000
391.543; 2177.475;  177.050;    0.000
391.601; 2158.475;  150.050;    0.000
391.659; 2156.475;  201.050;    0.000
391.717; 2139.475;  166.050;    0.000
391.775; 2136.475;  200.050;    0.000
391.833; 2214.475;  180.050;    0.000
391.891; 2135.475;  172.050;    0.000
391.949; 2170.475;  174.050;    0.000
392.007; 2189.475;  194.050;    0.000
392.065; 2170.475;  161.050;    0.000
392.123; 2223.475;  159.050;    0.000
392.180; 2141.475;  193.050;    0.000
392.238; 2147.475;  188.050;    0.000
392.296; 2202.475;  206.050;    0.000
392.354; 2065.475;  170.050;    0.000
392.412; 2177.475;  207.050;    0.000
392.470; 2198.475;  168.050;    0.000
392.528; 2197.475;  185.050;    0.000
392.586; 2187.475;  154.050;    0.000
392.644; 2148.475;  190.050;    0.000
392.701; 2186.475;  195.050;    0.000
392.759; 2179.475;  229.050;    0.000
392.817; 2226.475;  176.050;    0.000
392.875; 2211.475;  198.050;    0.000
392.933; 2210.475;  174.050;    0.000
392.991; 2237.475;  237.050;    0.000
393.048; 2213.475;  212.050;    0.000
393.106; 2209.475;  191.050;    0.000
393.164; 2247.475;  136.050;    0.000
393.222; 2133.475;  164.050;    0.000
393.279; 2236.475;  208.050;    0.000
393.337; 2230.475;  203.050;    0.000
393.395; 2354.475;  191.050;    0.000
393.453; 2191.475;  153.050;    0.000
393.510; 2230.475;  171.050;    0.000
393.568; 2202.475;  203.050;    0.000
393.626; 2291.475;  169.050;    0.000
393.684; 2269.475;  201.050;    0.000
393.741; 2247.475;  172.050;    0.000
393.799; 2287.475;  149.050;    0.000
393.857; 2313.475;  151.050;    0.000
393.914; 2273.475;  192.050;    0.000
393.972; 2140.475;  176.050;    0.000
394.030; 2247.475;  165.050;    0.000
394.087; 2201.475;  192.050;    0.000
394.145; 2342.475;  183.050;    0.000
394.202; 2306.475;  161.050;    0.000
394.260; 2256.475;  135.050;    0.000
394.318; 2353.475;  188.050;    0.000
394.375; 2312.475;  163.050;    0.000
394.433; 2285.475;  151.050;    0.000
394.490; 2239.475;  190.050;    0.000
394.548; 2226.475;  157.050;    0.000
394.605; 2270.475;  205.050;    0.000
394.663; 2324.475;  173.050;    0.000
394.720; 2244.475;  171.050;    0.000
394.778; 2271.475;  190.050;    0.000
394.836; 2331.475;  134.050;    0.000
394.893; 2263.475;  142.050;    0.000
394.951; 2344.475;  192.050;    0.000
395.008; 2342.475;  149.050;    0.000
395.065; 2239.475;  194.050;    0.000
395.123; 2287.475;  160.050;    0.000
395.180; 2261.475;  178.050;    0.000
395.238; 2304.475;  191.050;    0.000
395.295; 2353.475;  160.050;    0.000
395.353; 2319.475;  162.050;    0.000
395.410; 2293.475;  165.050;    0.000
395.468; 2366.475;  190.050;    0.000
395.525; 2374.475;  173.050;    0.000
395.582; 2360.475;  161.050;    0.000
395.640; 2409.475;  200.050;    0.000
395.697; 2366.475;  198.050;    0.000
395.754; 2321.475;  136.050;    0.000
395.812; 2413.475;  172.050;    0.000
395.869; 2412.475;  172.050;    0.000
395.927; 2404.475;  145.050;    0.000
395.984; 2413.475;  220.050;    0.000
396.041; 2366.475;  137.050;    0.000
396.098; 2292.475;  161.050;    0.000
396.156; 2368.475;  159.050;    0.000
396.213; 2312.475;  200.050;    0.000
396.270; 2398.475;  209.050;    0.000
396.328; 2323.475;  162.050;    0.000
396.385; 2324.475;  186.050;    0.000
396.442; 2372.475;  177.050;    0.000
396.499; 2388.475;  183.050;    0.000
396.557; 2409.475;  182.050;    0.000
396.614; 2441.475;  186.050;    0.000
396.671; 2418.475;  144.050;    0.000
396.728; 2372.475;  176.050;    0.000
396.785; 2422.475;  169.050;    0.000
396.843; 2422.475;  134.050;    0.000
396.900; 2500.475;  184.050;    0.000
396.957; 2471.475;  197.050;    0.000
397.014; 2386.475;  187.050;    0.000
397.071; 2435.475;  186.050;    0.000
397.128; 2437.475;  200.050;    0.000
397.186; 2474.475;  175.050;    0.000
397.243; 2615.475;  154.050;    0.000
397.300; 2425.475;  191.050;    0.000
397.357; 2451.475;  238.050;    0.000
397.414; 2526.475;  161.050;    0.000
397.471; 2437.475;  135.050;    0.000
397.528; 2525.475;  158.050;    0.000
397.585; 2532.475;  159.050;    0.000
397.642; 2507.475;  180.050;    0.000
397.699; 2445.475;  170.050;    0.000
397.756; 2508.475;  175.050;    0.000
397.814; 2486.475;  182.050;    0.000
397.871; 2538.475;  173.050;    0.000
397.928; 2461.475;  173.050;    0.000
397.985; 2514.475;  176.050;    0.000
398.042; 2464.475;  189.050;    0.000
398.099; 2539.475;  160.050;    0.000
398.156; 2519.475;  218.050;    0.000
398.212; 2498.475;  194.050;    0.000
398.269; 2567.475;  199.050;    0.000
398.326; 2508.475;  188.050;    0.000
398.383; 2513.475;  187.050;    0.000
398.440; 2539.475;  174.050;    0.000
398.497; 2611.475;  214.050;    0.000
398.554; 2571.475;  181.050;    0.000
398.611; 2582.475;  195.050;    0.000
398.668; 2558.475;  145.050;    0.000
398.725; 2591.475;  178.050;    0.000
398.782; 2581.475;  210.050;    0.000
398.839; 2569.475;  216.050;    0.000
398.895; 2677.475;  189.050;    0.000
398.952; 2703.475;  206.050;    0.000
399.009; 2623.475;  142.050;    0.000
399.066; 2658.475;  192.050;    0.000
399.123; 2760.475;  181.050;    0.000
399.180; 2802.475;  200.050;    0.000
399.236; 2783.475;  156.050;    0.000
399.293; 2781.475;  194.050;    0.000
399.350; 2789.475;  167.050;    0.000
399.407; 2850.475;  192.050;    0.000
399.463; 2817.475;  161.050;    0.000
399.520; 2923.475;  149.050;    0.000
399.577; 2940.475;  156.050;    0.000
399.634; 2840.475;  195.050;    0.000
399.690; 2911.475;  163.050;    0.000
399.747; 2916.475;  192.050;    0.000
399.804; 2973.475;  212.050;    0.000
399.861; 2934.475;  203.050;    0.000
399.917; 2898.475;  221.050;    0.000
399.974; 2879.475;  221.050;    0.000
400.031; 2904.475;  195.050;    0.000
400.087; 2784.475;  159.050;    0.000
400.144; 2913.475;  201.050;    0.000
400.201; 2917.475;  206.050;    0.000
400.257; 2841.475;  168.050;    0.000
400.314; 2792.475;  183.050;    0.000
400.370; 2852.475;  209.050;    0.000
400.427; 2910.475;  192.050;    0.000
400.484; 2786.475;  150.050;    0.000
400.540; 2690.475;  213.050;    0.000
400.597; 2736.475;  161.050;    0.000
400.653; 2746.475;  170.050;    0.000
400.710; 2767.475;  173.050;    0.000
400.766; 2745.475;  204.050;    0.000
400.823; 2713.475;  194.050;    0.000
400.879; 2754.475;  188.050;    0.000
400.936; 2739.475;  172.050;    0.000
400.993; 2707.475;  154.050;    0.000
401.049; 2754.475;  157.050;    0.000
401.105; 2830.475;  214.050;    0.000
401.162; 2741.475;  195.050;    0.000
401.218; 2809.475;  195.050;    0.000
401.275; 2641.475;  182.050;    0.000
401.331; 2841.475;  188.050;    0.000
401.388; 2653.475;  194.050;    0.000
401.444; 2754.475;  175.050;    0.000
401.501; 2770.475;  169.050;    0.000
401.557; 2582.475;  176.050;    0.000
401.614; 2698.475;  153.050;    0.000
401.670; 2788.475;  178.050;    0.000
401.726; 2713.475;  179.050;    0.000
401.783; 2801.475;  198.050;    0.000
401.839; 2701.475;  179.050;    0.000
401.895; 2695.475;  154.050;    0.000
401.952; 2694.475;  138.050;    0.000
402.008; 2690.475;  135.050;    0.000
402.064; 2660.475;  154.050;    0.000
402.121; 2766.475;  199.050;    0.000
402.177; 2765.475;  126.050;    0.000
402.233; 2737.475;  190.050;    0.000
402.290; 2719.475;  175.050;    0.000
402.346; 2782.475;  200.050;    0.000
402.402; 2805.475;  191.050;    0.000
402.458; 2756.475;  172.050;    0.000
402.515; 2736.475;  186.050;    0.000
402.571; 2787.475;  189.050;    0.000
402.627; 2775.475;  151.050;    0.000
402.683; 2800.475;  187.050;    0.000
402.740; 2788.475;  147.050;    0.000
402.796; 2792.475;  176.050;    0.000
402.852; 2835.475;  200.050;    0.000
402.908; 2777.475;  201.050;    0.000
402.964; 2728.475;  153.050;    0.000
403.021; 2916.475;  165.050;    0.000
403.077; 2766.475;  195.050;    0.000
403.133; 2785.475;  139.050;    0.000
403.189; 2808.475;  166.050;    0.000
403.245; 2864.475;  194.050;    0.000
403.301; 2776.475;  210.050;    0.000
403.357; 2831.475;  187.050;    0.000
403.414; 2904.475;  195.050;    0.000
403.470; 2854.475;  150.050;    0.000
403.526; 2886.475;  158.050;    0.000
403.582; 2812.475;  184.050;    0.000
403.638; 2891.475;  171.050;    0.000
403.694; 2876.475;  197.050;    0.000
403.750; 2889.475;  196.050;    0.000
403.806; 2937.475;  192.050;    0.000
403.862; 2920.475;  169.050;    0.000
403.918; 2835.475;  199.050;    0.000
403.974; 2912.475;  156.050;    0.000
404.030; 2844.475;  193.050;    0.000
404.086; 2876.475;  161.050;    0.000
404.142; 2838.475;  172.050;    0.000
404.198; 2915.475;  195.050;    0.000
404.254; 2980.475;  167.050;    0.000
404.310; 2908.475;  156.050;    0.000
404.366; 2854.475;  144.050;    0.000
404.422; 2939.475;  161.050;    0.000
404.478; 2965.475;  179.050;    0.000
404.534; 2946.475;  163.050;    0.000
404.590; 2884.475;  183.050;    0.000
404.646; 2851.475;  155.050;    0.000
404.701; 2961.475;  142.050;    0.000
404.757; 2994.475;  175.050;    0.000
404.813; 2923.475;  153.050;    0.000
404.869; 2962.475;  199.050;    0.000
404.925; 2893.475;  153.050;    0.000
404.981; 2914.475;  174.050;    0.000
405.037; 2969.475;  185.050;    0.000
405.092; 2959.475;  166.050;    0.000
405.148; 2877.475;  161.050;    0.000
405.204; 2918.475;  170.050;    0.000
405.260; 2971.475;  154.050;    0.000
405.316; 2920.475;  128.050;    0.000
405.371; 2937.475;  142.050;    0.000
405.427; 2972.475;  196.050;    0.000
405.483; 2991.475;  172.050;    0.000
405.539; 2969.475;  182.050;    0.000
405.594; 2934.475;  153.050;    0.000
405.650; 2928.475;  124.050;    0.000
405.706; 2990.475;  189.050;    0.000
405.761; 3015.475;  165.050;    0.000
405.817; 2892.475;  152.050;    0.000
405.873; 2941.475;  174.050;    0.000
405.928; 2920.475;  167.050;    0.000
405.984; 3105.475;  210.050;    0.000
406.040; 2935.475;  160.050;    0.000
406.095; 3044.475;  163.050;    0.000
406.151; 2948.475;  208.050;    0.000
406.207; 2994.475;  177.050;    0.000
406.262; 2996.475;  176.050;    0.000
406.318; 3001.475;  157.050;    0.000
406.374; 3040.475;  141.050;    0.000
406.429; 3072.475;  189.050;    0.000
406.485; 3159.475;  190.050;    0.000
406.540; 3118.475;  155.050;    0.000
406.596; 3188.475;  182.050;    0.000
406.651; 3116.475;  200.050;    0.000
406.707; 2988.475;  130.050;    0.000
406.763; 3087.475;  174.050;    0.000
406.818; 3101.475;  151.050;    0.000
406.874; 3040.475;  122.050;    0.000
406.929; 3220.475;  153.050;    0.000
406.985; 3310.475;  198.050;    0.000
407.040; 3243.475;  174.050;    0.000
407.095; 3228.475;  161.050;    0.000
407.151; 3320.475;  184.050;    0.000
407.206; 3294.475;  188.050;    0.000
407.262; 3253.475;  180.050;    0.000
407.317; 3279.475;  186.050;    0.000
407.373; 3438.475;  200.050;    0.000
407.428; 3318.475;  211.050;    0.000
407.484; 3335.475;  193.050;    0.000
407.539; 3274.475;  167.050;    0.000
407.594; 3337.475;  178.050;    0.000
407.650; 3319.475;  171.050;    0.000
407.705; 3301.475;  153.050;    0.000
407.760; 3369.475;  196.050;    0.000
407.816; 3391.475;  205.050;    0.000
407.871; 3364.475;  232.050;    0.000
407.926; 3449.475;  215.050;    0.000
407.982; 3364.475;  154.050;    0.000
408.037; 3290.475;  217.050;    0.000
408.092; 3403.475;  190.050;    0.000
408.148; 3344.475;  181.050;    0.000
408.203; 3264.475;  203.050;    0.000
408.258; 3300.475;  154.050;    0.000
408.314; 3363.475;  198.050;    0.000
408.369; 3253.475;  156.050;    0.000
408.424; 3310.475;  216.050;    0.000
408.479; 3310.475;  191.050;    0.000
408.534; 3352.475;  200.050;    0.000
408.590; 3179.475;  182.050;    0.000
408.645; 3192.475;  141.050;    0.000
408.700; 3279.475;  209.050;    0.000
408.755; 3283.475;  205.050;    0.000
408.810; 3228.475;  171.050;    0.000
408.866; 3347.475;  200.050;    0.000
408.921; 3224.475;  188.050;    0.000
408.976; 3267.475;  156.050;    0.000
409.031; 3219.475;  164.050;    0.000
409.086; 3302.475;  155.050;    0.000
409.141; 3295.475;  205.050;    0.000
409.196; 3268.475;  173.050;    0.000
409.252; 3233.475;  179.050;    0.000
409.307; 3229.475;  131.050;    0.000
409.362; 3211.475;  173.050;    0.000
409.417; 3197.475;  120.050;    0.000
409.472; 3248.475;  198.050;    0.000
409.527; 3128.475;  153.050;    0.000
409.582; 3230.475;  177.050;    0.000
409.637; 3329.475;  184.050;    0.000
409.692; 3246.475;  203.050;    0.000
409.747; 3210.475;  158.050;    0.000
409.802; 3294.475;  212.050;    0.000
409.857; 3261.475;  192.050;    0.000
409.912; 3240.475;  179.050;    0.000
409.967; 3195.475;  177.050;    0.000
410.022; 3259.475;  204.050;    0.000
410.077; 3271.475;  175.050;    0.000
410.132; 3216.475;  207.050;    0.000
410.187; 3240.475;  169.050;    0.000
410.242; 3307.475;  186.050;    0.000
410.297; 3225.475;  185.050;    0.000
410.351; 3175.475;  191.050;    0.000
410.406; 3304.475;  215.050;    0.000
410.461; 3252.475;  190.050;    0.000
410.516; 3241.475;  172.050;    0.000
410.571; 3248.475;  190.050;    0.000
410.626; 3287.475;  189.050;    0.000
410.681; 3206.475;  191.050;    0.000
410.736; 3236.475;  166.050;    0.000
410.790; 3224.475;  179.050;    0.000
410.845; 3194.475;  196.050;    0.000
410.900; 3213.475;  168.050;    0.000
410.955; 3263.475;  173.050;    0.000
411.010; 3304.475;  162.050;    0.000
411.064; 3228.475;  205.050;    0.000
411.119; 3213.475;  203.050;    0.000
411.174; 3242.475;  207.050;    0.000
411.229; 3201.475;  218.050;    0.000
411.283; 3152.475;  218.050;    0.000
411.338; 3248.475;  180.050;    0.000
411.393; 3256.475;  191.050;    0.000
411.447; 3275.475;  207.050;    0.000
411.502; 3230.475;  204.050;    0.000
411.557; 3180.475;  208.050;    0.000
411.612; 3224.475;  191.050;    0.000
411.666; 3286.475;  233.050;    0.000
411.721; 3233.475;  193.050;    0.000
411.776; 3259.475;  195.050;    0.000
411.830; 3172.475;  229.050;    0.000
411.885; 3324.475;  181.050;    0.000
411.939; 3323.475;  214.050;    0.000
411.994; 3252.475;  140.050;    0.000
412.049; 3227.475;  205.050;    0.000
412.103; 3338.475;  232.050;    0.000
412.158; 3320.475;  228.050;    0.000
412.212; 3261.475;  204.050;    0.000
412.267; 3286.475;  203.050;    0.000
412.322; 3341.475;  212.050;    0.000
412.376; 3125.475;  195.050;    0.000
412.431; 3190.475;  197.050;    0.000
412.485; 3258.475;  235.050;    0.000
412.540; 3225.475;  197.050;    0.000
412.594; 3230.475;  199.050;    0.000
412.649; 3372.475;  195.050;    0.000
412.703; 3257.475;  214.050;    0.000
412.758; 3247.475;  213.050;    0.000
412.812; 3252.475;  154.050;    0.000
412.866; 3159.475;  159.050;    0.000
412.921; 3250.475;  207.050;    0.000
412.975; 3124.475;  194.050;    0.000
413.030; 3301.475;  214.050;    0.000
413.084; 3138.475;  174.050;    0.000
413.139; 3183.475;  211.050;    0.000
413.193; 3175.475;  223.050;    0.000
413.247; 3168.475;  198.050;    0.000
413.302; 3186.475;  184.050;    0.000
413.356; 3171.475;  194.050;    0.000
413.410; 3161.475;  219.050;    0.000
413.465; 3243.475;  209.050;    0.000
413.519; 3242.475;  178.050;    0.000
413.573; 3111.475;  189.050;    0.000
413.628; 3251.475;  184.050;    0.000
413.682; 3200.475;  189.050;    0.000
413.736; 3171.475;  196.050;    0.000
413.791; 3279.475;  208.050;    0.000
413.845; 3229.475;  206.050;    0.000
413.899; 3231.475;  193.050;    0.000
413.953; 3334.475;  176.050;    0.000
414.008; 3171.475;  163.050;    0.000
414.062; 3193.475;  195.050;    0.000
414.116; 3242.475;  176.050;    0.000
414.170; 3259.475;  218.050;    0.000
414.225; 3225.475;  183.050;    0.000
414.279; 3319.475;  191.050;    0.000
414.333; 3204.475;  215.050;    0.000
414.387; 3257.475;  187.050;    0.000
414.441; 3193.475;  182.050;    0.000
414.496; 3254.475;  205.050;    0.000
414.550; 3207.475;  203.050;    0.000
414.604; 3190.475;  223.050;    0.000
414.658; 3210.475;  159.050;    0.000
414.712; 3242.475;  194.050;    0.000
414.766; 3293.475;  232.050;    0.000
414.820; 3279.475;  235.050;    0.000
414.874; 3221.475;  169.050;    0.000
414.928; 3319.475;  207.050;    0.000
414.982; 3379.475;  174.050;    0.000
415.037; 3282.475;  173.050;    0.000
415.091; 3251.475;  219.050;    0.000
415.145; 3246.475;  174.050;    0.000
415.199; 3281.475;  207.050;    0.000
415.253; 3285.475;  228.050;    0.000
415.307; 3287.475;  182.050;    0.000
415.361; 3291.475;  219.050;    0.000
415.415; 3247.475;  218.050;    0.000
415.469; 3314.475;  233.050;    0.000
415.523; 3312.475;  203.050;    0.000
415.577; 3207.475;  186.050;    0.000
415.631; 3169.475;  215.050;    0.000
415.684; 3245.475;  212.050;    0.000
415.738; 3185.475;  206.050;    0.000
415.792; 3188.475;  219.050;    0.000
415.846; 3267.475;  208.050;    0.000
415.900; 3246.475;  203.050;    0.000
415.954; 3284.475;  237.050;    0.000
416.008; 3222.475;  242.050;    0.000
416.062; 3196.475;  197.050;    0.000
416.116; 3233.475;  189.050;    0.000
416.169; 3307.475;  199.050;    0.000
416.223; 3268.475;  230.050;    0.000
416.277; 3239.475;  226.050;    0.000
416.331; 3226.475;  254.050;    0.000
416.385; 3152.475;  204.050;    0.000
416.439; 3197.475;  201.050;    0.000
416.492; 3174.475;  238.050;    0.000
416.546; 3221.475;  234.050;    0.000
416.600; 3209.475;  244.050;    0.000
416.654; 3130.475;  233.050;    0.000
416.707; 3244.475;  214.050;    0.000
416.761; 3263.475;  214.050;    0.000
416.815; 3160.475;  192.050;    0.000
416.869; 3246.475;  225.050;    0.000
416.922; 3193.475;  214.050;    0.000
416.976; 3218.475;  206.050;    0.000
417.030; 3205.475;  226.050;    0.000
417.083; 3196.475;  207.050;    0.000
417.137; 3175.475;  236.050;    0.000
417.191; 3154.475;  208.050;    0.000
417.244; 3317.475;  260.050;    0.000
417.298; 3170.475;  222.050;    0.000
417.352; 3174.475;  191.050;    0.000
417.405; 3243.475;  229.050;    0.000
417.459; 3133.475;  249.050;    0.000
417.512; 3250.475;  259.050;    0.000
417.566; 3167.475;  220.050;    0.000
417.620; 3189.475;  229.050;    0.000
417.673; 3243.475;  190.050;    0.000
417.727; 3238.475;  204.050;    0.000
417.780; 3283.475;  223.050;    0.000
417.834; 3087.475;  213.050;    0.000
417.887; 3182.475;  238.050;    0.000
417.941; 3113.475;  244.050;    0.000
417.994; 3281.475;  247.050;    0.000
418.048; 3197.475;  225.050;    0.000
418.101; 3169.475;  210.050;    0.000
418.155; 3245.475;  224.050;    0.000
418.208; 3228.475;  229.050;    0.000
418.262; 3282.475;  255.050;    0.000
418.315; 3286.475;  248.050;    0.000
418.369; 3252.475;  212.050;    0.000
418.422; 3226.475;  241.050;    0.000
418.476; 3178.475;  220.050;    0.000
418.529; 3235.475;  257.050;    0.000
418.582; 3149.475;  203.050;    0.000
418.636; 3220.475;  221.050;    0.000
418.689; 3219.475;  202.050;    0.000
418.743; 3283.475;  227.050;    0.000
418.796; 3275.475;  226.050;    0.000
418.849; 3222.475;  199.050;    0.000
418.903; 3258.475;  234.050;    0.000
418.956; 3257.475;  236.050;    0.000
419.009; 3351.475;  305.050;    0.000
419.063; 3231.475;  216.050;    0.000
419.116; 3237.475;  245.050;    0.000
419.169; 3185.475;  208.050;    0.000
419.222; 3252.475;  233.050;    0.000
419.276; 3227.475;  244.050;    0.000
419.329; 3163.475;  197.050;    0.000
419.382; 3242.475;  222.050;    0.000
419.435; 3104.475;  199.050;    0.000
419.489; 3288.475;  226.050;    0.000
419.542; 3191.475;  223.050;    0.000
419.595; 3183.475;  204.050;    0.000
419.648; 3239.475;  234.050;    0.000
419.701; 3120.475;  211.050;    0.000
419.755; 3044.475;  184.050;    0.000
419.808; 3201.475;  223.050;    0.000
419.861; 3131.475;  197.050;    0.000
419.914; 3205.475;  258.050;    0.000
419.967; 3164.475;  205.050;    0.000
420.020; 3194.475;  195.050;    0.000
420.073; 3146.475;  191.050;    0.000
420.127; 3101.475;  256.050;    0.000
420.180; 3062.475;  232.050;    0.000
420.233; 3194.475;  200.050;    0.000
420.286; 3111.475;  207.050;    0.000
420.339; 3069.475;  223.050;    0.000
420.392; 3144.475;  243.050;    0.000
420.445; 3077.475;  195.050;    0.000
420.498; 3109.475;  239.050;    0.000
420.551; 3053.475;  201.050;    0.000
420.604; 3032.475;  245.050;    0.000
420.657; 2972.475;  221.050;    0.000
420.710; 3150.475;  223.050;    0.000
420.763; 3052.475;  241.050;    0.000
420.816; 3080.475;  198.050;    0.000
420.869; 3172.475;  210.050;    0.000
420.922; 3136.475;  206.050;    0.000
420.975; 3029.475;  239.050;    0.000
421.028; 3088.475;  248.050;    0.000
421.081; 2998.475;  236.050;    0.000
421.134; 3062.475;  208.050;    0.000
421.187; 3046.475;  216.050;    0.000
421.239; 3100.475;  199.050;    0.000
421.292; 3026.475;  255.050;    0.000
421.345; 2987.475;  241.050;    0.000
421.398; 3075.475;  221.050;    0.000
421.451; 3117.475;  237.050;    0.000
421.504; 3044.475;  225.050;    0.000
421.557; 2989.475;  213.050;    0.000
421.609; 2921.475;  178.050;    0.000
421.662; 3035.475;  206.050;    0.000
421.715; 2978.475;  212.050;    0.000
421.768; 3002.475;  236.050;    0.000
421.821; 3034.475;  228.050;    0.000
421.873; 3052.475;  200.050;    0.000
421.926; 3059.475;  226.050;    0.000
421.979; 3023.475;  221.050;    0.000
422.032; 3081.475;  219.050;    0.000
422.084; 2975.475;  253.050;    0.000
422.137; 3002.475;  195.050;    0.000
422.190; 2955.475;  192.050;    0.000
422.243; 2973.475;  236.050;    0.000
422.295; 2932.475;  205.050;    0.000
422.348; 2993.475;  198.050;    0.000
422.401; 2981.475;  245.050;    0.000
422.453; 3019.475;  241.050;    0.000
422.506; 3014.475;  255.050;    0.000
422.559; 2944.475;  188.050;    0.000
422.611; 3004.475;  236.050;    0.000
422.664; 3036.475;  218.050;    0.000
422.716; 3029.475;  210.050;    0.000
422.769; 3023.475;  209.050;    0.000
422.822; 2892.475;  213.050;    0.000
422.874; 2992.475;  227.050;    0.000
422.927; 2984.475;  272.050;    0.000
422.979; 2926.475;  204.050;    0.000
423.032; 2981.475;  210.050;    0.000
423.084; 2942.475;  236.050;    0.000
423.137; 3038.475;  223.050;    0.000
423.189; 3046.475;  253.050;    0.000
423.242; 2939.475;  185.050;    0.000
423.294; 2970.475;  232.050;    0.000
423.347; 2965.475;  213.050;    0.000
423.399; 2969.475;  227.050;    0.000
423.452; 2981.475;  236.050;    0.000
423.504; 2925.475;  232.050;    0.000
423.557; 3011.475;  195.050;    0.000
423.609; 2972.475;  238.050;    0.000
423.662; 3004.475;  207.050;    0.000
423.714; 2946.475;  231.050;    0.000
423.766; 2880.475;  211.050;    0.000
423.819; 2901.475;  207.050;    0.000
423.871; 2906.475;  228.050;    0.000
423.923; 2860.475;  223.050;    0.000
423.976; 2955.475;  217.050;    0.000
424.028; 2946.475;  231.050;    0.000
424.081; 2820.475;  219.050;    0.000
424.133; 2909.475;  255.050;    0.000
424.185; 2870.475;  199.050;    0.000
424.238; 2969.475;  238.050;    0.000
424.290; 2855.475;  209.050;    0.000
424.342; 2848.475;  213.050;    0.000
424.394; 2850.475;  215.050;    0.000
424.447; 2867.475;  265.050;    0.000
424.499; 3060.475;  238.050;    0.000
424.551; 2905.475;  256.050;    0.000
424.603; 2856.475;  222.050;    0.000
424.656; 2915.475;  227.050;    0.000
424.708; 2861.475;  250.050;    0.000
424.760; 2930.475;  228.050;    0.000
424.812; 2878.475;  249.050;    0.000
424.864; 2922.475;  222.050;    0.000
424.917; 2867.475;  235.050;    0.000
424.969; 2938.475;  266.050;    0.000
425.021; 2843.475;  233.050;    0.000
425.073; 2879.475;  194.050;    0.000
425.125; 2841.475;  256.050;    0.000
425.177; 2779.475;  225.050;    0.000
425.229; 2983.475;  242.050;    0.000
425.282; 2857.475;  236.050;    0.000
425.334; 2859.475;  250.050;    0.000
425.386; 2878.475;  231.050;    0.000
425.438; 2889.475;  216.050;    0.000
425.490; 2849.475;  240.050;    0.000
425.542; 2920.475;  231.050;    0.000
425.594; 2871.475;  206.050;    0.000
425.646; 2787.475;  201.050;    0.000
425.698; 2868.475;  193.050;    0.000
425.750; 2796.475;  241.050;    0.000
425.802; 2800.475;  199.050;    0.000
425.854; 2775.475;  216.050;    0.000
425.906; 2893.475;  220.050;    0.000
425.958; 2818.475;  200.050;    0.000
426.010; 2832.475;  214.050;    0.000
426.062; 2806.475;  245.050;    0.000
426.114; 2767.475;  241.050;    0.000
426.166; 2790.475;  241.050;    0.000
426.218; 2807.475;  255.050;    0.000
426.270; 2716.475;  228.050;    0.000
426.321; 2775.475;  222.050;    0.000
426.373; 2775.475;  218.050;    0.000
426.425; 2855.475;  258.050;    0.000
426.477; 2775.475;  225.050;    0.000
426.529; 2802.475;  223.050;    0.000
426.581; 2735.475;  198.050;    0.000
426.633; 2773.475;  228.050;    0.000
426.684; 2789.475;  210.050;    0.000
426.736; 2885.475;  208.050;    0.000
426.788; 2777.475;  231.050;    0.000
426.840; 2623.475;  212.050;    0.000
426.892; 2744.475;  221.050;    0.000
426.943; 2732.475;  240.050;    0.000
426.995; 2668.475;  243.050;    0.000
427.047; 2766.475;  231.050;    0.000
427.099; 2701.475;  189.050;    0.000
427.150; 2736.475;  212.050;    0.000
427.202; 2688.475;  219.050;    0.000
427.254; 2714.475;  203.050;    0.000
427.306; 2689.475;  217.050;    0.000
427.357; 2834.475;  232.050;    0.000
427.409; 2776.475;  251.050;    0.000
427.461; 2738.475;  185.050;    0.000
427.512; 2711.475;  239.050;    0.000
427.564; 2640.475;  208.050;    0.000
427.616; 2679.475;  233.050;    0.000
427.667; 2754.475;  223.050;    0.000
427.719; 2751.475;  206.050;    0.000
427.770; 2709.475;  195.050;    0.000
427.822; 2748.475;  223.050;    0.000
427.874; 2725.475;  232.050;    0.000
427.925; 2647.475;  209.050;    0.000
427.977; 2585.475;  208.050;    0.000
428.028; 2710.475;  187.050;    0.000
428.080; 2782.475;  209.050;    0.000
428.131; 2668.475;  237.050;    0.000
428.183; 2629.475;  200.050;    0.000
428.234; 2702.475;  215.050;    0.000
428.286; 2747.475;  229.050;    0.000
428.337; 2637.475;  206.050;    0.000
428.389; 2672.475;  216.050;    0.000
428.440; 2662.475;  287.050;    0.000
428.492; 2749.475;  269.050;    0.000
428.543; 2613.475;  234.050;    0.000
428.595; 2712.475;  214.050;    0.000
428.646; 2594.475;  229.050;    0.000
428.697; 2707.475;  249.050;    0.000
428.749; 2666.475;  250.050;    0.000
428.800; 2658.475;  242.050;    0.000
428.852; 2680.475;  232.050;    0.000
428.903; 2613.475;  196.050;    0.000
428.954; 2665.475;  226.050;    0.000
429.006; 2589.475;  232.050;    0.000
429.057; 2677.475;  188.050;    0.000
429.108; 2626.475;  237.050;    0.000
429.160; 2600.475;  221.050;    0.000
429.211; 2638.475;  222.050;    0.000
429.262; 2594.475;  215.050;    0.000
429.314; 2620.475;  225.050;    0.000
429.365; 2679.475;  220.050;    0.000
429.416; 2588.475;  242.050;    0.000
429.467; 2599.475;  220.050;    0.000
429.519; 2561.475;  217.050;    0.000
429.570; 2646.475;  248.050;    0.000
429.621; 2567.475;  233.050;    0.000
429.672; 2542.475;  220.050;    0.000
429.724; 2593.475;  179.050;    0.000
429.775; 2544.475;  218.050;    0.000
429.826; 2557.475;  197.050;    0.000
429.877; 2613.475;  206.050;    0.000
429.928; 2575.475;  229.050;    0.000
429.980; 2532.475;  207.050;    0.000
430.031; 2636.475;  264.050;    0.000
430.082; 2540.475;  210.050;    0.000
430.133; 2586.475;  218.050;    0.000
430.184; 2531.475;  246.050;    0.000
430.235; 2588.475;  201.050;    0.000
430.286; 2554.475;  207.050;    0.000
430.337; 2564.475;  224.050;    0.000
430.388; 2531.475;  216.050;    0.000
430.439; 2595.475;  210.050;    0.000
430.490; 2618.475;  208.050;    0.000
430.542; 2573.475;  211.050;    0.000
430.593; 2580.475;  203.050;    0.000
430.644; 2541.475;  235.050;    0.000
430.695; 2601.475;  200.050;    0.000
430.746; 2603.475;  215.050;    0.000
430.797; 2640.475;  235.050;    0.000
430.848; 2616.475;  197.050;    0.000
430.898; 2564.475;  209.050;    0.000
430.949; 2564.475;  231.050;    0.000
431.000; 2631.475;  227.050;    0.000
431.051; 2556.475;  225.050;    0.000
431.102; 2490.475;  180.050;    0.000
431.153; 2658.475;  248.050;    0.000
431.204; 2556.475;  185.050;    0.000
431.255; 2513.475;  199.050;    0.000
431.306; 2552.475;  228.050;    0.000
431.357; 2563.475;  237.050;    0.000
431.408; 2595.475;  223.050;    0.000
431.458; 2592.475;  240.050;    0.000
431.509; 2576.475;  207.050;    0.000
431.560; 2562.475;  219.050;    0.000
431.611; 2621.475;  206.050;    0.000
431.662; 2673.475;  253.050;    0.000
431.713; 2604.475;  199.050;    0.000
431.763; 2652.475;  197.050;    0.000
431.814; 2591.475;  205.050;    0.000
431.865; 2652.475;  218.050;    0.000
431.916; 2490.475;  202.050;    0.000
431.966; 2578.475;  203.050;    0.000
432.017; 2616.475;  244.050;    0.000
432.068; 2687.475;  246.050;    0.000
432.118; 2600.475;  212.050;    0.000
432.169; 2623.475;  214.050;    0.000
432.220; 2625.475;  241.050;    0.000
432.271; 2534.475;  237.050;    0.000
432.321; 2587.475;  246.050;    0.000
432.372; 2572.475;  257.050;    0.000
432.423; 2541.475;  198.050;    0.000
432.473; 2508.475;  202.050;    0.000
432.524; 2593.475;  242.050;    0.000
432.574; 2495.475;  202.050;    0.000
432.625; 2572.475;  212.050;    0.000
432.676; 2502.475;  242.050;    0.000
432.726; 2562.475;  268.050;    0.000
432.777; 2530.475;  228.050;    0.000
432.827; 2573.475;  230.050;    0.000
432.878; 2458.475;  221.050;    0.000
432.928; 2505.475;  218.050;    0.000
432.979; 2459.475;  243.050;    0.000
433.029; 2565.475;  217.050;    0.000
433.080; 2494.475;  208.050;    0.000
433.130; 2511.475;  236.050;    0.000
433.181; 2590.475;  282.050;    0.000
433.231; 2549.475;  257.050;    0.000
433.282; 2624.475;  268.050;    0.000
433.332; 2473.475;  241.050;    0.000
433.383; 2557.475;  271.050;    0.000
433.433; 2559.475;  262.050;    0.000
433.484; 2638.475;  266.050;    0.000
433.534; 2484.475;  217.050;    0.000
433.585; 2560.475;  230.050;    0.000
433.635; 2546.475;  245.050;    0.000
433.685; 2605.475;  250.050;    0.000
433.736; 2535.475;  308.050;    0.000
433.786; 2560.475;  242.050;    0.000
433.836; 2622.475;  256.050;    0.000
433.887; 2557.475;  250.050;    0.000
433.937; 2512.475;  250.050;    0.000
433.987; 2559.475;  219.050;    0.000
434.038; 2588.475;  248.050;    0.000
434.088; 2581.475;  231.050;    0.000
434.138; 2600.475;  266.050;    0.000
434.189; 2504.475;  240.050;    0.000
434.239; 2515.475;  245.050;    0.000
434.289; 2636.475;  285.050;    0.000
434.339; 2692.475;  255.050;    0.000
434.389; 2556.475;  242.050;    0.000
434.440; 2496.475;  273.050;    0.000
434.490; 2667.475;  272.050;    0.000
434.540; 2636.475;  264.050;    0.000
434.590; 2672.475;  233.050;    0.000
434.640; 2554.475;  244.050;    0.000
434.691; 2616.475;  226.050;    0.000
434.741; 2527.475;  253.050;    0.000
434.791; 2610.475;  269.050;    0.000
434.841; 2652.475;  252.050;    0.000
434.891; 2693.475;  281.050;    0.000
434.941; 2612.475;  296.050;    0.000
434.991; 2649.475;  264.050;    0.000
435.042; 2639.475;  262.050;    0.000
435.092; 2594.475;  237.050;    0.000
435.142; 2626.475;  232.050;    0.000
435.192; 2518.475;  251.050;    0.000
435.242; 2540.475;  251.050;    0.000
435.292; 2595.475;  246.050;    0.000
435.342; 2541.475;  236.050;    0.000
435.392; 2515.475;  273.050;    0.000
435.442; 2543.475;  273.050;    0.000
435.492; 2500.475;  273.050;    0.000
435.542; 2471.475;  242.050;    0.000
435.592; 2524.475;  213.050;    0.000
435.642; 2439.475;  248.050;    0.000
435.692; 2539.475;  242.050;    0.000
435.742; 2542.475;  222.050;    0.000
435.792; 2523.475;  260.050;    0.000
435.842; 2544.475;  266.050;    0.000
435.891; 2519.475;  227.050;    0.000
435.941; 2503.475;  228.050;    0.000
435.991; 2549.475;  282.050;    0.000
436.041; 2465.475;  231.050;    0.000
436.091; 2498.475;  250.050;    0.000
436.141; 2385.475;  221.050;    0.000
436.191; 2457.475;  223.050;    0.000
436.241; 2440.475;  250.050;    0.000
436.290; 2486.475;  243.050;    0.000
436.340; 2441.475;  236.050;    0.000
436.390; 2486.475;  260.050;    0.000
436.440; 2396.475;  253.050;    0.000
436.490; 2448.475;  236.050;    0.000
436.539; 2483.475;  249.050;    0.000
436.589; 2462.475;  231.050;    0.000
436.639; 2367.475;  237.050;    0.000
436.689; 2408.475;  222.050;    0.000
436.738; 2352.475;  263.050;    0.000
436.788; 2399.475;  230.050;    0.000
436.838; 2473.475;  281.050;    0.000
436.887; 2395.475;  230.050;    0.000
436.937; 2420.475;  250.050;    0.000
436.987; 2390.475;  251.050;    0.000
437.036; 2447.475;  238.050;    0.000
437.086; 2430.475;  234.050;    0.000
437.136; 2357.475;  250.050;    0.000
437.185; 2266.475;  228.050;    0.000
437.235; 2495.475;  309.050;    0.000
437.285; 2407.475;  246.050;    0.000
437.334; 2293.475;  262.050;    0.000
437.384; 2420.475;  228.050;    0.000
437.433; 2355.475;  241.050;    0.000
437.483; 2325.475;  220.050;    0.000
437.532; 2309.475;  252.050;    0.000
437.582; 2446.475;  270.050;    0.000
437.631; 2338.475;  251.050;    0.000
437.681; 2365.475;  284.050;    0.000
437.730; 2336.475;  239.050;    0.000
437.780; 2352.475;  221.050;    0.000
437.829; 2285.475;  254.050;    0.000
437.879; 2327.475;  221.050;    0.000
437.928; 2358.475;  205.050;    0.000
437.978; 2416.475;  223.050;    0.000
438.027; 2372.475;  262.050;    0.000
438.077; 2380.475;  280.050;    0.000
438.126; 2331.475;  254.050;    0.000
438.176; 2321.475;  230.050;    0.000
438.225; 2360.475;  227.050;    0.000
438.274; 2418.475;  264.050;    0.000
438.324; 2258.475;  233.050;    0.000
438.373; 2321.475;  238.050;    0.000
438.422; 2304.475;  260.050;    0.000
438.472; 2280.475;  223.050;    0.000
438.521; 2291.475;  213.050;    0.000
438.570; 2363.475;  236.050;    0.000
438.620; 2274.475;  282.050;    0.000
438.669; 2290.475;  209.050;    0.000
438.718; 2332.475;  245.050;    0.000
438.768; 2299.475;  238.050;    0.000
438.817; 2297.475;  259.050;    0.000
438.866; 2277.475;  232.050;    0.000
438.915; 2335.475;  288.050;    0.000
438.965; 2300.475;  228.050;    0.000
439.014; 2341.475;  246.050;    0.000
439.063; 2358.475;  287.050;    0.000
439.112; 2300.475;  217.050;    0.000
439.162; 2369.475;  275.050;    0.000
439.211; 2344.475;  287.050;    0.000
439.260; 2278.475;  238.050;    0.000
439.309; 2339.475;  225.050;    0.000
439.358; 2410.475;  248.050;    0.000
439.407; 2332.475;  237.050;    0.000
439.456; 2382.475;  223.050;    0.000
439.506; 2337.475;  266.050;    0.000
439.555; 2341.475;  260.050;    0.000
439.604; 2369.475;  233.050;    0.000
439.653; 2384.475;  242.050;    0.000
439.702; 2313.475;  255.050;    0.000
439.751; 2350.475;  202.050;    0.000
439.800; 2324.475;  247.050;    0.000
439.849; 2334.475;  250.050;    0.000
439.898; 2272.475;  216.050;    0.000
439.947; 2294.475;  231.050;    0.000
439.996; 2331.475;  272.050;    0.000
440.045; 2338.475;  217.050;    0.000
440.094; 2303.475;  220.050;    0.000
440.143; 2358.475;  245.050;    0.000
440.192; 2407.475;  267.050;    0.000
440.241; 2339.475;  263.050;    0.000
440.290; 2457.475;  246.050;    0.000
440.339; 2341.475;  225.050;    0.000
440.388; 2349.475;  256.050;    0.000
440.437; 2317.475;  253.050;    0.000
440.486; 2385.475;  249.050;    0.000
440.535; 2450.475;  232.050;    0.000
440.583; 2364.475;  220.050;    0.000
440.632; 2358.475;  239.050;    0.000
440.681; 2380.475;  236.050;    0.000
440.730; 2262.475;  282.050;    0.000
440.779; 2259.475;  245.050;    0.000
440.828; 2364.475;  213.050;    0.000
440.876; 2339.475;  231.050;    0.000
440.925; 2364.475;  271.050;    0.000
440.974; 2317.475;  240.050;    0.000
441.023; 2357.475;  214.050;    0.000
441.072; 2446.475;  236.050;    0.000
441.120; 2477.475;  271.050;    0.000
441.169; 2398.475;  281.050;    0.000
441.218; 2342.475;  255.050;    0.000
441.267; 2362.475;  272.050;    0.000
441.315; 2403.475;  229.050;    0.000
441.364; 2512.475;  241.050;    0.000
441.413; 2441.475;  224.050;    0.000
441.461; 2405.475;  241.050;    0.000
441.510; 2519.475;  289.050;    0.000
441.559; 2435.475;  222.050;    0.000
441.607; 2376.475;  242.050;    0.000
441.656; 2526.475;  255.050;    0.000
441.705; 2552.475;  260.050;    0.000
441.753; 2477.475;  290.050;    0.000
441.802; 2465.475;  264.050;    0.000
441.850; 2370.475;  224.050;    0.000
441.899; 2463.475;  275.050;    0.000
441.948; 2530.475;  227.050;    0.000
441.996; 2456.475;  216.050;    0.000
442.045; 2454.475;  271.050;    0.000
442.093; 2469.475;  227.050;    0.000
442.142; 2461.475;  273.050;    0.000
442.190; 2451.475;  257.050;    0.000
442.239; 2580.475;  269.050;    0.000
442.287; 2443.475;  257.050;    0.000
442.336; 2528.475;  237.050;    0.000
442.384; 2446.475;  214.050;    0.000
442.433; 2457.475;  272.050;    0.000
442.481; 2452.475;  258.050;    0.000
442.529; 2425.475;  242.050;    0.000
442.578; 2444.475;  278.050;    0.000
442.626; 2513.475;  264.050;    0.000
442.675; 2418.475;  293.050;    0.000
442.723; 2422.475;  244.050;    0.000
442.771; 2476.475;  232.050;    0.000
442.820; 2430.475;  266.050;    0.000
442.868; 2464.475;  253.050;    0.000
442.917; 2545.475;  250.050;    0.000
442.965; 2477.475;  279.050;    0.000
443.013; 2472.475;  253.050;    0.000
443.062; 2417.475;  282.050;    0.000
443.110; 2522.475;  258.050;    0.000
443.158; 2444.475;  246.050;    0.000
443.206; 2390.475;  255.050;    0.000
443.255; 2494.475;  296.050;    0.000
443.303; 2438.475;  272.050;    0.000
443.351; 2461.475;  270.050;    0.000
443.399; 2472.475;  258.050;    0.000
443.448; 2445.475;  265.050;    0.000
443.496; 2345.475;  219.050;    0.000
443.544; 2451.475;  205.050;    0.000
443.592; 2488.475;  266.050;    0.000
443.640; 2514.475;  260.050;    0.000
443.689; 2486.475;  232.050;    0.000
443.737; 2520.475;  281.050;    0.000
443.785; 2521.475;  248.050;    0.000
443.833; 2574.475;  286.050;    0.000
443.881; 2543.475;  225.050;    0.000
443.929; 2521.475;  255.050;    0.000
443.977; 2542.475;  248.050;    0.000
444.025; 2584.475;  255.050;    0.000
444.074; 2515.475;  266.050;    0.000
444.122; 2571.475;  266.050;    0.000
444.170; 2584.475;  207.050;    0.000
444.218; 2495.475;  253.050;    0.000
444.266; 2552.475;  263.050;    0.000
444.314; 2627.475;  272.050;    0.000
444.362; 2585.475;  272.050;    0.000
444.410; 2484.475;  255.050;    0.000
444.458; 2665.475;  288.050;    0.000
444.506; 2568.475;  263.050;    0.000
444.554; 2595.475;  243.050;    0.000
444.602; 2572.475;  285.050;    0.000
444.650; 2658.475;  273.050;    0.000
444.698; 2676.475;  221.050;    0.000
444.746; 2630.475;  243.050;    0.000
444.793; 2663.475;  217.050;    0.000
444.841; 2688.475;  262.050;    0.000
444.889; 2635.475;  264.050;    0.000
444.937; 2660.475;  226.050;    0.000
444.985; 2627.475;  257.050;    0.000
445.033; 2687.475;  264.050;    0.000
445.081; 2636.475;  264.050;    0.000
445.129; 2589.475;  187.050;    0.000
445.176; 2570.475;  212.050;    0.000
445.224; 2587.475;  198.050;    0.000
445.272; 2639.475;  265.050;    0.000
445.320; 2620.475;  239.050;    0.000
445.368; 2604.475;  245.050;    0.000
445.415; 2665.475;  215.050;    0.000
445.463; 2603.475;  202.050;    0.000
445.511; 2633.475;  234.050;    0.000
445.559; 2570.475;  269.050;    0.000
445.606; 2644.475;  214.050;    0.000
445.654; 2606.475;  227.050;    0.000
445.702; 2681.475;  276.050;    0.000
445.749; 2704.475;  256.050;    0.000
445.797; 2641.475;  236.050;    0.000
445.845; 2646.475;  230.050;    0.000
445.892; 2583.475;  233.050;    0.000
445.940; 2586.475;  257.050;    0.000
445.988; 2656.475;  253.050;    0.000
446.035; 2532.475;  265.050;    0.000
446.083; 2651.475;  254.050;    0.000
446.130; 2579.475;  228.050;    0.000
446.178; 2705.475;  256.050;    0.000
446.226; 2666.475;  238.050;    0.000
446.273; 2768.475;  228.050;    0.000
446.321; 2609.475;  220.050;    0.000
446.368; 2741.475;  249.050;    0.000
446.416; 2692.475;  221.050;    0.000
446.463; 2685.475;  232.050;    0.000
446.511; 2732.475;  243.050;    0.000
446.558; 2718.475;  217.050;    0.000
446.606; 2720.475;  256.050;    0.000
446.653; 2704.475;  238.050;    0.000
446.701; 2696.475;  259.050;    0.000
446.748; 2760.475;  227.050;    0.000
446.796; 2715.475;  236.050;    0.000
446.843; 2772.475;  241.050;    0.000
446.891; 2696.475;  292.050;    0.000
446.938; 2740.475;  219.050;    0.000
446.985; 2836.475;  255.050;    0.000
447.033; 2909.475;  237.050;    0.000
447.080; 2900.475;  278.050;    0.000
447.128; 2922.475;  237.050;    0.000
447.175; 2908.475;  247.050;    0.000
447.222; 2850.475;  235.050;    0.000
447.270; 2966.475;  274.050;    0.000
447.317; 2956.475;  222.050;    0.000
447.364; 2847.475;  230.050;    0.000
447.411; 2968.475;  297.050;    0.000
447.459; 3035.475;  243.050;    0.000
447.506; 3023.475;  202.050;    0.000
447.553; 3074.475;  232.050;    0.000
447.601; 3013.475;  262.050;    0.000
447.648; 3142.475;  254.050;    0.000
447.695; 3147.475;  287.050;    0.000
447.742; 3161.475;  232.050;    0.000
447.789; 3259.475;  257.050;    0.000
447.837; 3256.475;  260.050;    0.000
447.884; 3287.475;  272.050;    0.000
447.931; 3307.475;  241.050;    0.000
447.978; 3396.475;  241.050;    0.000
448.025; 3363.475;  264.050;    0.000
448.072; 3430.475;  279.050;    0.000
448.120; 3423.475;  263.050;    0.000
448.167; 3405.475;  284.050;    0.000
448.214; 3266.475;  252.050;    0.000
448.261; 3321.475;  247.050;    0.000
448.308; 3311.475;  249.050;    0.000
448.355; 3227.475;  263.050;    0.000
448.402; 3202.475;  251.050;    0.000
448.449; 3049.475;  257.050;    0.000
448.496; 3188.475;  243.050;    0.000
448.543; 2971.475;  274.050;    0.000
448.590; 3153.475;  299.050;    0.000
448.637; 2925.475;  259.050;    0.000
448.684; 3026.475;  266.050;    0.000
448.731; 2886.475;  261.050;    0.000
448.778; 2955.475;  292.050;    0.000
448.825; 2938.475;  253.050;    0.000
448.872; 2788.475;  253.050;    0.000
448.919; 2853.475;  218.050;    0.000
448.966; 2823.475;  254.050;    0.000
449.013; 2831.475;  263.050;    0.000
449.060; 2839.475;  282.050;    0.000
449.107; 2734.475;  244.050;    0.000
449.154; 2664.475;  236.050;    0.000
449.200; 2785.475;  226.050;    0.000
449.247; 2679.475;  273.050;    0.000
449.294; 2645.475;  270.050;    0.000
449.341; 2593.475;  283.050;    0.000
449.388; 2634.475;  261.050;    0.000
449.435; 2696.475;  254.050;    0.000
449.481; 2625.475;  318.050;    0.000
449.528; 2696.475;  274.050;    0.000
449.575; 2550.475;  251.050;    0.000
449.622; 2663.475;  276.050;    0.000
449.668; 2546.475;  242.050;    0.000
449.715; 2570.475;  286.050;    0.000
449.762; 2588.475;  268.050;    0.000
449.809; 2549.475;  285.050;    0.000
449.855; 2575.475;  277.050;    0.000
449.902; 2513.475;  246.050;    0.000
449.949; 2557.475;  268.050;    0.000
449.995; 2614.475;  289.050;    0.000
450.042; 2508.475;  256.050;    0.000
450.089; 2557.475;  290.050;    0.000
450.135; 2562.475;  300.050;    0.000
450.182; 2480.475;  317.050;    0.000
450.229; 2461.475;  282.050;    0.000
450.275; 2522.475;  307.050;    0.000
450.322; 2442.475;  260.050;    0.000
450.368; 2503.475;  315.050;    0.000
450.415; 2546.475;  306.050;    0.000
450.462; 2442.475;  314.050;    0.000
450.508; 2495.475;  303.050;    0.000
450.555; 2449.475;  281.050;    0.000
450.601; 2413.475;  291.050;    0.000
450.648; 2437.475;  288.050;    0.000
450.694; 2393.475;  290.050;    0.000
450.741; 2447.475;  303.050;    0.000
450.787; 2484.475;  298.050;    0.000
450.834; 2428.475;  265.050;    0.000
450.880; 2386.475;  273.050;    0.000
450.927; 2418.475;  312.050;    0.000
450.973; 2423.475;  303.050;    0.000
451.019; 2342.475;  222.050;    0.000
451.066; 2410.475;  284.050;    0.000
451.112; 2351.475;  296.050;    0.000
451.159; 2363.475;  299.050;    0.000
451.205; 2415.475;  311.050;    0.000
451.251; 2347.475;  306.050;    0.000
451.298; 2323.475;  281.050;    0.000
451.344; 2353.475;  311.050;    0.000
451.390; 2357.475;  331.050;    0.000
451.437; 2367.475;  303.050;    0.000
451.483; 2479.475;  284.050;    0.000
451.529; 2407.475;  310.050;    0.000
451.576; 2316.475;  301.050;    0.000
451.622; 2308.475;  275.050;    0.000
451.668; 2421.475;  269.050;    0.000
451.714; 2335.475;  277.050;    0.000
451.761; 2313.475;  298.050;    0.000
451.807; 2278.475;  316.050;    0.000
451.853; 2254.475;  301.050;    0.000
451.899; 2254.475;  292.050;    0.000
451.945; 2329.475;  324.050;    0.000
451.992; 2332.475;  292.050;    0.000
452.038; 2267.475;  261.050;    0.000
452.084; 2295.475;  286.050;    0.000
452.130; 2331.475;  301.050;    0.000
452.176; 2342.475;  287.050;    0.000
452.222; 2306.475;  265.050;    0.000
452.268; 2303.475;  268.050;    0.000
452.315; 2311.475;  272.050;    0.000
452.361; 2309.475;  258.050;    0.000
452.407; 2369.475;  279.050;    0.000
452.453; 2263.475;  252.050;    0.000
452.499; 2309.475;  305.050;    0.000
452.545; 2313.475;  263.050;    0.000
452.591; 2296.475;  284.050;    0.000
452.637; 2248.475;  289.050;    0.000
452.683; 2221.475;  249.050;    0.000
452.729; 2328.475;  290.050;    0.000
452.775; 2310.475;  315.050;    0.000
452.821; 2224.475;  271.050;    0.000
452.867; 2234.475;  258.050;    0.000
452.913; 2176.475;  256.050;    0.000
452.959; 2260.475;  266.050;    0.000
453.005; 2309.475;  299.050;    0.000
453.051; 2254.475;  299.050;    0.000
453.097; 2281.475;  268.050;    0.000
453.142; 2260.475;  251.050;    0.000
453.188; 2286.475;  284.050;    0.000
453.234; 2218.475;  285.050;    0.000
453.280; 2187.475;  263.050;    0.000
453.326; 2178.475;  273.050;    0.000
453.372; 2232.475;  253.050;    0.000
453.418; 2245.475;  269.050;    0.000
453.463; 2263.475;  250.050;    0.000
453.509; 2179.475;  289.050;    0.000
453.555; 2259.475;  262.050;    0.000
453.601; 2240.475;  274.050;    0.000
453.647; 2274.475;  306.050;    0.000
453.692; 2107.475;  264.050;    0.000
453.738; 2203.475;  312.050;    0.000
453.784; 2149.475;  300.050;    0.000
453.829; 2234.475;  284.050;    0.000
453.875; 2241.475;  270.050;    0.000
453.921; 2213.475;  237.050;    0.000
453.967; 2235.475;  263.050;    0.000
454.012; 2212.475;  295.050;    0.000
454.058; 2245.475;  293.050;    0.000
454.104; 2150.475;  264.050;    0.000
454.149; 2210.475;  282.050;    0.000
454.195; 2203.475;  277.050;    0.000
454.240; 2180.475;  307.050;    0.000
454.286; 2212.475;  282.050;    0.000
454.332; 2219.475;  291.050;    0.000
454.377; 2125.475;  302.050;    0.000
454.423; 2177.475;  276.050;    0.000
454.468; 2174.475;  281.050;    0.000
454.514; 2164.475;  290.050;    0.000
454.559; 2229.475;  289.050;    0.000
454.605; 2224.475;  258.050;    0.000
454.650; 2230.475;  281.050;    0.000
454.696; 2203.475;  308.050;    0.000
454.741; 2232.475;  288.050;    0.000
454.787; 2168.475;  284.050;    0.000
454.832; 2162.475;  306.050;    0.000
454.878; 2261.475;  288.050;    0.000
454.923; 2235.475;  287.050;    0.000
454.969; 2214.475;  325.050;    0.000
455.014; 2218.475;  323.050;    0.000
455.060; 2175.475;  290.050;    0.000
455.105; 2202.475;  285.050;    0.000
455.150; 2237.475;  303.050;    0.000
455.196; 2105.475;  282.050;    0.000
455.241; 2153.475;  281.050;    0.000
455.286; 2257.475;  290.050;    0.000
455.332; 2231.475;  280.050;    0.000
455.377; 2246.475;  243.050;    0.000
455.422; 2242.475;  308.050;    0.000
455.468; 2194.475;  308.050;    0.000
455.513; 2170.475;  290.050;    0.000
455.558; 2167.475;  211.050;    0.000
455.604; 2193.475;  289.050;    0.000
455.649; 2197.475;  297.050;    0.000
455.694; 2177.475;  287.050;    0.000
455.739; 2211.475;  296.050;    0.000
455.785; 2217.475;  315.050;    0.000
455.830; 2174.475;  328.050;    0.000
455.875; 2262.475;  310.050;    0.000
455.920; 2180.475;  261.050;    0.000
455.965; 2111.475;  277.050;    0.000
456.010; 2172.475;  317.050;    0.000
456.056; 2183.475;  299.050;    0.000
456.101; 2175.475;  262.050;    0.000
456.146; 2272.475;  318.050;    0.000
456.191; 2165.475;  274.050;    0.000
456.236; 2172.475;  274.050;    0.000
456.281; 2167.475;  275.050;    0.000
456.326; 2129.475;  256.050;    0.000
456.371; 2132.475;  260.050;    0.000
456.416; 2196.475;  304.050;    0.000
456.461; 2074.475;  278.050;    0.000
456.507; 2171.475;  299.050;    0.000
456.552; 2186.475;  305.050;    0.000
456.597; 2148.475;  271.050;    0.000
456.642; 2168.475;  273.050;    0.000
456.687; 2233.475;  290.050;    0.000
456.732; 2249.475;  327.050;    0.000
456.776; 2135.475;  284.050;    0.000
456.821; 2148.475;  321.050;    0.000
456.866; 2210.475;  272.050;    0.000
456.911; 2198.475;  232.050;    0.000
456.956; 2186.475;  263.050;    0.000
457.001; 2137.475;  277.050;    0.000
457.046; 2168.475;  284.050;    0.000
457.091; 2215.475;  269.050;    0.000
457.136; 2219.475;  269.050;    0.000
457.181; 2225.475;  275.050;    0.000
457.225; 2240.475;  310.050;    0.000
457.270; 2224.475;  295.050;    0.000
457.315; 2167.475;  284.050;    0.000
457.360; 2139.475;  264.050;    0.000
457.405; 2128.475;  273.050;    0.000
457.450; 2212.475;  284.050;    0.000
457.494; 2260.475;  273.050;    0.000
457.539; 2197.475;  287.050;    0.000
457.584; 2173.475;  279.050;    0.000
457.629; 2184.475;  288.050;    0.000
457.673; 2164.475;  297.050;    0.000
457.718; 2194.475;  270.050;    0.000
457.763; 2244.475;  295.050;    0.000
457.807; 2222.475;  321.050;    0.000
457.852; 2140.475;  293.050;    0.000
457.897; 2214.475;  282.050;    0.000
457.941; 2217.475;  320.050;    0.000
457.986; 2184.475;  295.050;    0.000
458.031; 2273.475;  314.050;    0.000
458.075; 2202.475;  280.050;    0.000
458.120; 2273.475;  314.050;    0.000
458.165; 2186.475;  289.050;    0.000
458.209; 2148.475;  289.050;    0.000
458.254; 2248.475;  272.050;    0.000
458.298; 2293.475;  305.050;    0.000
458.343; 2236.475;  284.050;    0.000
458.387; 2251.475;  340.050;    0.000
458.432; 2220.475;  306.050;    0.000
458.476; 2324.475;  311.050;    0.000
458.521; 2314.475;  304.050;    0.000
458.565; 2314.475;  329.050;    0.000
458.610; 2359.475;  287.050;    0.000
458.654; 2346.475;  300.050;    0.000
458.699; 2244.475;  295.050;    0.000
458.743; 2247.475;  269.050;    0.000
458.788; 2365.475;  294.050;    0.000
458.832; 2341.475;  301.050;    0.000
458.877; 2361.475;  303.050;    0.000
458.921; 2356.475;  259.050;    0.000
458.965; 2387.475;  308.050;    0.000
459.010; 2384.475;  330.050;    0.000
459.054; 2364.475;  298.050;    0.000
459.099; 2458.475;  303.050;    0.000
459.143; 2416.475;  333.050;    0.000
459.187; 2281.475;  291.050;    0.000
459.231; 2354.475;  316.050;    0.000
459.276; 2300.475;  294.050;    0.000
459.320; 2371.475;  291.050;    0.000
459.364; 2428.475;  318.050;    0.000
459.409; 2398.475;  325.050;    0.000
459.453; 2383.475;  293.050;    0.000
459.497; 2438.475;  354.050;    0.000
459.541; 2485.475;  313.050;    0.000
459.586; 2460.475;  282.050;    0.000
459.630; 2407.475;  286.050;    0.000
459.674; 2445.475;  292.050;    0.000
459.718; 2415.475;  280.050;    0.000
459.762; 2492.475;  304.050;    0.000
459.807; 2418.475;  352.050;    0.000
459.851; 2425.475;  300.050;    0.000
459.895; 2418.475;  311.050;    0.000
459.939; 2473.475;  303.050;    0.000
459.983; 2414.475;  299.050;    0.000
460.027; 2419.475;  307.050;    0.000
460.071; 2426.475;  313.050;    0.000
460.115; 2423.475;  325.050;    0.000
460.159; 2378.475;  331.050;    0.000
460.204; 2431.475;  301.050;    0.000
460.248; 2435.475;  329.050;    0.000
460.292; 2477.475;  310.050;    0.000
460.336; 2509.475;  304.050;    0.000
460.380; 2517.475;  313.050;    0.000
460.424; 2471.475;  300.050;    0.000
460.468; 2521.475;  338.050;    0.000
460.512; 2412.475;  310.050;    0.000
460.556; 2508.475;  337.050;    0.000
460.599; 2466.475;  310.050;    0.000
460.643; 2539.475;  303.050;    0.000
460.687; 2536.475;  316.050;    0.000
460.731; 2452.475;  292.050;    0.000
460.775; 2452.475;  294.050;    0.000
460.819; 2401.475;  310.050;    0.000
460.863; 2521.475;  349.050;    0.000
460.907; 2496.475;  265.050;    0.000
460.951; 2468.475;  325.050;    0.000
460.995; 2454.475;  338.050;    0.000
461.038; 2428.475;  304.050;    0.000
461.082; 2554.475;  312.050;    0.000
461.126; 2490.475;  358.050;    0.000
461.170; 2454.475;  306.050;    0.000
461.214; 2427.475;  330.050;    0.000
461.257; 2468.475;  311.050;    0.000
461.301; 2541.475;  303.050;    0.000
461.345; 2441.475;  310.050;    0.000
461.389; 2517.475;  296.050;    0.000
461.432; 2519.475;  304.050;    0.000
461.476; 2514.475;  305.050;    0.000
461.520; 2504.475;  319.050;    0.000
461.563; 2468.475;  294.050;    0.000
461.607; 2524.475;  295.050;    0.000
461.651; 2527.475;  335.050;    0.000
461.694; 2425.475;  276.050;    0.000
461.738; 2488.475;  327.050;    0.000
461.782; 2470.475;  288.050;    0.000
461.825; 2526.475;  319.050;    0.000
461.869; 2539.475;  305.050;    0.000
461.913; 2594.475;  281.050;    0.000
461.956; 2540.475;  281.050;    0.000
462.000; 2559.475;  339.050;    0.000
462.043; 2581.475;  347.050;    0.000
462.087; 2615.475;  314.050;    0.000
462.130; 2541.475;  332.050;    0.000
462.174; 2642.475;  332.050;    0.000
462.217; 2597.475;  299.050;    0.000
462.261; 2576.475;  323.050;    0.000
462.304; 2505.475;  286.050;    0.000
462.348; 2574.475;  305.050;    0.000
462.391; 2621.475;  293.050;    0.000
462.435; 2684.475;  365.050;    0.000
462.478; 2654.475;  329.050;    0.000
462.522; 2712.475;  316.050;    0.000
462.565; 2713.475;  328.050;    0.000
462.608; 2728.475;  350.050;    0.000
462.652; 2730.475;  328.050;    0.000
462.695; 2791.475;  358.050;    0.000
462.739; 2758.475;  317.050;    0.000
462.782; 2656.475;  329.050;    0.000
462.825; 2744.475;  368.050;    0.000
462.869; 2691.475;  343.050;    0.000
462.912; 2805.475;  404.050;    0.000
462.955; 2727.475;  328.050;    0.000
462.998; 2804.475;  340.050;    0.000
463.042; 2752.475;  361.050;    0.000
463.085; 2789.475;  337.050;    0.000
463.128; 2740.475;  373.050;    0.000
463.172; 2673.475;  347.050;    0.000
463.215;  374.475;  305.050;    0.000
463.258;  340.475;  324.050;    0.000
463.301;  300.475;  296.050;    0.000
463.344;  314.475;  332.050;    0.000
463.388;  322.475;  309.050;    0.000
463.431;  323.475;  298.050;    0.000
463.474;  354.475;  351.050;    0.000
463.517;  318.475;  319.050;    0.000
463.560;  337.475;  325.050;    0.000
463.603;  333.475;  330.050;    0.000
463.646;  317.475;  332.050;    0.000
463.690;  317.475;  325.050;    0.000
463.733;  321.475;  323.050;    0.000
463.776;  324.475;  276.050;    0.000
463.819;  326.475;  320.050;    0.000
463.862;  278.475;  275.050;    0.000

