
Integration time [ms]:   0.300
Averaging Nr. [scans]: 1
Smoothing Nr. [pixels]: 0
Data measured with spectrometer [name]: UV1
Wave   ;Sample   ;Dark     ;Reference
[nm]   ;[counts] ;[counts] ;[counts] 

236.381;  146.300;  149.925;    0.000
236.451;  173.300;  206.925;    0.000
236.520;  180.300;  212.925;    0.000
236.590;  214.300;  189.925;    0.000
236.660;  183.300;  184.925;    0.000
236.730;  218.300;  186.925;    0.000
236.799;  211.300;  191.925;    0.000
236.869;  149.300;  184.925;    0.000
236.939;  190.300;  176.925;    0.000
237.009;  190.300;  184.925;    0.000
237.078;  192.300;  189.925;    0.000
237.148;  200.300;  217.925;    0.000
237.218;  185.300;  192.925;    0.000
237.287;  176.300;  182.925;    0.000
237.357;  160.300;  196.925;    0.000
237.427;  181.300;  144.925;    0.000
237.496;  657.300;  224.925;    0.000
237.566;  693.300;  210.925;    0.000
237.636;  619.300;  165.925;    0.000
237.705;  649.300;  214.925;    0.000
237.775;  597.300;  194.925;    0.000
237.845;  657.300;  214.925;    0.000
237.914;  645.300;  191.925;    0.000
237.984;  646.300;  218.925;    0.000
238.054;  609.300;  187.925;    0.000
238.123;  621.300;  179.925;    0.000
238.193;  631.300;  177.925;    0.000
238.263;  651.300;  225.925;    0.000
238.332;  644.300;  197.925;    0.000
238.402;  643.300;  183.925;    0.000
238.471;  669.300;  181.925;    0.000
238.541;  648.300;  200.925;    0.000
238.611;  640.300;  170.925;    0.000
238.680;  595.300;  170.925;    0.000
238.750;  614.300;  175.925;    0.000
238.819;  597.300;  180.925;    0.000
238.889;  637.300;  190.925;    0.000
238.958;  665.300;  207.925;    0.000
239.028;  636.300;  201.925;    0.000
239.097;  612.300;  181.925;    0.000
239.167;  615.300;  222.925;    0.000
239.237;  625.300;  221.925;    0.000
239.306;  657.300;  147.925;    0.000
239.376;  695.300;  188.925;    0.000
239.445;  701.300;  198.925;    0.000
239.515;  630.300;  191.925;    0.000
239.584;  653.300;  178.925;    0.000
239.654;  601.300;  147.925;    0.000
239.723;  656.300;  212.925;    0.000
239.793;  619.300;  185.925;    0.000
239.862;  632.300;  157.925;    0.000
239.932;  653.300;  181.925;    0.000
240.001;  619.300;  163.925;    0.000
240.070;  705.300;  194.925;    0.000
240.140;  646.300;  202.925;    0.000
240.209;  623.300;  180.925;    0.000
240.279;  619.300;  188.925;    0.000
240.348;  612.300;  189.925;    0.000
240.418;  631.300;  143.925;    0.000
240.487;  642.300;  195.925;    0.000
240.556;  600.300;  170.925;    0.000
240.626;  656.300;  172.925;    0.000
240.695;  659.300;  202.925;    0.000
240.765;  684.300;  191.925;    0.000
240.834;  564.300;  177.925;    0.000
240.903;  629.300;  189.925;    0.000
240.973;  617.300;  196.925;    0.000
241.042;  598.300;  183.925;    0.000
241.112;  611.300;  189.925;    0.000
241.181;  613.300;  186.925;    0.000
241.250;  599.300;  168.925;    0.000
241.320;  607.300;  200.925;    0.000
241.389;  580.300;  185.925;    0.000
241.458;  660.300;  194.925;    0.000
241.528;  593.300;  165.925;    0.000
241.597;  592.300;  200.925;    0.000
241.666;  622.300;  184.925;    0.000
241.736;  633.300;  176.925;    0.000
241.805;  591.300;  165.925;    0.000
241.874;  579.300;  200.925;    0.000
241.943;  581.300;  184.925;    0.000
242.013;  652.300;  212.925;    0.000
242.082;  581.300;  200.925;    0.000
242.151;  578.300;  196.925;    0.000
242.221;  580.300;  182.925;    0.000
242.290;  645.300;  222.925;    0.000
242.359;  565.300;  142.925;    0.000
242.428;  599.300;  180.925;    0.000
242.498;  580.300;  180.925;    0.000
242.567;  623.300;  181.925;    0.000
242.636;  535.300;  203.925;    0.000
242.705;  601.300;  209.925;    0.000
242.774;  592.300;  172.925;    0.000
242.844;  589.300;  218.925;    0.000
242.913;  636.300;  188.925;    0.000
242.982;  614.300;  193.925;    0.000
243.051;  551.300;  202.925;    0.000
243.120;  609.300;  174.925;    0.000
243.190;  535.300;  165.925;    0.000
243.259;  593.300;  206.925;    0.000
243.328;  542.300;  166.925;    0.000
243.397;  564.300;  167.925;    0.000
243.466;  585.300;  163.925;    0.000
243.535;  530.300;  162.925;    0.000
243.605;  543.300;  159.925;    0.000
243.674;  586.300;  171.925;    0.000
243.743;  545.300;  189.925;    0.000
243.812;  553.300;  169.925;    0.000
243.881;  546.300;  145.925;    0.000
243.950;  518.300;  197.925;    0.000
244.019;  564.300;  189.925;    0.000
244.088;  591.300;  200.925;    0.000
244.158;  569.300;  208.925;    0.000
244.227;  552.300;  154.925;    0.000
244.296;  542.300;  142.925;    0.000
244.365;  591.300;  198.925;    0.000
244.434;  524.300;  162.925;    0.000
244.503;  587.300;  186.925;    0.000
244.572;  503.300;  143.925;    0.000
244.641;  524.300;  145.925;    0.000
244.710;  584.300;  159.925;    0.000
244.779;  563.300;  175.925;    0.000
244.848;  570.300;  163.925;    0.000
244.917;  570.300;  157.925;    0.000
244.986;  533.300;  166.925;    0.000
245.055;  561.300;  211.925;    0.000
245.124;  570.300;  155.925;    0.000
245.193;  530.300;  187.925;    0.000
245.262;  526.300;  152.925;    0.000
245.331;  531.300;  177.925;    0.000
245.400;  541.300;  157.925;    0.000
245.469;  578.300;  195.925;    0.000
245.538;  540.300;  199.925;    0.000
245.607;  532.300;  194.925;    0.000
245.676;  574.300;  170.925;    0.000
245.745;  517.300;  208.925;    0.000
245.814;  508.300;  185.925;    0.000
245.883;  531.300;  165.925;    0.000
245.952;  593.300;  151.925;    0.000
246.021;  488.300;  171.925;    0.000
246.090;  541.300;  174.925;    0.000
246.159;  545.300;  192.925;    0.000
246.227;  546.300;  178.925;    0.000
246.296;  565.300;  159.925;    0.000
246.365;  523.300;  189.925;    0.000
246.434;  555.300;  205.925;    0.000
246.503;  519.300;  174.925;    0.000
246.572;  518.300;  203.925;    0.000
246.641;  509.300;  169.925;    0.000
246.710;  514.300;  186.925;    0.000
246.779;  550.300;  196.925;    0.000
246.847;  508.300;  209.925;    0.000
246.916;  558.300;  177.925;    0.000
246.985;  549.300;  188.925;    0.000
247.054;  526.300;  189.925;    0.000
247.123;  504.300;  196.925;    0.000
247.192;  561.300;  210.925;    0.000
247.260;  516.300;  164.925;    0.000
247.329;  533.300;  204.925;    0.000
247.398;  544.300;  204.925;    0.000
247.467;  489.300;  160.925;    0.000
247.536;  545.300;  193.925;    0.000
247.604;  555.300;  208.925;    0.000
247.673;  517.300;  168.925;    0.000
247.742;  507.300;  182.925;    0.000
247.811;  533.300;  186.925;    0.000
247.879;  543.300;  166.925;    0.000
247.948;  516.300;  192.925;    0.000
248.017;  483.300;  178.925;    0.000
248.086;  536.300;  193.925;    0.000
248.154;  503.300;  191.925;    0.000
248.223;  516.300;  207.925;    0.000
248.292;  537.300;  168.925;    0.000
248.361;  492.300;  211.925;    0.000
248.429;  513.300;  196.925;    0.000
248.498;  514.300;  163.925;    0.000
248.567;  535.300;  159.925;    0.000
248.635;  499.300;  194.925;    0.000
248.704;  529.300;  205.925;    0.000
248.773;  495.300;  190.925;    0.000
248.841;  532.300;  179.925;    0.000
248.910;  508.300;  193.925;    0.000
248.979;  496.300;  167.925;    0.000
249.047;  469.300;  166.925;    0.000
249.116;  526.300;  191.925;    0.000
249.185;  493.300;  203.925;    0.000
249.253;  503.300;  140.925;    0.000
249.322;  551.300;  173.925;    0.000
249.390;  507.300;  165.925;    0.000
249.459;  510.300;  173.925;    0.000
249.528;  535.300;  203.925;    0.000
249.596;  482.300;  204.925;    0.000
249.665;  534.300;  176.925;    0.000
249.733;  478.300;  178.925;    0.000
249.802;  476.300;  190.925;    0.000
249.871;  494.300;  171.925;    0.000
249.939;  448.300;  160.925;    0.000
250.008;  518.300;  220.925;    0.000
250.076;  502.300;  211.925;    0.000
250.145;  471.300;  145.925;    0.000
250.213;  478.300;  177.925;    0.000
250.282;  461.300;  186.925;    0.000
250.350;  482.300;  170.925;    0.000
250.419;  540.300;  195.925;    0.000
250.487;  434.300;  194.925;    0.000
250.556;  472.300;  178.925;    0.000
250.624;  467.300;  193.925;    0.000
250.693;  428.300;  167.925;    0.000
250.761;  491.300;  253.925;    0.000
250.830;  504.300;  241.925;    0.000
250.898;  451.300;  161.925;    0.000
250.967;  464.300;  178.925;    0.000
251.035;  505.300;  189.925;    0.000
251.104;  488.300;  166.925;    0.000
251.172;  509.300;  178.925;    0.000
251.241;  452.300;  174.925;    0.000
251.309;  535.300;  197.925;    0.000
251.378;  465.300;  172.925;    0.000
251.446;  471.300;  157.925;    0.000
251.514;  471.300;  197.925;    0.000
251.583;  489.300;  191.925;    0.000
251.651;  434.300;  154.925;    0.000
251.720;  473.300;  198.925;    0.000
251.788;  522.300;  226.925;    0.000
251.856;  440.300;  164.925;    0.000
251.925;  447.300;  181.925;    0.000
251.993;  466.300;  203.925;    0.000
252.062;  479.300;  211.925;    0.000
252.130;  446.300;  185.925;    0.000
252.198;  499.300;  190.925;    0.000
252.267;  458.300;  176.925;    0.000
252.335;  462.300;  179.925;    0.000
252.403;  430.300;  173.925;    0.000
252.472;  462.300;  172.925;    0.000
252.540;  448.300;  187.925;    0.000
252.608;  470.300;  204.925;    0.000
252.677;  456.300;  179.925;    0.000
252.745;  488.300;  192.925;    0.000
252.813;  438.300;  168.925;    0.000
252.881;  445.300;  157.925;    0.000
252.950;  442.300;  188.925;    0.000
253.018;  517.300;  191.925;    0.000
253.086;  437.300;  164.925;    0.000
253.155;  424.300;  172.925;    0.000
253.223;  431.300;  168.925;    0.000
253.291;  434.300;  190.925;    0.000
253.359;  451.300;  205.925;    0.000
253.428;  447.300;  228.925;    0.000
253.496;  397.300;  170.925;    0.000
253.564;  414.300;  164.925;    0.000
253.632;  428.300;  159.925;    0.000
253.700;  436.300;  166.925;    0.000
253.769;  404.300;  172.925;    0.000
253.837;  469.300;  157.925;    0.000
253.905;  448.300;  168.925;    0.000
253.973;  413.300;  179.925;    0.000
254.041;  471.300;  187.925;    0.000
254.110;  453.300;  186.925;    0.000
254.178;  415.300;  156.925;    0.000
254.246;  421.300;  132.925;    0.000
254.314;  461.300;  191.925;    0.000
254.382;  480.300;  189.925;    0.000
254.450;  483.300;  163.925;    0.000
254.518;  422.300;  172.925;    0.000
254.587;  405.300;  162.925;    0.000
254.655;  471.300;  191.925;    0.000
254.723;  423.300;  184.925;    0.000
254.791;  522.300;  169.925;    0.000
254.859;  486.300;  186.925;    0.000
254.927;  465.300;  207.925;    0.000
254.995;  490.300;  143.925;    0.000
255.063;  460.300;  198.925;    0.000
255.131;  450.300;  168.925;    0.000
255.199;  468.300;  183.925;    0.000
255.267;  415.300;  159.925;    0.000
255.336;  504.300;  197.925;    0.000
255.404;  457.300;  177.925;    0.000
255.472;  492.300;  204.925;    0.000
255.540;  455.300;  169.925;    0.000
255.608;  476.300;  141.925;    0.000
255.676;  475.300;  176.925;    0.000
255.744;  455.300;  184.925;    0.000
255.812;  445.300;  158.925;    0.000
255.880;  510.300;  202.925;    0.000
255.948;  483.300;  184.925;    0.000
256.016;  534.300;  192.925;    0.000
256.084;  532.300;  204.925;    0.000
256.152;  501.300;  191.925;    0.000
256.220;  536.300;  187.925;    0.000
256.288;  450.300;  176.925;    0.000
256.356;  496.300;  146.925;    0.000
256.424;  527.300;  164.925;    0.000
256.491;  561.300;  161.925;    0.000
256.559;  567.300;  167.925;    0.000
256.627;  522.300;  180.925;    0.000
256.695;  499.300;  159.925;    0.000
256.763;  538.300;  166.925;    0.000
256.831;  543.300;  166.925;    0.000
256.899;  552.300;  161.925;    0.000
256.967;  498.300;  116.925;    0.000
257.035;  534.300;  195.925;    0.000
257.103;  644.300;  227.925;    0.000
257.171;  530.300;  147.925;    0.000
257.238;  477.300;  158.925;    0.000
257.306;  600.300;  188.925;    0.000
257.374;  584.300;  153.925;    0.000
257.442;  593.300;  159.925;    0.000
257.510;  582.300;  201.925;    0.000
257.578;  647.300;  137.925;    0.000
257.646;  631.300;  172.925;    0.000
257.713;  631.300;  164.925;    0.000
257.781;  651.300;  163.925;    0.000
257.849;  692.300;  174.925;    0.000
257.917;  610.300;  164.925;    0.000
257.985;  602.300;  126.925;    0.000
258.052;  674.300;  158.925;    0.000
258.120;  684.300;  151.925;    0.000
258.188;  691.300;  169.925;    0.000
258.256;  708.300;  110.925;    0.000
258.324;  676.300;  193.925;    0.000
258.391;  674.300;  157.925;    0.000
258.459;  761.300;  193.925;    0.000
258.527;  696.300;  150.925;    0.000
258.595;  709.300;  173.925;    0.000
258.662;  713.300;  168.925;    0.000
258.730;  758.300;  190.925;    0.000
258.798;  725.300;  164.925;    0.000
258.865;  823.300;  165.925;    0.000
258.933;  753.300;  162.925;    0.000
259.001;  799.300;  174.925;    0.000
259.069;  778.300;  139.925;    0.000
259.136;  851.300;  160.925;    0.000
259.204;  796.300;  174.925;    0.000
259.272;  841.300;  161.925;    0.000
259.339;  802.300;  157.925;    0.000
259.407;  868.300;  159.925;    0.000
259.475;  804.300;  134.925;    0.000
259.542;  843.300;  179.925;    0.000
259.610;  883.300;  172.925;    0.000
259.677;  864.300;  152.925;    0.000
259.745;  847.300;  131.925;    0.000
259.813;  953.300;  185.925;    0.000
259.880;  904.300;  183.925;    0.000
259.948;  940.300;  168.925;    0.000
260.016;  909.300;  160.925;    0.000
260.083;  918.300;  163.925;    0.000
260.151;  917.300;  162.925;    0.000
260.218; 1015.300;  171.925;    0.000
260.286;  973.300;  154.925;    0.000
260.353;  999.300;  182.925;    0.000
260.421; 1034.300;  187.925;    0.000
260.489;  991.300;  185.925;    0.000
260.556; 1092.300;  165.925;    0.000
260.624; 1031.300;  185.925;    0.000
260.691; 1010.300;  175.925;    0.000
260.759; 1058.300;  201.925;    0.000
260.826; 1028.300;  150.925;    0.000
260.894; 1061.300;  142.925;    0.000
260.961; 1092.300;  156.925;    0.000
261.029; 1112.300;  161.925;    0.000
261.096; 1110.300;  172.925;    0.000
261.164; 1081.300;  149.925;    0.000
261.231; 1141.300;  191.925;    0.000
261.299; 1203.300;  182.925;    0.000
261.366; 1129.300;  156.925;    0.000
261.434; 1174.300;  188.925;    0.000
261.501; 1149.300;  170.925;    0.000
261.568; 1203.300;  167.925;    0.000
261.636; 1196.300;  169.925;    0.000
261.703; 1235.300;  200.925;    0.000
261.771; 1198.300;  170.925;    0.000
261.838; 1211.300;  175.925;    0.000
261.906; 1212.300;  135.925;    0.000
261.973; 1247.300;  184.925;    0.000
262.040; 1206.300;  176.925;    0.000
262.108; 1268.300;  201.925;    0.000
262.175; 1244.300;  141.925;    0.000
262.243; 1331.300;  175.925;    0.000
262.310; 1294.300;  112.925;    0.000
262.377; 1322.300;  158.925;    0.000
262.445; 1335.300;  162.925;    0.000
262.512; 1309.300;  184.925;    0.000
262.579; 1290.300;  185.925;    0.000
262.647; 1392.300;  158.925;    0.000
262.714; 1416.300;  197.925;    0.000
262.781; 1316.300;  133.925;    0.000
262.849; 1281.300;  146.925;    0.000
262.916; 1342.300;  204.925;    0.000
262.983; 1403.300;  191.925;    0.000
263.051; 1323.300;  140.925;    0.000
263.118; 1359.300;  154.925;    0.000
263.185; 1387.300;  169.925;    0.000
263.252; 1384.300;  150.925;    0.000
263.320; 1462.300;  145.925;    0.000
263.387; 1410.300;  144.925;    0.000
263.454; 1416.300;  193.925;    0.000
263.522; 1460.300;  160.925;    0.000
263.589; 1549.300;  153.925;    0.000
263.656; 1426.300;  178.925;    0.000
263.723; 1392.300;  136.925;    0.000
263.790; 1527.300;  162.925;    0.000
263.858; 1527.300;  164.925;    0.000
263.925; 1553.300;  146.925;    0.000
263.992; 1518.300;  191.925;    0.000
264.059; 1489.300;  180.925;    0.000
264.126; 1426.300;  183.925;    0.000
264.194; 1556.300;  174.925;    0.000
264.261; 1599.300;  187.925;    0.000
264.328; 1612.300;  179.925;    0.000
264.395; 1627.300;  166.925;    0.000
264.462; 1650.300;  197.925;    0.000
264.529; 1683.300;  209.925;    0.000
264.597; 1544.300;  173.925;    0.000
264.664; 1585.300;  193.925;    0.000
264.731; 1614.300;  165.925;    0.000
264.798; 1612.300;  148.925;    0.000
264.865; 1652.300;  186.925;    0.000
264.932; 1713.300;  152.925;    0.000
264.999; 1679.300;  166.925;    0.000
265.066; 1726.300;  186.925;    0.000
265.133; 1715.300;  172.925;    0.000
265.201; 1633.300;  159.925;    0.000
265.268; 1599.300;  164.925;    0.000
265.335; 1624.300;  161.925;    0.000
265.402; 1648.300;  157.925;    0.000
265.469; 1784.300;  134.925;    0.000
265.536; 1735.300;  191.925;    0.000
265.603; 1810.300;  170.925;    0.000
265.670; 1599.300;  162.925;    0.000
265.737; 1803.300;  172.925;    0.000
265.804; 1759.300;  151.925;    0.000
265.871; 1794.300;  191.925;    0.000
265.938; 1792.300;  173.925;    0.000
266.005; 1786.300;  201.925;    0.000
266.072; 1782.300;  156.925;    0.000
266.139; 1806.300;  191.925;    0.000
266.206; 1848.300;  151.925;    0.000
266.273; 1813.300;  194.925;    0.000
266.340; 1804.300;  120.925;    0.000
266.407; 1918.300;  130.925;    0.000
266.474; 1822.300;  137.925;    0.000
266.541; 1867.300;  139.925;    0.000
266.608; 1799.300;  139.925;    0.000
266.675; 1943.300;  198.925;    0.000
266.742; 1864.300;  165.925;    0.000
266.808; 1838.300;  174.925;    0.000
266.875; 1808.300;  169.925;    0.000
266.942; 1934.300;  137.925;    0.000
267.009; 1858.300;  181.925;    0.000
267.076; 1887.300;  204.925;    0.000
267.143; 1846.300;  179.925;    0.000
267.210; 1985.300;  160.925;    0.000
267.277; 1956.300;  154.925;    0.000
267.344; 1908.300;  178.925;    0.000
267.410; 1930.300;  190.925;    0.000
267.477; 1904.300;  193.925;    0.000
267.544; 1969.300;  168.925;    0.000
267.611; 1959.300;  177.925;    0.000
267.678; 1899.300;  205.925;    0.000
267.745; 1950.300;  205.925;    0.000
267.811; 1891.300;  164.925;    0.000
267.878; 1931.300;  166.925;    0.000
267.945; 1922.300;  160.925;    0.000
268.012; 1982.300;  172.925;    0.000
268.079; 1980.300;  186.925;    0.000
268.145; 2004.300;  188.925;    0.000
268.212; 1898.300;  181.925;    0.000
268.279; 1956.300;  158.925;    0.000
268.346; 1914.300;  192.925;    0.000
268.412; 1907.300;  159.925;    0.000
268.479; 1905.300;  176.925;    0.000
268.546; 2050.300;  170.925;    0.000
268.613; 1977.300;  133.925;    0.000
268.679; 1966.300;  170.925;    0.000
268.746; 1974.300;  185.925;    0.000
268.813; 1935.300;  170.925;    0.000
268.879; 1966.300;  149.925;    0.000
268.946; 1941.300;  176.925;    0.000
269.013; 1908.300;  153.925;    0.000
269.079; 1948.300;  156.925;    0.000
269.146; 1986.300;  143.925;    0.000
269.213; 1938.300;  170.925;    0.000
269.280; 1949.300;  202.925;    0.000
269.346; 1917.300;  180.925;    0.000
269.413; 1977.300;  162.925;    0.000
269.479; 2056.300;  175.925;    0.000
269.546; 1922.300;  151.925;    0.000
269.613; 1939.300;  159.925;    0.000
269.679; 1981.300;  190.925;    0.000
269.746; 1869.300;  159.925;    0.000
269.813; 1887.300;  151.925;    0.000
269.879; 2008.300;  169.925;    0.000
269.946; 1972.300;  169.925;    0.000
270.012; 1989.300;  185.925;    0.000
270.079; 1895.300;  133.925;    0.000
270.145; 1842.300;  161.925;    0.000
270.212; 1993.300;  156.925;    0.000
270.279; 2015.300;  176.925;    0.000
270.345; 1845.300;  140.925;    0.000
270.412; 1914.300;  162.925;    0.000
270.478; 1798.300;  148.925;    0.000
270.545; 1891.300;  146.925;    0.000
270.611; 1938.300;  168.925;    0.000
270.678; 1831.300;  164.925;    0.000
270.744; 1852.300;  117.925;    0.000
270.811; 1858.300;  196.925;    0.000
270.877; 1834.300;  151.925;    0.000
270.944; 1820.300;  174.925;    0.000
271.010; 1794.300;  180.925;    0.000
271.077; 1799.300;  162.925;    0.000
271.143; 1840.300;  178.925;    0.000
271.210; 1842.300;  159.925;    0.000
271.276; 1797.300;  143.925;    0.000
271.342; 1816.300;  196.925;    0.000
271.409; 1760.300;  161.925;    0.000
271.475; 1899.300;  153.925;    0.000
271.542; 1786.300;  147.925;    0.000
271.608; 1835.300;  175.925;    0.000
271.675; 1813.300;  134.925;    0.000
271.741; 1873.300;  182.925;    0.000
271.807; 1830.300;  174.925;    0.000
271.874; 1838.300;  169.925;    0.000
271.940; 1780.300;  179.925;    0.000
272.007; 1755.300;  173.925;    0.000
272.073; 1797.300;  133.925;    0.000
272.139; 1804.300;  191.925;    0.000
272.206; 1858.300;  168.925;    0.000
272.272; 1829.300;  179.925;    0.000
272.338; 1856.300;  224.925;    0.000
272.405; 1765.300;  156.925;    0.000
272.471; 1797.300;  175.925;    0.000
272.537; 1808.300;  190.925;    0.000
272.604; 1841.300;  199.925;    0.000
272.670; 1709.300;  156.925;    0.000
272.736; 1747.300;  198.925;    0.000
272.802; 1825.300;  169.925;    0.000
272.869; 1711.300;  141.925;    0.000
272.935; 1799.300;  145.925;    0.000
273.001; 1763.300;  156.925;    0.000
273.068; 1786.300;  157.925;    0.000
273.134; 1739.300;  184.925;    0.000
273.200; 1826.300;  158.925;    0.000
273.266; 1800.300;  150.925;    0.000
273.333; 1830.300;  176.925;    0.000
273.399; 1792.300;  118.925;    0.000
273.465; 1848.300;  184.925;    0.000
273.531; 1790.300;  179.925;    0.000
273.597; 1797.300;  167.925;    0.000
273.664; 1772.300;  186.925;    0.000
273.730; 1765.300;  137.925;    0.000
273.796; 1785.300;  148.925;    0.000
273.862; 1854.300;  183.925;    0.000
273.928; 1761.300;  179.925;    0.000
273.995; 1773.300;  189.925;    0.000
274.061; 1785.300;  188.925;    0.000
274.127; 1757.300;  132.925;    0.000
274.193; 1718.300;  135.925;    0.000
274.259; 1797.300;  177.925;    0.000
274.325; 1735.300;  178.925;    0.000
274.391; 1793.300;  140.925;    0.000
274.457; 1807.300;  158.925;    0.000
274.524; 1808.300;  175.925;    0.000
274.590; 1805.300;  182.925;    0.000
274.656; 1824.300;  165.925;    0.000
274.722; 1767.300;  152.925;    0.000
274.788; 1804.300;  159.925;    0.000
274.854; 1847.300;  143.925;    0.000
274.920; 1765.300;  117.925;    0.000
274.986; 1741.300;  140.925;    0.000
275.052; 1820.300;  174.925;    0.000
275.118; 1765.300;  129.925;    0.000
275.184; 1774.300;  173.925;    0.000
275.250; 1833.300;  196.925;    0.000
275.316; 1823.300;  142.925;    0.000
275.382; 1821.300;  149.925;    0.000
275.448; 1821.300;  178.925;    0.000
275.514; 1822.300;  136.925;    0.000
275.580; 1781.300;  140.925;    0.000
275.646; 1810.300;  133.925;    0.000
275.712; 1837.300;  162.925;    0.000
275.778; 1795.300;  129.925;    0.000
275.844; 1914.300;  156.925;    0.000
275.910; 1855.300;  172.925;    0.000
275.976; 1826.300;  158.925;    0.000
276.042; 1857.300;  141.925;    0.000
276.108; 1862.300;  212.925;    0.000
276.174; 1914.300;  148.925;    0.000
276.240; 1868.300;  134.925;    0.000
276.306; 1838.300;  149.925;    0.000
276.372; 1875.300;  126.925;    0.000
276.437; 1872.300;  168.925;    0.000
276.503; 1922.300;  158.925;    0.000
276.569; 1893.300;  191.925;    0.000
276.635; 1866.300;  130.925;    0.000
276.701; 1836.300;  161.925;    0.000
276.767; 1891.300;  148.925;    0.000
276.833; 1898.300;  147.925;    0.000
276.899; 1821.300;  149.925;    0.000
276.964; 1896.300;  181.925;    0.000
277.030; 1937.300;  186.925;    0.000
277.096; 1902.300;  132.925;    0.000
277.162; 2018.300;  181.925;    0.000
277.228; 2007.300;  166.925;    0.000
277.293; 1929.300;  154.925;    0.000
277.359; 1995.300;  181.925;    0.000
277.425; 1968.300;  184.925;    0.000
277.491; 1954.300;  150.925;    0.000
277.557; 2064.300;  159.925;    0.000
277.622; 2173.300;  129.925;    0.000
277.688; 2100.300;  184.925;    0.000
277.754; 2097.300;  182.925;    0.000
277.820; 2208.300;  149.925;    0.000
277.885; 2317.300;  185.925;    0.000
277.951; 2493.300;  164.925;    0.000
278.017; 2351.300;  162.925;    0.000
278.083; 2267.300;  189.925;    0.000
278.148; 2267.300;  184.925;    0.000
278.214; 2295.300;  188.925;    0.000
278.280; 2253.300;  206.925;    0.000
278.345; 2300.300;  187.925;    0.000
278.411; 2190.300;  174.925;    0.000
278.477; 2238.300;  190.925;    0.000
278.542; 2250.300;  154.925;    0.000
278.608; 2259.300;  191.925;    0.000
278.674; 2371.300;  243.925;    0.000
278.739; 2370.300;  141.925;    0.000
278.805; 2464.300;  171.925;    0.000
278.871; 2490.300;  181.925;    0.000
278.936; 2738.300;  191.925;    0.000
279.002; 3106.300;  201.925;    0.000
279.067; 3576.300;  174.925;    0.000
279.133; 3583.300;  165.925;    0.000
279.199; 3444.300;  122.925;    0.000
279.264; 3588.300;  159.925;    0.000
279.330; 4244.300;  170.925;    0.000
279.395; 6061.300;  173.925;    0.000
279.461;13094.300;  200.925;    0.000
279.527;18747.301;  199.925;    0.000
279.592;13747.300;  203.925;    0.000
279.658; 6913.300;  209.925;    0.000
279.723; 5703.300;  188.925;    0.000
279.789; 5778.300;  180.925;    0.000
279.854; 5244.300;  137.925;    0.000
279.920; 4322.300;  223.925;    0.000
279.985; 4159.300;  186.925;    0.000
280.051; 4332.300;  198.925;    0.000
280.116; 5212.300;  178.925;    0.000
280.182;10149.300;  176.925;    0.000
280.247;13774.300;  195.925;    0.000
280.313; 9296.300;  165.925;    0.000
280.378; 4757.300;  153.925;    0.000
280.444; 3679.300;  181.925;    0.000
280.509; 3351.300;  188.925;    0.000
280.574; 2972.300;  149.925;    0.000
280.640; 2907.300;  164.925;    0.000
280.705; 2741.300;  166.925;    0.000
280.771; 2790.300;  188.925;    0.000
280.836; 2680.300;  188.925;    0.000
280.902; 2627.300;  168.925;    0.000
280.967; 2678.300;  202.925;    0.000
281.032; 2767.300;  197.925;    0.000
281.098; 2630.300;  138.925;    0.000
281.163; 2597.300;  160.925;    0.000
281.229; 2556.300;  212.925;    0.000
281.294; 2552.300;  227.925;    0.000
281.359; 2508.300;  200.925;    0.000
281.425; 2552.300;  189.925;    0.000
281.490; 2529.300;  176.925;    0.000
281.555; 2435.300;  182.925;    0.000
281.621; 2503.300;  169.925;    0.000
281.686; 2383.300;  182.925;    0.000
281.751; 2561.300;  208.925;    0.000
281.816; 2449.300;  166.925;    0.000
281.882; 2468.300;  181.925;    0.000
281.947; 2322.300;  178.925;    0.000
282.012; 2480.300;  167.925;    0.000
282.078; 2509.300;  170.925;    0.000
282.143; 2367.300;  157.925;    0.000
282.208; 2503.300;  158.925;    0.000
282.273; 2562.300;  187.925;    0.000
282.339; 2395.300;  185.925;    0.000
282.404; 2425.300;  201.925;    0.000
282.469; 2442.300;  202.925;    0.000
282.534; 2556.300;  185.925;    0.000
282.600; 2438.300;  125.925;    0.000
282.665; 2450.300;  162.925;    0.000
282.730; 2467.300;  174.925;    0.000
282.795; 2656.300;  179.925;    0.000
282.860; 2541.300;  190.925;    0.000
282.926; 2532.300;  200.925;    0.000
282.991; 2618.300;  161.925;    0.000
283.056; 2518.300;  175.925;    0.000
283.121; 2511.300;  181.925;    0.000
283.186; 2535.300;  221.925;    0.000
283.251; 2539.300;  168.925;    0.000
283.316; 2622.300;  156.925;    0.000
283.382; 2482.300;  197.925;    0.000
283.447; 2560.300;  210.925;    0.000
283.512; 2444.300;  164.925;    0.000
283.577; 2604.300;  212.925;    0.000
283.642; 2574.300;  186.925;    0.000
283.707; 2602.300;  182.925;    0.000
283.772; 2561.300;  127.925;    0.000
283.837; 2579.300;  160.925;    0.000
283.902; 2613.300;  162.925;    0.000
283.967; 2562.300;  151.925;    0.000
284.032; 2634.300;  175.925;    0.000
284.097; 2673.300;  235.925;    0.000
284.163; 2746.300;  136.925;    0.000
284.228; 2659.300;  209.925;    0.000
284.293; 2726.300;  163.925;    0.000
284.358; 2658.300;  169.925;    0.000
284.423; 2627.300;  145.925;    0.000
284.488; 2694.300;  134.925;    0.000
284.553; 2646.300;  158.925;    0.000
284.618; 2628.300;  163.925;    0.000
284.683; 2668.300;  168.925;    0.000
284.748; 2704.300;  170.925;    0.000
284.812; 2624.300;  151.925;    0.000
284.877; 2810.300;  169.925;    0.000
284.942; 2807.300;  179.925;    0.000
285.007; 2979.300;  202.925;    0.000
285.072; 3363.300;  171.925;    0.000
285.137; 4707.300;  173.925;    0.000
285.202; 5608.300;  196.925;    0.000
285.267; 4648.300;  193.925;    0.000
285.332; 3498.300;  151.925;    0.000
285.397; 3010.300;  183.925;    0.000
285.462; 2984.300;  168.925;    0.000
285.527; 2825.300;  166.925;    0.000
285.591; 2861.300;  124.925;    0.000
285.656; 2804.300;  145.925;    0.000
285.721; 2766.300;  155.925;    0.000
285.786; 2805.300;  170.925;    0.000
285.851; 2873.300;  175.925;    0.000
285.916; 2785.300;  186.925;    0.000
285.981; 2813.300;  204.925;    0.000
286.045; 2734.300;  237.925;    0.000
286.110; 2735.300;  197.925;    0.000
286.175; 2835.300;  143.925;    0.000
286.240; 2789.300;  167.925;    0.000
286.305; 2795.300;  202.925;    0.000
286.369; 2878.300;  214.925;    0.000
286.434; 2818.300;  206.925;    0.000
286.499; 2744.300;  177.925;    0.000
286.564; 2913.300;  201.925;    0.000
286.628; 2830.300;  153.925;    0.000
286.693; 2874.300;  161.925;    0.000
286.758; 2816.300;  181.925;    0.000
286.823; 2835.300;  176.925;    0.000
286.887; 2701.300;  158.925;    0.000
286.952; 2874.300;  198.925;    0.000
287.017; 2818.300;  196.925;    0.000
287.082; 2813.300;  154.925;    0.000
287.146; 2926.300;  178.925;    0.000
287.211; 2753.300;  165.925;    0.000
287.276; 2928.300;  165.925;    0.000
287.340; 2846.300;  178.925;    0.000
287.405; 2761.300;  177.925;    0.000
287.470; 2826.300;  141.925;    0.000
287.534; 2947.300;  224.925;    0.000
287.599; 2783.300;  184.925;    0.000
287.663; 2822.300;  177.925;    0.000
287.728; 2817.300;  144.925;    0.000
287.793; 2940.300;  210.925;    0.000
287.857; 2910.300;  198.925;    0.000
287.922; 2790.300;  168.925;    0.000
287.987; 2882.300;  168.925;    0.000
288.051; 2813.300;  200.925;    0.000
288.116; 2855.300;  199.925;    0.000
288.180; 2888.300;  211.925;    0.000
288.245; 2900.300;  182.925;    0.000
288.309; 2802.300;  180.925;    0.000
288.374; 2871.300;  196.925;    0.000
288.439; 2876.300;  187.925;    0.000
288.503; 2845.300;  159.925;    0.000
288.568; 2909.300;  207.925;    0.000
288.632; 2814.300;  210.925;    0.000
288.697; 2920.300;  196.925;    0.000
288.761; 2873.300;  175.925;    0.000
288.826; 2813.300;  159.925;    0.000
288.890; 2767.300;  183.925;    0.000
288.955; 2792.300;  149.925;    0.000
289.019; 2827.300;  194.925;    0.000
289.084; 2785.300;  171.925;    0.000
289.148; 2775.300;  191.925;    0.000
289.212; 2906.300;  217.925;    0.000
289.277; 2837.300;  196.925;    0.000
289.341; 2898.300;  211.925;    0.000
289.406; 2811.300;  165.925;    0.000
289.470; 2850.300;  197.925;    0.000
289.535; 2804.300;  208.925;    0.000
289.599; 2923.300;  192.925;    0.000
289.663; 2692.300;  169.925;    0.000
289.728; 2812.300;  168.925;    0.000
289.792; 2862.300;  192.925;    0.000
289.857; 2841.300;  202.925;    0.000
289.921; 2870.300;  176.925;    0.000
289.985; 2855.300;  164.925;    0.000
290.050; 2887.300;  166.925;    0.000
290.114; 2864.300;  192.925;    0.000
290.178; 2861.300;  155.925;    0.000
290.243; 2846.300;  158.925;    0.000
290.307; 2826.300;  192.925;    0.000
290.371; 2952.300;  161.925;    0.000
290.436; 2871.300;  182.925;    0.000
290.500; 2891.300;  147.925;    0.000
290.564; 3046.300;  209.925;    0.000
290.629; 2884.300;  172.925;    0.000
290.693; 2837.300;  192.925;    0.000
290.757; 2828.300;  147.925;    0.000
290.821; 2844.300;  139.925;    0.000
290.886; 2926.300;  186.925;    0.000
290.950; 2815.300;  196.925;    0.000
291.014; 2881.300;  166.925;    0.000
291.078; 2891.300;  143.925;    0.000
291.143; 2929.300;  171.925;    0.000
291.207; 2852.300;  187.925;    0.000
291.271; 2836.300;  208.925;    0.000
291.335; 2891.300;  195.925;    0.000
291.399; 2920.300;  139.925;    0.000
291.464; 2883.300;  139.925;    0.000
291.528; 2879.300;  183.925;    0.000
291.592; 2931.300;  152.925;    0.000
291.656; 2968.300;  155.925;    0.000
291.720; 2951.300;  191.925;    0.000
291.784; 2972.300;  185.925;    0.000
291.849; 2968.300;  175.925;    0.000
291.913; 2964.300;  152.925;    0.000
291.977; 2939.300;  203.925;    0.000
292.041; 2974.300;  181.925;    0.000
292.105; 2923.300;  168.925;    0.000
292.169; 2895.300;  133.925;    0.000
292.233; 2929.300;  156.925;    0.000
292.297; 2878.300;  173.925;    0.000
292.361; 2850.300;  124.925;    0.000
292.425; 2920.300;  138.925;    0.000
292.490; 2940.300;  110.925;    0.000
292.554; 2983.300;  180.925;    0.000
292.618; 2924.300;  178.925;    0.000
292.682; 2850.300;  156.925;    0.000
292.746; 2875.300;  151.925;    0.000
292.810; 3041.300;  183.925;    0.000
292.874; 3034.300;  156.925;    0.000
292.938; 3105.300;  195.925;    0.000
293.002; 3034.300;  200.925;    0.000
293.066; 2906.300;  171.925;    0.000
293.130; 2893.300;  163.925;    0.000
293.194; 3014.300;  174.925;    0.000
293.258; 2897.300;  167.925;    0.000
293.322; 2962.300;  212.925;    0.000
293.386; 2934.300;  189.925;    0.000
293.450; 2947.300;  169.925;    0.000
293.514; 2990.300;  175.925;    0.000
293.577; 3001.300;  169.925;    0.000
293.641; 3130.300;  186.925;    0.000
293.705; 3184.300;  222.925;    0.000
293.769; 3056.300;  150.925;    0.000
293.833; 3136.300;  165.925;    0.000
293.897; 3019.300;  152.925;    0.000
293.961; 2944.300;  179.925;    0.000
294.025; 2961.300;  159.925;    0.000
294.089; 2919.300;  181.925;    0.000
294.152; 2881.300;  188.925;    0.000
294.216; 2972.300;  170.925;    0.000
294.280; 2917.300;  167.925;    0.000
294.344; 2959.300;  151.925;    0.000
294.408; 2898.300;  180.925;    0.000
294.472; 2893.300;  144.925;    0.000
294.536; 2889.300;  171.925;    0.000
294.599; 2865.300;  157.925;    0.000
294.663; 2870.300;  139.925;    0.000
294.727; 2846.300;  208.925;    0.000
294.791; 2797.300;  152.925;    0.000
294.855; 2831.300;  181.925;    0.000
294.918; 2821.300;  136.925;    0.000
294.982; 2870.300;  155.925;    0.000
295.046; 2868.300;  200.925;    0.000
295.110; 2955.300;  190.925;    0.000
295.173; 2908.300;  156.925;    0.000
295.237; 2947.300;  160.925;    0.000
295.301; 2870.300;  145.925;    0.000
295.364; 2941.300;  166.925;    0.000
295.428; 2884.300;  125.925;    0.000
295.492; 2973.300;  154.925;    0.000
295.556; 2872.300;  172.925;    0.000
295.619; 2948.300;  210.925;    0.000
295.683; 2927.300;  181.925;    0.000
295.747; 2927.300;  176.925;    0.000
295.810; 2831.300;  181.925;    0.000
295.874; 2841.300;  160.925;    0.000
295.938; 2871.300;  119.925;    0.000
296.001; 2854.300;  206.925;    0.000
296.065; 2902.300;  136.925;    0.000
296.128; 2806.300;  156.925;    0.000
296.192; 2805.300;  174.925;    0.000
296.256; 2820.300;  145.925;    0.000
296.319; 2842.300;  167.925;    0.000
296.383; 2818.300;  168.925;    0.000
296.447; 2854.300;  190.925;    0.000
296.510; 2931.300;  165.925;    0.000
296.574; 2763.300;  184.925;    0.000
296.637; 2806.300;  155.925;    0.000
296.701; 2868.300;  168.925;    0.000
296.764; 2860.300;  161.925;    0.000
296.828; 2798.300;  218.925;    0.000
296.891; 2710.300;  176.925;    0.000
296.955; 2704.300;  169.925;    0.000
297.018; 2813.300;  168.925;    0.000
297.082; 2759.300;  176.925;    0.000
297.145; 2738.300;  171.925;    0.000
297.209; 2714.300;  196.925;    0.000
297.272; 2719.300;  170.925;    0.000
297.336; 2821.300;  156.925;    0.000
297.399; 2860.300;  168.925;    0.000
297.463; 2778.300;  203.925;    0.000
297.526; 2728.300;  164.925;    0.000
297.590; 2694.300;  175.925;    0.000
297.653; 2731.300;  170.925;    0.000
297.717; 2797.300;  156.925;    0.000
297.780; 2726.300;  149.925;    0.000
297.843; 2727.300;  156.925;    0.000
297.907; 2684.300;  129.925;    0.000
297.970; 2684.300;  163.925;    0.000
298.034; 2781.300;  162.925;    0.000
298.097; 2734.300;  182.925;    0.000
298.160; 2714.300;  194.925;    0.000
298.224; 2681.300;  178.925;    0.000
298.287; 2699.300;  147.925;    0.000
298.350; 2797.300;  187.925;    0.000
298.414; 2718.300;  193.925;    0.000
298.477; 2608.300;  127.925;    0.000
298.540; 2735.300;  181.925;    0.000
298.604; 2686.300;  163.925;    0.000
298.667; 2745.300;  177.925;    0.000
298.730; 2726.300;  192.925;    0.000
298.794; 2655.300;  183.925;    0.000
298.857; 2600.300;  194.925;    0.000
298.920; 2568.300;  147.925;    0.000
298.984; 2739.300;  184.925;    0.000
299.047; 2576.300;  218.925;    0.000
299.110; 2572.300;  171.925;    0.000
299.173; 2557.300;  177.925;    0.000
299.237; 2645.300;  181.925;    0.000
299.300; 2536.300;  170.925;    0.000
299.363; 2551.300;  185.925;    0.000
299.426; 2587.300;  193.925;    0.000
299.489; 2607.300;  184.925;    0.000
299.553; 2519.300;  194.925;    0.000
299.616; 2517.300;  171.925;    0.000
299.679; 2476.300;  182.925;    0.000
299.742; 2550.300;  138.925;    0.000
299.805; 2534.300;  172.925;    0.000
299.868; 2506.300;  191.925;    0.000
299.932; 2571.300;  193.925;    0.000
299.995; 2621.300;  201.925;    0.000
300.058; 2472.300;  177.925;    0.000
300.121; 2512.300;  178.925;    0.000
300.184; 2500.300;  171.925;    0.000
300.247; 2480.300;  184.925;    0.000
300.310; 2467.300;  200.925;    0.000
300.374; 2609.300;  172.925;    0.000
300.437; 2497.300;  187.925;    0.000
300.500; 2433.300;  211.925;    0.000
300.563; 2463.300;  190.925;    0.000
300.626; 2508.300;  196.925;    0.000
300.689; 2413.300;  162.925;    0.000
300.752; 2347.300;  163.925;    0.000
300.815; 2471.300;  207.925;    0.000
300.878; 2438.300;  221.925;    0.000
300.941; 2385.300;  176.925;    0.000
301.004; 2439.300;  193.925;    0.000
301.067; 2446.300;  165.925;    0.000
301.130; 2392.300;  179.925;    0.000
301.193; 2358.300;  196.925;    0.000
301.256; 2419.300;  210.925;    0.000
301.319; 2460.300;  196.925;    0.000
301.382; 2514.300;  162.925;    0.000
301.445; 2435.300;  233.925;    0.000
301.508; 2458.300;  176.925;    0.000
301.571; 2396.300;  185.925;    0.000
301.634; 2401.300;  202.925;    0.000
301.697; 2302.300;  189.925;    0.000
301.760; 2428.300;  224.925;    0.000
301.823; 2372.300;  212.925;    0.000
301.885; 2447.300;  196.925;    0.000
301.948; 2415.300;  169.925;    0.000
302.011; 2392.300;  160.925;    0.000
302.074; 2357.300;  202.925;    0.000
302.137; 2381.300;  130.925;    0.000
302.200; 2402.300;  188.925;    0.000
302.263; 2414.300;  196.925;    0.000
302.326; 2411.300;  172.925;    0.000
302.388; 2449.300;  197.925;    0.000
302.451; 2373.300;  203.925;    0.000
302.514; 2364.300;  164.925;    0.000
302.577; 2376.300;  170.925;    0.000
302.640; 2420.300;  156.925;    0.000
302.703; 2337.300;  188.925;    0.000
302.765; 2401.300;  213.925;    0.000
302.828; 2413.300;  212.925;    0.000
302.891; 2379.300;  203.925;    0.000
302.954; 2243.300;  148.925;    0.000
303.016; 2339.300;  168.925;    0.000
303.079; 2381.300;  206.925;    0.000
303.142; 2361.300;  210.925;    0.000
303.205; 2312.300;  189.925;    0.000
303.267; 2456.300;  174.925;    0.000
303.330; 2418.300;  198.925;    0.000
303.393; 2377.300;  207.925;    0.000
303.456; 2403.300;  177.925;    0.000
303.518; 2375.300;  192.925;    0.000
303.581; 2351.300;  171.925;    0.000
303.644; 2342.300;  193.925;    0.000
303.706; 2363.300;  185.925;    0.000
303.769; 2450.300;  198.925;    0.000
303.832; 2306.300;  192.925;    0.000
303.894; 2350.300;  199.925;    0.000
303.957; 2396.300;  160.925;    0.000
304.020; 2380.300;  184.925;    0.000
304.082; 2420.300;  191.925;    0.000
304.145; 2508.300;  216.925;    0.000
304.207; 2364.300;  175.925;    0.000
304.270; 2359.300;  192.925;    0.000
304.333; 2391.300;  218.925;    0.000
304.395; 2323.300;  195.925;    0.000
304.458; 2415.300;  206.925;    0.000
304.520; 2407.300;  229.925;    0.000
304.583; 2454.300;  202.925;    0.000
304.646; 2464.300;  159.925;    0.000
304.708; 2398.300;  167.925;    0.000
304.771; 2356.300;  141.925;    0.000
304.833; 2414.300;  184.925;    0.000
304.896; 2376.300;  197.925;    0.000
304.958; 2387.300;  179.925;    0.000
305.021; 2316.300;  175.925;    0.000
305.083; 2453.300;  182.925;    0.000
305.146; 2360.300;  182.925;    0.000
305.208; 2433.300;  174.925;    0.000
305.271; 2496.300;  157.925;    0.000
305.333; 2507.300;  185.925;    0.000
305.396; 2443.300;  199.925;    0.000
305.458; 2471.300;  203.925;    0.000
305.520; 2437.300;  195.925;    0.000
305.583; 2413.300;  152.925;    0.000
305.645; 2378.300;  200.925;    0.000
305.708; 2478.300;  149.925;    0.000
305.770; 2430.300;  211.925;    0.000
305.833; 2457.300;  189.925;    0.000
305.895; 2521.300;  200.925;    0.000
305.957; 2416.300;  166.925;    0.000
306.020; 2438.300;  186.925;    0.000
306.082; 2388.300;  197.925;    0.000
306.144; 2503.300;  200.925;    0.000
306.207; 2399.300;  180.925;    0.000
306.269; 2407.300;  209.925;    0.000
306.331; 2438.300;  205.925;    0.000
306.394; 2463.300;  176.925;    0.000
306.456; 2448.300;  184.925;    0.000
306.518; 2410.300;  210.925;    0.000
306.581; 2524.300;  162.925;    0.000
306.643; 2360.300;  196.925;    0.000
306.705; 2398.300;  204.925;    0.000
306.768; 2379.300;  158.925;    0.000
306.830; 2462.300;  205.925;    0.000
306.892; 2479.300;  189.925;    0.000
306.954; 2499.300;  188.925;    0.000
307.017; 2432.300;  180.925;    0.000
307.079; 2446.300;  197.925;    0.000
307.141; 2430.300;  184.925;    0.000
307.203; 2422.300;  182.925;    0.000
307.266; 2466.300;  166.925;    0.000
307.328; 2447.300;  186.925;    0.000
307.390; 2482.300;  176.925;    0.000
307.452; 2504.300;  194.925;    0.000
307.514; 2550.300;  225.925;    0.000
307.577; 2540.300;  209.925;    0.000
307.639; 2610.300;  203.925;    0.000
307.701; 2584.300;  214.925;    0.000
307.763; 2637.300;  203.925;    0.000
307.825; 2594.300;  202.925;    0.000
307.887; 2521.300;  244.925;    0.000
307.949; 2518.300;  173.925;    0.000
308.012; 2545.300;  219.925;    0.000
308.074; 2557.300;  157.925;    0.000
308.136; 2630.300;  215.925;    0.000
308.198; 2483.300;  186.925;    0.000
308.260; 2536.300;  186.925;    0.000
308.322; 2649.300;  201.925;    0.000
308.384; 2571.300;  218.925;    0.000
308.446; 2540.300;  159.925;    0.000
308.508; 2632.300;  191.925;    0.000
308.570; 2523.300;  185.925;    0.000
308.632; 2629.300;  208.925;    0.000
308.694; 2496.300;  161.925;    0.000
308.756; 2613.300;  169.925;    0.000
308.818; 2615.300;  187.925;    0.000
308.880; 2600.300;  192.925;    0.000
308.942; 2603.300;  194.925;    0.000
309.004; 2563.300;  206.925;    0.000
309.066; 2591.300;  204.925;    0.000
309.128; 2672.300;  181.925;    0.000
309.190; 2633.300;  166.925;    0.000
309.252; 2808.300;  213.925;    0.000
309.314; 2822.300;  249.925;    0.000
309.376; 2762.300;  238.925;    0.000
309.438; 2709.300;  206.925;    0.000
309.500; 2693.300;  185.925;    0.000
309.562; 2747.300;  214.925;    0.000
309.624; 2648.300;  216.925;    0.000
309.686; 2622.300;  197.925;    0.000
309.747; 2689.300;  171.925;    0.000
309.809; 2577.300;  198.925;    0.000
309.871; 2636.300;  185.925;    0.000
309.933; 2665.300;  172.925;    0.000
309.995; 2572.300;  168.925;    0.000
310.057; 2541.300;  177.925;    0.000
310.119; 2551.300;  207.925;    0.000
310.180; 2543.300;  180.925;    0.000
310.242; 2553.300;  202.925;    0.000
310.304; 2555.300;  200.925;    0.000
310.366; 2513.300;  222.925;    0.000
310.428; 2526.300;  179.925;    0.000
310.489; 2526.300;  196.925;    0.000
310.551; 2675.300;  203.925;    0.000
310.613; 2566.300;  198.925;    0.000
310.675; 2599.300;  203.925;    0.000
310.737; 2626.300;  195.925;    0.000
310.798; 2588.300;  204.925;    0.000
310.860; 2602.300;  195.925;    0.000
310.922; 2584.300;  195.925;    0.000
310.983; 2620.300;  225.925;    0.000
311.045; 2602.300;  203.925;    0.000
311.107; 2523.300;  194.925;    0.000
311.169; 2508.300;  185.925;    0.000
311.230; 2575.300;  175.925;    0.000
311.292; 2529.300;  220.925;    0.000
311.354; 2532.300;  189.925;    0.000
311.415; 2600.300;  187.925;    0.000
311.477; 2511.300;  180.925;    0.000
311.539; 2466.300;  175.925;    0.000
311.600; 2597.300;  192.925;    0.000
311.662; 2633.300;  212.925;    0.000
311.724; 2583.300;  217.925;    0.000
311.785; 2554.300;  218.925;    0.000
311.847; 2644.300;  219.925;    0.000
311.908; 2623.300;  202.925;    0.000
311.970; 2581.300;  186.925;    0.000
312.032; 2616.300;  212.925;    0.000
312.093; 2672.300;  203.925;    0.000
312.155; 2683.300;  165.925;    0.000
312.216; 2652.300;  183.925;    0.000
312.278; 2619.300;  167.925;    0.000
312.339; 2641.300;  190.925;    0.000
312.401; 2673.300;  219.925;    0.000
312.462; 2654.300;  190.925;    0.000
312.524; 2725.300;  203.925;    0.000
312.585; 2592.300;  191.925;    0.000
312.647; 2611.300;  197.925;    0.000
312.708; 2697.300;  203.925;    0.000
312.770; 2758.300;  203.925;    0.000
312.831; 2723.300;  155.925;    0.000
312.893; 2783.300;  189.925;    0.000
312.954; 2700.300;  212.925;    0.000
313.016; 2695.300;  179.925;    0.000
313.077; 2720.300;  209.925;    0.000
313.139; 2706.300;  185.925;    0.000
313.200; 2740.300;  180.925;    0.000
313.261; 2745.300;  220.925;    0.000
313.323; 2714.300;  171.925;    0.000
313.384; 2701.300;  180.925;    0.000
313.446; 2746.300;  202.925;    0.000
313.507; 2643.300;  172.925;    0.000
313.568; 2673.300;  192.925;    0.000
313.630; 2666.300;  191.925;    0.000
313.691; 2703.300;  176.925;    0.000
313.752; 2704.300;  175.925;    0.000
313.814; 2688.300;  202.925;    0.000
313.875; 2713.300;  186.925;    0.000
313.936; 2752.300;  199.925;    0.000
313.998; 2620.300;  164.925;    0.000
314.059; 2629.300;  159.925;    0.000
314.120; 2579.300;  175.925;    0.000
314.182; 2653.300;  181.925;    0.000
314.243; 2751.300;  157.925;    0.000
314.304; 2659.300;  168.925;    0.000
314.365; 2737.300;  203.925;    0.000
314.427; 2666.300;  151.925;    0.000
314.488; 2755.300;  174.925;    0.000
314.549; 2746.300;  184.925;    0.000
314.610; 2620.300;  198.925;    0.000
314.672; 2721.300;  193.925;    0.000
314.733; 2656.300;  171.925;    0.000
314.794; 2686.300;  141.925;    0.000
314.855; 2696.300;  184.925;    0.000
314.917; 2765.300;  175.925;    0.000
314.978; 2709.300;  190.925;    0.000
315.039; 2725.300;  183.925;    0.000
315.100; 2684.300;  204.925;    0.000
315.161; 2663.300;  202.925;    0.000
315.222; 2735.300;  177.925;    0.000
315.283; 2673.300;  191.925;    0.000
315.345; 2717.300;  185.925;    0.000
315.406; 2721.300;  194.925;    0.000
315.467; 2658.300;  167.925;    0.000
315.528; 2744.300;  174.925;    0.000
315.589; 2723.300;  197.925;    0.000
315.650; 2701.300;  192.925;    0.000
315.711; 2737.300;  181.925;    0.000
315.772; 2688.300;  157.925;    0.000
315.833; 2633.300;  189.925;    0.000
315.894; 2722.300;  184.925;    0.000
315.955; 2723.300;  202.925;    0.000
316.016; 2711.300;  220.925;    0.000
316.078; 2635.300;  180.925;    0.000
316.139; 2699.300;  240.925;    0.000
316.200; 2704.300;  190.925;    0.000
316.261; 2556.300;  179.925;    0.000
316.322; 2606.300;  176.925;    0.000
316.383; 2612.300;  188.925;    0.000
316.444; 2632.300;  228.925;    0.000
316.504; 2703.300;  199.925;    0.000
316.565; 2703.300;  221.925;    0.000
316.626; 2708.300;  204.925;    0.000
316.687; 2723.300;  192.925;    0.000
316.748; 2667.300;  220.925;    0.000
316.809; 2706.300;  175.925;    0.000
316.870; 2648.300;  164.925;    0.000
316.931; 2659.300;  208.925;    0.000
316.992; 2790.300;  224.925;    0.000
317.053; 2740.300;  204.925;    0.000
317.114; 2678.300;  199.925;    0.000
317.175; 2733.300;  230.925;    0.000
317.235; 2674.300;  186.925;    0.000
317.296; 2562.300;  224.925;    0.000
317.357; 2675.300;  154.925;    0.000
317.418; 2696.300;  219.925;    0.000
317.479; 2709.300;  229.925;    0.000
317.540; 2674.300;  201.925;    0.000
317.601; 2654.300;  180.925;    0.000
317.661; 2720.300;  179.925;    0.000
317.722; 2677.300;  193.925;    0.000
317.783; 2617.300;  164.925;    0.000
317.844; 2736.300;  232.925;    0.000
317.904; 2738.300;  222.925;    0.000
317.965; 2753.300;  199.925;    0.000
318.026; 2705.300;  200.925;    0.000
318.087; 2717.300;  182.925;    0.000
318.148; 2619.300;  216.925;    0.000
318.208; 2630.300;  239.925;    0.000
318.269; 2657.300;  163.925;    0.000
318.330; 2765.300;  204.925;    0.000
318.390; 2701.300;  191.925;    0.000
318.451; 2640.300;  200.925;    0.000
318.512; 2666.300;  181.925;    0.000
318.572; 2703.300;  233.925;    0.000
318.633; 2665.300;  220.925;    0.000
318.694; 2679.300;  179.925;    0.000
318.754; 2695.300;  214.925;    0.000
318.815; 2674.300;  214.925;    0.000
318.876; 2732.300;  220.925;    0.000
318.936; 2695.300;  212.925;    0.000
318.997; 2664.300;  201.925;    0.000
319.058; 2674.300;  215.925;    0.000
319.118; 2778.300;  251.925;    0.000
319.179; 2729.300;  240.925;    0.000
319.239; 2690.300;  240.925;    0.000
319.300; 2765.300;  232.925;    0.000
319.361; 2664.300;  211.925;    0.000
319.421; 2706.300;  219.925;    0.000
319.482; 2667.300;  228.925;    0.000
319.542; 2554.300;  216.925;    0.000
319.603; 2629.300;  190.925;    0.000
319.663; 2639.300;  227.925;    0.000
319.724; 2666.300;  191.925;    0.000
319.784; 2716.300;  196.925;    0.000
319.845; 2698.300;  190.925;    0.000
319.905; 2611.300;  221.925;    0.000
319.966; 2640.300;  219.925;    0.000
320.026; 2632.300;  233.925;    0.000
320.087; 2653.300;  204.925;    0.000
320.147; 2690.300;  189.925;    0.000
320.208; 2678.300;  200.925;    0.000
320.268; 2693.300;  217.925;    0.000
320.329; 2679.300;  216.925;    0.000
320.389; 2691.300;  228.925;    0.000
320.449; 2620.300;  236.925;    0.000
320.510; 2680.300;  234.925;    0.000
320.570; 2657.300;  176.925;    0.000
320.631; 2622.300;  228.925;    0.000
320.691; 2712.300;  228.925;    0.000
320.751; 2649.300;  188.925;    0.000
320.812; 2615.300;  223.925;    0.000
320.872; 2623.300;  268.925;    0.000
320.932; 2718.300;  226.925;    0.000
320.993; 2677.300;  216.925;    0.000
321.053; 2697.300;  236.925;    0.000
321.113; 2636.300;  197.925;    0.000
321.174; 2704.300;  218.925;    0.000
321.234; 2696.300;  229.925;    0.000
321.294; 2653.300;  208.925;    0.000
321.355; 2627.300;  248.925;    0.000
321.415; 2639.300;  218.925;    0.000
321.475; 2599.300;  173.925;    0.000
321.535; 2619.300;  234.925;    0.000
321.596; 2673.300;  202.925;    0.000
321.656; 2592.300;  246.925;    0.000
321.716; 2604.300;  235.925;    0.000
321.776; 2652.300;  210.925;    0.000
321.837; 2586.300;  217.925;    0.000
321.897; 2591.300;  215.925;    0.000
321.957; 2675.300;  239.925;    0.000
322.017; 2581.300;  173.925;    0.000
322.077; 2673.300;  263.925;    0.000
322.138; 2652.300;  232.925;    0.000
322.198; 2674.300;  211.925;    0.000
322.258; 2618.300;  213.925;    0.000
322.318; 2639.300;  168.925;    0.000
322.378; 2647.300;  251.925;    0.000
322.438; 2575.300;  212.925;    0.000
322.499; 2600.300;  265.925;    0.000
322.559; 2508.300;  210.925;    0.000
322.619; 2596.300;  242.925;    0.000
322.679; 2498.300;  229.925;    0.000
322.739; 2546.300;  216.925;    0.000
322.799; 2539.300;  238.925;    0.000
322.859; 2685.300;  249.925;    0.000
322.919; 2619.300;  211.925;    0.000
322.979; 2682.300;  244.925;    0.000
323.039; 2582.300;  226.925;    0.000
323.099; 2524.300;  223.925;    0.000
323.159; 2659.300;  232.925;    0.000
323.219; 2594.300;  203.925;    0.000
323.279; 2666.300;  218.925;    0.000
323.339; 2634.300;  231.925;    0.000
323.399; 2667.300;  255.925;    0.000
323.459; 2678.300;  244.925;    0.000
323.519; 2682.300;  213.925;    0.000
323.579; 2542.300;  193.925;    0.000
323.639; 2634.300;  191.925;    0.000
323.699; 2584.300;  199.925;    0.000
323.759; 2680.300;  246.925;    0.000
323.819; 2602.300;  206.925;    0.000
323.879; 2650.300;  238.925;    0.000
323.939; 2514.300;  229.925;    0.000
323.999; 2551.300;  219.925;    0.000
324.059; 2571.300;  177.925;    0.000
324.119; 2578.300;  235.925;    0.000
324.178; 2598.300;  211.925;    0.000
324.238; 2564.300;  168.925;    0.000
324.298; 2572.300;  205.925;    0.000
324.358; 2566.300;  224.925;    0.000
324.418; 2582.300;  235.925;    0.000
324.478; 2468.300;  187.925;    0.000
324.538; 2549.300;  230.925;    0.000
324.597; 2507.300;  206.925;    0.000
324.657; 2636.300;  180.925;    0.000
324.717; 2524.300;  175.925;    0.000
324.777; 2497.300;  169.925;    0.000
324.837; 2585.300;  165.925;    0.000
324.896; 2556.300;  205.925;    0.000
324.956; 2629.300;  216.925;    0.000
325.016; 2583.300;  197.925;    0.000
325.076; 2471.300;  220.925;    0.000
325.135; 2505.300;  242.925;    0.000
325.195; 2571.300;  186.925;    0.000
325.255; 2519.300;  160.925;    0.000
325.315; 2660.300;  198.925;    0.000
325.374; 2544.300;  208.925;    0.000
325.434; 2549.300;  209.925;    0.000
325.494; 2572.300;  191.925;    0.000
325.553; 2618.300;  190.925;    0.000
325.613; 2531.300;  229.925;    0.000
325.673; 2473.300;  172.925;    0.000
325.732; 2643.300;  160.925;    0.000
325.792; 2565.300;  177.925;    0.000
325.852; 2522.300;  201.925;    0.000
325.911; 2544.300;  226.925;    0.000
325.971; 2593.300;  224.925;    0.000
326.031; 2496.300;  202.925;    0.000
326.090; 2591.300;  232.925;    0.000
326.150; 2560.300;  230.925;    0.000
326.209; 2549.300;  201.925;    0.000
326.269; 2553.300;  202.925;    0.000
326.328; 2571.300;  203.925;    0.000
326.388; 2554.300;  194.925;    0.000
326.448; 2573.300;  233.925;    0.000
326.507; 2545.300;  192.925;    0.000
326.567; 2541.300;  163.925;    0.000
326.626; 2648.300;  227.925;    0.000
326.686; 2574.300;  177.925;    0.000
326.745; 2587.300;  210.925;    0.000
326.805; 2529.300;  198.925;    0.000
326.864; 2571.300;  185.925;    0.000
326.924; 2587.300;  255.925;    0.000
326.983; 2492.300;  208.925;    0.000
327.043; 2532.300;  241.925;    0.000
327.102; 2467.300;  183.925;    0.000
327.161; 2562.300;  210.925;    0.000
327.221; 2602.300;  213.925;    0.000
327.280; 2557.300;  194.925;    0.000
327.340; 2503.300;  212.925;    0.000
327.399; 2542.300;  209.925;    0.000
327.459; 2580.300;  229.925;    0.000
327.518; 2484.300;  196.925;    0.000
327.577; 2539.300;  197.925;    0.000
327.637; 2422.300;  210.925;    0.000
327.696; 2434.300;  196.925;    0.000
327.755; 2521.300;  216.925;    0.000
327.815; 2543.300;  240.925;    0.000
327.874; 2550.300;  250.925;    0.000
327.933; 2452.300;  229.925;    0.000
327.993; 2538.300;  202.925;    0.000
328.052; 2507.300;  178.925;    0.000
328.111; 2612.300;  230.925;    0.000
328.171; 2484.300;  207.925;    0.000
328.230; 2629.300;  170.925;    0.000
328.289; 2640.300;  205.925;    0.000
328.349; 2574.300;  235.925;    0.000
328.408; 2553.300;  231.925;    0.000
328.467; 2599.300;  217.925;    0.000
328.526; 2555.300;  239.925;    0.000
328.586; 2575.300;  214.925;    0.000
328.645; 2604.300;  205.925;    0.000
328.704; 2589.300;  211.925;    0.000
328.763; 2592.300;  208.925;    0.000
328.822; 2498.300;  251.925;    0.000
328.882; 2512.300;  211.925;    0.000
328.941; 2607.300;  232.925;    0.000
329.000; 2535.300;  235.925;    0.000
329.059; 2611.300;  222.925;    0.000
329.118; 2592.300;  265.925;    0.000
329.177; 2529.300;  237.925;    0.000
329.237; 2544.300;  258.925;    0.000
329.296; 2696.300;  225.925;    0.000
329.355; 2612.300;  227.925;    0.000
329.414; 2669.300;  212.925;    0.000
329.473; 2703.300;  250.925;    0.000
329.532; 2727.300;  263.925;    0.000
329.591; 2701.300;  212.925;    0.000
329.650; 2731.300;  219.925;    0.000
329.709; 2741.300;  218.925;    0.000
329.768; 2902.300;  195.925;    0.000
329.827; 2856.300;  223.925;    0.000
329.886; 3011.300;  230.925;    0.000
329.945; 3134.300;  211.925;    0.000
330.004; 3375.300;  247.925;    0.000
330.063; 3658.300;  193.925;    0.000
330.122; 4279.300;  229.925;    0.000
330.181; 4704.300;  223.925;    0.000
330.240; 4650.300;  199.925;    0.000
330.299; 4132.300;  211.925;    0.000
330.358; 3578.300;  198.925;    0.000
330.417; 3186.300;  190.925;    0.000
330.476; 3027.300;  237.925;    0.000
330.535; 2898.300;  239.925;    0.000
330.594; 2713.300;  207.925;    0.000
330.653; 2680.300;  193.925;    0.000
330.712; 2640.300;  225.925;    0.000
330.771; 2622.300;  236.925;    0.000
330.830; 2482.300;  219.925;    0.000
330.889; 2501.300;  211.925;    0.000
330.948; 2565.300;  194.925;    0.000
331.006; 2627.300;  190.925;    0.000
331.065; 2514.300;  192.925;    0.000
331.124; 2454.300;  195.925;    0.000
331.183; 2435.300;  191.925;    0.000
331.242; 2457.300;  203.925;    0.000
331.301; 2470.300;  183.925;    0.000
331.359; 2424.300;  196.925;    0.000
331.418; 2412.300;  209.925;    0.000
331.477; 2458.300;  255.925;    0.000
331.536; 2477.300;  237.925;    0.000
331.595; 2426.300;  217.925;    0.000
331.653; 2391.300;  198.925;    0.000
331.712; 2405.300;  194.925;    0.000
331.771; 2410.300;  229.925;    0.000
331.830; 2425.300;  254.925;    0.000
331.888; 2426.300;  218.925;    0.000
331.947; 2466.300;  211.925;    0.000
332.006; 2459.300;  261.925;    0.000
332.065; 2382.300;  204.925;    0.000
332.123; 2427.300;  225.925;    0.000
332.182; 2356.300;  193.925;    0.000
332.241; 2358.300;  201.925;    0.000
332.299; 2352.300;  182.925;    0.000
332.358; 2366.300;  244.925;    0.000
332.417; 2310.300;  218.925;    0.000
332.475; 2309.300;  218.925;    0.000
332.534; 2366.300;  228.925;    0.000
332.592; 2357.300;  199.925;    0.000
332.651; 2350.300;  204.925;    0.000
332.710; 2380.300;  217.925;    0.000
332.768; 2517.300;  195.925;    0.000
332.827; 2420.300;  182.925;    0.000
332.885; 2471.300;  247.925;    0.000
332.944; 2328.300;  170.925;    0.000
333.003; 2369.300;  200.925;    0.000
333.061; 2381.300;  243.925;    0.000
333.120; 2475.300;  235.925;    0.000
333.178; 2410.300;  195.925;    0.000
333.237; 2333.300;  217.925;    0.000
333.295; 2511.300;  252.925;    0.000
333.354; 2437.300;  201.925;    0.000
333.412; 2424.300;  181.925;    0.000
333.471; 2394.300;  239.925;    0.000
333.529; 2413.300;  214.925;    0.000
333.588; 2562.300;  232.925;    0.000
333.646; 2439.300;  202.925;    0.000
333.705; 2505.300;  232.925;    0.000
333.763; 2384.300;  215.925;    0.000
333.822; 2565.300;  187.925;    0.000
333.880; 2470.300;  186.925;    0.000
333.938; 2462.300;  185.925;    0.000
333.997; 2419.300;  234.925;    0.000
334.055; 2493.300;  255.925;    0.000
334.114; 2463.300;  225.925;    0.000
334.172; 2362.300;  209.925;    0.000
334.230; 2416.300;  194.925;    0.000
334.289; 2376.300;  213.925;    0.000
334.347; 2351.300;  235.925;    0.000
334.405; 2490.300;  242.925;    0.000
334.464; 2450.300;  208.925;    0.000
334.522; 2509.300;  197.925;    0.000
334.580; 2457.300;  204.925;    0.000
334.639; 2386.300;  217.925;    0.000
334.697; 2432.300;  183.925;    0.000
334.755; 2472.300;  196.925;    0.000
334.814; 2421.300;  216.925;    0.000
334.872; 2335.300;  190.925;    0.000
334.930; 2428.300;  162.925;    0.000
334.988; 2381.300;  261.925;    0.000
335.047; 2467.300;  220.925;    0.000
335.105; 2447.300;  190.925;    0.000
335.163; 2342.300;  201.925;    0.000
335.221; 2343.300;  213.925;    0.000
335.280; 2375.300;  202.925;    0.000
335.338; 2426.300;  210.925;    0.000
335.396; 2420.300;  255.925;    0.000
335.454; 2396.300;  216.925;    0.000
335.512; 2424.300;  242.925;    0.000
335.570; 2402.300;  227.925;    0.000
335.629; 2440.300;  225.925;    0.000
335.687; 2523.300;  227.925;    0.000
335.745; 2511.300;  194.925;    0.000
335.803; 2479.300;  221.925;    0.000
335.861; 2402.300;  217.925;    0.000
335.919; 2453.300;  214.925;    0.000
335.977; 2488.300;  209.925;    0.000
336.035; 2428.300;  215.925;    0.000
336.094; 2330.300;  198.925;    0.000
336.152; 2482.300;  222.925;    0.000
336.210; 2525.300;  225.925;    0.000
336.268; 2393.300;  234.925;    0.000
336.326; 2449.300;  209.925;    0.000
336.384; 2470.300;  271.925;    0.000
336.442; 2358.300;  207.925;    0.000
336.500; 2445.300;  226.925;    0.000
336.558; 2417.300;  219.925;    0.000
336.616; 2465.300;  260.925;    0.000
336.674; 2506.300;  205.925;    0.000
336.732; 2370.300;  225.925;    0.000
336.790; 2399.300;  191.925;    0.000
336.848; 2471.300;  219.925;    0.000
336.906; 2405.300;  230.925;    0.000
336.964; 2438.300;  226.925;    0.000
337.022; 2500.300;  266.925;    0.000
337.080; 2474.300;  231.925;    0.000
337.138; 2396.300;  249.925;    0.000
337.195; 2467.300;  207.925;    0.000
337.253; 2494.300;  207.925;    0.000
337.311; 2407.300;  225.925;    0.000
337.369; 2386.300;  211.925;    0.000
337.427; 2379.300;  196.925;    0.000
337.485; 2440.300;  269.925;    0.000
337.543; 2462.300;  227.925;    0.000
337.601; 2378.300;  260.925;    0.000
337.658; 2394.300;  237.925;    0.000
337.716; 2454.300;  222.925;    0.000
337.774; 2489.300;  256.925;    0.000
337.832; 2386.300;  223.925;    0.000
337.890; 2350.300;  188.925;    0.000
337.947; 2342.300;  212.925;    0.000
338.005; 2346.300;  217.925;    0.000
338.063; 2359.300;  200.925;    0.000
338.121; 2388.300;  217.925;    0.000
338.178; 2390.300;  236.925;    0.000
338.236; 2404.300;  218.925;    0.000
338.294; 2370.300;  238.925;    0.000
338.352; 2422.300;  266.925;    0.000
338.409; 2375.300;  240.925;    0.000
338.467; 2426.300;  210.925;    0.000
338.525; 2301.300;  255.925;    0.000
338.583; 2330.300;  239.925;    0.000
338.640; 2348.300;  243.925;    0.000
338.698; 2356.300;  204.925;    0.000
338.756; 2306.300;  219.925;    0.000
338.813; 2337.300;  227.925;    0.000
338.871; 2388.300;  227.925;    0.000
338.928; 2295.300;  211.925;    0.000
338.986; 2357.300;  254.925;    0.000
339.044; 2330.300;  207.925;    0.000
339.101; 2365.300;  229.925;    0.000
339.159; 2345.300;  237.925;    0.000
339.216; 2302.300;  231.925;    0.000
339.274; 2329.300;  301.925;    0.000
339.332; 2276.300;  259.925;    0.000
339.389; 2375.300;  258.925;    0.000
339.447; 2397.300;  226.925;    0.000
339.504; 2358.300;  229.925;    0.000
339.562; 2363.300;  244.925;    0.000
339.619; 2357.300;  265.925;    0.000
339.677; 2370.300;  253.925;    0.000
339.734; 2357.300;  191.925;    0.000
339.792; 2362.300;  238.925;    0.000
339.849; 2332.300;  236.925;    0.000
339.907; 2383.300;  254.925;    0.000
339.964; 2344.300;  196.925;    0.000
340.022; 2317.300;  247.925;    0.000
340.079; 2364.300;  275.925;    0.000
340.137; 2357.300;  248.925;    0.000
340.194; 2340.300;  263.925;    0.000
340.252; 2245.300;  266.925;    0.000
340.309; 2307.300;  211.925;    0.000
340.366; 2367.300;  237.925;    0.000
340.424; 2397.300;  260.925;    0.000
340.481; 2385.300;  255.925;    0.000
340.538; 2337.300;  235.925;    0.000
340.596; 2372.300;  225.925;    0.000
340.653; 2400.300;  230.925;    0.000
340.711; 2321.300;  272.925;    0.000
340.768; 2339.300;  253.925;    0.000
340.825; 2241.300;  201.925;    0.000
340.883; 2409.300;  232.925;    0.000
340.940; 2361.300;  247.925;    0.000
340.997; 2303.300;  244.925;    0.000
341.054; 2286.300;  244.925;    0.000
341.112; 2379.300;  258.925;    0.000
341.169; 2359.300;  238.925;    0.000
341.226; 2347.300;  213.925;    0.000
341.284; 2292.300;  240.925;    0.000
341.341; 2278.300;  194.925;    0.000
341.398; 2328.300;  191.925;    0.000
341.455; 2348.300;  227.925;    0.000
341.512; 2368.300;  238.925;    0.000
341.570; 2395.300;  236.925;    0.000
341.627; 2346.300;  241.925;    0.000
341.684; 2377.300;  225.925;    0.000
341.741; 2363.300;  299.925;    0.000
341.798; 2311.300;  265.925;    0.000
341.856; 2280.300;  230.925;    0.000
341.913; 2380.300;  234.925;    0.000
341.970; 2373.300;  260.925;    0.000
342.027; 2334.300;  255.925;    0.000
342.084; 2340.300;  260.925;    0.000
342.141; 2321.300;  263.925;    0.000
342.198; 2351.300;  245.925;    0.000
342.255; 2271.300;  210.925;    0.000
342.313; 2378.300;  251.925;    0.000
342.370; 2407.300;  234.925;    0.000
342.427; 2349.300;  249.925;    0.000
342.484; 2312.300;  254.925;    0.000
342.541; 2290.300;  229.925;    0.000
342.598; 2324.300;  255.925;    0.000
342.655; 2358.300;  225.925;    0.000
342.712; 2277.300;  224.925;    0.000
342.769; 2371.300;  215.925;    0.000
342.826; 2346.300;  240.925;    0.000
342.883; 2355.300;  233.925;    0.000
342.940; 2360.300;  212.925;    0.000
342.997; 2297.300;  236.925;    0.000
343.054; 2356.300;  255.925;    0.000
343.111; 2332.300;  228.925;    0.000
343.168; 2462.300;  230.925;    0.000
343.225; 2375.300;  258.925;    0.000
343.282; 2375.300;  202.925;    0.000
343.339; 2437.300;  253.925;    0.000
343.395; 2413.300;  232.925;    0.000
343.452; 2424.300;  253.925;    0.000
343.509; 2386.300;  213.925;    0.000
343.566; 2434.300;  259.925;    0.000
343.623; 2469.300;  244.925;    0.000
343.680; 2459.300;  232.925;    0.000
343.737; 2523.300;  222.925;    0.000
343.794; 2592.300;  204.925;    0.000
343.850; 2504.300;  249.925;    0.000
343.907; 2559.300;  212.925;    0.000
343.964; 2574.300;  226.925;    0.000
344.021; 2542.300;  251.925;    0.000
344.078; 2541.300;  246.925;    0.000
344.134; 2459.300;  218.925;    0.000
344.191; 2538.300;  244.925;    0.000
344.248; 2486.300;  211.925;    0.000
344.305; 2538.300;  221.925;    0.000
344.361; 2469.300;  247.925;    0.000
344.418; 2526.300;  265.925;    0.000
344.475; 2498.300;  254.925;    0.000
344.532; 2562.300;  233.925;    0.000
344.588; 2614.300;  236.925;    0.000
344.645; 2507.300;  249.925;    0.000
344.702; 2442.300;  220.925;    0.000
344.758; 2534.300;  255.925;    0.000
344.815; 2482.300;  236.925;    0.000
344.872; 2472.300;  218.925;    0.000
344.928; 2420.300;  230.925;    0.000
344.985; 2472.300;  222.925;    0.000
345.042; 2480.300;  199.925;    0.000
345.098; 2402.300;  226.925;    0.000
345.155; 2509.300;  245.925;    0.000
345.212; 2511.300;  225.925;    0.000
345.268; 2599.300;  237.925;    0.000
345.325; 2399.300;  213.925;    0.000
345.381; 2576.300;  267.925;    0.000
345.438; 2489.300;  240.925;    0.000
345.495; 2490.300;  254.925;    0.000
345.551; 2560.300;  248.925;    0.000
345.608; 2450.300;  196.925;    0.000
345.664; 2461.300;  245.925;    0.000
345.721; 2521.300;  252.925;    0.000
345.777; 2450.300;  245.925;    0.000
345.834; 2485.300;  210.925;    0.000
345.890; 2360.300;  244.925;    0.000
345.947; 2433.300;  238.925;    0.000
346.003; 2497.300;  224.925;    0.000
346.060; 2376.300;  206.925;    0.000
346.116; 2535.300;  237.925;    0.000
346.173; 2447.300;  242.925;    0.000
346.229; 2455.300;  269.925;    0.000
346.285; 2485.300;  262.925;    0.000
346.342; 2495.300;  263.925;    0.000
346.398; 2576.300;  224.925;    0.000
346.455; 2510.300;  237.925;    0.000
346.511; 2572.300;  216.925;    0.000
346.567; 2539.300;  211.925;    0.000
346.624; 2598.300;  225.925;    0.000
346.680; 2515.300;  242.925;    0.000
346.737; 2580.300;  244.925;    0.000
346.793; 2481.300;  260.925;    0.000
346.849; 2542.300;  251.925;    0.000
346.906; 2554.300;  260.925;    0.000
346.962; 2596.300;  267.925;    0.000
347.018; 2589.300;  246.925;    0.000
347.074; 2565.300;  272.925;    0.000
347.131; 2576.300;  211.925;    0.000
347.187; 2494.300;  240.925;    0.000
347.243; 2557.300;  233.925;    0.000
347.300; 2525.300;  225.925;    0.000
347.356; 2551.300;  236.925;    0.000
347.412; 2575.300;  237.925;    0.000
347.468; 2570.300;  284.925;    0.000
347.524; 2547.300;  252.925;    0.000
347.581; 2593.300;  278.925;    0.000
347.637; 2546.300;  262.925;    0.000
347.693; 2526.300;  268.925;    0.000
347.749; 2550.300;  260.925;    0.000
347.805; 2438.300;  224.925;    0.000
347.862; 2581.300;  243.925;    0.000
347.918; 2582.300;  257.925;    0.000
347.974; 2590.300;  248.925;    0.000
348.030; 2538.300;  242.925;    0.000
348.086; 2472.300;  234.925;    0.000
348.142; 2539.300;  239.925;    0.000
348.198; 2596.300;  260.925;    0.000
348.254; 2562.300;  262.925;    0.000
348.311; 2530.300;  263.925;    0.000
348.367; 2605.300;  235.925;    0.000
348.423; 2442.300;  205.925;    0.000
348.479; 2581.300;  234.925;    0.000
348.535; 2548.300;  257.925;    0.000
348.591; 2584.300;  267.925;    0.000
348.647; 2599.300;  243.925;    0.000
348.703; 2678.300;  278.925;    0.000
348.759; 2613.300;  259.925;    0.000
348.815; 2575.300;  288.925;    0.000
348.871; 2585.300;  269.925;    0.000
348.927; 2652.300;  239.925;    0.000
348.983; 2514.300;  289.925;    0.000
349.039; 2577.300;  221.925;    0.000
349.095; 2566.300;  252.925;    0.000
349.151; 2581.300;  226.925;    0.000
349.207; 2629.300;  263.925;    0.000
349.263; 2602.300;  194.925;    0.000
349.319; 2635.300;  212.925;    0.000
349.374; 2596.300;  236.925;    0.000
349.430; 2567.300;  229.925;    0.000
349.486; 2655.300;  247.925;    0.000
349.542; 2660.300;  263.925;    0.000
349.598; 2560.300;  248.925;    0.000
349.654; 2677.300;  252.925;    0.000
349.710; 2726.300;  230.925;    0.000
349.766; 2676.300;  201.925;    0.000
349.821; 2627.300;  229.925;    0.000
349.877; 2615.300;  282.925;    0.000
349.933; 2587.300;  240.925;    0.000
349.989; 2608.300;  251.925;    0.000
350.045; 2621.300;  240.925;    0.000
350.100; 2610.300;  256.925;    0.000
350.156; 2660.300;  243.925;    0.000
350.212; 2556.300;  250.925;    0.000
350.268; 2561.300;  251.925;    0.000
350.323; 2611.300;  208.925;    0.000
350.379; 2618.300;  244.925;    0.000
350.435; 2573.300;  237.925;    0.000
350.491; 2509.300;  201.925;    0.000
350.546; 2599.300;  225.925;    0.000
350.602; 2652.300;  260.925;    0.000
350.658; 2580.300;  224.925;    0.000
350.713; 2601.300;  264.925;    0.000
350.769; 2629.300;  196.925;    0.000
350.825; 2678.300;  202.925;    0.000
350.880; 2631.300;  232.925;    0.000
350.936; 2607.300;  242.925;    0.000
350.992; 2461.300;  238.925;    0.000
351.047; 2639.300;  242.925;    0.000
351.103; 2728.300;  199.925;    0.000
351.158; 2670.300;  242.925;    0.000
351.214; 2626.300;  225.925;    0.000
351.270; 2683.300;  197.925;    0.000
351.325; 2640.300;  231.925;    0.000
351.381; 2709.300;  215.925;    0.000
351.436; 2612.300;  233.925;    0.000
351.492; 2674.300;  216.925;    0.000
351.547; 2758.300;  244.925;    0.000
351.603; 2691.300;  249.925;    0.000
351.658; 2649.300;  249.925;    0.000
351.714; 2647.300;  222.925;    0.000
351.769; 2640.300;  222.925;    0.000
351.825; 2740.300;  226.925;    0.000
351.880; 2604.300;  238.925;    0.000
351.936; 2735.300;  230.925;    0.000
351.991; 2724.300;  243.925;    0.000
352.047; 2619.300;  201.925;    0.000
352.102; 2551.300;  243.925;    0.000
352.158; 2631.300;  193.925;    0.000
352.213; 2570.300;  219.925;    0.000
352.268; 2613.300;  205.925;    0.000
352.324; 2606.300;  246.925;    0.000
352.379; 2586.300;  247.925;    0.000
352.434; 2624.300;  252.925;    0.000
352.490; 2658.300;  205.925;    0.000
352.545; 2679.300;  262.925;    0.000
352.601; 2638.300;  229.925;    0.000
352.656; 2714.300;  207.925;    0.000
352.711; 2583.300;  228.925;    0.000
352.767; 2674.300;  216.925;    0.000
352.822; 2614.300;  219.925;    0.000
352.877; 2662.300;  234.925;    0.000
352.932; 2668.300;  249.925;    0.000
352.988; 2694.300;  196.925;    0.000
353.043; 2700.300;  228.925;    0.000
353.098; 2694.300;  231.925;    0.000
353.153; 2638.300;  235.925;    0.000
353.209; 2713.300;  250.925;    0.000
353.264; 2670.300;  212.925;    0.000
353.319; 2705.300;  234.925;    0.000
353.374; 2738.300;  245.925;    0.000
353.430; 2676.300;  261.925;    0.000
353.485; 2699.300;  249.925;    0.000
353.540; 2688.300;  260.925;    0.000
353.595; 2661.300;  219.925;    0.000
353.650; 2696.300;  242.925;    0.000
353.705; 2689.300;  244.925;    0.000
353.761; 2616.300;  242.925;    0.000
353.816; 2699.300;  214.925;    0.000
353.871; 2653.300;  237.925;    0.000
353.926; 2673.300;  233.925;    0.000
353.981; 2709.300;  250.925;    0.000
354.036; 2689.300;  239.925;    0.000
354.091; 2708.300;  289.925;    0.000
354.146; 2683.300;  282.925;    0.000
354.201; 2741.300;  244.925;    0.000
354.256; 2607.300;  257.925;    0.000
354.311; 2699.300;  305.925;    0.000
354.367; 2709.300;  220.925;    0.000
354.422; 2632.300;  261.925;    0.000
354.477; 2597.300;  212.925;    0.000
354.532; 2726.300;  254.925;    0.000
354.587; 2594.300;  252.925;    0.000
354.642; 2667.300;  210.925;    0.000
354.697; 2739.300;  232.925;    0.000
354.751; 2699.300;  254.925;    0.000
354.806; 2688.300;  233.925;    0.000
354.861; 2774.300;  244.925;    0.000
354.916; 2724.300;  235.925;    0.000
354.971; 2700.300;  258.925;    0.000
355.026; 2686.300;  251.925;    0.000
355.081; 2697.300;  254.925;    0.000
355.136; 2692.300;  212.925;    0.000
355.191; 2707.300;  211.925;    0.000
355.246; 2709.300;  237.925;    0.000
355.301; 2728.300;  255.925;    0.000
355.355; 2751.300;  231.925;    0.000
355.410; 2689.300;  224.925;    0.000
355.465; 2674.300;  235.925;    0.000
355.520; 2693.300;  244.925;    0.000
355.575; 2737.300;  267.925;    0.000
355.630; 2678.300;  255.925;    0.000
355.684; 2743.300;  254.925;    0.000
355.739; 2670.300;  217.925;    0.000
355.794; 2691.300;  206.925;    0.000
355.849; 2619.300;  221.925;    0.000
355.904; 2736.300;  257.925;    0.000
355.958; 2600.300;  221.925;    0.000
356.013; 2658.300;  192.925;    0.000
356.068; 2720.300;  267.925;    0.000
356.123; 2782.300;  218.925;    0.000
356.177; 2657.300;  236.925;    0.000
356.232; 2657.300;  236.925;    0.000
356.287; 2776.300;  246.925;    0.000
356.341; 2689.300;  241.925;    0.000
356.396; 2740.300;  219.925;    0.000
356.451; 2717.300;  244.925;    0.000
356.505; 2697.300;  248.925;    0.000
356.560; 2801.300;  267.925;    0.000
356.615; 2737.300;  258.925;    0.000
356.669; 2715.300;  291.925;    0.000
356.724; 2655.300;  272.925;    0.000
356.778; 2669.300;  244.925;    0.000
356.833; 2653.300;  223.925;    0.000
356.888; 2679.300;  245.925;    0.000
356.942; 2718.300;  221.925;    0.000
356.997; 2736.300;  254.925;    0.000
357.051; 2665.300;  244.925;    0.000
357.106; 2739.300;  227.925;    0.000
357.160; 2678.300;  176.925;    0.000
357.215; 2640.300;  234.925;    0.000
357.269; 2729.300;  233.925;    0.000
357.324; 2739.300;  232.925;    0.000
357.378; 2730.300;  211.925;    0.000
357.433; 2688.300;  252.925;    0.000
357.487; 2739.300;  227.925;    0.000
357.542; 2689.300;  246.925;    0.000
357.596; 2644.300;  260.925;    0.000
357.651; 2732.300;  301.925;    0.000
357.705; 2717.300;  230.925;    0.000
357.760; 2688.300;  211.925;    0.000
357.814; 2661.300;  265.925;    0.000
357.868; 2711.300;  220.925;    0.000
357.923; 2727.300;  220.925;    0.000
357.977; 2669.300;  245.925;    0.000
358.032; 2723.300;  247.925;    0.000
358.086; 2701.300;  242.925;    0.000
358.140; 2710.300;  270.925;    0.000
358.195; 2728.300;  242.925;    0.000
358.249; 2679.300;  238.925;    0.000
358.303; 2792.300;  285.925;    0.000
358.358; 2787.300;  265.925;    0.000
358.412; 2680.300;  265.925;    0.000
358.466; 2703.300;  257.925;    0.000
358.521; 2764.300;  251.925;    0.000
358.575; 2695.300;  254.925;    0.000
358.629; 2672.300;  278.925;    0.000
358.683; 2657.300;  288.925;    0.000
358.738; 2730.300;  302.925;    0.000
358.792; 2725.300;  239.925;    0.000
358.846; 2678.300;  293.925;    0.000
358.900; 2761.300;  271.925;    0.000
358.954; 2753.300;  300.925;    0.000
359.009; 2732.300;  279.925;    0.000
359.063; 2611.300;  249.925;    0.000
359.117; 2710.300;  264.925;    0.000
359.171; 2685.300;  279.925;    0.000
359.225; 2757.300;  276.925;    0.000
359.280; 2751.300;  237.925;    0.000
359.334; 2738.300;  280.925;    0.000
359.388; 2750.300;  282.925;    0.000
359.442; 2647.300;  243.925;    0.000
359.496; 2659.300;  204.925;    0.000
359.550; 2706.300;  308.925;    0.000
359.604; 2798.300;  264.925;    0.000
359.658; 2642.300;  247.925;    0.000
359.712; 2706.300;  273.925;    0.000
359.766; 2666.300;  212.925;    0.000
359.820; 2738.300;  228.925;    0.000
359.875; 2684.300;  248.925;    0.000
359.929; 2760.300;  271.925;    0.000
359.983; 2756.300;  274.925;    0.000
360.037; 2670.300;  262.925;    0.000
360.091; 2750.300;  302.925;    0.000
360.145; 2685.300;  244.925;    0.000
360.199; 2723.300;  253.925;    0.000
360.253; 2723.300;  285.925;    0.000
360.306; 2714.300;  287.925;    0.000
360.360; 2632.300;  267.925;    0.000
360.414; 2671.300;  250.925;    0.000
360.468; 2728.300;  270.925;    0.000
360.522; 2726.300;  276.925;    0.000
360.576; 2714.300;  269.925;    0.000
360.630; 2821.300;  281.925;    0.000
360.684; 2748.300;  291.925;    0.000
360.738; 2677.300;  325.925;    0.000
360.792; 2736.300;  320.925;    0.000
360.846; 2660.300;  276.925;    0.000
360.899; 2757.300;  314.925;    0.000
360.953; 2765.300;  275.925;    0.000
361.007; 2737.300;  292.925;    0.000
361.061; 2743.300;  278.925;    0.000
361.115; 2639.300;  264.925;    0.000
361.168; 2787.300;  317.925;    0.000
361.222; 2731.300;  277.925;    0.000
361.276; 2679.300;  274.925;    0.000
361.330; 2692.300;  269.925;    0.000
361.384; 2764.300;  280.925;    0.000
361.437; 2764.300;  304.925;    0.000
361.491; 2766.300;  256.925;    0.000
361.545; 2758.300;  293.925;    0.000
361.599; 2733.300;  284.925;    0.000
361.652; 2735.300;  274.925;    0.000
361.706; 2827.300;  284.925;    0.000
361.760; 2672.300;  260.925;    0.000
361.813; 2772.300;  272.925;    0.000
361.867; 2711.300;  300.925;    0.000
361.921; 2666.300;  275.925;    0.000
361.974; 2720.300;  258.925;    0.000
362.028; 2653.300;  248.925;    0.000
362.082; 2677.300;  252.925;    0.000
362.135; 2780.300;  240.925;    0.000
362.189; 2760.300;  259.925;    0.000
362.242; 2687.300;  267.925;    0.000
362.296; 2791.300;  280.925;    0.000
362.350; 2759.300;  282.925;    0.000
362.403; 2653.300;  288.925;    0.000
362.457; 2685.300;  253.925;    0.000
362.510; 2682.300;  323.925;    0.000
362.564; 2626.300;  286.925;    0.000
362.617; 2654.300;  317.925;    0.000
362.671; 2635.300;  286.925;    0.000
362.724; 2695.300;  274.925;    0.000
362.778; 2780.300;  295.925;    0.000
362.831; 2640.300;  289.925;    0.000
362.885; 2800.300;  318.925;    0.000
362.938; 2600.300;  271.925;    0.000
362.992;  338.300;  285.925;    0.000
363.045;  273.300;  291.925;    0.000
363.099;  299.300;  276.925;    0.000
363.152;  281.300;  309.925;    0.000
363.205;  287.300;  263.925;    0.000
363.259;  270.300;  288.925;    0.000
363.312;  305.300;  333.925;    0.000
363.366;  288.300;  328.925;    0.000
363.419;  307.300;  328.925;    0.000
363.472;  302.300;  295.925;    0.000
363.526;  290.300;  334.925;    0.000
363.579;  283.300;  312.925;    0.000
363.632;  275.300;  274.925;    0.000
363.686;  272.300;  282.925;    0.000
363.739;  294.300;  289.925;    0.000
363.792;  278.300;  287.925;    0.000

