
Integration time [ms]:   0.300
Averaging Nr. [scans]: 1
Smoothing Nr. [pixels]: 0
Data measured with spectrometer [name]: UV2
Wave   ;Sample   ;Dark     ;Reference
[nm]   ;[counts] ;[counts] ;[counts] 

353.533;  231.975;  235.675;    0.000
353.597;  191.975;  239.675;    0.000
353.660;  211.975;  203.675;    0.000
353.723;  195.975;  225.675;    0.000
353.786;  167.975;  178.675;    0.000
353.850;  190.975;  199.675;    0.000
353.913;  184.975;  179.675;    0.000
353.976;  206.975;  209.675;    0.000
354.039;  190.975;  188.675;    0.000
354.102;  206.975;  219.675;    0.000
354.166;  196.975;  237.675;    0.000
354.229;  199.975;  179.675;    0.000
354.292;  164.975;  210.675;    0.000
354.355;  222.975;  214.675;    0.000
354.418;  194.975;  173.675;    0.000
354.481;  221.975;  170.675;    0.000
354.545;  636.975;  229.675;    0.000
354.608;  617.975;  233.675;    0.000
354.671;  684.975;  183.675;    0.000
354.734;  660.975;  208.675;    0.000
354.797;  677.975;  263.675;    0.000
354.860;  757.975;  208.675;    0.000
354.923;  683.975;  202.675;    0.000
354.986;  727.975;  207.675;    0.000
355.050;  747.975;  180.675;    0.000
355.113;  737.975;  189.675;    0.000
355.176;  761.975;  214.675;    0.000
355.239;  776.975;  199.675;    0.000
355.302;  726.975;  229.675;    0.000
355.365;  772.975;  220.675;    0.000
355.428;  809.975;  196.675;    0.000
355.491;  823.975;  243.675;    0.000
355.554;  779.975;  191.675;    0.000
355.617;  748.975;  200.675;    0.000
355.680;  787.975;  190.675;    0.000
355.743;  795.975;  236.675;    0.000
355.806;  824.975;  193.675;    0.000
355.869;  780.975;  223.675;    0.000
355.932;  835.975;  208.675;    0.000
355.995;  890.975;  231.675;    0.000
356.058;  888.975;  202.675;    0.000
356.121;  897.975;  198.675;    0.000
356.184;  913.975;  209.675;    0.000
356.247;  872.975;  224.675;    0.000
356.310;  846.975;  149.675;    0.000
356.373;  883.975;  211.675;    0.000
356.436;  919.975;  195.675;    0.000
356.498;  911.975;  176.675;    0.000
356.561;  899.975;  186.675;    0.000
356.624;  842.975;  184.675;    0.000
356.687;  878.975;  179.675;    0.000
356.750;  924.975;  213.675;    0.000
356.813;  912.975;  172.675;    0.000
356.876;  912.975;  189.675;    0.000
356.939;  914.975;  204.675;    0.000
357.001;  920.975;  195.675;    0.000
357.064;  913.975;  202.675;    0.000
357.127;  941.975;  176.675;    0.000
357.190;  909.975;  186.675;    0.000
357.253;  950.975;  178.675;    0.000
357.316;  973.975;  187.675;    0.000
357.378;  895.975;  181.675;    0.000
357.441;  921.975;  142.675;    0.000
357.504;  875.975;  161.675;    0.000
357.567;  914.975;  113.675;    0.000
357.629;  921.975;  193.675;    0.000
357.692;  970.975;  144.675;    0.000
357.755;  923.975;  177.675;    0.000
357.818;  830.975;  144.675;    0.000
357.880;  920.975;  182.675;    0.000
357.943;  933.975;  166.675;    0.000
358.006;  952.975;  184.675;    0.000
358.069;  976.975;  200.675;    0.000
358.131;  962.975;  148.675;    0.000
358.194;  951.975;  155.675;    0.000
358.257;  931.975;  173.675;    0.000
358.319;  943.975;  178.675;    0.000
358.382; 1005.975;  184.675;    0.000
358.445;  988.975;  156.675;    0.000
358.507;  982.975;  199.675;    0.000
358.570;  968.975;  182.675;    0.000
358.633;  994.975;  167.675;    0.000
358.695;  997.975;  124.675;    0.000
358.758; 1031.975;  164.675;    0.000
358.821;  974.975;  147.675;    0.000
358.883;  991.975;  153.675;    0.000
358.946;  996.975;  171.675;    0.000
359.008;  985.975;  196.675;    0.000
359.071; 1016.975;  178.675;    0.000
359.134;  952.975;  123.675;    0.000
359.196; 1050.975;  166.675;    0.000
359.259;  959.975;  173.675;    0.000
359.321;  951.975;  164.675;    0.000
359.384;  995.975;  155.675;    0.000
359.446; 1025.975;  157.675;    0.000
359.509; 1054.975;  153.675;    0.000
359.571;  966.975;  184.675;    0.000
359.634; 1038.975;  138.675;    0.000
359.696;  992.975;  169.675;    0.000
359.759; 1035.975;  152.675;    0.000
359.821; 1058.975;  150.675;    0.000
359.884; 1040.975;  166.675;    0.000
359.946; 1144.975;  165.675;    0.000
360.009; 1035.975;  176.675;    0.000
360.071; 1010.975;  148.675;    0.000
360.134; 1010.975;  193.675;    0.000
360.196;  997.975;  151.675;    0.000
360.259; 1011.975;  182.675;    0.000
360.321; 1046.975;  168.675;    0.000
360.384; 1054.975;  176.675;    0.000
360.446; 1026.975;  156.675;    0.000
360.508; 1041.975;  183.675;    0.000
360.571; 1102.975;  193.675;    0.000
360.633; 1090.975;  184.675;    0.000
360.696; 1006.975;  136.675;    0.000
360.758; 1084.975;  186.675;    0.000
360.820; 1063.975;  127.675;    0.000
360.883;  992.975;  146.675;    0.000
360.945; 1080.975;  144.675;    0.000
361.007; 1070.975;  160.675;    0.000
361.070; 1019.975;  175.675;    0.000
361.132; 1128.975;  195.675;    0.000
361.194; 1065.975;  167.675;    0.000
361.257; 1077.975;  140.675;    0.000
361.319; 1014.975;  154.675;    0.000
361.381; 1128.975;  181.675;    0.000
361.443; 1079.975;  137.675;    0.000
361.506; 1075.975;  159.675;    0.000
361.568; 1111.975;  144.675;    0.000
361.630; 1140.975;  189.675;    0.000
361.693; 1057.975;  162.675;    0.000
361.755; 1106.975;  156.675;    0.000
361.817; 1120.975;  225.675;    0.000
361.879; 1114.975;  172.675;    0.000
361.941; 1041.975;  138.675;    0.000
362.004; 1065.975;  163.675;    0.000
362.066; 1094.975;  164.675;    0.000
362.128; 1147.975;  160.675;    0.000
362.190; 1096.975;  168.675;    0.000
362.252; 1119.975;  177.675;    0.000
362.315; 1161.975;  169.675;    0.000
362.377; 1128.975;  188.675;    0.000
362.439; 1102.975;  158.675;    0.000
362.501; 1125.975;  168.675;    0.000
362.563; 1138.975;  168.675;    0.000
362.625; 1095.975;  188.675;    0.000
362.688; 1139.975;  162.675;    0.000
362.750; 1192.975;  209.675;    0.000
362.812; 1111.975;  154.675;    0.000
362.874; 1200.975;  190.675;    0.000
362.936; 1154.975;  190.675;    0.000
362.998; 1110.975;  143.675;    0.000
363.060; 1175.975;  186.675;    0.000
363.122; 1228.975;  167.675;    0.000
363.184; 1145.975;  163.675;    0.000
363.246; 1142.975;  169.675;    0.000
363.308; 1150.975;  165.675;    0.000
363.370; 1244.975;  177.675;    0.000
363.432; 1109.975;  139.675;    0.000
363.494; 1187.975;  177.675;    0.000
363.556; 1116.975;  164.675;    0.000
363.618; 1172.975;  170.675;    0.000
363.680; 1123.975;  146.675;    0.000
363.742; 1117.975;  179.675;    0.000
363.804; 1204.975;  188.675;    0.000
363.866; 1189.975;  186.675;    0.000
363.928; 1131.975;  147.675;    0.000
363.990; 1184.975;  185.675;    0.000
364.052; 1151.975;  197.675;    0.000
364.114; 1163.975;  150.675;    0.000
364.176; 1161.975;  217.675;    0.000
364.238; 1182.975;  159.675;    0.000
364.300; 1231.975;  192.675;    0.000
364.362; 1132.975;  130.675;    0.000
364.424; 1130.975;  131.675;    0.000
364.486; 1219.975;  178.675;    0.000
364.548; 1186.975;  203.675;    0.000
364.609; 1228.975;  192.675;    0.000
364.671; 1207.975;  169.675;    0.000
364.733; 1184.975;  169.675;    0.000
364.795; 1186.975;  157.675;    0.000
364.857; 1164.975;  171.675;    0.000
364.919; 1157.975;  134.675;    0.000
364.981; 1200.975;  162.675;    0.000
365.042; 1221.975;  136.675;    0.000
365.104; 1176.975;  152.675;    0.000
365.166; 1177.975;  149.675;    0.000
365.228; 1215.975;  195.675;    0.000
365.290; 1231.975;  147.675;    0.000
365.351; 1197.975;  138.675;    0.000
365.413; 1131.975;  168.675;    0.000
365.475; 1257.975;  150.675;    0.000
365.537; 1208.975;  179.675;    0.000
365.598; 1200.975;  177.675;    0.000
365.660; 1189.975;  149.675;    0.000
365.722; 1204.975;  160.675;    0.000
365.784; 1289.975;  175.675;    0.000
365.845; 1261.975;  149.675;    0.000
365.907; 1211.975;  154.675;    0.000
365.969; 1243.975;  128.675;    0.000
366.030; 1269.975;  176.675;    0.000
366.092; 1191.975;  181.675;    0.000
366.154; 1211.975;  194.675;    0.000
366.215; 1226.975;  149.675;    0.000
366.277; 1256.975;  144.675;    0.000
366.339; 1223.975;  160.675;    0.000
366.400; 1204.975;  144.675;    0.000
366.462; 1216.975;  145.675;    0.000
366.524; 1244.975;  148.675;    0.000
366.585; 1239.975;  128.675;    0.000
366.647; 1206.975;  156.675;    0.000
366.708; 1125.975;  128.675;    0.000
366.770; 1229.975;  188.675;    0.000
366.832; 1235.975;  170.675;    0.000
366.893; 1276.975;  158.675;    0.000
366.955; 1282.975;  150.675;    0.000
367.016; 1249.975;  160.675;    0.000
367.078; 1241.975;  144.675;    0.000
367.139; 1184.975;  109.675;    0.000
367.201; 1293.975;  155.675;    0.000
367.262; 1230.975;  165.675;    0.000
367.324; 1227.975;  180.675;    0.000
367.385; 1213.975;  150.675;    0.000
367.447; 1193.975;  164.675;    0.000
367.508; 1185.975;  137.675;    0.000
367.570; 1258.975;  174.675;    0.000
367.631; 1222.975;  126.675;    0.000
367.693; 1177.975;  153.675;    0.000
367.754; 1287.975;  194.675;    0.000
367.816; 1269.975;  154.675;    0.000
367.877; 1278.975;  183.675;    0.000
367.939; 1290.975;  179.675;    0.000
368.000; 1279.975;  142.675;    0.000
368.062; 1256.975;  147.675;    0.000
368.123; 1323.975;  155.675;    0.000
368.184; 1272.975;  169.675;    0.000
368.246; 1264.975;  145.675;    0.000
368.307; 1290.975;  165.675;    0.000
368.369; 1203.975;  177.675;    0.000
368.430; 1244.975;  161.675;    0.000
368.491; 1251.975;  156.675;    0.000
368.553; 1281.975;  156.675;    0.000
368.614; 1242.975;  186.675;    0.000
368.675; 1218.975;  154.675;    0.000
368.737; 1325.975;  162.675;    0.000
368.798; 1298.975;  202.675;    0.000
368.859; 1323.975;  162.675;    0.000
368.921; 1322.975;  171.675;    0.000
368.982; 1294.975;  193.675;    0.000
369.043; 1313.975;  207.675;    0.000
369.104; 1320.975;  143.675;    0.000
369.166; 1258.975;  203.675;    0.000
369.227; 1278.975;  125.675;    0.000
369.288; 1284.975;  154.675;    0.000
369.349; 1355.975;  187.675;    0.000
369.411; 1299.975;  191.675;    0.000
369.472; 1280.975;  175.675;    0.000
369.533; 1270.975;  180.675;    0.000
369.594; 1281.975;  161.675;    0.000
369.656; 1308.975;  169.675;    0.000
369.717; 1274.975;  103.675;    0.000
369.778; 1285.975;  159.675;    0.000
369.839; 1300.975;  146.675;    0.000
369.900; 1379.975;  218.675;    0.000
369.961; 1287.975;  200.675;    0.000
370.023; 1308.975;  177.675;    0.000
370.084; 1261.975;  149.675;    0.000
370.145; 1321.975;  179.675;    0.000
370.206; 1312.975;  179.675;    0.000
370.267; 1238.975;  166.675;    0.000
370.328; 1333.975;  164.675;    0.000
370.389; 1271.975;  162.675;    0.000
370.451; 1343.975;  179.675;    0.000
370.512; 1317.975;  181.675;    0.000
370.573; 1298.975;  173.675;    0.000
370.634; 1309.975;  162.675;    0.000
370.695; 1260.975;  167.675;    0.000
370.756; 1340.975;  177.675;    0.000
370.817; 1357.975;  178.675;    0.000
370.878; 1360.975;  152.675;    0.000
370.939; 1347.975;  185.675;    0.000
371.000; 1361.975;  173.675;    0.000
371.061; 1297.975;  176.675;    0.000
371.122; 1329.975;  169.675;    0.000
371.183; 1209.975;  116.675;    0.000
371.244; 1356.975;  174.675;    0.000
371.305; 1347.975;  152.675;    0.000
371.366; 1345.975;  168.675;    0.000
371.427; 1355.975;  188.675;    0.000
371.488; 1339.975;  180.675;    0.000
371.549; 1385.975;  145.675;    0.000
371.610; 1298.975;  160.675;    0.000
371.671; 1353.975;  164.675;    0.000
371.732; 1282.975;  158.675;    0.000
371.793; 1272.975;  162.675;    0.000
371.853; 1353.975;  130.675;    0.000
371.914; 1380.975;  172.675;    0.000
371.975; 1287.975;   98.675;    0.000
372.036; 1372.975;  161.675;    0.000
372.097; 1339.975;  143.675;    0.000
372.158; 1353.975;  175.675;    0.000
372.219; 1405.975;  196.675;    0.000
372.280; 1302.975;  175.675;    0.000
372.340; 1389.975;  160.675;    0.000
372.401; 1308.975;  163.675;    0.000
372.462; 1367.975;  147.675;    0.000
372.523; 1337.975;  146.675;    0.000
372.584; 1332.975;  173.675;    0.000
372.645; 1355.975;  126.675;    0.000
372.705; 1289.975;  179.675;    0.000
372.766; 1362.975;  173.675;    0.000
372.827; 1377.975;  171.675;    0.000
372.888; 1345.975;  134.675;    0.000
372.948; 1328.975;  167.675;    0.000
373.009; 1431.975;  167.675;    0.000
373.070; 1354.975;  152.675;    0.000
373.131; 1335.975;  177.675;    0.000
373.191; 1425.975;  225.675;    0.000
373.252; 1347.975;  165.675;    0.000
373.313; 1382.975;  171.675;    0.000
373.373; 1344.975;  160.675;    0.000
373.434; 1362.975;  172.675;    0.000
373.495; 1379.975;  150.675;    0.000
373.555; 1300.975;  130.675;    0.000
373.616; 1372.975;  155.675;    0.000
373.677; 1413.975;  212.675;    0.000
373.737; 1340.975;  188.675;    0.000
373.798; 1356.975;  203.675;    0.000
373.859; 1413.975;  169.675;    0.000
373.919; 1385.975;  197.675;    0.000
373.980; 1313.975;  134.675;    0.000
374.041; 1301.975;  186.675;    0.000
374.101; 1367.975;  207.675;    0.000
374.162; 1399.975;  190.675;    0.000
374.222; 1365.975;  182.675;    0.000
374.283; 1327.975;  213.675;    0.000
374.343; 1447.975;  191.675;    0.000
374.404; 1354.975;  181.675;    0.000
374.465; 1374.975;  193.675;    0.000
374.525; 1311.975;  153.675;    0.000
374.586; 1372.975;  190.675;    0.000
374.646; 1440.975;  173.675;    0.000
374.707; 1432.975;  210.675;    0.000
374.767; 1368.975;  218.675;    0.000
374.828; 1384.975;  174.675;    0.000
374.888; 1389.975;  197.675;    0.000
374.949; 1423.975;  196.675;    0.000
375.009; 1419.975;  169.675;    0.000
375.070; 1421.975;  157.675;    0.000
375.130; 1437.975;  203.675;    0.000
375.190; 1425.975;  174.675;    0.000
375.251; 1444.975;  230.675;    0.000
375.311; 1460.975;  198.675;    0.000
375.372; 1369.975;  160.675;    0.000
375.432; 1375.975;  169.675;    0.000
375.493; 1399.975;  159.675;    0.000
375.553; 1345.975;  179.675;    0.000
375.613; 1353.975;  157.675;    0.000
375.674; 1413.975;  174.675;    0.000
375.734; 1394.975;  180.675;    0.000
375.794; 1328.975;  175.675;    0.000
375.855; 1349.975;  193.675;    0.000
375.915; 1383.975;  148.675;    0.000
375.975; 1383.975;  183.675;    0.000
376.036; 1386.975;  144.675;    0.000
376.096; 1389.975;  195.675;    0.000
376.156; 1397.975;  200.675;    0.000
376.217; 1380.975;  160.675;    0.000
376.277; 1378.975;  193.675;    0.000
376.337; 1402.975;  168.675;    0.000
376.398; 1401.975;  183.675;    0.000
376.458; 1363.975;  168.675;    0.000
376.518; 1351.975;  184.675;    0.000
376.578; 1344.975;  176.675;    0.000
376.639; 1288.975;  158.675;    0.000
376.699; 1365.975;  157.675;    0.000
376.759; 1374.975;  184.675;    0.000
376.819; 1374.975;  166.675;    0.000
376.880; 1337.975;  220.675;    0.000
376.940; 1383.975;  195.675;    0.000
377.000; 1355.975;  178.675;    0.000
377.060; 1366.975;  212.675;    0.000
377.120; 1352.975;  161.675;    0.000
377.180; 1401.975;  168.675;    0.000
377.241; 1416.975;  167.675;    0.000
377.301; 1422.975;  171.675;    0.000
377.361; 1366.975;  174.675;    0.000
377.421; 1383.975;  216.675;    0.000
377.481; 1399.975;  164.675;    0.000
377.541; 1355.975;  163.675;    0.000
377.601; 1422.975;  197.675;    0.000
377.661; 1402.975;  175.675;    0.000
377.722; 1412.975;  196.675;    0.000
377.782; 1360.975;  162.675;    0.000
377.842; 1396.975;  179.675;    0.000
377.902; 1332.975;  140.675;    0.000
377.962; 1342.975;  121.675;    0.000
378.022; 1431.975;  174.675;    0.000
378.082; 1371.975;  167.675;    0.000
378.142; 1415.975;  151.675;    0.000
378.202; 1413.975;  174.675;    0.000
378.262; 1408.975;  168.675;    0.000
378.322; 1348.975;  183.675;    0.000
378.382; 1406.975;  159.675;    0.000
378.442; 1390.975;  177.675;    0.000
378.502; 1323.975;  137.675;    0.000
378.562; 1335.975;  140.675;    0.000
378.622; 1363.975;  197.675;    0.000
378.682; 1426.975;  205.675;    0.000
378.742; 1398.975;  160.675;    0.000
378.802; 1400.975;  132.675;    0.000
378.862; 1432.975;  222.675;    0.000
378.921; 1424.975;  178.675;    0.000
378.981; 1396.975;  160.675;    0.000
379.041; 1346.975;  136.675;    0.000
379.101; 1363.975;  184.675;    0.000
379.161; 1403.975;  147.675;    0.000
379.221; 1417.975;  139.675;    0.000
379.281; 1375.975;  204.675;    0.000
379.341; 1390.975;  142.675;    0.000
379.401; 1370.975;  136.675;    0.000
379.460; 1384.975;  161.675;    0.000
379.520; 1411.975;  171.675;    0.000
379.580; 1394.975;  168.675;    0.000
379.640; 1394.975;  183.675;    0.000
379.700; 1346.975;  182.675;    0.000
379.759; 1379.975;  190.675;    0.000
379.819; 1402.975;  149.675;    0.000
379.879; 1368.975;  140.675;    0.000
379.939; 1444.975;  155.675;    0.000
379.999; 1360.975;  199.675;    0.000
380.058; 1468.975;  163.675;    0.000
380.118; 1346.975;  190.675;    0.000
380.178; 1459.975;  220.675;    0.000
380.237; 1431.975;  181.675;    0.000
380.297; 1441.975;  187.675;    0.000
380.357; 1415.975;  193.675;    0.000
380.417; 1450.975;  157.675;    0.000
380.476; 1430.975;  176.675;    0.000
380.536; 1454.975;  180.675;    0.000
380.596; 1385.975;  191.675;    0.000
380.655; 1480.975;  190.675;    0.000
380.715; 1418.975;  180.675;    0.000
380.775; 1418.975;  202.675;    0.000
380.834; 1464.975;  190.675;    0.000
380.894; 1465.975;  163.675;    0.000
380.954; 1403.975;  181.675;    0.000
381.013; 1444.975;  218.675;    0.000
381.073; 1352.975;  181.675;    0.000
381.132; 1501.975;  193.675;    0.000
381.192; 1459.975;  209.675;    0.000
381.252; 1414.975;  206.675;    0.000
381.311; 1483.975;  173.675;    0.000
381.371; 1449.975;  188.675;    0.000
381.430; 1423.975;  162.675;    0.000
381.490; 1454.975;  168.675;    0.000
381.549; 1426.975;  213.675;    0.000
381.609; 1438.975;  194.675;    0.000
381.668; 1389.975;  190.675;    0.000
381.728; 1436.975;  183.675;    0.000
381.787; 1462.975;  172.675;    0.000
381.847; 1488.975;  198.675;    0.000
381.906; 1422.975;  197.675;    0.000
381.966; 1443.975;  201.675;    0.000
382.025; 1469.975;  219.675;    0.000
382.085; 1402.975;  194.675;    0.000
382.144; 1501.975;  187.675;    0.000
382.204; 1550.975;  196.675;    0.000
382.263; 1488.975;  168.675;    0.000
382.323; 1485.975;  135.675;    0.000
382.382; 1436.975;  173.675;    0.000
382.441; 1515.975;  155.675;    0.000
382.501; 1474.975;  168.675;    0.000
382.560; 1511.975;  200.675;    0.000
382.619; 1463.975;  155.675;    0.000
382.679; 1495.975;  198.675;    0.000
382.738; 1492.975;  211.675;    0.000
382.798; 1492.975;  214.675;    0.000
382.857; 1518.975;  146.675;    0.000
382.916; 1540.975;  183.675;    0.000
382.976; 1514.975;  173.675;    0.000
383.035; 1571.975;  165.675;    0.000
383.094; 1605.975;  173.675;    0.000
383.154; 1524.975;  143.675;    0.000
383.213; 1579.975;  173.675;    0.000
383.272; 1604.975;  166.675;    0.000
383.331; 1528.975;  154.675;    0.000
383.391; 1581.975;  232.675;    0.000
383.450; 1555.975;  185.675;    0.000
383.509; 1542.975;  204.675;    0.000
383.568; 1535.975;  197.675;    0.000
383.628; 1569.975;  171.675;    0.000
383.687; 1567.975;  202.675;    0.000
383.746; 1570.975;  116.675;    0.000
383.805; 1654.975;  156.675;    0.000
383.864; 1674.975;  150.675;    0.000
383.924; 1645.975;  195.675;    0.000
383.983; 1560.975;  157.675;    0.000
384.042; 1518.975;  184.675;    0.000
384.101; 1438.975;  210.675;    0.000
384.160; 1500.975;  123.675;    0.000
384.219; 1537.975;  191.675;    0.000
384.279; 1591.975;  184.675;    0.000
384.338; 1492.975;  172.675;    0.000
384.397; 1532.975;  153.675;    0.000
384.456; 1575.975;  181.675;    0.000
384.515; 1561.975;  171.675;    0.000
384.574; 1576.975;  172.675;    0.000
384.633; 1577.975;  174.675;    0.000
384.692; 1579.975;  178.675;    0.000
384.751; 1574.975;  180.675;    0.000
384.810; 1519.975;  161.675;    0.000
384.869; 1539.975;  162.675;    0.000
384.929; 1603.975;  157.675;    0.000
384.988; 1512.975;  153.675;    0.000
385.047; 1552.975;  178.675;    0.000
385.106; 1518.975;  164.675;    0.000
385.165; 1548.975;  127.675;    0.000
385.224; 1478.975;  156.675;    0.000
385.283; 1547.975;  178.675;    0.000
385.342; 1537.975;  177.675;    0.000
385.401; 1558.975;  178.675;    0.000
385.459; 1597.975;  177.675;    0.000
385.518; 1546.975;  152.675;    0.000
385.577; 1544.975;  133.675;    0.000
385.636; 1549.975;  204.675;    0.000
385.695; 1548.975;  161.675;    0.000
385.754; 1533.975;  190.675;    0.000
385.813; 1484.975;  160.675;    0.000
385.872; 1569.975;  138.675;    0.000
385.931; 1575.975;  192.675;    0.000
385.990; 1491.975;  158.675;    0.000
386.049; 1659.975;  187.675;    0.000
386.107; 1551.975;  140.675;    0.000
386.166; 1581.975;  139.675;    0.000
386.225; 1632.975;  182.675;    0.000
386.284; 1530.975;  123.675;    0.000
386.343; 1554.975;  207.675;    0.000
386.402; 1552.975;  150.675;    0.000
386.460; 1573.975;  185.675;    0.000
386.519; 1699.975;  145.675;    0.000
386.578; 1548.975;  153.675;    0.000
386.637; 1584.975;  153.675;    0.000
386.696; 1581.975;  189.675;    0.000
386.754; 1615.975;  128.675;    0.000
386.813; 1630.975;  202.675;    0.000
386.872; 1531.975;  152.675;    0.000
386.931; 1645.975;  166.675;    0.000
386.989; 1691.975;  194.675;    0.000
387.048; 1536.975;  176.675;    0.000
387.107; 1644.975;  203.675;    0.000
387.165; 1600.975;  136.675;    0.000
387.224; 1591.975;  193.675;    0.000
387.283; 1610.975;  157.675;    0.000
387.342; 1679.975;  194.675;    0.000
387.400; 1585.975;  191.675;    0.000
387.459; 1575.975;  142.675;    0.000
387.517; 1650.975;  202.675;    0.000
387.576; 1580.975;  164.675;    0.000
387.635; 1658.975;  147.675;    0.000
387.693; 1673.975;  199.675;    0.000
387.752; 1618.975;  181.675;    0.000
387.811; 1636.975;  161.675;    0.000
387.869; 1681.975;  184.675;    0.000
387.928; 1696.975;  175.675;    0.000
387.986; 1667.975;  143.675;    0.000
388.045; 1662.975;  146.675;    0.000
388.103; 1607.975;  164.675;    0.000
388.162; 1631.975;  170.675;    0.000
388.221; 1651.975;  169.675;    0.000
388.279; 1668.975;  151.675;    0.000
388.338; 1666.975;  175.675;    0.000
388.396; 1664.975;  170.675;    0.000
388.455; 1698.975;  193.675;    0.000
388.513; 1630.975;  134.675;    0.000
388.572; 1707.975;  201.675;    0.000
388.630; 1722.975;  181.675;    0.000
388.689; 1659.975;  165.675;    0.000
388.747; 1660.975;  164.675;    0.000
388.806; 1668.975;  155.675;    0.000
388.864; 1688.975;  172.675;    0.000
388.922; 1728.975;  190.675;    0.000
388.981; 1618.975;  170.675;    0.000
389.039; 1643.975;  142.675;    0.000
389.098; 1659.975;  177.675;    0.000
389.156; 1733.975;  184.675;    0.000
389.214; 1663.975;  197.675;    0.000
389.273; 1762.975;  141.675;    0.000
389.331; 1626.975;  145.675;    0.000
389.390; 1690.975;  160.675;    0.000
389.448; 1673.975;  142.675;    0.000
389.506; 1752.975;  192.675;    0.000
389.565; 1686.975;  176.675;    0.000
389.623; 1652.975;  174.675;    0.000
389.681; 1754.975;  184.675;    0.000
389.740; 1699.975;  193.675;    0.000
389.798; 1673.975;  130.675;    0.000
389.856; 1742.975;  224.675;    0.000
389.914; 1725.975;  223.675;    0.000
389.973; 1700.975;  164.675;    0.000
390.031; 1678.975;  198.675;    0.000
390.089; 1703.975;  177.675;    0.000
390.147; 1710.975;  158.675;    0.000
390.206; 1721.975;  213.675;    0.000
390.264; 1671.975;  178.675;    0.000
390.322; 1682.975;  181.675;    0.000
390.380; 1658.975;  148.675;    0.000
390.439; 1742.975;  185.675;    0.000
390.497; 1721.975;  208.675;    0.000
390.555; 1736.975;  175.675;    0.000
390.613; 1754.975;  178.675;    0.000
390.671; 1752.975;  190.675;    0.000
390.729; 1730.975;  172.675;    0.000
390.788; 1783.975;  194.675;    0.000
390.846; 1777.975;  187.675;    0.000
390.904; 1784.975;  207.675;    0.000
390.962; 1843.975;  211.675;    0.000
391.020; 1820.975;  218.675;    0.000
391.078; 1780.975;  179.675;    0.000
391.136; 1845.975;  223.675;    0.000
391.194; 1823.975;  209.675;    0.000
391.253; 1772.975;  217.675;    0.000
391.311; 1781.975;  217.675;    0.000
391.369; 1847.975;  217.675;    0.000
391.427; 1835.975;  253.675;    0.000
391.485; 1758.975;  176.675;    0.000
391.543; 1805.975;  252.675;    0.000
391.601; 1853.975;  168.675;    0.000
391.659; 1826.975;  206.675;    0.000
391.717; 1856.975;  172.675;    0.000
391.775; 1806.975;  170.675;    0.000
391.833; 1807.975;  196.675;    0.000
391.891; 1833.975;  180.675;    0.000
391.949; 1812.975;  201.675;    0.000
392.007; 1851.975;  196.675;    0.000
392.065; 1896.975;  191.675;    0.000
392.123; 1816.975;  158.675;    0.000
392.180; 1871.975;  192.675;    0.000
392.238; 1849.975;  186.675;    0.000
392.296; 1932.975;  150.675;    0.000
392.354; 1853.975;  175.675;    0.000
392.412; 1907.975;  219.675;    0.000
392.470; 1910.975;  200.675;    0.000
392.528; 1937.975;  177.675;    0.000
392.586; 1829.975;  169.675;    0.000
392.644; 1881.975;  155.675;    0.000
392.701; 1890.975;  215.675;    0.000
392.759; 1846.975;  218.675;    0.000
392.817; 1895.975;  178.675;    0.000
392.875; 1947.975;  190.675;    0.000
392.933; 1849.975;  197.675;    0.000
392.991; 1920.975;  179.675;    0.000
393.048; 1910.975;  205.675;    0.000
393.106; 1908.975;  229.675;    0.000
393.164; 1848.975;  167.675;    0.000
393.222; 1883.975;  156.675;    0.000
393.279; 1969.975;  203.675;    0.000
393.337; 1948.975;  216.675;    0.000
393.395; 2001.975;  180.675;    0.000
393.453; 1945.975;  163.675;    0.000
393.510; 1992.975;  194.675;    0.000
393.568; 1941.975;  207.675;    0.000
393.626; 1895.975;  200.675;    0.000
393.684; 1935.975;  234.675;    0.000
393.741; 1971.975;  197.675;    0.000
393.799; 2013.975;  201.675;    0.000
393.857; 1915.975;  185.675;    0.000
393.914; 1914.975;  200.675;    0.000
393.972; 1974.975;  181.675;    0.000
394.030; 1922.975;  188.675;    0.000
394.087; 2007.975;  202.675;    0.000
394.145; 1904.975;  214.675;    0.000
394.202; 2054.975;  204.675;    0.000
394.260; 1938.975;  178.675;    0.000
394.318; 2036.975;  208.675;    0.000
394.375; 1896.975;  183.675;    0.000
394.433; 2089.975;  175.675;    0.000
394.490; 2000.975;  170.675;    0.000
394.548; 1988.975;  161.675;    0.000
394.605; 1973.975;  196.675;    0.000
394.663; 2007.975;  191.675;    0.000
394.720; 1965.975;  179.675;    0.000
394.778; 2025.975;  193.675;    0.000
394.836; 2005.975;  160.675;    0.000
394.893; 2015.975;  152.675;    0.000
394.951; 2014.975;  179.675;    0.000
395.008; 1987.975;  185.675;    0.000
395.065; 2083.975;  154.675;    0.000
395.123; 2017.975;  176.675;    0.000
395.180; 2012.975;  202.675;    0.000
395.238; 2002.975;  135.675;    0.000
395.295; 1984.975;  178.675;    0.000
395.353; 2012.975;  181.675;    0.000
395.410; 2035.975;  160.675;    0.000
395.468; 1989.975;  179.675;    0.000
395.525; 2080.975;  187.675;    0.000
395.582; 2121.975;  221.675;    0.000
395.640; 2103.975;  220.675;    0.000
395.697; 2062.975;  174.675;    0.000
395.754; 2081.975;  177.675;    0.000
395.812; 2013.975;  193.675;    0.000
395.869; 2001.975;  220.675;    0.000
395.927; 2090.975;  206.675;    0.000
395.984; 2060.975;  213.675;    0.000
396.041; 2109.975;  194.675;    0.000
396.098; 1999.975;  144.675;    0.000
396.156; 2103.975;  168.675;    0.000
396.213; 2030.975;  181.675;    0.000
396.270; 2119.975;  186.675;    0.000
396.328; 2089.975;  165.675;    0.000
396.385; 2158.975;  192.675;    0.000
396.442; 2106.975;  196.675;    0.000
396.499; 2088.975;  162.675;    0.000
396.557; 2116.975;  177.675;    0.000
396.614; 2049.975;  184.675;    0.000
396.671; 2048.975;  180.675;    0.000
396.728; 2156.975;  194.675;    0.000
396.785; 2089.975;  173.675;    0.000
396.843; 2031.975;  154.675;    0.000
396.900; 2083.975;  200.675;    0.000
396.957; 2139.975;  158.675;    0.000
397.014; 2125.975;  203.675;    0.000
397.071; 2115.975;  178.675;    0.000
397.128; 2234.975;  201.675;    0.000
397.186; 2218.975;  200.675;    0.000
397.243; 2140.975;  187.675;    0.000
397.300; 2121.975;  173.675;    0.000
397.357; 2144.975;  189.675;    0.000
397.414; 2142.975;  202.675;    0.000
397.471; 2114.975;  156.675;    0.000
397.528; 2157.975;  197.675;    0.000
397.585; 2199.975;  174.675;    0.000
397.642; 2169.975;  202.675;    0.000
397.699; 2140.975;  197.675;    0.000
397.756; 2228.975;  188.675;    0.000
397.814; 2123.975;  210.675;    0.000
397.871; 2246.975;  203.675;    0.000
397.928; 2157.975;  189.675;    0.000
397.985; 2121.975;  192.675;    0.000
398.042; 2197.975;  198.675;    0.000
398.099; 2234.975;  181.675;    0.000
398.156; 2214.975;  201.675;    0.000
398.212; 2227.975;  216.675;    0.000
398.269; 2267.975;  206.675;    0.000
398.326; 2297.975;  213.675;    0.000
398.383; 2280.975;  168.675;    0.000
398.440; 2218.975;  184.675;    0.000
398.497; 2242.975;  194.675;    0.000
398.554; 2242.975;  219.675;    0.000
398.611; 2263.975;  190.675;    0.000
398.668; 2247.975;  138.675;    0.000
398.725; 2286.975;  170.675;    0.000
398.782; 2324.975;  223.675;    0.000
398.839; 2296.975;  211.675;    0.000
398.895; 2326.975;  173.675;    0.000
398.952; 2320.975;  207.675;    0.000
399.009; 2350.975;  173.675;    0.000
399.066; 2287.975;  171.675;    0.000
399.123; 2411.975;  189.675;    0.000
399.180; 2332.975;  170.675;    0.000
399.236; 2323.975;  193.675;    0.000
399.293; 2434.975;  222.675;    0.000
399.350; 2418.975;  195.675;    0.000
399.407; 2394.975;  214.675;    0.000
399.463; 2403.975;  181.675;    0.000
399.520; 2436.975;  168.675;    0.000
399.577; 2530.975;  231.675;    0.000
399.634; 2538.975;  215.675;    0.000
399.690; 2528.975;  177.675;    0.000
399.747; 2542.975;  212.675;    0.000
399.804; 2483.975;  208.675;    0.000
399.861; 2536.975;  225.675;    0.000
399.917; 2476.975;  191.675;    0.000
399.974; 2521.975;  182.675;    0.000
400.031; 2542.975;  218.675;    0.000
400.087; 2438.975;  202.675;    0.000
400.144; 2513.975;  192.675;    0.000
400.201; 2445.975;  187.675;    0.000
400.257; 2443.975;  193.675;    0.000
400.314; 2460.975;  185.675;    0.000
400.370; 2510.975;  201.675;    0.000
400.427; 2407.975;  208.675;    0.000
400.484; 2457.975;  201.675;    0.000
400.540; 2444.975;  204.675;    0.000
400.597; 2347.975;  210.675;    0.000
400.653; 2372.975;  224.675;    0.000
400.710; 2376.975;  196.675;    0.000
400.766; 2467.975;  224.675;    0.000
400.823; 2425.975;  210.675;    0.000
400.879; 2380.975;  213.675;    0.000
400.936; 2365.975;  182.675;    0.000
400.993; 2329.975;  184.675;    0.000
401.049; 2416.975;  216.675;    0.000
401.105; 2409.975;  235.675;    0.000
401.162; 2451.975;  196.675;    0.000
401.218; 2467.975;  221.675;    0.000
401.275; 2435.975;  216.675;    0.000
401.331; 2471.975;  198.675;    0.000
401.388; 2357.975;  205.675;    0.000
401.444; 2326.975;  154.675;    0.000
401.501; 2404.975;  208.675;    0.000
401.557; 2308.975;  162.675;    0.000
401.614; 2318.975;  157.675;    0.000
401.670; 2361.975;  198.675;    0.000
401.726; 2380.975;  195.675;    0.000
401.783; 2403.975;  186.675;    0.000
401.839; 2409.975;  205.675;    0.000
401.895; 2492.975;  202.675;    0.000
401.952; 2349.975;  143.675;    0.000
402.008; 2421.975;  177.675;    0.000
402.064; 2412.975;  177.675;    0.000
402.121; 2361.975;  194.675;    0.000
402.177; 2427.975;  181.675;    0.000
402.233; 2405.975;  205.675;    0.000
402.290; 2345.975;  190.675;    0.000
402.346; 2409.975;  190.675;    0.000
402.402; 2371.975;  151.675;    0.000
402.458; 2430.975;  194.675;    0.000
402.515; 2439.975;  212.675;    0.000
402.571; 2493.975;  209.675;    0.000
402.627; 2439.975;  199.675;    0.000
402.683; 2452.975;  213.675;    0.000
402.740; 2462.975;  165.675;    0.000
402.796; 2432.975;  168.675;    0.000
402.852; 2413.975;  200.675;    0.000
402.908; 2500.975;  193.675;    0.000
402.964; 2413.975;  166.675;    0.000
403.021; 2452.975;  196.675;    0.000
403.077; 2441.975;  212.675;    0.000
403.133; 2429.975;  186.675;    0.000
403.189; 2471.975;  206.675;    0.000
403.245; 2489.975;  207.675;    0.000
403.301; 2509.975;  204.675;    0.000
403.357; 2453.975;  246.675;    0.000
403.414; 2491.975;  227.675;    0.000
403.470; 2520.975;  207.675;    0.000
403.526; 2453.975;  171.675;    0.000
403.582; 2355.975;  200.675;    0.000
403.638; 2523.975;  213.675;    0.000
403.694; 2466.975;  239.675;    0.000
403.750; 2439.975;  221.675;    0.000
403.806; 2567.975;  197.675;    0.000
403.862; 2552.975;  222.675;    0.000
403.918; 2534.975;  174.675;    0.000
403.974; 2490.975;  183.675;    0.000
404.030; 2510.975;  184.675;    0.000
404.086; 2512.975;  170.675;    0.000
404.142; 2627.975;  215.675;    0.000
404.198; 2592.975;  189.675;    0.000
404.254; 2540.975;  195.675;    0.000
404.310; 2560.975;  206.675;    0.000
404.366; 2497.975;  179.675;    0.000
404.422; 2474.975;  197.675;    0.000
404.478; 2453.975;  176.675;    0.000
404.534; 2497.975;  165.675;    0.000
404.590; 2595.975;  203.675;    0.000
404.646; 2451.975;  195.675;    0.000
404.701; 2560.975;  180.675;    0.000
404.757; 2537.975;  218.675;    0.000
404.813; 2537.975;  160.675;    0.000
404.869; 2602.975;  213.675;    0.000
404.925; 2546.975;  171.675;    0.000
404.981; 2661.975;  194.675;    0.000
405.037; 2505.975;  211.675;    0.000
405.092; 2551.975;  158.675;    0.000
405.148; 2584.975;  140.675;    0.000
405.204; 2520.975;  161.675;    0.000
405.260; 2535.975;  161.675;    0.000
405.316; 2531.975;  155.675;    0.000
405.371; 2548.975;  151.675;    0.000
405.427; 2467.975;  186.675;    0.000
405.483; 2625.975;  206.675;    0.000
405.539; 2582.975;  162.675;    0.000
405.594; 2744.975;  205.675;    0.000
405.650; 2539.975;  153.675;    0.000
405.706; 2624.975;  185.675;    0.000
405.761; 2549.975;  205.675;    0.000
405.817; 2656.975;  185.675;    0.000
405.873; 2591.975;  160.675;    0.000
405.928; 2532.975;  182.675;    0.000
405.984; 2587.975;  206.675;    0.000
406.040; 2571.975;  200.675;    0.000
406.095; 2603.975;  138.675;    0.000
406.151; 2634.975;  178.675;    0.000
406.207; 2561.975;  225.675;    0.000
406.262; 2694.975;  161.675;    0.000
406.318; 2684.975;  186.675;    0.000
406.374; 2588.975;  173.675;    0.000
406.429; 2672.975;  197.675;    0.000
406.485; 2713.975;  260.675;    0.000
406.540; 2682.975;  184.675;    0.000
406.596; 2637.975;  193.675;    0.000
406.651; 2661.975;  176.675;    0.000
406.707; 2691.975;  158.675;    0.000
406.763; 2763.975;  174.675;    0.000
406.818; 2762.975;  188.675;    0.000
406.874; 2583.975;  176.675;    0.000
406.929; 2815.975;  220.675;    0.000
406.985; 2800.975;  167.675;    0.000
407.040; 2806.975;  191.675;    0.000
407.095; 2786.975;  190.675;    0.000
407.151; 2808.975;  196.675;    0.000
407.206; 2838.975;  184.675;    0.000
407.262; 2873.975;  167.675;    0.000
407.317; 2814.975;  199.675;    0.000
407.373; 2828.975;  211.675;    0.000
407.428; 2903.975;  202.675;    0.000
407.484; 2852.975;  172.675;    0.000
407.539; 2795.975;  171.675;    0.000
407.594; 2840.975;  219.675;    0.000
407.650; 2899.975;  179.675;    0.000
407.705; 2876.975;  141.675;    0.000
407.760; 2843.975;  182.675;    0.000
407.816; 2860.975;  203.675;    0.000
407.871; 2781.975;  219.675;    0.000
407.926; 2888.975;  197.675;    0.000
407.982; 2883.975;  176.675;    0.000
408.037; 2926.975;  187.675;    0.000
408.092; 2889.975;  161.675;    0.000
408.148; 2837.975;  185.675;    0.000
408.203; 2747.975;  196.675;    0.000
408.258; 2808.975;  188.675;    0.000
408.314; 2844.975;  225.675;    0.000
408.369; 2837.975;  172.675;    0.000
408.424; 2805.975;  204.675;    0.000
408.479; 2854.975;  182.675;    0.000
408.534; 2863.975;  220.675;    0.000
408.590; 2795.975;  196.675;    0.000
408.645; 2767.975;  170.675;    0.000
408.700; 2791.975;  204.675;    0.000
408.755; 2810.975;  219.675;    0.000
408.810; 2834.975;  174.675;    0.000
408.866; 2886.975;  212.675;    0.000
408.921; 2862.975;  233.675;    0.000
408.976; 2826.975;  198.675;    0.000
409.031; 2818.975;  179.675;    0.000
409.086; 2784.975;  181.675;    0.000
409.141; 2858.975;  192.675;    0.000
409.196; 2870.975;  172.675;    0.000
409.252; 2822.975;  199.675;    0.000
409.307; 2800.975;  159.675;    0.000
409.362; 2831.975;  158.675;    0.000
409.417; 2776.975;  164.675;    0.000
409.472; 2868.975;  186.675;    0.000
409.527; 2812.975;  215.675;    0.000
409.582; 2879.975;  227.675;    0.000
409.637; 2812.975;  211.675;    0.000
409.692; 2767.975;  224.675;    0.000
409.747; 2791.975;  147.675;    0.000
409.802; 2811.975;  203.675;    0.000
409.857; 2700.975;  203.675;    0.000
409.912; 2909.975;  219.675;    0.000
409.967; 2760.975;  200.675;    0.000
410.022; 2828.975;  199.675;    0.000
410.077; 2684.975;  171.675;    0.000
410.132; 2853.975;  193.675;    0.000
410.187; 2661.975;  167.675;    0.000
410.242; 2689.975;  188.675;    0.000
410.297; 2727.975;  195.675;    0.000
410.351; 2925.975;  225.675;    0.000
410.406; 2753.975;  188.675;    0.000
410.461; 2783.975;  197.675;    0.000
410.516; 2767.975;  212.675;    0.000
410.571; 2736.975;  173.675;    0.000
410.626; 2811.975;  180.675;    0.000
410.681; 2889.975;  198.675;    0.000
410.736; 2858.975;  190.675;    0.000
410.790; 2778.975;  204.675;    0.000
410.845; 2725.975;  214.675;    0.000
410.900; 2762.975;  184.675;    0.000
410.955; 2905.975;  231.675;    0.000
411.010; 2802.975;  211.675;    0.000
411.064; 2790.975;  204.675;    0.000
411.119; 2843.975;  219.675;    0.000
411.174; 2798.975;  208.675;    0.000
411.229; 2825.975;  207.675;    0.000
411.283; 2748.975;  199.675;    0.000
411.338; 2856.975;  198.675;    0.000
411.393; 2788.975;  155.675;    0.000
411.447; 2820.975;  200.675;    0.000
411.502; 2915.975;  229.675;    0.000
411.557; 2773.975;  197.675;    0.000
411.612; 2837.975;  171.675;    0.000
411.666; 2805.975;  201.675;    0.000
411.721; 2831.975;  174.675;    0.000
411.776; 2868.975;  222.675;    0.000
411.830; 2813.975;  150.675;    0.000
411.885; 2827.975;  169.675;    0.000
411.939; 2863.975;  216.675;    0.000
411.994; 2816.975;  215.675;    0.000
412.049; 2865.975;  219.675;    0.000
412.103; 2965.975;  225.675;    0.000
412.158; 2790.975;  216.675;    0.000
412.212; 2838.975;  218.675;    0.000
412.267; 2841.975;  219.675;    0.000
412.322; 2899.975;  235.675;    0.000
412.376; 2865.975;  208.675;    0.000
412.431; 2890.975;  232.675;    0.000
412.485; 2838.975;  223.675;    0.000
412.540; 2851.975;  217.675;    0.000
412.594; 2868.975;  195.675;    0.000
412.649; 2797.975;  236.675;    0.000
412.703; 2786.975;  216.675;    0.000
412.758; 2832.975;  201.675;    0.000
412.812; 2788.975;  176.675;    0.000
412.866; 2815.975;  179.675;    0.000
412.921; 2839.975;  196.675;    0.000
412.975; 2820.975;  238.675;    0.000
413.030; 2865.975;  272.675;    0.000
413.084; 2865.975;  208.675;    0.000
413.139; 2814.975;  201.675;    0.000
413.193; 2808.975;  198.675;    0.000
413.247; 2783.975;  213.675;    0.000
413.302; 2779.975;  202.675;    0.000
413.356; 2791.975;  184.675;    0.000
413.410; 2826.975;  202.675;    0.000
413.465; 2781.975;  145.675;    0.000
413.519; 2820.975;  200.675;    0.000
413.573; 2826.975;  197.675;    0.000
413.628; 2846.975;  224.675;    0.000
413.682; 2836.975;  211.675;    0.000
413.736; 2875.975;  202.675;    0.000
413.791; 2791.975;  228.675;    0.000
413.845; 2734.975;  184.675;    0.000
413.899; 2756.975;  226.675;    0.000
413.953; 2761.975;  213.675;    0.000
414.008; 2708.975;  175.675;    0.000
414.062; 2788.975;  216.675;    0.000
414.116; 2794.975;  206.675;    0.000
414.170; 2805.975;  229.675;    0.000
414.225; 2767.975;  196.675;    0.000
414.279; 2799.975;  199.675;    0.000
414.333; 2923.975;  220.675;    0.000
414.387; 2852.975;  217.675;    0.000
414.441; 2883.975;  206.675;    0.000
414.496; 2944.975;  264.675;    0.000
414.550; 2894.975;  217.675;    0.000
414.604; 2848.975;  224.675;    0.000
414.658; 2819.975;  156.675;    0.000
414.712; 2842.975;  203.675;    0.000
414.766; 2869.975;  216.675;    0.000
414.820; 2850.975;  218.675;    0.000
414.874; 2885.975;  240.675;    0.000
414.928; 2856.975;  204.675;    0.000
414.982; 2816.975;  195.675;    0.000
415.037; 2843.975;  212.675;    0.000
415.091; 2850.975;  211.675;    0.000
415.145; 2815.975;  230.675;    0.000
415.199; 2875.975;  208.675;    0.000
415.253; 2777.975;  213.675;    0.000
415.307; 2798.975;  208.675;    0.000
415.361; 2820.975;  193.675;    0.000
415.415; 2762.975;  207.675;    0.000
415.469; 2800.975;  214.675;    0.000
415.523; 2899.975;  226.675;    0.000
415.577; 2806.975;  194.675;    0.000
415.631; 2789.975;  258.675;    0.000
415.684; 2830.975;  239.675;    0.000
415.738; 2839.975;  191.675;    0.000
415.792; 2822.975;  185.675;    0.000
415.846; 2754.975;  239.675;    0.000
415.900; 2797.975;  209.675;    0.000
415.954; 2900.975;  215.675;    0.000
416.008; 2808.975;  229.675;    0.000
416.062; 2782.975;  200.675;    0.000
416.116; 2828.975;  195.675;    0.000
416.169; 2955.975;  238.675;    0.000
416.223; 2755.975;  271.675;    0.000
416.277; 2727.975;  232.675;    0.000
416.331; 2750.975;  226.675;    0.000
416.385; 2785.975;  207.675;    0.000
416.439; 2898.975;  221.675;    0.000
416.492; 2836.975;  269.675;    0.000
416.546; 2758.975;  254.675;    0.000
416.600; 2822.975;  225.675;    0.000
416.654; 2791.975;  269.675;    0.000
416.707; 2798.975;  232.675;    0.000
416.761; 2781.975;  226.675;    0.000
416.815; 2788.975;  219.675;    0.000
416.869; 2836.975;  234.675;    0.000
416.922; 2868.975;  230.675;    0.000
416.976; 2770.975;  216.675;    0.000
417.030; 2893.975;  271.675;    0.000
417.083; 2715.975;  229.675;    0.000
417.137; 2867.975;  249.675;    0.000
417.191; 2895.975;  241.675;    0.000
417.244; 2818.975;  230.675;    0.000
417.298; 2765.975;  215.675;    0.000
417.352; 2762.975;  188.675;    0.000
417.405; 2776.975;  248.675;    0.000
417.459; 2822.975;  256.675;    0.000
417.512; 2820.975;  263.675;    0.000
417.566; 2815.975;  227.675;    0.000
417.620; 2820.975;  270.675;    0.000
417.673; 2827.975;  216.675;    0.000
417.727; 2758.975;  234.675;    0.000
417.780; 2741.975;  215.675;    0.000
417.834; 2866.975;  203.675;    0.000
417.887; 2809.975;  257.675;    0.000
417.941; 2770.975;  216.675;    0.000
417.994; 2846.975;  245.675;    0.000
418.048; 2819.975;  209.675;    0.000
418.101; 2756.975;  207.675;    0.000
418.155; 2751.975;  204.675;    0.000
418.208; 2904.975;  270.675;    0.000
418.262; 2774.975;  228.675;    0.000
418.315; 2840.975;  254.675;    0.000
418.369; 2743.975;  245.675;    0.000
418.422; 2896.975;  224.675;    0.000
418.476; 2811.975;  221.675;    0.000
418.529; 2824.975;  234.675;    0.000
418.582; 2891.975;  249.675;    0.000
418.636; 2766.975;  224.675;    0.000
418.689; 2787.975;  228.675;    0.000
418.743; 2850.975;  240.675;    0.000
418.796; 2787.975;  197.675;    0.000
418.849; 2758.975;  220.675;    0.000
418.903; 2844.975;  246.675;    0.000
418.956; 2848.975;  250.675;    0.000
419.009; 2804.975;  276.675;    0.000
419.063; 2762.975;  232.675;    0.000
419.116; 2906.975;  228.675;    0.000
419.169; 2853.975;  249.675;    0.000
419.222; 2839.975;  215.675;    0.000
419.276; 2783.975;  228.675;    0.000
419.329; 2812.975;  246.675;    0.000
419.382; 2758.975;  188.675;    0.000
419.435; 2751.975;  240.675;    0.000
419.489; 2802.975;  261.675;    0.000
419.542; 2814.975;  224.675;    0.000
419.595; 2783.975;  251.675;    0.000
419.648; 2758.975;  236.675;    0.000
419.701; 2710.975;  244.675;    0.000
419.755; 2686.975;  242.675;    0.000
419.808; 2780.975;  242.675;    0.000
419.861; 2726.975;  189.675;    0.000
419.914; 2716.975;  258.675;    0.000
419.967; 2744.975;  230.675;    0.000
420.020; 2668.975;  223.675;    0.000
420.073; 2743.975;  221.675;    0.000
420.127; 2738.975;  252.675;    0.000
420.180; 2747.975;  219.675;    0.000
420.233; 2679.975;  201.675;    0.000
420.286; 2751.975;  221.675;    0.000
420.339; 2768.975;  250.675;    0.000
420.392; 2724.975;  268.675;    0.000
420.445; 2716.975;  223.675;    0.000
420.498; 2696.975;  240.675;    0.000
420.551; 2628.975;  220.675;    0.000
420.604; 2717.975;  231.675;    0.000
420.657; 2695.975;  228.675;    0.000
420.710; 2701.975;  219.675;    0.000
420.763; 2665.975;  280.675;    0.000
420.816; 2705.975;  202.675;    0.000
420.869; 2741.975;  219.675;    0.000
420.922; 2644.975;  218.675;    0.000
420.975; 2631.975;  237.675;    0.000
421.028; 2637.975;  242.675;    0.000
421.081; 2631.975;  247.675;    0.000
421.134; 2589.975;  239.675;    0.000
421.187; 2627.975;  229.675;    0.000
421.239; 2638.975;  200.675;    0.000
421.292; 2683.975;  205.675;    0.000
421.345; 2602.975;  219.675;    0.000
421.398; 2577.975;  187.675;    0.000
421.451; 2592.975;  226.675;    0.000
421.504; 2542.975;  206.675;    0.000
421.557; 2646.975;  226.675;    0.000
421.609; 2602.975;  209.675;    0.000
421.662; 2561.975;  229.675;    0.000
421.715; 2629.975;  231.675;    0.000
421.768; 2664.975;  215.675;    0.000
421.821; 2582.975;  211.675;    0.000
421.873; 2680.975;  220.675;    0.000
421.926; 2577.975;  212.675;    0.000
421.979; 2623.975;  209.675;    0.000
422.032; 2645.975;  203.675;    0.000
422.084; 2560.975;  213.675;    0.000
422.137; 2547.975;  196.675;    0.000
422.190; 2589.975;  246.675;    0.000
422.243; 2614.975;  194.675;    0.000
422.295; 2675.975;  225.675;    0.000
422.348; 2583.975;  248.675;    0.000
422.401; 2632.975;  252.675;    0.000
422.453; 2615.975;  249.675;    0.000
422.506; 2704.975;  233.675;    0.000
422.559; 2554.975;  228.675;    0.000
422.611; 2626.975;  224.675;    0.000
422.664; 2601.975;  226.675;    0.000
422.716; 2714.975;  226.675;    0.000
422.769; 2583.975;  216.675;    0.000
422.822; 2610.975;  256.675;    0.000
422.874; 2510.975;  206.675;    0.000
422.927; 2643.975;  257.675;    0.000
422.979; 2558.975;  209.675;    0.000
423.032; 2556.975;  244.675;    0.000
423.084; 2632.975;  244.675;    0.000
423.137; 2608.975;  213.675;    0.000
423.189; 2536.975;  208.675;    0.000
423.242; 2572.975;  226.675;    0.000
423.294; 2553.975;  250.675;    0.000
423.347; 2545.975;  206.675;    0.000
423.399; 2583.975;  268.675;    0.000
423.452; 2509.975;  262.675;    0.000
423.504; 2571.975;  237.675;    0.000
423.557; 2591.975;  245.675;    0.000
423.609; 2533.975;  211.675;    0.000
423.662; 2526.975;  222.675;    0.000
423.714; 2583.975;  219.675;    0.000
423.766; 2580.975;  250.675;    0.000
423.819; 2480.975;  220.675;    0.000
423.871; 2457.975;  229.675;    0.000
423.923; 2496.975;  219.675;    0.000
423.976; 2610.975;  221.675;    0.000
424.028; 2553.975;  211.675;    0.000
424.081; 2449.975;  254.675;    0.000
424.133; 2525.975;  230.675;    0.000
424.185; 2543.975;  241.675;    0.000
424.238; 2530.975;  182.675;    0.000
424.290; 2559.975;  215.675;    0.000
424.342; 2517.975;  235.675;    0.000
424.394; 2469.975;  225.675;    0.000
424.447; 2456.975;  264.675;    0.000
424.499; 2552.975;  225.675;    0.000
424.551; 2510.975;  237.675;    0.000
424.603; 2433.975;  219.675;    0.000
424.656; 2551.975;  240.675;    0.000
424.708; 2541.975;  266.675;    0.000
424.760; 2589.975;  230.675;    0.000
424.812; 2544.975;  284.675;    0.000
424.864; 2565.975;  189.675;    0.000
424.917; 2352.975;  226.675;    0.000
424.969; 2515.975;  253.675;    0.000
425.021; 2519.975;  233.675;    0.000
425.073; 2517.975;  246.675;    0.000
425.125; 2519.975;  238.675;    0.000
425.177; 2545.975;  253.675;    0.000
425.229; 2604.975;  254.675;    0.000
425.282; 2490.975;  252.675;    0.000
425.334; 2451.975;  261.675;    0.000
425.386; 2498.975;  227.675;    0.000
425.438; 2443.975;  246.675;    0.000
425.490; 2527.975;  249.675;    0.000
425.542; 2506.975;  236.675;    0.000
425.594; 2362.975;  236.675;    0.000
425.646; 2492.975;  237.675;    0.000
425.698; 2430.975;  271.675;    0.000
425.750; 2444.975;  240.675;    0.000
425.802; 2454.975;  238.675;    0.000
425.854; 2442.975;  256.675;    0.000
425.906; 2441.975;  230.675;    0.000
425.958; 2406.975;  231.675;    0.000
426.010; 2469.975;  268.675;    0.000
426.062; 2488.975;  227.675;    0.000
426.114; 2426.975;  234.675;    0.000
426.166; 2363.975;  239.675;    0.000
426.218; 2380.975;  255.675;    0.000
426.270; 2465.975;  196.675;    0.000
426.321; 2475.975;  231.675;    0.000
426.373; 2356.975;  199.675;    0.000
426.425; 2480.975;  245.675;    0.000
426.477; 2319.975;  259.675;    0.000
426.529; 2511.975;  274.675;    0.000
426.581; 2440.975;  221.675;    0.000
426.633; 2425.975;  231.675;    0.000
426.684; 2389.975;  248.675;    0.000
426.736; 2344.975;  237.675;    0.000
426.788; 2310.975;  191.675;    0.000
426.840; 2453.975;  180.675;    0.000
426.892; 2427.975;  259.675;    0.000
426.943; 2439.975;  256.675;    0.000
426.995; 2345.975;  212.675;    0.000
427.047; 2416.975;  233.675;    0.000
427.099; 2425.975;  222.675;    0.000
427.150; 2334.975;  203.675;    0.000
427.202; 2444.975;  218.675;    0.000
427.254; 2369.975;  198.675;    0.000
427.306; 2363.975;  248.675;    0.000
427.357; 2341.975;  239.675;    0.000
427.409; 2390.975;  193.675;    0.000
427.461; 2365.975;  215.675;    0.000
427.512; 2329.975;  251.675;    0.000
427.564; 2340.975;  210.675;    0.000
427.616; 2393.975;  251.675;    0.000
427.667; 2322.975;  246.675;    0.000
427.719; 2321.975;  227.675;    0.000
427.770; 2367.975;  247.675;    0.000
427.822; 2363.975;  261.675;    0.000
427.874; 2393.975;  231.675;    0.000
427.925; 2362.975;  231.675;    0.000
427.977; 2329.975;  243.675;    0.000
428.028; 2398.975;  249.675;    0.000
428.080; 2356.975;  224.675;    0.000
428.131; 2377.975;  247.675;    0.000
428.183; 2378.975;  213.675;    0.000
428.234; 2335.975;  213.675;    0.000
428.286; 2382.975;  224.675;    0.000
428.337; 2333.975;  212.675;    0.000
428.389; 2293.975;  231.675;    0.000
428.440; 2316.975;  248.675;    0.000
428.492; 2424.975;  242.675;    0.000
428.543; 2318.975;  220.675;    0.000
428.595; 2347.975;  212.675;    0.000
428.646; 2317.975;  231.675;    0.000
428.697; 2271.975;  232.675;    0.000
428.749; 2317.975;  231.675;    0.000
428.800; 2330.975;  270.675;    0.000
428.852; 2276.975;  266.675;    0.000
428.903; 2271.975;  215.675;    0.000
428.954; 2356.975;  200.675;    0.000
429.006; 2277.975;  247.675;    0.000
429.057; 2328.975;  247.675;    0.000
429.108; 2283.975;  193.675;    0.000
429.160; 2230.975;  249.675;    0.000
429.211; 2363.975;  228.675;    0.000
429.262; 2261.975;  243.675;    0.000
429.314; 2337.975;  227.675;    0.000
429.365; 2310.975;  242.675;    0.000
429.416; 2258.975;  240.675;    0.000
429.467; 2298.975;  222.675;    0.000
429.519; 2267.975;  233.675;    0.000
429.570; 2291.975;  223.675;    0.000
429.621; 2284.975;  257.675;    0.000
429.672; 2238.975;  220.675;    0.000
429.724; 2230.975;  203.675;    0.000
429.775; 2124.975;  242.675;    0.000
429.826; 2288.975;  195.675;    0.000
429.877; 2251.975;  248.675;    0.000
429.928; 2202.975;  226.675;    0.000
429.980; 2214.975;  189.675;    0.000
430.031; 2195.975;  223.675;    0.000
430.082; 2263.975;  217.675;    0.000
430.133; 2200.975;  210.675;    0.000
430.184; 2190.975;  271.675;    0.000
430.235; 2250.975;  190.675;    0.000
430.286; 2206.975;  233.675;    0.000
430.337; 2242.975;  232.675;    0.000
430.388; 2231.975;  221.675;    0.000
430.439; 2218.975;  221.675;    0.000
430.490; 2260.975;  229.675;    0.000
430.542; 2214.975;  196.675;    0.000
430.593; 2238.975;  214.675;    0.000
430.644; 2252.975;  224.675;    0.000
430.695; 2228.975;  216.675;    0.000
430.746; 2231.975;  228.675;    0.000
430.797; 2224.975;  190.675;    0.000
430.848; 2244.975;  231.675;    0.000
430.898; 2229.975;  232.675;    0.000
430.949; 2167.975;  224.675;    0.000
431.000; 2272.975;  236.675;    0.000
431.051; 2203.975;  251.675;    0.000
431.102; 2155.975;  205.675;    0.000
431.153; 2213.975;  212.675;    0.000
431.204; 2132.975;  200.675;    0.000
431.255; 2223.975;  220.675;    0.000
431.306; 2228.975;  223.675;    0.000
431.357; 2248.975;  240.675;    0.000
431.408; 2283.975;  232.675;    0.000
431.458; 2229.975;  204.675;    0.000
431.509; 2284.975;  196.675;    0.000
431.560; 2309.975;  243.675;    0.000
431.611; 2203.975;  222.675;    0.000
431.662; 2200.975;  246.675;    0.000
431.713; 2205.975;  188.675;    0.000
431.763; 2189.975;  226.675;    0.000
431.814; 2167.975;  239.675;    0.000
431.865; 2200.975;  245.675;    0.000
431.916; 2197.975;  173.675;    0.000
431.966; 2141.975;  220.675;    0.000
432.017; 2231.975;  247.675;    0.000
432.068; 2274.975;  241.675;    0.000
432.118; 2213.975;  220.675;    0.000
432.169; 2195.975;  244.675;    0.000
432.220; 2129.975;  246.675;    0.000
432.271; 2252.975;  203.675;    0.000
432.321; 2194.975;  244.675;    0.000
432.372; 2205.975;  254.675;    0.000
432.423; 2156.975;  224.675;    0.000
432.473; 2205.975;  211.675;    0.000
432.524; 2197.975;  227.675;    0.000
432.574; 2212.975;  228.675;    0.000
432.625; 2181.975;  223.675;    0.000
432.676; 2263.975;  220.675;    0.000
432.726; 2215.975;  257.675;    0.000
432.777; 2137.975;  257.675;    0.000
432.827; 2181.975;  240.675;    0.000
432.878; 2151.975;  219.675;    0.000
432.928; 2170.975;  234.675;    0.000
432.979; 2184.975;  226.675;    0.000
433.029; 2137.975;  216.675;    0.000
433.080; 2135.975;  232.675;    0.000
433.130; 2134.975;  257.675;    0.000
433.181; 2202.975;  243.675;    0.000
433.231; 2221.975;  239.675;    0.000
433.282; 2177.975;  232.675;    0.000
433.332; 2214.975;  256.675;    0.000
433.383; 2184.975;  268.675;    0.000
433.433; 2200.975;  291.675;    0.000
433.484; 2205.975;  263.675;    0.000
433.534; 2157.975;  248.675;    0.000
433.585; 2182.975;  244.675;    0.000
433.635; 2157.975;  242.675;    0.000
433.685; 2241.975;  243.675;    0.000
433.736; 2125.975;  283.675;    0.000
433.786; 2171.975;  264.675;    0.000
433.836; 2214.975;  282.675;    0.000
433.887; 2193.975;  265.675;    0.000
433.937; 2175.975;  255.675;    0.000
433.987; 2161.975;  245.675;    0.000
434.038; 2138.975;  276.675;    0.000
434.088; 2204.975;  249.675;    0.000
434.138; 2255.975;  260.675;    0.000
434.189; 2184.975;  241.675;    0.000
434.239; 2171.975;  232.675;    0.000
434.289; 2274.975;  272.675;    0.000
434.339; 2203.975;  288.675;    0.000
434.389; 2242.975;  258.675;    0.000
434.440; 2213.975;  244.675;    0.000
434.490; 2284.975;  288.675;    0.000
434.540; 2144.975;  252.675;    0.000
434.590; 2242.975;  256.675;    0.000
434.640; 2232.975;  259.675;    0.000
434.691; 2223.975;  220.675;    0.000
434.741; 2157.975;  238.675;    0.000
434.791; 2289.975;  276.675;    0.000
434.841; 2246.975;  256.675;    0.000
434.891; 2179.975;  297.675;    0.000
434.941; 2206.975;  290.675;    0.000
434.991; 2277.975;  261.675;    0.000
435.042; 2137.975;  300.675;    0.000
435.092; 2254.975;  248.675;    0.000
435.142; 2206.975;  246.675;    0.000
435.192; 2150.975;  201.675;    0.000
435.242; 2211.975;  234.675;    0.000
435.292; 2175.975;  266.675;    0.000
435.342; 2182.975;  250.675;    0.000
435.392; 2100.975;  279.675;    0.000
435.442; 2098.975;  242.675;    0.000
435.492; 2212.975;  265.675;    0.000
435.542; 2058.975;  243.675;    0.000
435.592; 2206.975;  243.675;    0.000
435.642; 2187.975;  241.675;    0.000
435.692; 2050.975;  263.675;    0.000
435.742; 2077.975;  264.675;    0.000
435.792; 2146.975;  291.675;    0.000
435.842; 2134.975;  257.675;    0.000
435.891; 2136.975;  224.675;    0.000
435.941; 2068.975;  243.675;    0.000
435.991; 2155.975;  300.675;    0.000
436.041; 2134.975;  197.675;    0.000
436.091; 2146.975;  238.675;    0.000
436.141; 2091.975;  222.675;    0.000
436.191; 2045.975;  249.675;    0.000
436.241; 2134.975;  208.675;    0.000
436.290; 2154.975;  282.675;    0.000
436.340; 2060.975;  233.675;    0.000
436.390; 2108.975;  223.675;    0.000
436.440; 2105.975;  252.675;    0.000
436.490; 2094.975;  254.675;    0.000
436.539; 2072.975;  271.675;    0.000
436.589; 2083.975;  248.675;    0.000
436.639; 2071.975;  235.675;    0.000
436.689; 2109.975;  238.675;    0.000
436.738; 2102.975;  267.675;    0.000
436.788; 2089.975;  239.675;    0.000
436.838; 2030.975;  244.675;    0.000
436.887; 2064.975;  265.675;    0.000
436.937; 2097.975;  261.675;    0.000
436.987; 2028.975;  235.675;    0.000
437.036; 2099.975;  267.675;    0.000
437.086; 2016.975;  258.675;    0.000
437.136; 2099.975;  250.675;    0.000
437.185; 2039.975;  214.675;    0.000
437.235; 2025.975;  257.675;    0.000
437.285; 2102.975;  259.675;    0.000
437.334; 2017.975;  241.675;    0.000
437.384; 2020.975;  231.675;    0.000
437.433; 2036.975;  239.675;    0.000
437.483; 2031.975;  260.675;    0.000
437.532; 1982.975;  277.675;    0.000
437.582; 2035.975;  268.675;    0.000
437.631; 2017.975;  239.675;    0.000
437.681; 2015.975;  251.675;    0.000
437.730; 1976.975;  246.675;    0.000
437.780; 1912.975;  226.675;    0.000
437.829; 2004.975;  256.675;    0.000
437.879; 1963.975;  239.675;    0.000
437.928; 2014.975;  253.675;    0.000
437.978; 1951.975;  245.675;    0.000
438.027; 2041.975;  277.675;    0.000
438.077; 1995.975;  248.675;    0.000
438.126; 1998.975;  201.675;    0.000
438.176; 1960.975;  220.675;    0.000
438.225; 2002.975;  250.675;    0.000
438.274; 1969.975;  234.675;    0.000
438.324; 1952.975;  276.675;    0.000
438.373; 1944.975;  226.675;    0.000
438.422; 1935.975;  228.675;    0.000
438.472; 1996.975;  225.675;    0.000
438.521; 1951.975;  227.675;    0.000
438.570; 1963.975;  242.675;    0.000
438.620; 2087.975;  277.675;    0.000
438.669; 1978.975;  256.675;    0.000
438.718; 1895.975;  248.675;    0.000
438.768; 1996.975;  225.675;    0.000
438.817; 2022.975;  229.675;    0.000
438.866; 1920.975;  218.675;    0.000
438.915; 1926.975;  256.675;    0.000
438.965; 1934.975;  242.675;    0.000
439.014; 1939.975;  260.675;    0.000
439.063; 2038.975;  238.675;    0.000
439.112; 1939.975;  209.675;    0.000
439.162; 1960.975;  258.675;    0.000
439.211; 2024.975;  275.675;    0.000
439.260; 1940.975;  238.675;    0.000
439.309; 1920.975;  237.675;    0.000
439.358; 2014.975;  252.675;    0.000
439.407; 1997.975;  239.675;    0.000
439.456; 1919.975;  211.675;    0.000
439.506; 1979.975;  261.675;    0.000
439.555; 1937.975;  274.675;    0.000
439.604; 1898.975;  262.675;    0.000
439.653; 1997.975;  245.675;    0.000
439.702; 1914.975;  247.675;    0.000
439.751; 1912.975;  228.675;    0.000
439.800; 1885.975;  253.675;    0.000
439.849; 1886.975;  219.675;    0.000
439.898; 1937.975;  246.675;    0.000
439.947; 1894.975;  229.675;    0.000
439.996; 1979.975;  274.675;    0.000
440.045; 1873.975;  224.675;    0.000
440.094; 2006.975;  225.675;    0.000
440.143; 2009.975;  277.675;    0.000
440.192; 1952.975;  252.675;    0.000
440.241; 1978.975;  253.675;    0.000
440.290; 1979.975;  242.675;    0.000
440.339; 1954.975;  220.675;    0.000
440.388; 1965.975;  244.675;    0.000
440.437; 1967.975;  268.675;    0.000
440.486; 1944.975;  242.675;    0.000
440.535; 1926.975;  269.675;    0.000
440.583; 2016.975;  258.675;    0.000
440.632; 1949.975;  286.675;    0.000
440.681; 1976.975;  238.675;    0.000
440.730; 2059.975;  271.675;    0.000
440.779; 1918.975;  226.675;    0.000
440.828; 1851.975;  213.675;    0.000
440.876; 1881.975;  207.675;    0.000
440.925; 1945.975;  247.675;    0.000
440.974; 1980.975;  229.675;    0.000
441.023; 1938.975;  227.675;    0.000
441.072; 1936.975;  222.675;    0.000
441.120; 2057.975;  273.675;    0.000
441.169; 2033.975;  263.675;    0.000
441.218; 1947.975;  264.675;    0.000
441.267; 1992.975;  287.675;    0.000
441.315; 2005.975;  251.675;    0.000
441.364; 1979.975;  252.675;    0.000
441.413; 2031.975;  227.675;    0.000
441.461; 1958.975;  198.675;    0.000
441.510; 1989.975;  273.675;    0.000
441.559; 2011.975;  245.675;    0.000
441.607; 1966.975;  218.675;    0.000
441.656; 2038.975;  261.675;    0.000
441.705; 2040.975;  259.675;    0.000
441.753; 2039.975;  272.675;    0.000
441.802; 1998.975;  246.675;    0.000
441.850; 1958.975;  255.675;    0.000
441.899; 2066.975;  236.675;    0.000
441.948; 1955.975;  267.675;    0.000
441.996; 2002.975;  246.675;    0.000
442.045; 2002.975;  279.675;    0.000
442.093; 1950.975;  251.675;    0.000
442.142; 2052.975;  274.675;    0.000
442.190; 1992.975;  279.675;    0.000
442.239; 1934.975;  295.675;    0.000
442.287; 1938.975;  229.675;    0.000
442.336; 2000.975;  265.675;    0.000
442.384; 1993.975;  219.675;    0.000
442.433; 1941.975;  287.675;    0.000
442.481; 1962.975;  271.675;    0.000
442.529; 2022.975;  262.675;    0.000
442.578; 1991.975;  282.675;    0.000
442.626; 1929.975;  245.675;    0.000
442.675; 1997.975;  283.675;    0.000
442.723; 1950.975;  247.675;    0.000
442.771; 1950.975;  221.675;    0.000
442.820; 1904.975;  253.675;    0.000
442.868; 1909.975;  204.675;    0.000
442.917; 1967.975;  263.675;    0.000
442.965; 1964.975;  255.675;    0.000
443.013; 1952.975;  282.675;    0.000
443.062; 1909.975;  258.675;    0.000
443.110; 1901.975;  268.675;    0.000
443.158; 1920.975;  247.675;    0.000
443.206; 1951.975;  243.675;    0.000
443.255; 1979.975;  271.675;    0.000
443.303; 1957.975;  279.675;    0.000
443.351; 1871.975;  264.675;    0.000
443.399; 1885.975;  245.675;    0.000
443.448; 1910.975;  259.675;    0.000
443.496; 1966.975;  281.675;    0.000
443.544; 1939.975;  213.675;    0.000
443.592; 1966.975;  290.675;    0.000
443.640; 1971.975;  270.675;    0.000
443.689; 1946.975;  229.675;    0.000
443.737; 1886.975;  254.675;    0.000
443.785; 1940.975;  234.675;    0.000
443.833; 2002.975;  287.675;    0.000
443.881; 1892.975;  229.675;    0.000
443.929; 1910.975;  260.675;    0.000
443.977; 1988.975;  265.675;    0.000
444.025; 1949.975;  257.675;    0.000
444.074; 1984.975;  245.675;    0.000
444.122; 1915.975;  282.675;    0.000
444.170; 2016.975;  240.675;    0.000
444.218; 1981.975;  270.675;    0.000
444.266; 1999.975;  254.675;    0.000
444.314; 1971.975;  264.675;    0.000
444.362; 2000.975;  287.675;    0.000
444.410; 1985.975;  236.675;    0.000
444.458; 1959.975;  273.675;    0.000
444.506; 2010.975;  235.675;    0.000
444.554; 1976.975;  242.675;    0.000
444.602; 2019.975;  283.675;    0.000
444.650; 1941.975;  266.675;    0.000
444.698; 2020.975;  248.675;    0.000
444.746; 1988.975;  247.675;    0.000
444.793; 2021.975;  211.675;    0.000
444.841; 2070.975;  259.675;    0.000
444.889; 2009.975;  253.675;    0.000
444.937; 1991.975;  248.675;    0.000
444.985; 2003.975;  233.675;    0.000
445.033; 2015.975;  245.675;    0.000
445.081; 1944.975;  243.675;    0.000
445.129; 1947.975;  238.675;    0.000
445.176; 1966.975;  204.675;    0.000
445.224; 1964.975;  262.675;    0.000
445.272; 2032.975;  256.675;    0.000
445.320; 1869.975;  235.675;    0.000
445.368; 1954.975;  251.675;    0.000
445.415; 1964.975;  250.675;    0.000
445.463; 1911.975;  225.675;    0.000
445.511; 1909.975;  226.675;    0.000
445.559; 1979.975;  251.675;    0.000
445.606; 2004.975;  213.675;    0.000
445.654; 1841.975;  261.675;    0.000
445.702; 1918.975;  222.675;    0.000
445.749; 1957.975;  257.675;    0.000
445.797; 1882.975;  263.675;    0.000
445.845; 1869.975;  218.675;    0.000
445.892; 1927.975;  228.675;    0.000
445.940; 1940.975;  249.675;    0.000
445.988; 1883.975;  276.675;    0.000
446.035; 1892.975;  229.675;    0.000
446.083; 1899.975;  255.675;    0.000
446.130; 1914.975;  200.675;    0.000
446.178; 1913.975;  256.675;    0.000
446.226; 1924.975;  238.675;    0.000
446.273; 1913.975;  250.675;    0.000
446.321; 1858.975;  233.675;    0.000
446.368; 1854.975;  244.675;    0.000
446.416; 1791.975;  214.675;    0.000
446.463; 1953.975;  225.675;    0.000
446.511; 1831.975;  253.675;    0.000
446.558; 1862.975;  246.675;    0.000
446.606; 1934.975;  238.675;    0.000
446.653; 1882.975;  215.675;    0.000
446.701; 1849.975;  248.675;    0.000
446.748; 1856.975;  258.675;    0.000
446.796; 1872.975;  259.675;    0.000
446.843; 1974.975;  269.675;    0.000
446.891; 1850.975;  259.675;    0.000
446.938; 1931.975;  226.675;    0.000
446.985; 1899.975;  225.675;    0.000
447.033; 1871.975;  269.675;    0.000
447.080; 1778.975;  258.675;    0.000
447.128; 1862.975;  225.675;    0.000
447.175; 1880.975;  259.675;    0.000
447.222; 1832.975;  238.675;    0.000
447.270; 1842.975;  250.675;    0.000
447.317; 1806.975;  217.675;    0.000
447.364; 1878.975;  262.675;    0.000
447.411; 1939.975;  269.675;    0.000
447.459; 1791.975;  251.675;    0.000
447.506; 1870.975;  227.675;    0.000
447.553; 1984.975;  250.675;    0.000
447.601; 1980.975;  251.675;    0.000
447.648; 1994.975;  276.675;    0.000
447.695; 1872.975;  229.675;    0.000
447.742; 1806.975;  245.675;    0.000
447.789; 1871.975;  243.675;    0.000
447.837; 1911.975;  267.675;    0.000
447.884; 1906.975;  246.675;    0.000
447.931; 1891.975;  266.675;    0.000
447.978; 1894.975;  242.675;    0.000
448.025; 1816.975;  267.675;    0.000
448.072; 1796.975;  257.675;    0.000
448.120; 1844.975;  279.675;    0.000
448.167; 1920.975;  275.675;    0.000
448.214; 1834.975;  241.675;    0.000
448.261; 1859.975;  271.675;    0.000
448.308; 1869.975;  256.675;    0.000
448.355; 1907.975;  253.675;    0.000
448.402; 1819.975;  267.675;    0.000
448.449; 1888.975;  252.675;    0.000
448.496; 1904.975;  241.675;    0.000
448.543; 1837.975;  250.675;    0.000
448.590; 1886.975;  288.675;    0.000
448.637; 1902.975;  255.675;    0.000
448.684; 1889.975;  284.675;    0.000
448.731; 1813.975;  244.675;    0.000
448.778; 1863.975;  257.675;    0.000
448.825; 1808.975;  252.675;    0.000
448.872; 1762.975;  205.675;    0.000
448.919; 1853.975;  244.675;    0.000
448.966; 1897.975;  278.675;    0.000
449.013; 1808.975;  262.675;    0.000
449.060; 1803.975;  278.675;    0.000
449.107; 1842.975;  248.675;    0.000
449.154; 1871.975;  230.675;    0.000
449.200; 1777.975;  211.675;    0.000
449.247; 1851.975;  283.675;    0.000
449.294; 1838.975;  251.675;    0.000
449.341; 1812.975;  280.675;    0.000
449.388; 1844.975;  247.675;    0.000
449.435; 1809.975;  267.675;    0.000
449.481; 1896.975;  303.675;    0.000
449.528; 1846.975;  279.675;    0.000
449.575; 1843.975;  226.675;    0.000
449.622; 1827.975;  263.675;    0.000
449.668; 1855.975;  249.675;    0.000
449.715; 1833.975;  257.675;    0.000
449.762; 1874.975;  251.675;    0.000
449.809; 1856.975;  289.675;    0.000
449.855; 1916.975;  239.675;    0.000
449.902; 1830.975;  262.675;    0.000
449.949; 1795.975;  262.675;    0.000
449.995; 1908.975;  265.675;    0.000
450.042; 1903.975;  280.675;    0.000
450.089; 1859.975;  277.675;    0.000
450.135; 1866.975;  285.675;    0.000
450.182; 1806.975;  275.675;    0.000
450.229; 1783.975;  278.675;    0.000
450.275; 1880.975;  288.675;    0.000
450.322; 1804.975;  238.675;    0.000
450.368; 1868.975;  276.675;    0.000
450.415; 1866.975;  295.675;    0.000
450.462; 1858.975;  283.675;    0.000
450.508; 1869.975;  264.675;    0.000
450.555; 1839.975;  275.675;    0.000
450.601; 1867.975;  278.675;    0.000
450.648; 1890.975;  251.675;    0.000
450.694; 1840.975;  237.675;    0.000
450.741; 1863.975;  280.675;    0.000
450.787; 1804.975;  279.675;    0.000
450.834; 1834.975;  287.675;    0.000
450.880; 1884.975;  265.675;    0.000
450.927; 1901.975;  270.675;    0.000
450.973; 1786.975;  308.675;    0.000
451.019; 1773.975;  253.675;    0.000
451.066; 1872.975;  261.675;    0.000
451.112; 1853.975;  276.675;    0.000
451.159; 1803.975;  235.675;    0.000
451.205; 1896.975;  284.675;    0.000
451.251; 1877.975;  264.675;    0.000
451.298; 1839.975;  262.675;    0.000
451.344; 1811.975;  278.675;    0.000
451.390; 1894.975;  273.675;    0.000
451.437; 1915.975;  272.675;    0.000
451.483; 1859.975;  302.675;    0.000
451.529; 1884.975;  255.675;    0.000
451.576; 1840.975;  287.675;    0.000
451.622; 1784.975;  254.675;    0.000
451.668; 1838.975;  260.675;    0.000
451.714; 1770.975;  289.675;    0.000
451.761; 1869.975;  273.675;    0.000
451.807; 1859.975;  307.675;    0.000
451.853; 1867.975;  281.675;    0.000
451.899; 1826.975;  246.675;    0.000
451.945; 1888.975;  258.675;    0.000
451.992; 1817.975;  276.675;    0.000
452.038; 1828.975;  287.675;    0.000
452.084; 1784.975;  288.675;    0.000
452.130; 1798.975;  259.675;    0.000
452.176; 1791.975;  265.675;    0.000
452.222; 1837.975;  222.675;    0.000
452.268; 1849.975;  271.675;    0.000
452.315; 1889.975;  258.675;    0.000
452.361; 1830.975;  233.675;    0.000
452.407; 1858.975;  270.675;    0.000
452.453; 1769.975;  261.675;    0.000
452.499; 1829.975;  279.675;    0.000
452.545; 1787.975;  269.675;    0.000
452.591; 1826.975;  288.675;    0.000
452.637; 1830.975;  279.675;    0.000
452.683; 1811.975;  232.675;    0.000
452.729; 1847.975;  285.675;    0.000
452.775; 1852.975;  280.675;    0.000
452.821; 1820.975;  260.675;    0.000
452.867; 1864.975;  239.675;    0.000
452.913; 1790.975;  240.675;    0.000
452.959; 1774.975;  214.675;    0.000
453.005; 1835.975;  266.675;    0.000
453.051; 1843.975;  258.675;    0.000
453.097; 1837.975;  253.675;    0.000
453.142; 1858.975;  244.675;    0.000
453.188; 1806.975;  241.675;    0.000
453.234; 1828.975;  257.675;    0.000
453.280; 1786.975;  231.675;    0.000
453.326; 1815.975;  240.675;    0.000
453.372; 1766.975;  208.675;    0.000
453.418; 1834.975;  266.675;    0.000
453.463; 1813.975;  232.675;    0.000
453.509; 1850.975;  221.675;    0.000
453.555; 1788.975;  268.675;    0.000
453.601; 1706.975;  242.675;    0.000
453.647; 1802.975;  283.675;    0.000
453.692; 1781.975;  242.675;    0.000
453.738; 1840.975;  294.675;    0.000
453.784; 1803.975;  256.675;    0.000
453.829; 1754.975;  267.675;    0.000
453.875; 1798.975;  233.675;    0.000
453.921; 1807.975;  247.675;    0.000
453.967; 1779.975;  249.675;    0.000
454.012; 1798.975;  274.675;    0.000
454.058; 1784.975;  249.675;    0.000
454.104; 1838.975;  272.675;    0.000
454.149; 1852.975;  277.675;    0.000
454.195; 1792.975;  256.675;    0.000
454.240; 1888.975;  263.675;    0.000
454.286; 1677.975;  276.675;    0.000
454.332; 1832.975;  290.675;    0.000
454.377; 1855.975;  274.675;    0.000
454.423; 1793.975;  282.675;    0.000
454.468; 1815.975;  275.675;    0.000
454.514; 1813.975;  270.675;    0.000
454.559; 1807.975;  249.675;    0.000
454.605; 1778.975;  241.675;    0.000
454.650; 1745.975;  269.675;    0.000
454.696; 1796.975;  253.675;    0.000
454.741; 1791.975;  279.675;    0.000
454.787; 1784.975;  252.675;    0.000
454.832; 1850.975;  246.675;    0.000
454.878; 1847.975;  264.675;    0.000
454.923; 1777.975;  268.675;    0.000
454.969; 1820.975;  253.675;    0.000
455.014; 1881.975;  264.675;    0.000
455.060; 1806.975;  265.675;    0.000
455.105; 1900.975;  270.675;    0.000
455.150; 1903.975;  284.675;    0.000
455.196; 1857.975;  278.675;    0.000
455.241; 1791.975;  248.675;    0.000
455.286; 1836.975;  274.675;    0.000
455.332; 1861.975;  269.675;    0.000
455.377; 1766.975;  218.675;    0.000
455.422; 1853.975;  261.675;    0.000
455.468; 1778.975;  278.675;    0.000
455.513; 1807.975;  235.675;    0.000
455.558; 1763.975;  232.675;    0.000
455.604; 1840.975;  285.675;    0.000
455.649; 1797.975;  264.675;    0.000
455.694; 1818.975;  235.675;    0.000
455.739; 1820.975;  265.675;    0.000
455.785; 1920.975;  266.675;    0.000
455.830; 1851.975;  272.675;    0.000
455.875; 1853.975;  256.675;    0.000
455.920; 1812.975;  191.675;    0.000
455.965; 1795.975;  280.675;    0.000
456.010; 1851.975;  267.675;    0.000
456.056; 1866.975;  270.675;    0.000
456.101; 1769.975;  248.675;    0.000
456.146; 1767.975;  287.675;    0.000
456.191; 1838.975;  280.675;    0.000
456.236; 1846.975;  229.675;    0.000
456.281; 1786.975;  241.675;    0.000
456.326; 1825.975;  248.675;    0.000
456.371; 1808.975;  233.675;    0.000
456.416; 1848.975;  284.675;    0.000
456.461; 1818.975;  256.675;    0.000
456.507; 1860.975;  250.675;    0.000
456.552; 1823.975;  290.675;    0.000
456.597; 1815.975;  260.675;    0.000
456.642; 1827.975;  252.675;    0.000
456.687; 1872.975;  272.675;    0.000
456.732; 1829.975;  303.675;    0.000
456.776; 1844.975;  269.675;    0.000
456.821; 1796.975;  256.675;    0.000
456.866; 1812.975;  278.675;    0.000
456.911; 1789.975;  230.675;    0.000
456.956; 1873.975;  275.675;    0.000
457.001; 1851.975;  248.675;    0.000
457.046; 1779.975;  222.675;    0.000
457.091; 1843.975;  251.675;    0.000
457.136; 1789.975;  231.675;    0.000
457.181; 1853.975;  245.675;    0.000
457.225; 1862.975;  262.675;    0.000
457.270; 1896.975;  277.675;    0.000
457.315; 1838.975;  235.675;    0.000
457.360; 1811.975;  231.675;    0.000
457.405; 1851.975;  214.675;    0.000
457.450; 1846.975;  255.675;    0.000
457.494; 1813.975;  220.675;    0.000
457.539; 1890.975;  257.675;    0.000
457.584; 1848.975;  279.675;    0.000
457.629; 1770.975;  249.675;    0.000
457.673; 1794.975;  237.675;    0.000
457.718; 1903.975;  232.675;    0.000
457.763; 1830.975;  278.675;    0.000
457.807; 1825.975;  279.675;    0.000
457.852; 1856.975;  246.675;    0.000
457.897; 1864.975;  284.675;    0.000
457.941; 1848.975;  272.675;    0.000
457.986; 1966.975;  285.675;    0.000
458.031; 1867.975;  235.675;    0.000
458.075; 1871.975;  299.675;    0.000
458.120; 1911.975;  284.675;    0.000
458.165; 1899.975;  212.675;    0.000
458.209; 1856.975;  254.675;    0.000
458.254; 1872.975;  257.675;    0.000
458.298; 1922.975;  265.675;    0.000
458.343; 1900.975;  278.675;    0.000
458.387; 1986.975;  316.675;    0.000
458.432; 1993.975;  279.675;    0.000
458.476; 1963.975;  272.675;    0.000
458.521; 1872.975;  240.675;    0.000
458.565; 1967.975;  307.675;    0.000
458.610; 1974.975;  246.675;    0.000
458.654; 1849.975;  275.675;    0.000
458.699; 1922.975;  288.675;    0.000
458.743; 1949.975;  244.675;    0.000
458.788; 1966.975;  245.675;    0.000
458.832; 1966.975;  277.675;    0.000
458.877; 1959.975;  285.675;    0.000
458.921; 1972.975;  216.675;    0.000
458.965; 1959.975;  260.675;    0.000
459.010; 1938.975;  284.675;    0.000
459.054; 1966.975;  272.675;    0.000
459.099; 1944.975;  262.675;    0.000
459.143; 1977.975;  276.675;    0.000
459.187; 1974.975;  258.675;    0.000
459.231; 2018.975;  278.675;    0.000
459.276; 1980.975;  262.675;    0.000
459.320; 2025.975;  291.675;    0.000
459.364; 2039.975;  294.675;    0.000
459.409; 2066.975;  269.675;    0.000
459.453; 2042.975;  257.675;    0.000
459.497; 2043.975;  283.675;    0.000
459.541; 2027.975;  275.675;    0.000
459.586; 1904.975;  261.675;    0.000
459.630; 1980.975;  284.675;    0.000
459.674; 2060.975;  244.675;    0.000
459.718; 1970.975;  309.675;    0.000
459.762; 2058.975;  281.675;    0.000
459.807; 2025.975;  250.675;    0.000
459.851; 2083.975;  286.675;    0.000
459.895; 2035.975;  230.675;    0.000
459.939; 1996.975;  262.675;    0.000
459.983; 2100.975;  250.675;    0.000
460.027; 1975.975;  275.675;    0.000
460.071; 2038.975;  301.675;    0.000
460.115; 2062.975;  279.675;    0.000
460.159; 2045.975;  301.675;    0.000
460.204; 2031.975;  287.675;    0.000
460.248; 2152.975;  293.675;    0.000
460.292; 2126.975;  310.675;    0.000
460.336; 1996.975;  263.675;    0.000
460.380; 2063.975;  268.675;    0.000
460.424; 2070.975;  281.675;    0.000
460.468; 2077.975;  310.675;    0.000
460.512; 2080.975;  273.675;    0.000
460.556; 2111.975;  291.675;    0.000
460.599; 2006.975;  240.675;    0.000
460.643; 2070.975;  260.675;    0.000
460.687; 2043.975;  283.675;    0.000
460.731; 2055.975;  254.675;    0.000
460.775; 2040.975;  265.675;    0.000
460.819; 2120.975;  280.675;    0.000
460.863; 2128.975;  316.675;    0.000
460.907; 1984.975;  231.675;    0.000
460.951; 2066.975;  275.675;    0.000
460.995; 2061.975;  290.675;    0.000
461.038; 2087.975;  284.675;    0.000
461.082; 2095.975;  278.675;    0.000
461.126; 2127.975;  321.675;    0.000
461.170; 2120.975;  273.675;    0.000
461.214; 2075.975;  289.675;    0.000
461.257; 2154.975;  296.675;    0.000
461.301; 2066.975;  287.675;    0.000
461.345; 2082.975;  290.675;    0.000
461.389; 2097.975;  260.675;    0.000
461.432; 2152.975;  262.675;    0.000
461.476; 2014.975;  254.675;    0.000
461.520; 2044.975;  305.675;    0.000
461.563; 2078.975;  289.675;    0.000
461.607; 2091.975;  286.675;    0.000
461.651; 2077.975;  271.675;    0.000
461.694; 2088.975;  245.675;    0.000
461.738; 2143.975;  278.675;    0.000
461.782; 2174.975;  284.675;    0.000
461.825; 2170.975;  305.675;    0.000
461.869; 2089.975;  293.675;    0.000
461.913; 2131.975;  280.675;    0.000
461.956; 2132.975;  237.675;    0.000
462.000; 2122.975;  288.675;    0.000
462.043; 2120.975;  282.675;    0.000
462.087; 2107.975;  268.675;    0.000
462.130; 2174.975;  286.675;    0.000
462.174; 2201.975;  312.675;    0.000
462.217; 2220.975;  270.675;    0.000
462.261; 2175.975;  281.675;    0.000
462.304; 2212.975;  248.675;    0.000
462.348; 2178.975;  267.675;    0.000
462.391; 2207.975;  270.675;    0.000
462.435; 2169.975;  287.675;    0.000
462.478; 2232.975;  290.675;    0.000
462.522; 2203.975;  296.675;    0.000
462.565; 2260.975;  275.675;    0.000
462.608; 2296.975;  325.675;    0.000
462.652; 2275.975;  303.675;    0.000
462.695; 2249.975;  355.675;    0.000
462.739; 2258.975;  272.675;    0.000
462.782; 2211.975;  295.675;    0.000
462.825; 2327.975;  300.675;    0.000
462.869; 2284.975;  319.675;    0.000
462.912; 2291.975;  363.675;    0.000
462.955; 2214.975;  298.675;    0.000
462.998; 2274.975;  321.675;    0.000
463.042; 2346.975;  310.675;    0.000
463.085; 2285.975;  305.675;    0.000
463.128; 2308.975;  345.675;    0.000
463.172; 2186.975;  341.675;    0.000
463.215;  376.975;  300.675;    0.000
463.258;  320.975;  287.675;    0.000
463.301;  295.975;  290.675;    0.000
463.344;  337.975;  320.675;    0.000
463.388;  344.975;  340.675;    0.000
463.431;  303.975;  278.675;    0.000
463.474;  349.975;  353.675;    0.000
463.517;  328.975;  295.675;    0.000
463.560;  309.975;  328.675;    0.000
463.603;  321.975;  316.675;    0.000
463.646;  340.975;  295.675;    0.000
463.690;  311.975;  334.675;    0.000
463.733;  337.975;  343.675;    0.000
463.776;  315.975;  300.675;    0.000
463.819;  339.975;  368.675;    0.000
463.862;  281.975;  327.675;    0.000

