
Integration time [ms]:   0.300
Averaging Nr. [scans]: 1
Smoothing Nr. [pixels]: 0
Data measured with spectrometer [name]: UV1
Wave   ;Sample   ;Dark     ;Reference
[nm]   ;[counts] ;[counts] ;[counts] 

236.381;  153.275;  149.925;    0.000
236.451;  209.275;  206.925;    0.000
236.520;  202.275;  212.925;    0.000
236.590;  207.275;  189.925;    0.000
236.660;  199.275;  184.925;    0.000
236.730;  158.275;  186.925;    0.000
236.799;  212.275;  191.925;    0.000
236.869;  208.275;  184.925;    0.000
236.939;  185.275;  176.925;    0.000
237.009;  193.275;  184.925;    0.000
237.078;  166.275;  189.925;    0.000
237.148;  175.275;  217.925;    0.000
237.218;  215.275;  192.925;    0.000
237.287;  182.275;  182.925;    0.000
237.357;  178.275;  196.925;    0.000
237.427;  190.275;  144.925;    0.000
237.496;  753.275;  224.925;    0.000
237.566;  781.275;  210.925;    0.000
237.636;  776.275;  165.925;    0.000
237.705;  804.275;  214.925;    0.000
237.775;  770.275;  194.925;    0.000
237.845;  842.275;  214.925;    0.000
237.914;  766.275;  191.925;    0.000
237.984;  783.275;  218.925;    0.000
238.054;  791.275;  187.925;    0.000
238.123;  752.275;  179.925;    0.000
238.193;  724.275;  177.925;    0.000
238.263;  758.275;  225.925;    0.000
238.332;  745.275;  197.925;    0.000
238.402;  821.275;  183.925;    0.000
238.471;  761.275;  181.925;    0.000
238.541;  735.275;  200.925;    0.000
238.611;  708.275;  170.925;    0.000
238.680;  764.275;  170.925;    0.000
238.750;  824.275;  175.925;    0.000
238.819;  822.275;  180.925;    0.000
238.889;  779.275;  190.925;    0.000
238.958;  735.275;  207.925;    0.000
239.028;  709.275;  201.925;    0.000
239.097;  769.275;  181.925;    0.000
239.167;  752.275;  222.925;    0.000
239.237;  799.275;  221.925;    0.000
239.306;  769.275;  147.925;    0.000
239.376;  748.275;  188.925;    0.000
239.445;  792.275;  198.925;    0.000
239.515;  723.275;  191.925;    0.000
239.584;  719.275;  178.925;    0.000
239.654;  736.275;  147.925;    0.000
239.723;  717.275;  212.925;    0.000
239.793;  747.275;  185.925;    0.000
239.862;  747.275;  157.925;    0.000
239.932;  751.275;  181.925;    0.000
240.001;  769.275;  163.925;    0.000
240.070;  756.275;  194.925;    0.000
240.140;  799.275;  202.925;    0.000
240.209;  767.275;  180.925;    0.000
240.279;  765.275;  188.925;    0.000
240.348;  780.275;  189.925;    0.000
240.418;  769.275;  143.925;    0.000
240.487;  737.275;  195.925;    0.000
240.556;  741.275;  170.925;    0.000
240.626;  724.275;  172.925;    0.000
240.695;  737.275;  202.925;    0.000
240.765;  760.275;  191.925;    0.000
240.834;  706.275;  177.925;    0.000
240.903;  714.275;  189.925;    0.000
240.973;  673.275;  196.925;    0.000
241.042;  704.275;  183.925;    0.000
241.112;  689.275;  189.925;    0.000
241.181;  770.275;  186.925;    0.000
241.250;  688.275;  168.925;    0.000
241.320;  714.275;  200.925;    0.000
241.389;  689.275;  185.925;    0.000
241.458;  732.275;  194.925;    0.000
241.528;  720.275;  165.925;    0.000
241.597;  737.275;  200.925;    0.000
241.666;  730.275;  184.925;    0.000
241.736;  708.275;  176.925;    0.000
241.805;  679.275;  165.925;    0.000
241.874;  717.275;  200.925;    0.000
241.943;  768.275;  184.925;    0.000
242.013;  734.275;  212.925;    0.000
242.082;  719.275;  200.925;    0.000
242.151;  767.275;  196.925;    0.000
242.221;  614.275;  182.925;    0.000
242.290;  651.275;  222.925;    0.000
242.359;  672.275;  142.925;    0.000
242.428;  737.275;  180.925;    0.000
242.498;  707.275;  180.925;    0.000
242.567;  680.275;  181.925;    0.000
242.636;  685.275;  203.925;    0.000
242.705;  725.275;  209.925;    0.000
242.774;  770.275;  172.925;    0.000
242.844;  745.275;  218.925;    0.000
242.913;  669.275;  188.925;    0.000
242.982;  682.275;  193.925;    0.000
243.051;  676.275;  202.925;    0.000
243.120;  678.275;  174.925;    0.000
243.190;  688.275;  165.925;    0.000
243.259;  718.275;  206.925;    0.000
243.328;  676.275;  166.925;    0.000
243.397;  665.275;  167.925;    0.000
243.466;  686.275;  163.925;    0.000
243.535;  667.275;  162.925;    0.000
243.605;  616.275;  159.925;    0.000
243.674;  705.275;  171.925;    0.000
243.743;  706.275;  189.925;    0.000
243.812;  674.275;  169.925;    0.000
243.881;  637.275;  145.925;    0.000
243.950;  621.275;  197.925;    0.000
244.019;  678.275;  189.925;    0.000
244.088;  670.275;  200.925;    0.000
244.158;  726.275;  208.925;    0.000
244.227;  612.275;  154.925;    0.000
244.296;  636.275;  142.925;    0.000
244.365;  594.275;  198.925;    0.000
244.434;  622.275;  162.925;    0.000
244.503;  638.275;  186.925;    0.000
244.572;  623.275;  143.925;    0.000
244.641;  609.275;  145.925;    0.000
244.710;  696.275;  159.925;    0.000
244.779;  700.275;  175.925;    0.000
244.848;  616.275;  163.925;    0.000
244.917;  659.275;  157.925;    0.000
244.986;  642.275;  166.925;    0.000
245.055;  661.275;  211.925;    0.000
245.124;  627.275;  155.925;    0.000
245.193;  637.275;  187.925;    0.000
245.262;  623.275;  152.925;    0.000
245.331;  640.275;  177.925;    0.000
245.400;  586.275;  157.925;    0.000
245.469;  605.275;  195.925;    0.000
245.538;  630.275;  199.925;    0.000
245.607;  685.275;  194.925;    0.000
245.676;  613.275;  170.925;    0.000
245.745;  648.275;  208.925;    0.000
245.814;  676.275;  185.925;    0.000
245.883;  638.275;  165.925;    0.000
245.952;  644.275;  151.925;    0.000
246.021;  644.275;  171.925;    0.000
246.090;  675.275;  174.925;    0.000
246.159;  625.275;  192.925;    0.000
246.227;  572.275;  178.925;    0.000
246.296;  665.275;  159.925;    0.000
246.365;  635.275;  189.925;    0.000
246.434;  677.275;  205.925;    0.000
246.503;  604.275;  174.925;    0.000
246.572;  691.275;  203.925;    0.000
246.641;  646.275;  169.925;    0.000
246.710;  613.275;  186.925;    0.000
246.779;  628.275;  196.925;    0.000
246.847;  657.275;  209.925;    0.000
246.916;  549.275;  177.925;    0.000
246.985;  652.275;  188.925;    0.000
247.054;  584.275;  189.925;    0.000
247.123;  605.275;  196.925;    0.000
247.192;  658.275;  210.925;    0.000
247.260;  604.275;  164.925;    0.000
247.329;  599.275;  204.925;    0.000
247.398;  589.275;  204.925;    0.000
247.467;  610.275;  160.925;    0.000
247.536;  630.275;  193.925;    0.000
247.604;  623.275;  208.925;    0.000
247.673;  619.275;  168.925;    0.000
247.742;  614.275;  182.925;    0.000
247.811;  596.275;  186.925;    0.000
247.879;  572.275;  166.925;    0.000
247.948;  603.275;  192.925;    0.000
248.017;  607.275;  178.925;    0.000
248.086;  586.275;  193.925;    0.000
248.154;  609.275;  191.925;    0.000
248.223;  567.275;  207.925;    0.000
248.292;  613.275;  168.925;    0.000
248.361;  601.275;  211.925;    0.000
248.429;  590.275;  196.925;    0.000
248.498;  622.275;  163.925;    0.000
248.567;  591.275;  159.925;    0.000
248.635;  658.275;  194.925;    0.000
248.704;  564.275;  205.925;    0.000
248.773;  542.275;  190.925;    0.000
248.841;  632.275;  179.925;    0.000
248.910;  549.275;  193.925;    0.000
248.979;  604.275;  167.925;    0.000
249.047;  567.275;  166.925;    0.000
249.116;  604.275;  191.925;    0.000
249.185;  599.275;  203.925;    0.000
249.253;  566.275;  140.925;    0.000
249.322;  577.275;  173.925;    0.000
249.390;  525.275;  165.925;    0.000
249.459;  623.275;  173.925;    0.000
249.528;  573.275;  203.925;    0.000
249.596;  612.275;  204.925;    0.000
249.665;  536.275;  176.925;    0.000
249.733;  618.275;  178.925;    0.000
249.802;  585.275;  190.925;    0.000
249.871;  594.275;  171.925;    0.000
249.939;  551.275;  160.925;    0.000
250.008;  589.275;  220.925;    0.000
250.076;  584.275;  211.925;    0.000
250.145;  590.275;  145.925;    0.000
250.213;  516.275;  177.925;    0.000
250.282;  511.275;  186.925;    0.000
250.350;  524.275;  170.925;    0.000
250.419;  543.275;  195.925;    0.000
250.487;  516.275;  194.925;    0.000
250.556;  581.275;  178.925;    0.000
250.624;  571.275;  193.925;    0.000
250.693;  517.275;  167.925;    0.000
250.761;  523.275;  253.925;    0.000
250.830;  551.275;  241.925;    0.000
250.898;  548.275;  161.925;    0.000
250.967;  563.275;  178.925;    0.000
251.035;  550.275;  189.925;    0.000
251.104;  555.275;  166.925;    0.000
251.172;  513.275;  178.925;    0.000
251.241;  505.275;  174.925;    0.000
251.309;  571.275;  197.925;    0.000
251.378;  604.275;  172.925;    0.000
251.446;  487.275;  157.925;    0.000
251.514;  558.275;  197.925;    0.000
251.583;  516.275;  191.925;    0.000
251.651;  515.275;  154.925;    0.000
251.720;  531.275;  198.925;    0.000
251.788;  581.275;  226.925;    0.000
251.856;  548.275;  164.925;    0.000
251.925;  529.275;  181.925;    0.000
251.993;  593.275;  203.925;    0.000
252.062;  571.275;  211.925;    0.000
252.130;  518.275;  185.925;    0.000
252.198;  599.275;  190.925;    0.000
252.267;  488.275;  176.925;    0.000
252.335;  550.275;  179.925;    0.000
252.403;  531.275;  173.925;    0.000
252.472;  586.275;  172.925;    0.000
252.540;  499.275;  187.925;    0.000
252.608;  525.275;  204.925;    0.000
252.677;  516.275;  179.925;    0.000
252.745;  517.275;  192.925;    0.000
252.813;  542.275;  168.925;    0.000
252.881;  475.275;  157.925;    0.000
252.950;  484.275;  188.925;    0.000
253.018;  527.275;  191.925;    0.000
253.086;  486.275;  164.925;    0.000
253.155;  442.275;  172.925;    0.000
253.223;  511.275;  168.925;    0.000
253.291;  495.275;  190.925;    0.000
253.359;  517.275;  205.925;    0.000
253.428;  568.275;  228.925;    0.000
253.496;  510.275;  170.925;    0.000
253.564;  453.275;  164.925;    0.000
253.632;  533.275;  159.925;    0.000
253.700;  540.275;  166.925;    0.000
253.769;  473.275;  172.925;    0.000
253.837;  526.275;  157.925;    0.000
253.905;  526.275;  168.925;    0.000
253.973;  556.275;  179.925;    0.000
254.041;  527.275;  187.925;    0.000
254.110;  500.275;  186.925;    0.000
254.178;  500.275;  156.925;    0.000
254.246;  516.275;  132.925;    0.000
254.314;  537.275;  191.925;    0.000
254.382;  529.275;  189.925;    0.000
254.450;  499.275;  163.925;    0.000
254.518;  527.275;  172.925;    0.000
254.587;  523.275;  162.925;    0.000
254.655;  508.275;  191.925;    0.000
254.723;  510.275;  184.925;    0.000
254.791;  523.275;  169.925;    0.000
254.859;  557.275;  186.925;    0.000
254.927;  565.275;  207.925;    0.000
254.995;  555.275;  143.925;    0.000
255.063;  590.275;  198.925;    0.000
255.131;  527.275;  168.925;    0.000
255.199;  524.275;  183.925;    0.000
255.267;  538.275;  159.925;    0.000
255.336;  565.275;  197.925;    0.000
255.404;  524.275;  177.925;    0.000
255.472;  543.275;  204.925;    0.000
255.540;  543.275;  169.925;    0.000
255.608;  572.275;  141.925;    0.000
255.676;  550.275;  176.925;    0.000
255.744;  593.275;  184.925;    0.000
255.812;  551.275;  158.925;    0.000
255.880;  587.275;  202.925;    0.000
255.948;  557.275;  184.925;    0.000
256.016;  644.275;  192.925;    0.000
256.084;  624.275;  204.925;    0.000
256.152;  577.275;  191.925;    0.000
256.220;  591.275;  187.925;    0.000
256.288;  602.275;  176.925;    0.000
256.356;  575.275;  146.925;    0.000
256.424;  557.275;  164.925;    0.000
256.491;  646.275;  161.925;    0.000
256.559;  581.275;  167.925;    0.000
256.627;  668.275;  180.925;    0.000
256.695;  629.275;  159.925;    0.000
256.763;  638.275;  166.925;    0.000
256.831;  636.275;  166.925;    0.000
256.899;  662.275;  161.925;    0.000
256.967;  603.275;  116.925;    0.000
257.035;  636.275;  195.925;    0.000
257.103;  706.275;  227.925;    0.000
257.171;  675.275;  147.925;    0.000
257.238;  664.275;  158.925;    0.000
257.306;  677.275;  188.925;    0.000
257.374;  711.275;  153.925;    0.000
257.442;  710.275;  159.925;    0.000
257.510;  753.275;  201.925;    0.000
257.578;  729.275;  137.925;    0.000
257.646;  766.275;  172.925;    0.000
257.713;  697.275;  164.925;    0.000
257.781;  764.275;  163.925;    0.000
257.849;  744.275;  174.925;    0.000
257.917;  792.275;  164.925;    0.000
257.985;  734.275;  126.925;    0.000
258.052;  844.275;  158.925;    0.000
258.120;  791.275;  151.925;    0.000
258.188;  901.275;  169.925;    0.000
258.256;  837.275;  110.925;    0.000
258.324;  850.275;  193.925;    0.000
258.391;  829.275;  157.925;    0.000
258.459;  879.275;  193.925;    0.000
258.527;  882.275;  150.925;    0.000
258.595;  898.275;  173.925;    0.000
258.662;  850.275;  168.925;    0.000
258.730;  930.275;  190.925;    0.000
258.798;  869.275;  164.925;    0.000
258.865;  970.275;  165.925;    0.000
258.933;  952.275;  162.925;    0.000
259.001;  978.275;  174.925;    0.000
259.069; 1004.275;  139.925;    0.000
259.136;  986.275;  160.925;    0.000
259.204; 1050.275;  174.925;    0.000
259.272; 1015.275;  161.925;    0.000
259.339;  932.275;  157.925;    0.000
259.407; 1063.275;  159.925;    0.000
259.475; 1024.275;  134.925;    0.000
259.542; 1058.275;  179.925;    0.000
259.610; 1065.275;  172.925;    0.000
259.677; 1121.275;  152.925;    0.000
259.745; 1047.275;  131.925;    0.000
259.813; 1123.275;  185.925;    0.000
259.880; 1190.275;  183.925;    0.000
259.948; 1132.275;  168.925;    0.000
260.016; 1166.275;  160.925;    0.000
260.083; 1209.275;  163.925;    0.000
260.151; 1167.275;  162.925;    0.000
260.218; 1214.275;  171.925;    0.000
260.286; 1213.275;  154.925;    0.000
260.353; 1166.275;  182.925;    0.000
260.421; 1148.275;  187.925;    0.000
260.489; 1269.275;  185.925;    0.000
260.556; 1288.275;  165.925;    0.000
260.624; 1272.275;  185.925;    0.000
260.691; 1274.275;  175.925;    0.000
260.759; 1293.275;  201.925;    0.000
260.826; 1312.275;  150.925;    0.000
260.894; 1311.275;  142.925;    0.000
260.961; 1365.275;  156.925;    0.000
261.029; 1296.275;  161.925;    0.000
261.096; 1368.275;  172.925;    0.000
261.164; 1347.275;  149.925;    0.000
261.231; 1431.275;  191.925;    0.000
261.299; 1368.275;  182.925;    0.000
261.366; 1393.275;  156.925;    0.000
261.434; 1461.275;  188.925;    0.000
261.501; 1463.275;  170.925;    0.000
261.568; 1465.275;  167.925;    0.000
261.636; 1513.275;  169.925;    0.000
261.703; 1450.275;  200.925;    0.000
261.771; 1546.275;  170.925;    0.000
261.838; 1523.275;  175.925;    0.000
261.906; 1536.275;  135.925;    0.000
261.973; 1530.275;  184.925;    0.000
262.040; 1600.275;  176.925;    0.000
262.108; 1542.275;  201.925;    0.000
262.175; 1513.275;  141.925;    0.000
262.243; 1643.275;  175.925;    0.000
262.310; 1586.275;  112.925;    0.000
262.377; 1583.275;  158.925;    0.000
262.445; 1590.275;  162.925;    0.000
262.512; 1610.275;  184.925;    0.000
262.579; 1649.275;  185.925;    0.000
262.647; 1696.275;  158.925;    0.000
262.714; 1713.275;  197.925;    0.000
262.781; 1670.275;  133.925;    0.000
262.849; 1684.275;  146.925;    0.000
262.916; 1744.275;  204.925;    0.000
262.983; 1769.275;  191.925;    0.000
263.051; 1658.275;  140.925;    0.000
263.118; 1714.275;  154.925;    0.000
263.185; 1815.275;  169.925;    0.000
263.252; 1773.275;  150.925;    0.000
263.320; 1732.275;  145.925;    0.000
263.387; 1868.275;  144.925;    0.000
263.454; 1718.275;  193.925;    0.000
263.522; 1809.275;  160.925;    0.000
263.589; 1892.275;  153.925;    0.000
263.656; 1885.275;  178.925;    0.000
263.723; 1845.275;  136.925;    0.000
263.790; 1838.275;  162.925;    0.000
263.858; 1964.275;  164.925;    0.000
263.925; 1939.275;  146.925;    0.000
263.992; 1862.275;  191.925;    0.000
264.059; 1936.275;  180.925;    0.000
264.126; 1964.275;  183.925;    0.000
264.194; 1949.275;  174.925;    0.000
264.261; 1973.275;  187.925;    0.000
264.328; 2010.275;  179.925;    0.000
264.395; 1971.275;  166.925;    0.000
264.462; 1921.275;  197.925;    0.000
264.529; 2024.275;  209.925;    0.000
264.597; 1932.275;  173.925;    0.000
264.664; 2004.275;  193.925;    0.000
264.731; 1977.275;  165.925;    0.000
264.798; 2008.275;  148.925;    0.000
264.865; 2037.275;  186.925;    0.000
264.932; 2033.275;  152.925;    0.000
264.999; 2079.275;  166.925;    0.000
265.066; 2122.275;  186.925;    0.000
265.133; 2109.275;  172.925;    0.000
265.201; 2118.275;  159.925;    0.000
265.268; 2104.275;  164.925;    0.000
265.335; 2107.275;  161.925;    0.000
265.402; 2136.275;  157.925;    0.000
265.469; 2222.275;  134.925;    0.000
265.536; 2158.275;  191.925;    0.000
265.603; 2213.275;  170.925;    0.000
265.670; 2249.275;  162.925;    0.000
265.737; 2159.275;  172.925;    0.000
265.804; 2152.275;  151.925;    0.000
265.871; 2232.275;  191.925;    0.000
265.938; 2150.275;  173.925;    0.000
266.005; 2296.275;  201.925;    0.000
266.072; 2217.275;  156.925;    0.000
266.139; 2255.275;  191.925;    0.000
266.206; 2251.275;  151.925;    0.000
266.273; 2346.275;  194.925;    0.000
266.340; 2219.275;  120.925;    0.000
266.407; 2402.275;  130.925;    0.000
266.474; 2289.275;  137.925;    0.000
266.541; 2305.275;  139.925;    0.000
266.608; 2286.275;  139.925;    0.000
266.675; 2351.275;  198.925;    0.000
266.742; 2296.275;  165.925;    0.000
266.808; 2372.275;  174.925;    0.000
266.875; 2336.275;  169.925;    0.000
266.942; 2324.275;  137.925;    0.000
267.009; 2303.275;  181.925;    0.000
267.076; 2351.275;  204.925;    0.000
267.143; 2285.275;  179.925;    0.000
267.210; 2379.275;  160.925;    0.000
267.277; 2383.275;  154.925;    0.000
267.344; 2399.275;  178.925;    0.000
267.410; 2491.275;  190.925;    0.000
267.477; 2482.275;  193.925;    0.000
267.544; 2387.275;  168.925;    0.000
267.611; 2407.275;  177.925;    0.000
267.678; 2385.275;  205.925;    0.000
267.745; 2445.275;  205.925;    0.000
267.811; 2474.275;  164.925;    0.000
267.878; 2495.275;  166.925;    0.000
267.945; 2493.275;  160.925;    0.000
268.012; 2408.275;  172.925;    0.000
268.079; 2434.275;  186.925;    0.000
268.145; 2428.275;  188.925;    0.000
268.212; 2495.275;  181.925;    0.000
268.279; 2452.275;  158.925;    0.000
268.346; 2437.275;  192.925;    0.000
268.412; 2486.275;  159.925;    0.000
268.479; 2485.275;  176.925;    0.000
268.546; 2449.275;  170.925;    0.000
268.613; 2367.275;  133.925;    0.000
268.679; 2442.275;  170.925;    0.000
268.746; 2426.275;  185.925;    0.000
268.813; 2420.275;  170.925;    0.000
268.879; 2486.275;  149.925;    0.000
268.946; 2495.275;  176.925;    0.000
269.013; 2374.275;  153.925;    0.000
269.079; 2386.275;  156.925;    0.000
269.146; 2437.275;  143.925;    0.000
269.213; 2424.275;  170.925;    0.000
269.280; 2371.275;  202.925;    0.000
269.346; 2464.275;  180.925;    0.000
269.413; 2490.275;  162.925;    0.000
269.479; 2404.275;  175.925;    0.000
269.546; 2311.275;  151.925;    0.000
269.613; 2483.275;  159.925;    0.000
269.679; 2345.275;  190.925;    0.000
269.746; 2344.275;  159.925;    0.000
269.813; 2367.275;  151.925;    0.000
269.879; 2291.275;  169.925;    0.000
269.946; 2379.275;  169.925;    0.000
270.012; 2386.275;  185.925;    0.000
270.079; 2319.275;  133.925;    0.000
270.145; 2421.275;  161.925;    0.000
270.212; 2513.275;  156.925;    0.000
270.279; 2297.275;  176.925;    0.000
270.345; 2338.275;  140.925;    0.000
270.412; 2355.275;  162.925;    0.000
270.478; 2372.275;  148.925;    0.000
270.545; 2346.275;  146.925;    0.000
270.611; 2288.275;  168.925;    0.000
270.678; 2320.275;  164.925;    0.000
270.744; 2295.275;  117.925;    0.000
270.811; 2351.275;  196.925;    0.000
270.877; 2224.275;  151.925;    0.000
270.944; 2289.275;  174.925;    0.000
271.010; 2309.275;  180.925;    0.000
271.077; 2307.275;  162.925;    0.000
271.143; 2299.275;  178.925;    0.000
271.210; 2377.275;  159.925;    0.000
271.276; 2282.275;  143.925;    0.000
271.342; 2376.275;  196.925;    0.000
271.409; 2285.275;  161.925;    0.000
271.475; 2351.275;  153.925;    0.000
271.542; 2258.275;  147.925;    0.000
271.608; 2276.275;  175.925;    0.000
271.675; 2261.275;  134.925;    0.000
271.741; 2280.275;  182.925;    0.000
271.807; 2201.275;  174.925;    0.000
271.874; 2256.275;  169.925;    0.000
271.940; 2223.275;  179.925;    0.000
272.007; 2258.275;  173.925;    0.000
272.073; 2237.275;  133.925;    0.000
272.139; 2270.275;  191.925;    0.000
272.206; 2335.275;  168.925;    0.000
272.272; 2357.275;  179.925;    0.000
272.338; 2214.275;  224.925;    0.000
272.405; 2228.275;  156.925;    0.000
272.471; 2184.275;  175.925;    0.000
272.537; 2221.275;  190.925;    0.000
272.604; 2236.275;  199.925;    0.000
272.670; 2198.275;  156.925;    0.000
272.736; 2215.275;  198.925;    0.000
272.802; 2133.275;  169.925;    0.000
272.869; 2210.275;  141.925;    0.000
272.935; 2251.275;  145.925;    0.000
273.001; 2216.275;  156.925;    0.000
273.068; 2307.275;  157.925;    0.000
273.134; 2288.275;  184.925;    0.000
273.200; 2308.275;  158.925;    0.000
273.266; 2231.275;  150.925;    0.000
273.333; 2235.275;  176.925;    0.000
273.399; 2233.275;  118.925;    0.000
273.465; 2201.275;  184.925;    0.000
273.531; 2251.275;  179.925;    0.000
273.597; 2239.275;  167.925;    0.000
273.664; 2295.275;  186.925;    0.000
273.730; 2246.275;  137.925;    0.000
273.796; 2242.275;  148.925;    0.000
273.862; 2281.275;  183.925;    0.000
273.928; 2239.275;  179.925;    0.000
273.995; 2293.275;  189.925;    0.000
274.061; 2346.275;  188.925;    0.000
274.127; 2244.275;  132.925;    0.000
274.193; 2272.275;  135.925;    0.000
274.259; 2271.275;  177.925;    0.000
274.325; 2254.275;  178.925;    0.000
274.391; 2298.275;  140.925;    0.000
274.457; 2259.275;  158.925;    0.000
274.524; 2295.275;  175.925;    0.000
274.590; 2261.275;  182.925;    0.000
274.656; 2258.275;  165.925;    0.000
274.722; 2298.275;  152.925;    0.000
274.788; 2305.275;  159.925;    0.000
274.854; 2259.275;  143.925;    0.000
274.920; 2240.275;  117.925;    0.000
274.986; 2178.275;  140.925;    0.000
275.052; 2296.275;  174.925;    0.000
275.118; 2252.275;  129.925;    0.000
275.184; 2275.275;  173.925;    0.000
275.250; 2307.275;  196.925;    0.000
275.316; 2276.275;  142.925;    0.000
275.382; 2339.275;  149.925;    0.000
275.448; 2361.275;  178.925;    0.000
275.514; 2249.275;  136.925;    0.000
275.580; 2273.275;  140.925;    0.000
275.646; 2291.275;  133.925;    0.000
275.712; 2335.275;  162.925;    0.000
275.778; 2264.275;  129.925;    0.000
275.844; 2352.275;  156.925;    0.000
275.910; 2282.275;  172.925;    0.000
275.976; 2399.275;  158.925;    0.000
276.042; 2333.275;  141.925;    0.000
276.108; 2327.275;  212.925;    0.000
276.174; 2263.275;  148.925;    0.000
276.240; 2366.275;  134.925;    0.000
276.306; 2343.275;  149.925;    0.000
276.372; 2368.275;  126.925;    0.000
276.437; 2309.275;  168.925;    0.000
276.503; 2333.275;  158.925;    0.000
276.569; 2426.275;  191.925;    0.000
276.635; 2287.275;  130.925;    0.000
276.701; 2277.275;  161.925;    0.000
276.767; 2298.275;  148.925;    0.000
276.833; 2298.275;  147.925;    0.000
276.899; 2348.275;  149.925;    0.000
276.964; 2447.275;  181.925;    0.000
277.030; 2456.275;  186.925;    0.000
277.096; 2380.275;  132.925;    0.000
277.162; 2376.275;  181.925;    0.000
277.228; 2595.275;  166.925;    0.000
277.293; 2477.275;  154.925;    0.000
277.359; 2503.275;  181.925;    0.000
277.425; 2521.275;  184.925;    0.000
277.491; 2511.275;  150.925;    0.000
277.557; 2535.275;  159.925;    0.000
277.622; 2550.275;  129.925;    0.000
277.688; 2697.275;  184.925;    0.000
277.754; 2734.275;  182.925;    0.000
277.820; 2757.275;  149.925;    0.000
277.885; 2885.275;  185.925;    0.000
277.951; 3064.275;  164.925;    0.000
278.017; 2812.275;  162.925;    0.000
278.083; 2744.275;  189.925;    0.000
278.148; 2750.275;  184.925;    0.000
278.214; 2742.275;  188.925;    0.000
278.280; 2747.275;  206.925;    0.000
278.345; 2843.275;  187.925;    0.000
278.411; 2695.275;  174.925;    0.000
278.477; 2780.275;  190.925;    0.000
278.542; 2762.275;  154.925;    0.000
278.608; 2713.275;  191.925;    0.000
278.674; 2841.275;  243.925;    0.000
278.739; 2811.275;  141.925;    0.000
278.805; 2857.275;  171.925;    0.000
278.871; 3064.275;  181.925;    0.000
278.936; 3272.275;  191.925;    0.000
279.002; 3574.275;  201.925;    0.000
279.067; 4297.275;  174.925;    0.000
279.133; 4224.275;  165.925;    0.000
279.199; 4139.275;  122.925;    0.000
279.264; 4349.275;  159.925;    0.000
279.330; 5070.275;  170.925;    0.000
279.395; 7020.275;  173.925;    0.000
279.461;14911.275;  200.925;    0.000
279.527;21363.275;  199.925;    0.000
279.592;15268.275;  203.925;    0.000
279.658; 7932.275;  209.925;    0.000
279.723; 6589.275;  188.925;    0.000
279.789; 6711.275;  180.925;    0.000
279.854; 5991.275;  137.925;    0.000
279.920; 5261.275;  223.925;    0.000
279.985; 4903.275;  186.925;    0.000
280.051; 5044.275;  198.925;    0.000
280.116; 6003.275;  178.925;    0.000
280.182;11803.275;  176.925;    0.000
280.247;15938.275;  195.925;    0.000
280.313;10767.275;  165.925;    0.000
280.378; 5721.275;  153.925;    0.000
280.444; 4553.275;  181.925;    0.000
280.509; 4019.275;  188.925;    0.000
280.574; 3694.275;  149.925;    0.000
280.640; 3519.275;  164.925;    0.000
280.705; 3450.275;  166.925;    0.000
280.771; 3384.275;  188.925;    0.000
280.836; 3329.275;  188.925;    0.000
280.902; 3264.275;  168.925;    0.000
280.967; 3179.275;  202.925;    0.000
281.032; 3278.275;  197.925;    0.000
281.098; 3133.275;  138.925;    0.000
281.163; 3132.275;  160.925;    0.000
281.229; 3177.275;  212.925;    0.000
281.294; 3121.275;  227.925;    0.000
281.359; 3106.275;  200.925;    0.000
281.425; 3038.275;  189.925;    0.000
281.490; 3213.275;  176.925;    0.000
281.555; 3188.275;  182.925;    0.000
281.621; 3086.275;  169.925;    0.000
281.686; 3148.275;  182.925;    0.000
281.751; 3094.275;  208.925;    0.000
281.816; 3064.275;  166.925;    0.000
281.882; 3021.275;  181.925;    0.000
281.947; 2978.275;  178.925;    0.000
282.012; 3053.275;  167.925;    0.000
282.078; 3196.275;  170.925;    0.000
282.143; 3019.275;  157.925;    0.000
282.208; 3148.275;  158.925;    0.000
282.273; 3012.275;  187.925;    0.000
282.339; 3028.275;  185.925;    0.000
282.404; 3057.275;  201.925;    0.000
282.469; 3141.275;  202.925;    0.000
282.534; 3123.275;  185.925;    0.000
282.600; 3109.275;  125.925;    0.000
282.665; 3117.275;  162.925;    0.000
282.730; 3086.275;  174.925;    0.000
282.795; 3124.275;  179.925;    0.000
282.860; 3177.275;  190.925;    0.000
282.926; 3226.275;  200.925;    0.000
282.991; 3120.275;  161.925;    0.000
283.056; 3082.275;  175.925;    0.000
283.121; 3251.275;  181.925;    0.000
283.186; 3264.275;  221.925;    0.000
283.251; 3104.275;  168.925;    0.000
283.316; 3279.275;  156.925;    0.000
283.382; 3142.275;  197.925;    0.000
283.447; 3163.275;  210.925;    0.000
283.512; 3263.275;  164.925;    0.000
283.577; 3195.275;  212.925;    0.000
283.642; 3219.275;  186.925;    0.000
283.707; 3198.275;  182.925;    0.000
283.772; 3237.275;  127.925;    0.000
283.837; 3127.275;  160.925;    0.000
283.902; 3275.275;  162.925;    0.000
283.967; 3261.275;  151.925;    0.000
284.032; 3318.275;  175.925;    0.000
284.097; 3350.275;  235.925;    0.000
284.163; 3239.275;  136.925;    0.000
284.228; 3223.275;  209.925;    0.000
284.293; 3282.275;  163.925;    0.000
284.358; 3354.275;  169.925;    0.000
284.423; 3270.275;  145.925;    0.000
284.488; 3353.275;  134.925;    0.000
284.553; 3327.275;  158.925;    0.000
284.618; 3394.275;  163.925;    0.000
284.683; 3288.275;  168.925;    0.000
284.748; 3358.275;  170.925;    0.000
284.812; 3396.275;  151.925;    0.000
284.877; 3501.275;  169.925;    0.000
284.942; 3578.275;  179.925;    0.000
285.007; 3759.275;  202.925;    0.000
285.072; 4130.275;  171.925;    0.000
285.137; 5971.275;  173.925;    0.000
285.202; 7144.275;  196.925;    0.000
285.267; 5698.275;  193.925;    0.000
285.332; 4363.275;  151.925;    0.000
285.397; 3862.275;  183.925;    0.000
285.462; 3699.275;  168.925;    0.000
285.527; 3603.275;  166.925;    0.000
285.591; 3532.275;  124.925;    0.000
285.656; 3475.275;  145.925;    0.000
285.721; 3322.275;  155.925;    0.000
285.786; 3563.275;  170.925;    0.000
285.851; 3519.275;  175.925;    0.000
285.916; 3369.275;  186.925;    0.000
285.981; 3499.275;  204.925;    0.000
286.045; 3470.275;  237.925;    0.000
286.110; 3471.275;  197.925;    0.000
286.175; 3427.275;  143.925;    0.000
286.240; 3452.275;  167.925;    0.000
286.305; 3571.275;  202.925;    0.000
286.369; 3514.275;  214.925;    0.000
286.434; 3497.275;  206.925;    0.000
286.499; 3533.275;  177.925;    0.000
286.564; 3511.275;  201.925;    0.000
286.628; 3449.275;  153.925;    0.000
286.693; 3538.275;  161.925;    0.000
286.758; 3678.275;  181.925;    0.000
286.823; 3652.275;  176.925;    0.000
286.887; 3423.275;  158.925;    0.000
286.952; 3578.275;  198.925;    0.000
287.017; 3496.275;  196.925;    0.000
287.082; 3574.275;  154.925;    0.000
287.146; 3475.275;  178.925;    0.000
287.211; 3493.275;  165.925;    0.000
287.276; 3650.275;  165.925;    0.000
287.340; 3657.275;  178.925;    0.000
287.405; 3566.275;  177.925;    0.000
287.470; 3483.275;  141.925;    0.000
287.534; 3608.275;  224.925;    0.000
287.599; 3550.275;  184.925;    0.000
287.663; 3556.275;  177.925;    0.000
287.728; 3470.275;  144.925;    0.000
287.793; 3543.275;  210.925;    0.000
287.857; 3591.275;  198.925;    0.000
287.922; 3492.275;  168.925;    0.000
287.987; 3651.275;  168.925;    0.000
288.051; 3594.275;  200.925;    0.000
288.116; 3517.275;  199.925;    0.000
288.180; 3563.275;  211.925;    0.000
288.245; 3571.275;  182.925;    0.000
288.309; 3611.275;  180.925;    0.000
288.374; 3598.275;  196.925;    0.000
288.439; 3590.275;  187.925;    0.000
288.503; 3599.275;  159.925;    0.000
288.568; 3487.275;  207.925;    0.000
288.632; 3555.275;  210.925;    0.000
288.697; 3570.275;  196.925;    0.000
288.761; 3532.275;  175.925;    0.000
288.826; 3497.275;  159.925;    0.000
288.890; 3623.275;  183.925;    0.000
288.955; 3599.275;  149.925;    0.000
289.019; 3598.275;  194.925;    0.000
289.084; 3569.275;  171.925;    0.000
289.148; 3488.275;  191.925;    0.000
289.212; 3579.275;  217.925;    0.000
289.277; 3501.275;  196.925;    0.000
289.341; 3580.275;  211.925;    0.000
289.406; 3450.275;  165.925;    0.000
289.470; 3471.275;  197.925;    0.000
289.535; 3479.275;  208.925;    0.000
289.599; 3514.275;  192.925;    0.000
289.663; 3571.275;  169.925;    0.000
289.728; 3516.275;  168.925;    0.000
289.792; 3499.275;  192.925;    0.000
289.857; 3579.275;  202.925;    0.000
289.921; 3570.275;  176.925;    0.000
289.985; 3591.275;  164.925;    0.000
290.050; 3555.275;  166.925;    0.000
290.114; 3583.275;  192.925;    0.000
290.178; 3633.275;  155.925;    0.000
290.243; 3640.275;  158.925;    0.000
290.307; 3711.275;  192.925;    0.000
290.371; 3573.275;  161.925;    0.000
290.436; 3657.275;  182.925;    0.000
290.500; 3620.275;  147.925;    0.000
290.564; 3609.275;  209.925;    0.000
290.629; 3735.275;  172.925;    0.000
290.693; 3598.275;  192.925;    0.000
290.757; 3582.275;  147.925;    0.000
290.821; 3555.275;  139.925;    0.000
290.886; 3484.275;  186.925;    0.000
290.950; 3601.275;  196.925;    0.000
291.014; 3638.275;  166.925;    0.000
291.078; 3626.275;  143.925;    0.000
291.143; 3565.275;  171.925;    0.000
291.207; 3611.275;  187.925;    0.000
291.271; 3562.275;  208.925;    0.000
291.335; 3572.275;  195.925;    0.000
291.399; 3634.275;  139.925;    0.000
291.464; 3630.275;  139.925;    0.000
291.528; 3647.275;  183.925;    0.000
291.592; 3624.275;  152.925;    0.000
291.656; 3713.275;  155.925;    0.000
291.720; 3690.275;  191.925;    0.000
291.784; 3642.275;  185.925;    0.000
291.849; 3639.275;  175.925;    0.000
291.913; 3749.275;  152.925;    0.000
291.977; 3682.275;  203.925;    0.000
292.041; 3696.275;  181.925;    0.000
292.105; 3648.275;  168.925;    0.000
292.169; 3629.275;  133.925;    0.000
292.233; 3674.275;  156.925;    0.000
292.297; 3648.275;  173.925;    0.000
292.361; 3645.275;  124.925;    0.000
292.425; 3647.275;  138.925;    0.000
292.490; 3640.275;  110.925;    0.000
292.554; 3602.275;  180.925;    0.000
292.618; 3703.275;  178.925;    0.000
292.682; 3558.275;  156.925;    0.000
292.746; 3647.275;  151.925;    0.000
292.810; 3671.275;  183.925;    0.000
292.874; 3902.275;  156.925;    0.000
292.938; 3801.275;  195.925;    0.000
293.002; 3684.275;  200.925;    0.000
293.066; 3777.275;  171.925;    0.000
293.130; 3659.275;  163.925;    0.000
293.194; 3700.275;  174.925;    0.000
293.258; 3764.275;  167.925;    0.000
293.322; 3617.275;  212.925;    0.000
293.386; 3730.275;  189.925;    0.000
293.450; 3629.275;  169.925;    0.000
293.514; 3735.275;  175.925;    0.000
293.577; 3733.275;  169.925;    0.000
293.641; 3912.275;  186.925;    0.000
293.705; 3890.275;  222.925;    0.000
293.769; 3826.275;  150.925;    0.000
293.833; 3867.275;  165.925;    0.000
293.897; 3754.275;  152.925;    0.000
293.961; 3717.275;  179.925;    0.000
294.025; 3718.275;  159.925;    0.000
294.089; 3604.275;  181.925;    0.000
294.152; 3663.275;  188.925;    0.000
294.216; 3670.275;  170.925;    0.000
294.280; 3678.275;  167.925;    0.000
294.344; 3624.275;  151.925;    0.000
294.408; 3585.275;  180.925;    0.000
294.472; 3545.275;  144.925;    0.000
294.536; 3668.275;  171.925;    0.000
294.599; 3570.275;  157.925;    0.000
294.663; 3687.275;  139.925;    0.000
294.727; 3628.275;  208.925;    0.000
294.791; 3628.275;  152.925;    0.000
294.855; 3567.275;  181.925;    0.000
294.918; 3576.275;  136.925;    0.000
294.982; 3565.275;  155.925;    0.000
295.046; 3675.275;  200.925;    0.000
295.110; 3591.275;  190.925;    0.000
295.173; 3533.275;  156.925;    0.000
295.237; 3521.275;  160.925;    0.000
295.301; 3566.275;  145.925;    0.000
295.364; 3657.275;  166.925;    0.000
295.428; 3623.275;  125.925;    0.000
295.492; 3628.275;  154.925;    0.000
295.556; 3572.275;  172.925;    0.000
295.619; 3698.275;  210.925;    0.000
295.683; 3592.275;  181.925;    0.000
295.747; 3561.275;  176.925;    0.000
295.810; 3593.275;  181.925;    0.000
295.874; 3681.275;  160.925;    0.000
295.938; 3554.275;  119.925;    0.000
296.001; 3681.275;  206.925;    0.000
296.065; 3484.275;  136.925;    0.000
296.128; 3390.275;  156.925;    0.000
296.192; 3460.275;  174.925;    0.000
296.256; 3574.275;  145.925;    0.000
296.319; 3594.275;  167.925;    0.000
296.383; 3575.275;  168.925;    0.000
296.447; 3558.275;  190.925;    0.000
296.510; 3421.275;  165.925;    0.000
296.574; 3582.275;  184.925;    0.000
296.637; 3504.275;  155.925;    0.000
296.701; 3515.275;  168.925;    0.000
296.764; 3562.275;  161.925;    0.000
296.828; 3568.275;  218.925;    0.000
296.891; 3368.275;  176.925;    0.000
296.955; 3599.275;  169.925;    0.000
297.018; 3523.275;  168.925;    0.000
297.082; 3386.275;  176.925;    0.000
297.145; 3363.275;  171.925;    0.000
297.209; 3377.275;  196.925;    0.000
297.272; 3431.275;  170.925;    0.000
297.336; 3481.275;  156.925;    0.000
297.399; 3390.275;  168.925;    0.000
297.463; 3435.275;  203.925;    0.000
297.526; 3586.275;  164.925;    0.000
297.590; 3443.275;  175.925;    0.000
297.653; 3320.275;  170.925;    0.000
297.717; 3478.275;  156.925;    0.000
297.780; 3301.275;  149.925;    0.000
297.843; 3422.275;  156.925;    0.000
297.907; 3449.275;  129.925;    0.000
297.970; 3427.275;  163.925;    0.000
298.034; 3396.275;  162.925;    0.000
298.097; 3444.275;  182.925;    0.000
298.160; 3358.275;  194.925;    0.000
298.224; 3402.275;  178.925;    0.000
298.287; 3405.275;  147.925;    0.000
298.350; 3327.275;  187.925;    0.000
298.414; 3293.275;  193.925;    0.000
298.477; 3416.275;  127.925;    0.000
298.540; 3354.275;  181.925;    0.000
298.604; 3372.275;  163.925;    0.000
298.667; 3323.275;  177.925;    0.000
298.730; 3324.275;  192.925;    0.000
298.794; 3265.275;  183.925;    0.000
298.857; 3302.275;  194.925;    0.000
298.920; 3369.275;  147.925;    0.000
298.984; 3255.275;  184.925;    0.000
299.047; 3329.275;  218.925;    0.000
299.110; 3266.275;  171.925;    0.000
299.173; 3208.275;  177.925;    0.000
299.237; 3288.275;  181.925;    0.000
299.300; 3217.275;  170.925;    0.000
299.363; 3212.275;  185.925;    0.000
299.426; 3140.275;  193.925;    0.000
299.489; 3119.275;  184.925;    0.000
299.553; 3151.275;  194.925;    0.000
299.616; 3152.275;  171.925;    0.000
299.679; 3199.275;  182.925;    0.000
299.742; 3091.275;  138.925;    0.000
299.805; 3253.275;  172.925;    0.000
299.868; 3151.275;  191.925;    0.000
299.932; 3059.275;  193.925;    0.000
299.995; 3115.275;  201.925;    0.000
300.058; 3057.275;  177.925;    0.000
300.121; 3100.275;  178.925;    0.000
300.184; 3091.275;  171.925;    0.000
300.247; 3075.275;  184.925;    0.000
300.310; 3095.275;  200.925;    0.000
300.374; 3056.275;  172.925;    0.000
300.437; 3057.275;  187.925;    0.000
300.500; 3129.275;  211.925;    0.000
300.563; 3101.275;  190.925;    0.000
300.626; 3067.275;  196.925;    0.000
300.689; 3225.275;  162.925;    0.000
300.752; 2998.275;  163.925;    0.000
300.815; 3062.275;  207.925;    0.000
300.878; 2920.275;  221.925;    0.000
300.941; 2929.275;  176.925;    0.000
301.004; 3046.275;  193.925;    0.000
301.067; 2990.275;  165.925;    0.000
301.130; 2974.275;  179.925;    0.000
301.193; 2943.275;  196.925;    0.000
301.256; 3014.275;  210.925;    0.000
301.319; 2970.275;  196.925;    0.000
301.382; 2964.275;  162.925;    0.000
301.445; 3024.275;  233.925;    0.000
301.508; 3041.275;  176.925;    0.000
301.571; 2978.275;  185.925;    0.000
301.634; 2952.275;  202.925;    0.000
301.697; 2921.275;  189.925;    0.000
301.760; 3009.275;  224.925;    0.000
301.823; 2860.275;  212.925;    0.000
301.885; 2980.275;  196.925;    0.000
301.948; 3099.275;  169.925;    0.000
302.011; 2916.275;  160.925;    0.000
302.074; 2950.275;  202.925;    0.000
302.137; 2949.275;  130.925;    0.000
302.200; 3095.275;  188.925;    0.000
302.263; 2959.275;  196.925;    0.000
302.326; 3013.275;  172.925;    0.000
302.388; 2966.275;  197.925;    0.000
302.451; 2992.275;  203.925;    0.000
302.514; 2829.275;  164.925;    0.000
302.577; 2987.275;  170.925;    0.000
302.640; 2894.275;  156.925;    0.000
302.703; 2882.275;  188.925;    0.000
302.765; 3033.275;  213.925;    0.000
302.828; 2944.275;  212.925;    0.000
302.891; 2977.275;  203.925;    0.000
302.954; 2908.275;  148.925;    0.000
303.016; 2914.275;  168.925;    0.000
303.079; 2862.275;  206.925;    0.000
303.142; 2893.275;  210.925;    0.000
303.205; 2998.275;  189.925;    0.000
303.267; 2947.275;  174.925;    0.000
303.330; 2924.275;  198.925;    0.000
303.393; 2962.275;  207.925;    0.000
303.456; 3060.275;  177.925;    0.000
303.518; 2976.275;  192.925;    0.000
303.581; 2973.275;  171.925;    0.000
303.644; 2915.275;  193.925;    0.000
303.706; 2894.275;  185.925;    0.000
303.769; 2943.275;  198.925;    0.000
303.832; 2957.275;  192.925;    0.000
303.894; 2938.275;  199.925;    0.000
303.957; 2959.275;  160.925;    0.000
304.020; 3036.275;  184.925;    0.000
304.082; 2885.275;  191.925;    0.000
304.145; 2944.275;  216.925;    0.000
304.207; 2984.275;  175.925;    0.000
304.270; 2969.275;  192.925;    0.000
304.333; 2971.275;  218.925;    0.000
304.395; 2964.275;  195.925;    0.000
304.458; 2977.275;  206.925;    0.000
304.520; 2967.275;  229.925;    0.000
304.583; 3022.275;  202.925;    0.000
304.646; 3091.275;  159.925;    0.000
304.708; 2923.275;  167.925;    0.000
304.771; 2966.275;  141.925;    0.000
304.833; 2885.275;  184.925;    0.000
304.896; 2998.275;  197.925;    0.000
304.958; 2993.275;  179.925;    0.000
305.021; 2937.275;  175.925;    0.000
305.083; 2908.275;  182.925;    0.000
305.146; 2988.275;  182.925;    0.000
305.208; 2912.275;  174.925;    0.000
305.271; 2906.275;  157.925;    0.000
305.333; 3022.275;  185.925;    0.000
305.396; 2999.275;  199.925;    0.000
305.458; 2981.275;  203.925;    0.000
305.520; 3113.275;  195.925;    0.000
305.583; 2986.275;  152.925;    0.000
305.645; 3110.275;  200.925;    0.000
305.708; 3021.275;  149.925;    0.000
305.770; 3018.275;  211.925;    0.000
305.833; 3026.275;  189.925;    0.000
305.895; 2994.275;  200.925;    0.000
305.957; 3000.275;  166.925;    0.000
306.020; 3008.275;  186.925;    0.000
306.082; 2954.275;  197.925;    0.000
306.144; 3006.275;  200.925;    0.000
306.207; 2980.275;  180.925;    0.000
306.269; 3055.275;  209.925;    0.000
306.331; 3013.275;  205.925;    0.000
306.394; 2914.275;  176.925;    0.000
306.456; 2920.275;  184.925;    0.000
306.518; 3035.275;  210.925;    0.000
306.581; 2955.275;  162.925;    0.000
306.643; 3024.275;  196.925;    0.000
306.705; 3080.275;  204.925;    0.000
306.768; 3069.275;  158.925;    0.000
306.830; 3029.275;  205.925;    0.000
306.892; 3097.275;  189.925;    0.000
306.954; 3015.275;  188.925;    0.000
307.017; 3021.275;  180.925;    0.000
307.079; 3014.275;  197.925;    0.000
307.141; 3066.275;  184.925;    0.000
307.203; 3090.275;  182.925;    0.000
307.266; 3041.275;  166.925;    0.000
307.328; 3080.275;  186.925;    0.000
307.390; 3032.275;  176.925;    0.000
307.452; 3250.275;  194.925;    0.000
307.514; 3116.275;  225.925;    0.000
307.577; 3078.275;  209.925;    0.000
307.639; 3239.275;  203.925;    0.000
307.701; 3121.275;  214.925;    0.000
307.763; 3128.275;  203.925;    0.000
307.825; 3221.275;  202.925;    0.000
307.887; 3200.275;  244.925;    0.000
307.949; 3127.275;  173.925;    0.000
308.012; 3154.275;  219.925;    0.000
308.074; 3113.275;  157.925;    0.000
308.136; 3192.275;  215.925;    0.000
308.198; 3115.275;  186.925;    0.000
308.260; 3031.275;  186.925;    0.000
308.322; 3196.275;  201.925;    0.000
308.384; 3142.275;  218.925;    0.000
308.446; 3213.275;  159.925;    0.000
308.508; 3235.275;  191.925;    0.000
308.570; 3241.275;  185.925;    0.000
308.632; 3161.275;  208.925;    0.000
308.694; 3216.275;  161.925;    0.000
308.756; 3276.275;  169.925;    0.000
308.818; 3229.275;  187.925;    0.000
308.880; 3194.275;  192.925;    0.000
308.942; 3228.275;  194.925;    0.000
309.004; 3295.275;  206.925;    0.000
309.066; 3311.275;  204.925;    0.000
309.128; 3260.275;  181.925;    0.000
309.190; 3276.275;  166.925;    0.000
309.252; 3431.275;  213.925;    0.000
309.314; 3381.275;  249.925;    0.000
309.376; 3457.275;  238.925;    0.000
309.438; 3371.275;  206.925;    0.000
309.500; 3369.275;  185.925;    0.000
309.562; 3295.275;  214.925;    0.000
309.624; 3220.275;  216.925;    0.000
309.686; 3338.275;  197.925;    0.000
309.747; 3251.275;  171.925;    0.000
309.809; 3112.275;  198.925;    0.000
309.871; 3257.275;  185.925;    0.000
309.933; 3265.275;  172.925;    0.000
309.995; 3250.275;  168.925;    0.000
310.057; 3097.275;  177.925;    0.000
310.119; 3171.275;  207.925;    0.000
310.180; 3114.275;  180.925;    0.000
310.242; 3128.275;  202.925;    0.000
310.304; 3170.275;  200.925;    0.000
310.366; 3260.275;  222.925;    0.000
310.428; 3143.275;  179.925;    0.000
310.489; 3146.275;  196.925;    0.000
310.551; 3161.275;  203.925;    0.000
310.613; 3078.275;  198.925;    0.000
310.675; 3147.275;  203.925;    0.000
310.737; 3163.275;  195.925;    0.000
310.798; 3246.275;  204.925;    0.000
310.860; 3182.275;  195.925;    0.000
310.922; 3140.275;  195.925;    0.000
310.983; 3201.275;  225.925;    0.000
311.045; 3161.275;  203.925;    0.000
311.107; 3198.275;  194.925;    0.000
311.169; 3062.275;  185.925;    0.000
311.230; 3201.275;  175.925;    0.000
311.292; 3256.275;  220.925;    0.000
311.354; 3120.275;  189.925;    0.000
311.415; 3238.275;  187.925;    0.000
311.477; 3212.275;  180.925;    0.000
311.539; 3234.275;  175.925;    0.000
311.600; 3151.275;  192.925;    0.000
311.662; 3167.275;  212.925;    0.000
311.724; 3192.275;  217.925;    0.000
311.785; 3297.275;  218.925;    0.000
311.847; 3166.275;  219.925;    0.000
311.908; 3183.275;  202.925;    0.000
311.970; 3135.275;  186.925;    0.000
312.032; 3259.275;  212.925;    0.000
312.093; 3216.275;  203.925;    0.000
312.155; 3130.275;  165.925;    0.000
312.216; 3263.275;  183.925;    0.000
312.278; 3241.275;  167.925;    0.000
312.339; 3285.275;  190.925;    0.000
312.401; 3225.275;  219.925;    0.000
312.462; 3192.275;  190.925;    0.000
312.524; 3313.275;  203.925;    0.000
312.585; 3274.275;  191.925;    0.000
312.647; 3260.275;  197.925;    0.000
312.708; 3248.275;  203.925;    0.000
312.770; 3373.275;  203.925;    0.000
312.831; 3318.275;  155.925;    0.000
312.893; 3396.275;  189.925;    0.000
312.954; 3363.275;  212.925;    0.000
313.016; 3437.275;  179.925;    0.000
313.077; 3344.275;  209.925;    0.000
313.139; 3368.275;  185.925;    0.000
313.200; 3371.275;  180.925;    0.000
313.261; 3529.275;  220.925;    0.000
313.323; 3276.275;  171.925;    0.000
313.384; 3375.275;  180.925;    0.000
313.446; 3325.275;  202.925;    0.000
313.507; 3367.275;  172.925;    0.000
313.568; 3358.275;  192.925;    0.000
313.630; 3315.275;  191.925;    0.000
313.691; 3397.275;  176.925;    0.000
313.752; 3356.275;  175.925;    0.000
313.814; 3331.275;  202.925;    0.000
313.875; 3426.275;  186.925;    0.000
313.936; 3361.275;  199.925;    0.000
313.998; 3350.275;  164.925;    0.000
314.059; 3335.275;  159.925;    0.000
314.120; 3293.275;  175.925;    0.000
314.182; 3364.275;  181.925;    0.000
314.243; 3278.275;  157.925;    0.000
314.304; 3272.275;  168.925;    0.000
314.365; 3313.275;  203.925;    0.000
314.427; 3394.275;  151.925;    0.000
314.488; 3353.275;  174.925;    0.000
314.549; 3332.275;  184.925;    0.000
314.610; 3427.275;  198.925;    0.000
314.672; 3406.275;  193.925;    0.000
314.733; 3346.275;  171.925;    0.000
314.794; 3286.275;  141.925;    0.000
314.855; 3321.275;  184.925;    0.000
314.917; 3227.275;  175.925;    0.000
314.978; 3404.275;  190.925;    0.000
315.039; 3428.275;  183.925;    0.000
315.100; 3376.275;  204.925;    0.000
315.161; 3418.275;  202.925;    0.000
315.222; 3449.275;  177.925;    0.000
315.283; 3379.275;  191.925;    0.000
315.345; 3451.275;  185.925;    0.000
315.406; 3383.275;  194.925;    0.000
315.467; 3350.275;  167.925;    0.000
315.528; 3404.275;  174.925;    0.000
315.589; 3391.275;  197.925;    0.000
315.650; 3331.275;  192.925;    0.000
315.711; 3247.275;  181.925;    0.000
315.772; 3398.275;  157.925;    0.000
315.833; 3363.275;  189.925;    0.000
315.894; 3299.275;  184.925;    0.000
315.955; 3315.275;  202.925;    0.000
316.016; 3305.275;  220.925;    0.000
316.078; 3380.275;  180.925;    0.000
316.139; 3299.275;  240.925;    0.000
316.200; 3281.275;  190.925;    0.000
316.261; 3319.275;  179.925;    0.000
316.322; 3268.275;  176.925;    0.000
316.383; 3223.275;  188.925;    0.000
316.444; 3309.275;  228.925;    0.000
316.504; 3216.275;  199.925;    0.000
316.565; 3323.275;  221.925;    0.000
316.626; 3317.275;  204.925;    0.000
316.687; 3247.275;  192.925;    0.000
316.748; 3248.275;  220.925;    0.000
316.809; 3379.275;  175.925;    0.000
316.870; 3245.275;  164.925;    0.000
316.931; 3362.275;  208.925;    0.000
316.992; 3351.275;  224.925;    0.000
317.053; 3285.275;  204.925;    0.000
317.114; 3347.275;  199.925;    0.000
317.175; 3394.275;  230.925;    0.000
317.235; 3262.275;  186.925;    0.000
317.296; 3203.275;  224.925;    0.000
317.357; 3292.275;  154.925;    0.000
317.418; 3389.275;  219.925;    0.000
317.479; 3374.275;  229.925;    0.000
317.540; 3298.275;  201.925;    0.000
317.601; 3365.275;  180.925;    0.000
317.661; 3221.275;  179.925;    0.000
317.722; 3176.275;  193.925;    0.000
317.783; 3264.275;  164.925;    0.000
317.844; 3306.275;  232.925;    0.000
317.904; 3362.275;  222.925;    0.000
317.965; 3182.275;  199.925;    0.000
318.026; 3369.275;  200.925;    0.000
318.087; 3313.275;  182.925;    0.000
318.148; 3384.275;  216.925;    0.000
318.208; 3284.275;  239.925;    0.000
318.269; 3252.275;  163.925;    0.000
318.330; 3346.275;  204.925;    0.000
318.390; 3246.275;  191.925;    0.000
318.451; 3291.275;  200.925;    0.000
318.512; 3307.275;  181.925;    0.000
318.572; 3229.275;  233.925;    0.000
318.633; 3366.275;  220.925;    0.000
318.694; 3272.275;  179.925;    0.000
318.754; 3341.275;  214.925;    0.000
318.815; 3375.275;  214.925;    0.000
318.876; 3400.275;  220.925;    0.000
318.936; 3430.275;  212.925;    0.000
318.997; 3257.275;  201.925;    0.000
319.058; 3456.275;  215.925;    0.000
319.118; 3391.275;  251.925;    0.000
319.179; 3337.275;  240.925;    0.000
319.239; 3428.275;  240.925;    0.000
319.300; 3352.275;  232.925;    0.000
319.361; 3357.275;  211.925;    0.000
319.421; 3165.275;  219.925;    0.000
319.482; 3328.275;  228.925;    0.000
319.542; 3227.275;  216.925;    0.000
319.603; 3191.275;  190.925;    0.000
319.663; 3256.275;  227.925;    0.000
319.724; 3304.275;  191.925;    0.000
319.784; 3261.275;  196.925;    0.000
319.845; 3295.275;  190.925;    0.000
319.905; 3365.275;  221.925;    0.000
319.966; 3187.275;  219.925;    0.000
320.026; 3253.275;  233.925;    0.000
320.087; 3242.275;  204.925;    0.000
320.147; 3267.275;  189.925;    0.000
320.208; 3258.275;  200.925;    0.000
320.268; 3325.275;  217.925;    0.000
320.329; 3192.275;  216.925;    0.000
320.389; 3230.275;  228.925;    0.000
320.449; 3171.275;  236.925;    0.000
320.510; 3254.275;  234.925;    0.000
320.570; 3286.275;  176.925;    0.000
320.631; 3333.275;  228.925;    0.000
320.691; 3298.275;  228.925;    0.000
320.751; 3235.275;  188.925;    0.000
320.812; 3282.275;  223.925;    0.000
320.872; 3360.275;  268.925;    0.000
320.932; 3340.275;  226.925;    0.000
320.993; 3322.275;  216.925;    0.000
321.053; 3289.275;  236.925;    0.000
321.113; 3300.275;  197.925;    0.000
321.174; 3273.275;  218.925;    0.000
321.234; 3355.275;  229.925;    0.000
321.294; 3320.275;  208.925;    0.000
321.355; 3264.275;  248.925;    0.000
321.415; 3241.275;  218.925;    0.000
321.475; 3294.275;  173.925;    0.000
321.535; 3373.275;  234.925;    0.000
321.596; 3241.275;  202.925;    0.000
321.656; 3293.275;  246.925;    0.000
321.716; 3266.275;  235.925;    0.000
321.776; 3180.275;  210.925;    0.000
321.837; 3324.275;  217.925;    0.000
321.897; 3250.275;  215.925;    0.000
321.957; 3356.275;  239.925;    0.000
322.017; 3262.275;  173.925;    0.000
322.077; 3243.275;  263.925;    0.000
322.138; 3321.275;  232.925;    0.000
322.198; 3260.275;  211.925;    0.000
322.258; 3217.275;  213.925;    0.000
322.318; 3250.275;  168.925;    0.000
322.378; 3283.275;  251.925;    0.000
322.438; 3162.275;  212.925;    0.000
322.499; 3385.275;  265.925;    0.000
322.559; 3208.275;  210.925;    0.000
322.619; 3198.275;  242.925;    0.000
322.679; 3219.275;  229.925;    0.000
322.739; 3088.275;  216.925;    0.000
322.799; 3228.275;  238.925;    0.000
322.859; 3203.275;  249.925;    0.000
322.919; 3210.275;  211.925;    0.000
322.979; 3209.275;  244.925;    0.000
323.039; 3237.275;  226.925;    0.000
323.099; 3071.275;  223.925;    0.000
323.159; 3143.275;  232.925;    0.000
323.219; 3054.275;  203.925;    0.000
323.279; 3238.275;  218.925;    0.000
323.339; 3236.275;  231.925;    0.000
323.399; 3175.275;  255.925;    0.000
323.459; 3147.275;  244.925;    0.000
323.519; 3204.275;  213.925;    0.000
323.579; 3128.275;  193.925;    0.000
323.639; 3245.275;  191.925;    0.000
323.699; 3161.275;  199.925;    0.000
323.759; 3201.275;  246.925;    0.000
323.819; 3137.275;  206.925;    0.000
323.879; 3189.275;  238.925;    0.000
323.939; 3190.275;  229.925;    0.000
323.999; 3204.275;  219.925;    0.000
324.059; 3234.275;  177.925;    0.000
324.119; 3180.275;  235.925;    0.000
324.178; 3154.275;  211.925;    0.000
324.238; 3220.275;  168.925;    0.000
324.298; 3135.275;  205.925;    0.000
324.358; 3244.275;  224.925;    0.000
324.418; 3195.275;  235.925;    0.000
324.478; 3128.275;  187.925;    0.000
324.538; 3193.275;  230.925;    0.000
324.597; 3119.275;  206.925;    0.000
324.657; 3217.275;  180.925;    0.000
324.717; 3179.275;  175.925;    0.000
324.777; 3155.275;  169.925;    0.000
324.837; 3130.275;  165.925;    0.000
324.896; 3169.275;  205.925;    0.000
324.956; 3092.275;  216.925;    0.000
325.016; 3175.275;  197.925;    0.000
325.076; 3183.275;  220.925;    0.000
325.135; 3122.275;  242.925;    0.000
325.195; 3102.275;  186.925;    0.000
325.255; 3181.275;  160.925;    0.000
325.315; 3143.275;  198.925;    0.000
325.374; 3137.275;  208.925;    0.000
325.434; 3172.275;  209.925;    0.000
325.494; 3160.275;  191.925;    0.000
325.553; 3192.275;  190.925;    0.000
325.613; 3177.275;  229.925;    0.000
325.673; 3132.275;  172.925;    0.000
325.732; 3105.275;  160.925;    0.000
325.792; 3173.275;  177.925;    0.000
325.852; 3187.275;  201.925;    0.000
325.911; 3190.275;  226.925;    0.000
325.971; 3175.275;  224.925;    0.000
326.031; 3200.275;  202.925;    0.000
326.090; 3146.275;  232.925;    0.000
326.150; 3117.275;  230.925;    0.000
326.209; 3168.275;  201.925;    0.000
326.269; 3149.275;  202.925;    0.000
326.328; 3127.275;  203.925;    0.000
326.388; 3056.275;  194.925;    0.000
326.448; 3204.275;  233.925;    0.000
326.507; 3155.275;  192.925;    0.000
326.567; 3052.275;  163.925;    0.000
326.626; 3131.275;  227.925;    0.000
326.686; 3125.275;  177.925;    0.000
326.745; 3103.275;  210.925;    0.000
326.805; 3109.275;  198.925;    0.000
326.864; 3159.275;  185.925;    0.000
326.924; 3167.275;  255.925;    0.000
326.983; 3102.275;  208.925;    0.000
327.043; 3083.275;  241.925;    0.000
327.102; 3026.275;  183.925;    0.000
327.161; 3065.275;  210.925;    0.000
327.221; 3097.275;  213.925;    0.000
327.280; 3128.275;  194.925;    0.000
327.340; 3065.275;  212.925;    0.000
327.399; 3078.275;  209.925;    0.000
327.459; 3116.275;  229.925;    0.000
327.518; 3106.275;  196.925;    0.000
327.577; 3137.275;  197.925;    0.000
327.637; 2988.275;  210.925;    0.000
327.696; 3054.275;  196.925;    0.000
327.755; 3039.275;  216.925;    0.000
327.815; 3070.275;  240.925;    0.000
327.874; 3186.275;  250.925;    0.000
327.933; 3121.275;  229.925;    0.000
327.993; 3084.275;  202.925;    0.000
328.052; 3089.275;  178.925;    0.000
328.111; 3080.275;  230.925;    0.000
328.171; 3008.275;  207.925;    0.000
328.230; 3090.275;  170.925;    0.000
328.289; 3097.275;  205.925;    0.000
328.349; 3130.275;  235.925;    0.000
328.408; 3119.275;  231.925;    0.000
328.467; 3153.275;  217.925;    0.000
328.526; 3116.275;  239.925;    0.000
328.586; 3100.275;  214.925;    0.000
328.645; 3038.275;  205.925;    0.000
328.704; 3117.275;  211.925;    0.000
328.763; 3126.275;  208.925;    0.000
328.822; 3021.275;  251.925;    0.000
328.882; 3177.275;  211.925;    0.000
328.941; 3178.275;  232.925;    0.000
329.000; 3042.275;  235.925;    0.000
329.059; 3168.275;  222.925;    0.000
329.118; 3100.275;  265.925;    0.000
329.177; 3126.275;  237.925;    0.000
329.237; 3252.275;  258.925;    0.000
329.296; 3084.275;  225.925;    0.000
329.355; 3121.275;  227.925;    0.000
329.414; 3203.275;  212.925;    0.000
329.473; 3290.275;  250.925;    0.000
329.532; 3297.275;  263.925;    0.000
329.591; 3219.275;  212.925;    0.000
329.650; 3420.275;  219.925;    0.000
329.709; 3427.275;  218.925;    0.000
329.768; 3462.275;  195.925;    0.000
329.827; 3532.275;  223.925;    0.000
329.886; 3733.275;  230.925;    0.000
329.945; 3873.275;  211.925;    0.000
330.004; 4235.275;  247.925;    0.000
330.063; 4696.275;  193.925;    0.000
330.122; 5485.275;  229.925;    0.000
330.181; 6446.275;  223.925;    0.000
330.240; 6322.275;  199.925;    0.000
330.299; 5569.275;  211.925;    0.000
330.358; 4671.275;  198.925;    0.000
330.417; 3992.275;  190.925;    0.000
330.476; 3858.275;  237.925;    0.000
330.535; 3478.275;  239.925;    0.000
330.594; 3450.275;  207.925;    0.000
330.653; 3309.275;  193.925;    0.000
330.712; 3381.275;  225.925;    0.000
330.771; 3248.275;  236.925;    0.000
330.830; 3174.275;  219.925;    0.000
330.889; 3134.275;  211.925;    0.000
330.948; 3076.275;  194.925;    0.000
331.006; 3184.275;  190.925;    0.000
331.065; 2979.275;  192.925;    0.000
331.124; 3058.275;  195.925;    0.000
331.183; 3004.275;  191.925;    0.000
331.242; 2977.275;  203.925;    0.000
331.301; 2949.275;  183.925;    0.000
331.359; 3003.275;  196.925;    0.000
331.418; 2930.275;  209.925;    0.000
331.477; 3015.275;  255.925;    0.000
331.536; 3012.275;  237.925;    0.000
331.595; 2910.275;  217.925;    0.000
331.653; 2855.275;  198.925;    0.000
331.712; 2840.275;  194.925;    0.000
331.771; 2985.275;  229.925;    0.000
331.830; 2907.275;  254.925;    0.000
331.888; 2932.275;  218.925;    0.000
331.947; 2913.275;  211.925;    0.000
332.006; 2937.275;  261.925;    0.000
332.065; 2988.275;  204.925;    0.000
332.123; 2945.275;  225.925;    0.000
332.182; 2977.275;  193.925;    0.000
332.241; 2998.275;  201.925;    0.000
332.299; 2828.275;  182.925;    0.000
332.358; 2887.275;  244.925;    0.000
332.417; 2936.275;  218.925;    0.000
332.475; 2874.275;  218.925;    0.000
332.534; 2920.275;  228.925;    0.000
332.592; 2873.275;  199.925;    0.000
332.651; 2917.275;  204.925;    0.000
332.710; 2933.275;  217.925;    0.000
332.768; 2888.275;  195.925;    0.000
332.827; 2905.275;  182.925;    0.000
332.885; 2950.275;  247.925;    0.000
332.944; 2978.275;  170.925;    0.000
333.003; 2962.275;  200.925;    0.000
333.061; 2925.275;  243.925;    0.000
333.120; 2890.275;  235.925;    0.000
333.178; 2994.275;  195.925;    0.000
333.237; 2942.275;  217.925;    0.000
333.295; 2928.275;  252.925;    0.000
333.354; 2930.275;  201.925;    0.000
333.412; 2950.275;  181.925;    0.000
333.471; 2906.275;  239.925;    0.000
333.529; 2888.275;  214.925;    0.000
333.588; 2947.275;  232.925;    0.000
333.646; 2912.275;  202.925;    0.000
333.705; 2964.275;  232.925;    0.000
333.763; 3000.275;  215.925;    0.000
333.822; 2993.275;  187.925;    0.000
333.880; 2939.275;  186.925;    0.000
333.938; 2937.275;  185.925;    0.000
333.997; 2959.275;  234.925;    0.000
334.055; 2987.275;  255.925;    0.000
334.114; 3026.275;  225.925;    0.000
334.172; 2865.275;  209.925;    0.000
334.230; 2864.275;  194.925;    0.000
334.289; 2953.275;  213.925;    0.000
334.347; 2993.275;  235.925;    0.000
334.405; 2970.275;  242.925;    0.000
334.464; 2918.275;  208.925;    0.000
334.522; 2917.275;  197.925;    0.000
334.580; 2936.275;  204.925;    0.000
334.639; 2930.275;  217.925;    0.000
334.697; 2926.275;  183.925;    0.000
334.755; 2876.275;  196.925;    0.000
334.814; 2892.275;  216.925;    0.000
334.872; 2911.275;  190.925;    0.000
334.930; 2828.275;  162.925;    0.000
334.988; 2962.275;  261.925;    0.000
335.047; 2913.275;  220.925;    0.000
335.105; 3015.275;  190.925;    0.000
335.163; 2841.275;  201.925;    0.000
335.221; 2903.275;  213.925;    0.000
335.280; 2960.275;  202.925;    0.000
335.338; 2942.275;  210.925;    0.000
335.396; 2869.275;  255.925;    0.000
335.454; 2848.275;  216.925;    0.000
335.512; 2901.275;  242.925;    0.000
335.570; 2873.275;  227.925;    0.000
335.629; 2918.275;  225.925;    0.000
335.687; 2916.275;  227.925;    0.000
335.745; 2869.275;  194.925;    0.000
335.803; 2918.275;  221.925;    0.000
335.861; 2956.275;  217.925;    0.000
335.919; 2994.275;  214.925;    0.000
335.977; 2985.275;  209.925;    0.000
336.035; 2830.275;  215.925;    0.000
336.094; 2884.275;  198.925;    0.000
336.152; 2979.275;  222.925;    0.000
336.210; 2930.275;  225.925;    0.000
336.268; 2892.275;  234.925;    0.000
336.326; 2900.275;  209.925;    0.000
336.384; 2925.275;  271.925;    0.000
336.442; 2893.275;  207.925;    0.000
336.500; 2964.275;  226.925;    0.000
336.558; 2889.275;  219.925;    0.000
336.616; 2973.275;  260.925;    0.000
336.674; 2912.275;  205.925;    0.000
336.732; 2914.275;  225.925;    0.000
336.790; 2929.275;  191.925;    0.000
336.848; 2942.275;  219.925;    0.000
336.906; 2948.275;  230.925;    0.000
336.964; 2867.275;  226.925;    0.000
337.022; 3006.275;  266.925;    0.000
337.080; 2942.275;  231.925;    0.000
337.138; 2974.275;  249.925;    0.000
337.195; 2913.275;  207.925;    0.000
337.253; 2829.275;  207.925;    0.000
337.311; 2840.275;  225.925;    0.000
337.369; 2932.275;  211.925;    0.000
337.427; 2888.275;  196.925;    0.000
337.485; 2858.275;  269.925;    0.000
337.543; 2862.275;  227.925;    0.000
337.601; 2877.275;  260.925;    0.000
337.658; 2873.275;  237.925;    0.000
337.716; 2811.275;  222.925;    0.000
337.774; 2926.275;  256.925;    0.000
337.832; 2870.275;  223.925;    0.000
337.890; 2878.275;  188.925;    0.000
337.947; 2838.275;  212.925;    0.000
338.005; 2849.275;  217.925;    0.000
338.063; 2818.275;  200.925;    0.000
338.121; 2856.275;  217.925;    0.000
338.178; 2824.275;  236.925;    0.000
338.236; 2928.275;  218.925;    0.000
338.294; 2906.275;  238.925;    0.000
338.352; 2876.275;  266.925;    0.000
338.409; 2807.275;  240.925;    0.000
338.467; 2761.275;  210.925;    0.000
338.525; 2921.275;  255.925;    0.000
338.583; 2808.275;  239.925;    0.000
338.640; 2823.275;  243.925;    0.000
338.698; 2771.275;  204.925;    0.000
338.756; 2828.275;  219.925;    0.000
338.813; 2808.275;  227.925;    0.000
338.871; 2827.275;  227.925;    0.000
338.928; 2865.275;  211.925;    0.000
338.986; 2875.275;  254.925;    0.000
339.044; 2837.275;  207.925;    0.000
339.101; 2801.275;  229.925;    0.000
339.159; 2839.275;  237.925;    0.000
339.216; 2786.275;  231.925;    0.000
339.274; 2933.275;  301.925;    0.000
339.332; 2850.275;  259.925;    0.000
339.389; 2800.275;  258.925;    0.000
339.447; 2787.275;  226.925;    0.000
339.504; 2804.275;  229.925;    0.000
339.562; 2812.275;  244.925;    0.000
339.619; 2798.275;  265.925;    0.000
339.677; 2829.275;  253.925;    0.000
339.734; 2765.275;  191.925;    0.000
339.792; 2735.275;  238.925;    0.000
339.849; 2809.275;  236.925;    0.000
339.907; 2824.275;  254.925;    0.000
339.964; 2676.275;  196.925;    0.000
340.022; 2770.275;  247.925;    0.000
340.079; 2781.275;  275.925;    0.000
340.137; 2662.275;  248.925;    0.000
340.194; 2771.275;  263.925;    0.000
340.252; 2801.275;  266.925;    0.000
340.309; 2804.275;  211.925;    0.000
340.366; 2786.275;  237.925;    0.000
340.424; 2798.275;  260.925;    0.000
340.481; 2801.275;  255.925;    0.000
340.538; 2794.275;  235.925;    0.000
340.596; 2707.275;  225.925;    0.000
340.653; 2756.275;  230.925;    0.000
340.711; 2908.275;  272.925;    0.000
340.768; 2852.275;  253.925;    0.000
340.825; 2870.275;  201.925;    0.000
340.883; 2843.275;  232.925;    0.000
340.940; 2779.275;  247.925;    0.000
340.997; 2723.275;  244.925;    0.000
341.054; 2755.275;  244.925;    0.000
341.112; 2826.275;  258.925;    0.000
341.169; 2839.275;  238.925;    0.000
341.226; 2761.275;  213.925;    0.000
341.284; 2777.275;  240.925;    0.000
341.341; 2795.275;  194.925;    0.000
341.398; 2664.275;  191.925;    0.000
341.455; 2843.275;  227.925;    0.000
341.512; 2746.275;  238.925;    0.000
341.570; 2764.275;  236.925;    0.000
341.627; 2731.275;  241.925;    0.000
341.684; 2725.275;  225.925;    0.000
341.741; 2795.275;  299.925;    0.000
341.798; 2818.275;  265.925;    0.000
341.856; 2899.275;  230.925;    0.000
341.913; 2827.275;  234.925;    0.000
341.970; 2756.275;  260.925;    0.000
342.027; 2817.275;  255.925;    0.000
342.084; 2760.275;  260.925;    0.000
342.141; 2841.275;  263.925;    0.000
342.198; 2849.275;  245.925;    0.000
342.255; 2783.275;  210.925;    0.000
342.313; 2798.275;  251.925;    0.000
342.370; 2755.275;  234.925;    0.000
342.427; 2754.275;  249.925;    0.000
342.484; 2752.275;  254.925;    0.000
342.541; 2889.275;  229.925;    0.000
342.598; 2818.275;  255.925;    0.000
342.655; 2795.275;  225.925;    0.000
342.712; 2776.275;  224.925;    0.000
342.769; 2871.275;  215.925;    0.000
342.826; 2838.275;  240.925;    0.000
342.883; 2842.275;  233.925;    0.000
342.940; 2797.275;  212.925;    0.000
342.997; 2805.275;  236.925;    0.000
343.054; 2827.275;  255.925;    0.000
343.111; 2896.275;  228.925;    0.000
343.168; 2878.275;  230.925;    0.000
343.225; 2920.275;  258.925;    0.000
343.282; 2832.275;  202.925;    0.000
343.339; 2937.275;  253.925;    0.000
343.395; 2967.275;  232.925;    0.000
343.452; 2878.275;  253.925;    0.000
343.509; 2917.275;  213.925;    0.000
343.566; 2997.275;  259.925;    0.000
343.623; 2964.275;  244.925;    0.000
343.680; 2959.275;  232.925;    0.000
343.737; 3000.275;  222.925;    0.000
343.794; 3004.275;  204.925;    0.000
343.850; 3006.275;  249.925;    0.000
343.907; 3057.275;  212.925;    0.000
343.964; 3039.275;  226.925;    0.000
344.021; 3051.275;  251.925;    0.000
344.078; 3071.275;  246.925;    0.000
344.134; 3144.275;  218.925;    0.000
344.191; 3064.275;  244.925;    0.000
344.248; 2985.275;  211.925;    0.000
344.305; 2991.275;  221.925;    0.000
344.361; 3071.275;  247.925;    0.000
344.418; 2973.275;  265.925;    0.000
344.475; 3017.275;  254.925;    0.000
344.532; 3026.275;  233.925;    0.000
344.588; 2989.275;  236.925;    0.000
344.645; 2997.275;  249.925;    0.000
344.702; 2972.275;  220.925;    0.000
344.758; 3066.275;  255.925;    0.000
344.815; 2916.275;  236.925;    0.000
344.872; 2952.275;  218.925;    0.000
344.928; 3108.275;  230.925;    0.000
344.985; 2995.275;  222.925;    0.000
345.042; 2954.275;  199.925;    0.000
345.098; 2899.275;  226.925;    0.000
345.155; 2919.275;  245.925;    0.000
345.212; 3001.275;  225.925;    0.000
345.268; 2935.275;  237.925;    0.000
345.325; 2976.275;  213.925;    0.000
345.381; 3025.275;  267.925;    0.000
345.438; 3017.275;  240.925;    0.000
345.495; 3000.275;  254.925;    0.000
345.551; 2993.275;  248.925;    0.000
345.608; 2989.275;  196.925;    0.000
345.664; 3026.275;  245.925;    0.000
345.721; 3044.275;  252.925;    0.000
345.777; 2999.275;  245.925;    0.000
345.834; 2950.275;  210.925;    0.000
345.890; 3030.275;  244.925;    0.000
345.947; 3024.275;  238.925;    0.000
346.003; 2993.275;  224.925;    0.000
346.060; 2967.275;  206.925;    0.000
346.116; 3042.275;  237.925;    0.000
346.173; 3076.275;  242.925;    0.000
346.229; 2969.275;  269.925;    0.000
346.285; 3056.275;  262.925;    0.000
346.342; 2965.275;  263.925;    0.000
346.398; 2926.275;  224.925;    0.000
346.455; 3073.275;  237.925;    0.000
346.511; 3038.275;  216.925;    0.000
346.567; 2957.275;  211.925;    0.000
346.624; 2990.275;  225.925;    0.000
346.680; 3032.275;  242.925;    0.000
346.737; 3006.275;  244.925;    0.000
346.793; 2966.275;  260.925;    0.000
346.849; 3074.275;  251.925;    0.000
346.906; 3020.275;  260.925;    0.000
346.962; 3123.275;  267.925;    0.000
347.018; 3024.275;  246.925;    0.000
347.074; 3010.275;  272.925;    0.000
347.131; 3100.275;  211.925;    0.000
347.187; 3089.275;  240.925;    0.000
347.243; 3093.275;  233.925;    0.000
347.300; 3035.275;  225.925;    0.000
347.356; 3112.275;  236.925;    0.000
347.412; 3027.275;  237.925;    0.000
347.468; 3080.275;  284.925;    0.000
347.524; 3056.275;  252.925;    0.000
347.581; 3155.275;  278.925;    0.000
347.637; 2977.275;  262.925;    0.000
347.693; 3135.275;  268.925;    0.000
347.749; 3185.275;  260.925;    0.000
347.805; 3117.275;  224.925;    0.000
347.862; 3049.275;  243.925;    0.000
347.918; 3120.275;  257.925;    0.000
347.974; 3089.275;  248.925;    0.000
348.030; 3118.275;  242.925;    0.000
348.086; 3088.275;  234.925;    0.000
348.142; 3024.275;  239.925;    0.000
348.198; 3119.275;  260.925;    0.000
348.254; 3144.275;  262.925;    0.000
348.311; 3120.275;  263.925;    0.000
348.367; 3113.275;  235.925;    0.000
348.423; 3183.275;  205.925;    0.000
348.479; 3101.275;  234.925;    0.000
348.535; 3009.275;  257.925;    0.000
348.591; 3163.275;  267.925;    0.000
348.647; 3100.275;  243.925;    0.000
348.703; 3121.275;  278.925;    0.000
348.759; 3162.275;  259.925;    0.000
348.815; 3054.275;  288.925;    0.000
348.871; 3043.275;  269.925;    0.000
348.927; 3201.275;  239.925;    0.000
348.983; 3180.275;  289.925;    0.000
349.039; 3054.275;  221.925;    0.000
349.095; 3116.275;  252.925;    0.000
349.151; 3183.275;  226.925;    0.000
349.207; 3218.275;  263.925;    0.000
349.263; 3117.275;  194.925;    0.000
349.319; 3102.275;  212.925;    0.000
349.374; 3135.275;  236.925;    0.000
349.430; 3199.275;  229.925;    0.000
349.486; 3190.275;  247.925;    0.000
349.542; 3182.275;  263.925;    0.000
349.598; 3104.275;  248.925;    0.000
349.654; 3089.275;  252.925;    0.000
349.710; 3115.275;  230.925;    0.000
349.766; 3206.275;  201.925;    0.000
349.821; 3134.275;  229.925;    0.000
349.877; 3251.275;  282.925;    0.000
349.933; 3210.275;  240.925;    0.000
349.989; 3155.275;  251.925;    0.000
350.045; 3132.275;  240.925;    0.000
350.100; 3192.275;  256.925;    0.000
350.156; 3225.275;  243.925;    0.000
350.212; 3160.275;  250.925;    0.000
350.268; 3223.275;  251.925;    0.000
350.323; 3199.275;  208.925;    0.000
350.379; 3101.275;  244.925;    0.000
350.435; 3190.275;  237.925;    0.000
350.491; 3083.275;  201.925;    0.000
350.546; 3103.275;  225.925;    0.000
350.602; 3119.275;  260.925;    0.000
350.658; 3168.275;  224.925;    0.000
350.713; 3138.275;  264.925;    0.000
350.769; 3183.275;  196.925;    0.000
350.825; 3149.275;  202.925;    0.000
350.880; 3141.275;  232.925;    0.000
350.936; 3187.275;  242.925;    0.000
350.992; 3136.275;  238.925;    0.000
351.047; 3205.275;  242.925;    0.000
351.103; 3134.275;  199.925;    0.000
351.158; 3190.275;  242.925;    0.000
351.214; 3159.275;  225.925;    0.000
351.270; 3141.275;  197.925;    0.000
351.325; 3164.275;  231.925;    0.000
351.381; 3056.275;  215.925;    0.000
351.436; 3206.275;  233.925;    0.000
351.492; 3197.275;  216.925;    0.000
351.547; 3256.275;  244.925;    0.000
351.603; 3199.275;  249.925;    0.000
351.658; 3251.275;  249.925;    0.000
351.714; 3090.275;  222.925;    0.000
351.769; 3200.275;  222.925;    0.000
351.825; 3211.275;  226.925;    0.000
351.880; 3249.275;  238.925;    0.000
351.936; 3167.275;  230.925;    0.000
351.991; 3294.275;  243.925;    0.000
352.047; 3227.275;  201.925;    0.000
352.102; 3269.275;  243.925;    0.000
352.158; 3234.275;  193.925;    0.000
352.213; 3139.275;  219.925;    0.000
352.268; 3290.275;  205.925;    0.000
352.324; 3191.275;  246.925;    0.000
352.379; 3280.275;  247.925;    0.000
352.434; 3260.275;  252.925;    0.000
352.490; 3257.275;  205.925;    0.000
352.545; 3280.275;  262.925;    0.000
352.601; 3325.275;  229.925;    0.000
352.656; 3281.275;  207.925;    0.000
352.711; 3167.275;  228.925;    0.000
352.767; 3174.275;  216.925;    0.000
352.822; 3279.275;  219.925;    0.000
352.877; 3248.275;  234.925;    0.000
352.932; 3264.275;  249.925;    0.000
352.988; 3241.275;  196.925;    0.000
353.043; 3246.275;  228.925;    0.000
353.098; 3313.275;  231.925;    0.000
353.153; 3297.275;  235.925;    0.000
353.209; 3303.275;  250.925;    0.000
353.264; 3168.275;  212.925;    0.000
353.319; 3316.275;  234.925;    0.000
353.374; 3214.275;  245.925;    0.000
353.430; 3254.275;  261.925;    0.000
353.485; 3245.275;  249.925;    0.000
353.540; 3275.275;  260.925;    0.000
353.595; 3273.275;  219.925;    0.000
353.650; 3304.275;  242.925;    0.000
353.705; 3220.275;  244.925;    0.000
353.761; 3298.275;  242.925;    0.000
353.816; 3287.275;  214.925;    0.000
353.871; 3230.275;  237.925;    0.000
353.926; 3273.275;  233.925;    0.000
353.981; 3245.275;  250.925;    0.000
354.036; 3268.275;  239.925;    0.000
354.091; 3257.275;  289.925;    0.000
354.146; 3260.275;  282.925;    0.000
354.201; 3224.275;  244.925;    0.000
354.256; 3240.275;  257.925;    0.000
354.311; 3275.275;  305.925;    0.000
354.367; 3258.275;  220.925;    0.000
354.422; 3299.275;  261.925;    0.000
354.477; 3247.275;  212.925;    0.000
354.532; 3267.275;  254.925;    0.000
354.587; 3283.275;  252.925;    0.000
354.642; 3144.275;  210.925;    0.000
354.697; 3227.275;  232.925;    0.000
354.751; 3335.275;  254.925;    0.000
354.806; 3345.275;  233.925;    0.000
354.861; 3255.275;  244.925;    0.000
354.916; 3249.275;  235.925;    0.000
354.971; 3325.275;  258.925;    0.000
355.026; 3353.275;  251.925;    0.000
355.081; 3228.275;  254.925;    0.000
355.136; 3265.275;  212.925;    0.000
355.191; 3348.275;  211.925;    0.000
355.246; 3280.275;  237.925;    0.000
355.301; 3266.275;  255.925;    0.000
355.355; 3211.275;  231.925;    0.000
355.410; 3250.275;  224.925;    0.000
355.465; 3203.275;  235.925;    0.000
355.520; 3329.275;  244.925;    0.000
355.575; 3360.275;  267.925;    0.000
355.630; 3289.275;  255.925;    0.000
355.684; 3322.275;  254.925;    0.000
355.739; 3347.275;  217.925;    0.000
355.794; 3330.275;  206.925;    0.000
355.849; 3285.275;  221.925;    0.000
355.904; 3342.275;  257.925;    0.000
355.958; 3354.275;  221.925;    0.000
356.013; 3187.275;  192.925;    0.000
356.068; 3346.275;  267.925;    0.000
356.123; 3332.275;  218.925;    0.000
356.177; 3330.275;  236.925;    0.000
356.232; 3324.275;  236.925;    0.000
356.287; 3263.275;  246.925;    0.000
356.341; 3330.275;  241.925;    0.000
356.396; 3343.275;  219.925;    0.000
356.451; 3354.275;  244.925;    0.000
356.505; 3273.275;  248.925;    0.000
356.560; 3289.275;  267.925;    0.000
356.615; 3272.275;  258.925;    0.000
356.669; 3339.275;  291.925;    0.000
356.724; 3376.275;  272.925;    0.000
356.778; 3364.275;  244.925;    0.000
356.833; 3292.275;  223.925;    0.000
356.888; 3333.275;  245.925;    0.000
356.942; 3285.275;  221.925;    0.000
356.997; 3393.275;  254.925;    0.000
357.051; 3285.275;  244.925;    0.000
357.106; 3347.275;  227.925;    0.000
357.160; 3218.275;  176.925;    0.000
357.215; 3312.275;  234.925;    0.000
357.269; 3310.275;  233.925;    0.000
357.324; 3336.275;  232.925;    0.000
357.378; 3259.275;  211.925;    0.000
357.433; 3292.275;  252.925;    0.000
357.487; 3445.275;  227.925;    0.000
357.542; 3270.275;  246.925;    0.000
357.596; 3361.275;  260.925;    0.000
357.651; 3295.275;  301.925;    0.000
357.705; 3297.275;  230.925;    0.000
357.760; 3276.275;  211.925;    0.000
357.814; 3364.275;  265.925;    0.000
357.868; 3240.275;  220.925;    0.000
357.923; 3275.275;  220.925;    0.000
357.977; 3214.275;  245.925;    0.000
358.032; 3269.275;  247.925;    0.000
358.086; 3343.275;  242.925;    0.000
358.140; 3267.275;  270.925;    0.000
358.195; 3287.275;  242.925;    0.000
358.249; 3214.275;  238.925;    0.000
358.303; 3272.275;  285.925;    0.000
358.358; 3385.275;  265.925;    0.000
358.412; 3347.275;  265.925;    0.000
358.466; 3307.275;  257.925;    0.000
358.521; 3340.275;  251.925;    0.000
358.575; 3269.275;  254.925;    0.000
358.629; 3188.275;  278.925;    0.000
358.683; 3279.275;  288.925;    0.000
358.738; 3283.275;  302.925;    0.000
358.792; 3303.275;  239.925;    0.000
358.846; 3228.275;  293.925;    0.000
358.900; 3289.275;  271.925;    0.000
358.954; 3327.275;  300.925;    0.000
359.009; 3345.275;  279.925;    0.000
359.063; 3255.275;  249.925;    0.000
359.117; 3313.275;  264.925;    0.000
359.171; 3300.275;  279.925;    0.000
359.225; 3219.275;  276.925;    0.000
359.280; 3414.275;  237.925;    0.000
359.334; 3359.275;  280.925;    0.000
359.388; 3300.275;  282.925;    0.000
359.442; 3367.275;  243.925;    0.000
359.496; 3265.275;  204.925;    0.000
359.550; 3296.275;  308.925;    0.000
359.604; 3295.275;  264.925;    0.000
359.658; 3333.275;  247.925;    0.000
359.712; 3283.275;  273.925;    0.000
359.766; 3392.275;  212.925;    0.000
359.820; 3249.275;  228.925;    0.000
359.875; 3389.275;  248.925;    0.000
359.929; 3368.275;  271.925;    0.000
359.983; 3297.275;  274.925;    0.000
360.037; 3269.275;  262.925;    0.000
360.091; 3312.275;  302.925;    0.000
360.145; 3262.275;  244.925;    0.000
360.199; 3403.275;  253.925;    0.000
360.253; 3340.275;  285.925;    0.000
360.306; 3248.275;  287.925;    0.000
360.360; 3375.275;  267.925;    0.000
360.414; 3198.275;  250.925;    0.000
360.468; 3325.275;  270.925;    0.000
360.522; 3309.275;  276.925;    0.000
360.576; 3345.275;  269.925;    0.000
360.630; 3319.275;  281.925;    0.000
360.684; 3332.275;  291.925;    0.000
360.738; 3294.275;  325.925;    0.000
360.792; 3370.275;  320.925;    0.000
360.846; 3306.275;  276.925;    0.000
360.899; 3305.275;  314.925;    0.000
360.953; 3341.275;  275.925;    0.000
361.007; 3234.275;  292.925;    0.000
361.061; 3228.275;  278.925;    0.000
361.115; 3294.275;  264.925;    0.000
361.168; 3374.275;  317.925;    0.000
361.222; 3246.275;  277.925;    0.000
361.276; 3266.275;  274.925;    0.000
361.330; 3277.275;  269.925;    0.000
361.384; 3292.275;  280.925;    0.000
361.437; 3398.275;  304.925;    0.000
361.491; 3376.275;  256.925;    0.000
361.545; 3398.275;  293.925;    0.000
361.599; 3292.275;  284.925;    0.000
361.652; 3359.275;  274.925;    0.000
361.706; 3304.275;  284.925;    0.000
361.760; 3301.275;  260.925;    0.000
361.813; 3264.275;  272.925;    0.000
361.867; 3303.275;  300.925;    0.000
361.921; 3233.275;  275.925;    0.000
361.974; 3243.275;  258.925;    0.000
362.028; 3248.275;  248.925;    0.000
362.082; 3285.275;  252.925;    0.000
362.135; 3333.275;  240.925;    0.000
362.189; 3294.275;  259.925;    0.000
362.242; 3255.275;  267.925;    0.000
362.296; 3237.275;  280.925;    0.000
362.350; 3338.275;  282.925;    0.000
362.403; 3272.275;  288.925;    0.000
362.457; 3286.275;  253.925;    0.000
362.510; 3305.275;  323.925;    0.000
362.564; 3280.275;  286.925;    0.000
362.617; 3254.275;  317.925;    0.000
362.671; 3319.275;  286.925;    0.000
362.724; 3248.275;  274.925;    0.000
362.778; 3284.275;  295.925;    0.000
362.831; 3377.275;  289.925;    0.000
362.885; 3260.275;  318.925;    0.000
362.938; 3119.275;  271.925;    0.000
362.992;  341.275;  285.925;    0.000
363.045;  245.275;  291.925;    0.000
363.099;  270.275;  276.925;    0.000
363.152;  309.275;  309.925;    0.000
363.205;  305.275;  263.925;    0.000
363.259;  258.275;  288.925;    0.000
363.312;  308.275;  333.925;    0.000
363.366;  292.275;  328.925;    0.000
363.419;  280.275;  328.925;    0.000
363.472;  298.275;  295.925;    0.000
363.526;  278.275;  334.925;    0.000
363.579;  301.275;  312.925;    0.000
363.632;  281.275;  274.925;    0.000
363.686;  269.275;  282.925;    0.000
363.739;  278.275;  289.925;    0.000
363.792;  298.275;  287.925;    0.000

