
Integration time [ms]:   0.300
Averaging Nr. [scans]: 1
Smoothing Nr. [pixels]: 0
Data measured with spectrometer [name]: NIR
Wave   ;Sample   ;Dark     ;Reference
[nm]   ;[counts] ;[counts] ;[counts] 

691.496;    6.375;  102.875;    0.000
691.696;   50.375;  181.875;    0.000
691.896;   39.375;  138.875;    0.000
692.096;   49.375;  182.875;    0.000
692.296;  -32.625;  145.875;    0.000
692.496;   30.375;  154.875;    0.000
692.695;  -19.625;  108.875;    0.000
692.895;   31.375;  176.875;    0.000
693.095;    4.375;  138.875;    0.000
693.295;   85.375;  192.875;    0.000
693.495;   18.375;  170.875;    0.000
693.695;   27.375;  147.875;    0.000
693.894;   45.375;  191.875;    0.000
694.094;   25.375;  148.875;    0.000
694.294;   10.375;  147.875;    0.000
694.494;  328.375;  140.875;    0.000
694.693; 2791.375;  137.875;    0.000
694.893; 3056.375;  141.875;    0.000
695.093; 3176.375;  105.875;    0.000
695.293; 3124.375;  115.875;    0.000
695.492; 3127.375;   81.875;    0.000
695.692; 3255.375;  162.875;    0.000
695.891; 3135.375;  162.875;    0.000
696.091; 3243.375;  166.875;    0.000
696.291; 3333.375;  143.875;    0.000
696.490; 3261.375;  170.875;    0.000
696.690; 3239.375;  142.875;    0.000
696.889; 3255.375;  186.875;    0.000
697.089; 3219.375;  120.875;    0.000
697.288; 3246.375;  215.875;    0.000
697.488; 3344.375;  178.875;    0.000
697.687; 3199.375;  170.875;    0.000
697.887; 3163.375;  140.875;    0.000
698.086; 3273.375;  131.875;    0.000
698.286; 3302.375;  117.875;    0.000
698.485; 3213.375;  136.875;    0.000
698.684; 3151.375;  126.875;    0.000
698.884; 3183.375;  161.875;    0.000
699.083; 3252.375;   95.875;    0.000
699.282; 3332.375;  120.875;    0.000
699.482; 3230.375;  131.875;    0.000
699.681; 3405.375;  168.875;    0.000
699.880; 3345.375;  154.875;    0.000
700.080; 3397.375;  149.875;    0.000
700.279; 3277.375;   99.875;    0.000
700.478; 3394.375;  157.875;    0.000
700.677; 3388.375;  111.875;    0.000
700.877; 3400.375;  126.875;    0.000
701.076; 3374.375;  142.875;    0.000
701.275; 3344.375;  107.875;    0.000
701.474; 3352.375;   72.875;    0.000
701.673; 3335.375;   87.875;    0.000
701.872; 3321.375;  170.875;    0.000
702.071; 3450.375;  136.875;    0.000
702.271; 3383.375;  121.875;    0.000
702.470; 3439.375;  139.875;    0.000
702.669; 3371.375;  121.875;    0.000
702.868; 3396.375;  146.875;    0.000
703.067; 3440.375;  159.875;    0.000
703.266; 3491.375;  122.875;    0.000
703.465; 3415.375;  121.875;    0.000
703.664; 3401.375;  144.875;    0.000
703.863; 3455.375;  140.875;    0.000
704.062; 3415.375;  109.875;    0.000
704.260; 3427.375;  164.875;    0.000
704.459; 3361.375;  124.875;    0.000
704.658; 3510.375;  109.875;    0.000
704.857; 3505.375;  149.875;    0.000
705.056; 3463.375;  112.875;    0.000
705.255; 3439.375;   95.875;    0.000
705.454; 3446.375;  105.875;    0.000
705.652; 3578.375;  134.875;    0.000
705.851; 3426.375;   92.875;    0.000
706.050; 3607.375;  127.875;    0.000
706.249; 3571.375;  111.875;    0.000
706.447; 3648.375;   98.875;    0.000
706.646; 3526.375;  108.875;    0.000
706.845; 3576.375;   95.875;    0.000
707.043; 3619.375;   95.875;    0.000
707.242; 3505.375;   97.875;    0.000
707.441; 3501.375;  142.875;    0.000
707.639; 3606.375;  121.875;    0.000
707.838; 3581.375;  141.875;    0.000
708.037; 3623.375;  125.875;    0.000
708.235; 3574.375;  100.875;    0.000
708.434; 3522.375;  106.875;    0.000
708.632; 3576.375;   86.875;    0.000
708.831; 3568.375;  138.875;    0.000
709.029; 3595.375;   86.875;    0.000
709.228; 3572.375;  103.875;    0.000
709.426; 3576.375;  146.875;    0.000
709.625; 3639.375;  136.875;    0.000
709.823; 3709.375;  114.875;    0.000
710.022; 3707.375;  144.875;    0.000
710.220; 3619.375;  109.875;    0.000
710.418; 3683.375;  116.875;    0.000
710.617; 3735.375;   67.875;    0.000
710.815; 3700.375;  104.875;    0.000
711.013; 3687.375;  109.875;    0.000
711.212; 3709.375;  106.875;    0.000
711.410; 3813.375;   95.875;    0.000
711.608; 3853.375;  155.875;    0.000
711.807; 3647.375;  103.875;    0.000
712.005; 3731.375;  104.875;    0.000
712.203; 3702.375;   94.875;    0.000
712.401; 3728.375;  125.875;    0.000
712.599; 3774.375;  127.875;    0.000
712.798; 3789.375;  141.875;    0.000
712.996; 3909.375;   85.875;    0.000
713.194; 3816.375;   96.875;    0.000
713.392; 3831.375;   54.875;    0.000
713.590; 3818.375;  123.875;    0.000
713.788; 3834.375;  130.875;    0.000
713.986; 3950.375;  104.875;    0.000
714.184; 3927.375;   91.875;    0.000
714.382; 3929.375;  120.875;    0.000
714.580; 3938.375;   71.875;    0.000
714.778; 3932.375;   92.875;    0.000
714.976; 4010.375;  129.875;    0.000
715.174; 4117.375;   99.875;    0.000
715.372; 4170.375;  119.875;    0.000
715.570; 4328.375;   95.875;    0.000
715.768; 4663.375;  113.875;    0.000
715.966; 4560.375;   64.875;    0.000
716.164; 4696.375;  135.875;    0.000
716.362; 4592.375;  125.875;    0.000
716.560; 4405.375;  135.875;    0.000
716.758; 4397.375;   84.875;    0.000
716.955; 4431.375;  109.875;    0.000
717.153; 4249.375;   73.875;    0.000
717.351; 4327.375;  110.875;    0.000
717.549; 4276.375;  149.875;    0.000
717.746; 4264.375;  121.875;    0.000
717.944; 4305.375;  128.875;    0.000
718.142; 4236.375;  124.875;    0.000
718.340; 4139.375;   96.875;    0.000
718.537; 4187.375;  138.875;    0.000
718.735; 4213.375;  144.875;    0.000
718.933; 4294.375;   97.875;    0.000
719.130; 4261.375;  109.875;    0.000
719.328; 4221.375;  123.875;    0.000
719.525; 4245.375;  118.875;    0.000
719.723; 4180.375;  117.875;    0.000
719.920; 4144.375;   72.875;    0.000
720.118; 4252.375;   92.875;    0.000
720.316; 4228.375;  141.875;    0.000
720.513; 4142.375;   98.875;    0.000
720.711; 4229.375;  146.875;    0.000
720.908; 4055.375;  113.875;    0.000
721.105; 4211.375;  157.875;    0.000
721.303; 4253.375;  106.875;    0.000
721.500; 4182.375;   88.875;    0.000
721.698; 4168.375;   88.875;    0.000
721.895; 4233.375;   94.875;    0.000
722.092; 4247.375;   82.875;    0.000
722.290; 4340.375;  136.875;    0.000
722.487; 4150.375;   67.875;    0.000
722.684; 4229.375;  115.875;    0.000
722.882; 4264.375;  104.875;    0.000
723.079; 4223.375;  122.875;    0.000
723.276; 4207.375;   91.875;    0.000
723.473; 4216.375;   89.875;    0.000
723.671; 4162.375;   97.875;    0.000
723.868; 4361.375;  117.875;    0.000
724.065; 4267.375;  102.875;    0.000
724.262; 4359.375;  137.875;    0.000
724.459; 4271.375;   48.875;    0.000
724.656; 4274.375;  122.875;    0.000
724.854; 4372.375;   96.875;    0.000
725.051; 4227.375;  120.875;    0.000
725.248; 4337.375;  146.875;    0.000
725.445; 4391.375;  117.875;    0.000
725.642; 4318.375;  106.875;    0.000
725.839; 4423.375;  143.875;    0.000
726.036; 4281.375;   79.875;    0.000
726.233; 4234.375;   90.875;    0.000
726.430; 4371.375;  124.875;    0.000
726.627; 4338.375;   98.875;    0.000
726.824; 4385.375;   91.875;    0.000
727.021; 4384.375;  131.875;    0.000
727.218; 4358.375;  110.875;    0.000
727.414; 4459.375;   83.875;    0.000
727.611; 4368.375;   86.875;    0.000
727.808; 4378.375;  131.875;    0.000
728.005; 4447.375;  105.875;    0.000
728.202; 4300.375;  128.875;    0.000
728.399; 4445.375;  113.875;    0.000
728.595; 4355.375;  102.875;    0.000
728.792; 4424.375;   91.875;    0.000
728.989; 4415.375;  122.875;    0.000
729.186; 4453.375;  103.875;    0.000
729.382; 4382.375;  106.875;    0.000
729.579; 4313.375;  114.875;    0.000
729.776; 4361.375;  115.875;    0.000
729.972; 4459.375;  108.875;    0.000
730.169; 4488.375;  111.875;    0.000
730.366; 4520.375;  100.875;    0.000
730.562; 4426.375;   86.875;    0.000
730.759; 4458.375;   93.875;    0.000
730.955; 4561.375;  127.875;    0.000
731.152; 4429.375;   99.875;    0.000
731.348; 4505.375;   97.875;    0.000
731.545; 4418.375;   98.875;    0.000
731.741; 4532.375;  130.875;    0.000
731.938; 4514.375;  115.875;    0.000
732.134; 4554.375;  107.875;    0.000
732.331; 4374.375;   80.875;    0.000
732.527; 4442.375;  108.875;    0.000
732.724; 4421.375;  104.875;    0.000
732.920; 4382.375;  109.875;    0.000
733.116; 4506.375;  117.875;    0.000
733.313; 4520.375;   81.875;    0.000
733.509; 4556.375;   87.875;    0.000
733.705; 4568.375;  143.875;    0.000
733.902; 4544.375;   74.875;    0.000
734.098; 4530.375;   90.875;    0.000
734.294; 4559.375;  104.875;    0.000
734.490; 4611.375;  139.875;    0.000
734.687; 4591.375;  113.875;    0.000
734.883; 4607.375;   72.875;    0.000
735.079; 4596.375;  100.875;    0.000
735.275; 4567.375;  113.875;    0.000
735.471; 4581.375;   55.875;    0.000
735.667; 4573.375;  106.875;    0.000
735.863; 4533.375;  131.875;    0.000
736.060; 4735.375;  127.875;    0.000
736.256; 4553.375;   76.875;    0.000
736.452; 4666.375;  127.875;    0.000
736.648; 4408.375;  136.875;    0.000
736.844; 4754.375;  113.875;    0.000
737.040; 4733.375;  125.875;    0.000
737.236; 4582.375;   99.875;    0.000
737.432; 4670.375;   75.875;    0.000
737.628; 4691.375;  155.875;    0.000
737.824; 4684.375;  116.875;    0.000
738.019; 4736.375;   92.875;    0.000
738.215; 4818.375;  113.875;    0.000
738.411; 4724.375;  135.875;    0.000
738.607; 4697.375;   53.875;    0.000
738.803; 4765.375;   79.875;    0.000
738.999; 4711.375;  117.875;    0.000
739.195; 4886.375;  106.875;    0.000
739.390; 4937.375;  125.875;    0.000
739.586; 5054.375;  102.875;    0.000
739.782; 4788.375;  125.875;    0.000
739.978; 4927.375;  124.875;    0.000
740.173; 4928.375;   96.875;    0.000
740.369; 4976.375;  118.875;    0.000
740.565; 5098.375;  128.875;    0.000
740.760; 4949.375;  118.875;    0.000
740.956; 4845.375;  109.875;    0.000
741.152; 5013.375;  151.875;    0.000
741.347; 5149.375;  112.875;    0.000
741.543; 5092.375;  113.875;    0.000
741.738; 5118.375;  128.875;    0.000
741.934; 5264.375;  144.875;    0.000
742.129; 5512.375;  105.875;    0.000
742.325; 6188.375;  137.875;    0.000
742.520; 6567.375;  128.875;    0.000
742.716; 6354.375;  121.875;    0.000
742.911; 5927.375;   75.875;    0.000
743.107; 5949.375;  100.875;    0.000
743.302; 5841.375;   72.875;    0.000
743.498; 5897.375;  137.875;    0.000
743.693; 5818.375;  124.875;    0.000
743.888; 6211.375;  121.875;    0.000
744.084; 6836.375;   93.875;    0.000
744.279; 8084.375;   75.875;    0.000
744.474; 8224.375;  136.875;    0.000
744.670; 7482.375;  109.875;    0.000
744.865; 7103.375;  142.875;    0.000
745.060; 6735.375;   84.875;    0.000
745.255; 6499.375;  149.875;    0.000
745.451; 6309.375;  101.875;    0.000
745.646; 6470.375;  132.875;    0.000
745.841; 6251.375;  126.875;    0.000
746.036; 6333.375;  125.875;    0.000
746.231; 6435.375;  150.875;    0.000
746.426; 6786.375;  118.875;    0.000
746.622; 7368.375;  135.875;    0.000
746.817; 9409.375;  122.875;    0.000
747.012;10668.375;  134.875;    0.000
747.207; 9577.375;  124.875;    0.000
747.402; 8548.375;  122.875;    0.000
747.597; 8021.375;   95.875;    0.000
747.792; 7688.375;  168.875;    0.000
747.987; 7389.375;  110.875;    0.000
748.182; 7284.375;  119.875;    0.000
748.377; 6811.375;   70.875;    0.000
748.572; 6776.375;  113.875;    0.000
748.767; 6577.375;  123.875;    0.000
748.961; 6344.375;  110.875;    0.000
749.156; 6197.375;  135.875;    0.000
749.351; 6193.375;   98.875;    0.000
749.546; 5999.375;  126.875;    0.000
749.741; 6076.375;  129.875;    0.000
749.936; 6031.375;   86.875;    0.000
750.130; 5942.375;   97.875;    0.000
750.325; 6006.375;  110.875;    0.000
750.520; 5827.375;  120.875;    0.000
750.715; 5991.375;  122.875;    0.000
750.909; 5855.375;  120.875;    0.000
751.104; 5804.375;  118.875;    0.000
751.299; 5776.375;  122.875;    0.000
751.493; 5895.375;  129.875;    0.000
751.688; 5731.375;  138.875;    0.000
751.882; 5655.375;   87.875;    0.000
752.077; 5739.375;  142.875;    0.000
752.272; 5651.375;  110.875;    0.000
752.466; 5511.375;  154.875;    0.000
752.661; 5501.375;   96.875;    0.000
752.855; 5455.375;   93.875;    0.000
753.050; 5451.375;  122.875;    0.000
753.244; 5425.375;  110.875;    0.000
753.439; 5403.375;  116.875;    0.000
753.633; 5250.375;  131.875;    0.000
753.828; 5401.375;  130.875;    0.000
754.022; 5271.375;   96.875;    0.000
754.216; 5396.375;  114.875;    0.000
754.411; 5191.375;  145.875;    0.000
754.605; 5272.375;   65.875;    0.000
754.799; 5182.375;  116.875;    0.000
754.994; 5175.375;  117.875;    0.000
755.188; 5135.375;  124.875;    0.000
755.382; 5217.375;   80.875;    0.000
755.576; 5221.375;   90.875;    0.000
755.771; 5182.375;  115.875;    0.000
755.965; 5161.375;  106.875;    0.000
756.159; 5209.375;   87.875;    0.000
756.353; 5234.375;  125.875;    0.000
756.547; 5078.375;  146.875;    0.000
756.742; 5086.375;  111.875;    0.000
756.936; 5140.375;  108.875;    0.000
757.130; 5286.375;  101.875;    0.000
757.324; 5122.375;  114.875;    0.000
757.518; 5102.375;  136.875;    0.000
757.712; 5110.375;  123.875;    0.000
757.906; 5119.375;  115.875;    0.000
758.100; 5198.375;  186.875;    0.000
758.294; 5146.375;  118.875;    0.000
758.488; 5120.375;  167.875;    0.000
758.682; 5212.375;  137.875;    0.000
758.876; 5125.375;  135.875;    0.000
759.070; 5116.375;  132.875;    0.000
759.264; 5214.375;  118.875;    0.000
759.458; 5021.375;  111.875;    0.000
759.651; 5113.375;  142.875;    0.000
759.845; 4996.375;  105.875;    0.000
760.039; 5163.375;   73.875;    0.000
760.233; 5094.375;  156.875;    0.000
760.427; 5138.375;  119.875;    0.000
760.620; 5114.375;  136.875;    0.000
760.814; 5225.375;  126.875;    0.000
761.008; 5177.375;  126.875;    0.000
761.202; 5108.375;  123.875;    0.000
761.395; 5090.375;  141.875;    0.000
761.589; 5202.375;  107.875;    0.000
761.783; 5140.375;  122.875;    0.000
761.976; 5158.375;  120.875;    0.000
762.170; 5159.375;  147.875;    0.000
762.363; 5142.375;  144.875;    0.000
762.557; 5110.375;  119.875;    0.000
762.750; 5093.375;  118.875;    0.000
762.944; 5208.375;  145.875;    0.000
763.138; 5197.375;  123.875;    0.000
763.331; 5230.375;  129.875;    0.000
763.524; 5244.375;  109.875;    0.000
763.718; 5242.375;  150.875;    0.000
763.911; 5243.375;  140.875;    0.000
764.105; 5204.375;   97.875;    0.000
764.298; 5208.375;  128.875;    0.000
764.492; 5213.375;  132.875;    0.000
764.685; 5220.375;   92.875;    0.000
764.878; 5199.375;  111.875;    0.000
765.072; 5149.375;  116.875;    0.000
765.265; 5293.375;  135.875;    0.000
765.458; 5156.375;   69.875;    0.000
765.651; 5297.375;  145.875;    0.000
765.845; 5357.375;   95.875;    0.000
766.038; 5322.375;  147.875;    0.000
766.231; 5350.375;  119.875;    0.000
766.424; 5759.375;  126.875;    0.000
766.617; 5676.375;   92.875;    0.000
766.811; 5306.375;  109.875;    0.000
767.004; 5284.375;  107.875;    0.000
767.197; 5428.375;  171.875;    0.000
767.390; 5193.375;  114.875;    0.000
767.583; 5297.375;  109.875;    0.000
767.776; 5290.375;  130.875;    0.000
767.969; 5321.375;  103.875;    0.000
768.162; 5331.375;  139.875;    0.000
768.355; 5482.375;  142.875;    0.000
768.548; 5464.375;  140.875;    0.000
768.741; 5372.375;   82.875;    0.000
768.934; 5502.375;  107.875;    0.000
769.127; 5493.375;  121.875;    0.000
769.320; 5378.375;  106.875;    0.000
769.513; 5431.375;  145.875;    0.000
769.706; 5501.375;  120.875;    0.000
769.898; 5782.375;  135.875;    0.000
770.091; 5598.375;  146.875;    0.000
770.284; 5584.375;  108.875;    0.000
770.477; 5805.375;  148.875;    0.000
770.670; 5676.375;  163.875;    0.000
770.862; 5628.375;   97.875;    0.000
771.055; 5642.375;  116.875;    0.000
771.248; 5765.375;  143.875;    0.000
771.441; 5806.375;  125.875;    0.000
771.633; 5725.375;  125.875;    0.000
771.826; 5823.375;  132.875;    0.000
772.018; 5920.375;  123.875;    0.000
772.211; 5906.375;  143.875;    0.000
772.404; 5880.375;  144.875;    0.000
772.596; 6062.375;  130.875;    0.000
772.789; 6123.375;  109.875;    0.000
772.981; 6105.375;  151.875;    0.000
773.174; 6138.375;  119.875;    0.000
773.366; 6335.375;  179.875;    0.000
773.559; 6256.375;  106.875;    0.000
773.751; 6343.375;  120.875;    0.000
773.944; 6430.375;  159.875;    0.000
774.136; 6658.375;  131.875;    0.000
774.329; 6795.375;  141.875;    0.000
774.521; 6711.375;  114.875;    0.000
774.713; 7025.375;  169.875;    0.000
774.906; 7300.375;  151.875;    0.000
775.098; 7490.375;   99.875;    0.000
775.290; 7809.375;  166.875;    0.000
775.483; 8219.375;  146.875;    0.000
775.675; 8496.375;  106.875;    0.000
775.867; 9009.375;   91.875;    0.000
776.059; 9960.375;  137.875;    0.000
776.251;10712.375;  124.875;    0.000
776.444;12017.375;  168.875;    0.000
776.636;13929.375;  138.875;    0.000
776.828;17236.375;  155.875;    0.000
777.020;23967.375;  160.875;    0.000
777.212;35055.375;  153.875;    0.000
777.404;39458.375;  135.875;    0.000
777.596;36482.375;  144.875;    0.000
777.788;27415.375;  127.875;    0.000
777.980;20951.375;  141.875;    0.000
778.172;17191.375;  138.875;    0.000
778.364;14900.375;  143.875;    0.000
778.556;13322.375;  123.875;    0.000
778.748;11727.375;  103.875;    0.000
778.940;10929.375;  176.875;    0.000
779.132;10133.375;  144.875;    0.000
779.324; 9423.375;   75.875;    0.000
779.516; 8822.375;  117.875;    0.000
779.708; 8365.375;  151.875;    0.000
779.900; 8000.375;  127.875;    0.000
780.091; 7690.375;  155.875;    0.000
780.283; 7381.375;  157.875;    0.000
780.475; 7222.375;  140.875;    0.000
780.667; 6990.375;  141.875;    0.000
780.859; 6795.375;  113.875;    0.000
781.050; 6602.375;  153.875;    0.000
781.242; 6552.375;  118.875;    0.000
781.434; 6520.375;  121.875;    0.000
781.625; 6380.375;  146.875;    0.000
781.817; 6203.375;  154.875;    0.000
782.008; 5982.375;  144.875;    0.000
782.200; 6099.375;  152.875;    0.000
782.392; 6027.375;  160.875;    0.000
782.583; 5965.375;  122.875;    0.000
782.775; 5875.375;  144.875;    0.000
782.966; 5762.375;  143.875;    0.000
783.158; 5711.375;  125.875;    0.000
783.349; 5541.375;  173.875;    0.000
783.541; 5594.375;  166.875;    0.000
783.732; 5557.375;  163.875;    0.000
783.924; 5570.375;  157.875;    0.000
784.115; 5425.375;  158.875;    0.000
784.306; 5414.375;  160.875;    0.000
784.498; 5426.375;  132.875;    0.000
784.689; 5408.375;  181.875;    0.000
784.880; 5330.375;  156.875;    0.000
785.072; 5412.375;  134.875;    0.000
785.263; 5310.375;  155.875;    0.000
785.454; 5360.375;  141.875;    0.000
785.645; 5293.375;  114.875;    0.000
785.837; 5200.375;  137.875;    0.000
786.028; 5157.375;  158.875;    0.000
786.219; 5160.375;  135.875;    0.000
786.410; 5197.375;  152.875;    0.000
786.601; 5166.375;  132.875;    0.000
786.792; 5197.375;  152.875;    0.000
786.984; 5022.375;  162.875;    0.000
787.175; 5127.375;   97.875;    0.000
787.366; 5060.375;  129.875;    0.000
787.557; 5204.375;  135.875;    0.000
787.748; 5030.375;  127.875;    0.000
787.939; 5008.375;  152.875;    0.000
788.130; 5077.375;  182.875;    0.000
788.321; 5033.375;  130.875;    0.000
788.512; 5077.375;  161.875;    0.000
788.703; 5038.375;  127.875;    0.000
788.894; 5007.375;  121.875;    0.000
789.084; 5146.375;  134.875;    0.000
789.275; 5056.375;  108.875;    0.000
789.466; 5124.375;  152.875;    0.000
789.657; 5140.375;  115.875;    0.000
789.848; 4975.375;  150.875;    0.000
790.039; 5088.375;  132.875;    0.000
790.229; 5123.375;  169.875;    0.000
790.420; 5055.375;  159.875;    0.000
790.611; 5083.375;  123.875;    0.000
790.801; 5145.375;  144.875;    0.000
790.992; 5091.375;  177.875;    0.000
791.183; 5081.375;  128.875;    0.000
791.373; 5087.375;  123.875;    0.000
791.564; 5003.375;  131.875;    0.000
791.755; 5080.375;  103.875;    0.000
791.945; 5227.375;  104.875;    0.000
792.136; 5106.375;  115.875;    0.000
792.326; 5027.375;   99.875;    0.000
792.517; 5189.375;  139.875;    0.000
792.707; 5183.375;  155.875;    0.000
792.898; 5233.375;  139.875;    0.000
793.088; 5292.375;  153.875;    0.000
793.279; 5309.375;  137.875;    0.000
793.469; 5420.375;  109.875;    0.000
793.660; 5405.375;  119.875;    0.000
793.850; 5608.375;  119.875;    0.000
794.040; 5781.375;  132.875;    0.000
794.231; 6010.375;  122.875;    0.000
794.421; 6301.375;  124.875;    0.000
794.611; 7054.375;  151.875;    0.000
794.802; 7897.375;  121.875;    0.000
794.992; 8528.375;  139.875;    0.000
795.182; 8646.375;  132.875;    0.000
795.372; 8120.375;  149.875;    0.000
795.563; 7620.375;  153.875;    0.000
795.753; 6874.375;  120.875;    0.000
795.943; 6619.375;  121.875;    0.000
796.133; 6154.375;   97.875;    0.000
796.323; 5995.375;  122.875;    0.000
796.513; 5841.375;  142.875;    0.000
796.703; 5700.375;  125.875;    0.000
796.893; 5623.375;  126.875;    0.000
797.083; 5424.375;  150.875;    0.000
797.273; 5539.375;  108.875;    0.000
797.463; 5180.375;  156.875;    0.000
797.653; 5255.375;   80.875;    0.000
797.843; 5155.375;   88.875;    0.000
798.033; 5175.375;   96.875;    0.000
798.223; 5075.375;  159.875;    0.000
798.413; 5105.375;  155.875;    0.000
798.603; 4959.375;  125.875;    0.000
798.793; 4881.375;  141.875;    0.000
798.983; 4865.375;  113.875;    0.000
799.172; 4891.375;   85.875;    0.000
799.362; 4890.375;  141.875;    0.000
799.552; 4927.375;  122.875;    0.000
799.742; 4906.375;  124.875;    0.000
799.932; 4922.375;  102.875;    0.000
800.121; 4841.375;  146.875;    0.000
800.311; 4752.375;  122.875;    0.000
800.501; 4931.375;  120.875;    0.000
800.690; 4884.375;  141.875;    0.000
800.880; 4816.375;  146.875;    0.000
801.070; 4802.375;  122.875;    0.000
801.259; 4775.375;  138.875;    0.000
801.449; 4793.375;  115.875;    0.000
801.638; 4857.375;  132.875;    0.000
801.828; 4813.375;   92.875;    0.000
802.017; 4822.375;  150.875;    0.000
802.207; 4837.375;  134.875;    0.000
802.396; 4930.375;  133.875;    0.000
802.586; 4800.375;  117.875;    0.000
802.775; 4646.375;  155.875;    0.000
802.965; 4732.375;  132.875;    0.000
803.154; 4822.375;  176.875;    0.000
803.343; 4814.375;  106.875;    0.000
803.533; 4825.375;  154.875;    0.000
803.722; 4660.375;   97.875;    0.000
803.911; 4739.375;  107.875;    0.000
804.101; 4726.375;  145.875;    0.000
804.290; 4724.375;  130.875;    0.000
804.479; 4844.375;  152.875;    0.000
804.668; 4735.375;  160.875;    0.000
804.857; 4919.375;  161.875;    0.000
805.047; 4834.375;  126.875;    0.000
805.236; 4959.375;  136.875;    0.000
805.425; 4813.375;  153.875;    0.000
805.614; 4843.375;  139.875;    0.000
805.803; 4805.375;  144.875;    0.000
805.992; 4848.375;  160.875;    0.000
806.181; 4877.375;  139.875;    0.000
806.370; 4866.375;  104.875;    0.000
806.559; 4885.375;  103.875;    0.000
806.748; 4996.375;  145.875;    0.000
806.937; 4881.375;  151.875;    0.000
807.126; 4840.375;  119.875;    0.000
807.315; 5048.375;  139.875;    0.000
807.504; 5106.375;  143.875;    0.000
807.693; 4943.375;  164.875;    0.000
807.882; 5116.375;  135.875;    0.000
808.071; 5127.375;  131.875;    0.000
808.260; 5029.375;  113.875;    0.000
808.448; 5078.375;  161.875;    0.000
808.637; 5281.375;  125.875;    0.000
808.826; 5111.375;  155.875;    0.000
809.015; 5189.375;  113.875;    0.000
809.203; 5260.375;  152.875;    0.000
809.392; 5354.375;   90.875;    0.000
809.581; 5376.375;  186.875;    0.000
809.770; 5411.375;   99.875;    0.000
809.958; 5416.375;  146.875;    0.000
810.147; 5463.375;  115.875;    0.000
810.335; 5456.375;  122.875;    0.000
810.524; 5685.375;  150.875;    0.000
810.713; 5647.375;  121.875;    0.000
810.901; 5691.375;  156.875;    0.000
811.090; 5745.375;  161.875;    0.000
811.278; 5883.375;  138.875;    0.000
811.467; 5990.375;  184.875;    0.000
811.655; 6205.375;  150.875;    0.000
811.844; 6197.375;  137.875;    0.000
812.032; 5994.375;  142.875;    0.000
812.220; 6211.375;  134.875;    0.000
812.409; 6328.375;  143.875;    0.000
812.597; 6416.375;  164.875;    0.000
812.785; 6540.375;  188.875;    0.000
812.974; 6428.375;  156.875;    0.000
813.162; 6673.375;  166.875;    0.000
813.350; 6567.375;  115.875;    0.000
813.539; 6719.375;  167.875;    0.000
813.727; 6919.375;  165.875;    0.000
813.915; 6997.375;  137.875;    0.000
814.103; 7076.375;  166.875;    0.000
814.291; 7249.375;  151.875;    0.000
814.479; 7345.375;  147.875;    0.000
814.668; 7539.375;  166.875;    0.000
814.856; 7906.375;  160.875;    0.000
815.044; 7753.375;  172.875;    0.000
815.232; 8202.375;  193.875;    0.000
815.420; 8350.375;  173.875;    0.000
815.608; 8743.375;  134.875;    0.000
815.796; 8906.375;  105.875;    0.000
815.984; 9244.375;  125.875;    0.000
816.172; 9658.375;  160.875;    0.000
816.360;10160.375;  162.875;    0.000
816.548;10667.375;  160.875;    0.000
816.736;11396.375;  132.875;    0.000
816.924;12177.375;  184.875;    0.000
817.111;12934.375;  145.875;    0.000
817.299;14459.375;  132.875;    0.000
817.487;16269.375;  193.875;    0.000
817.675;18809.375;  153.875;    0.000
817.863;23280.375;  153.875;    0.000
818.050;31652.375;  172.875;    0.000
818.238;49393.375;  131.875;    0.000
818.426;61652.375;  160.875;    0.000
818.613;51450.375;  136.875;    0.000
818.801;43857.375;  162.875;    0.000
818.989;42121.375;  153.875;    0.000
819.176;45258.375;  181.875;    0.000
819.364;58019.375;  165.875;    0.000
819.552;65178.375;  111.875;    0.000
819.739;59952.375;  192.875;    0.000
819.927;49730.375;  146.875;    0.000
820.114;41832.375;  154.875;    0.000
820.302;36023.375;  144.875;    0.000
820.489;31476.375;  133.875;    0.000
820.677;28137.375;  135.875;    0.000
820.864;25828.375;  130.875;    0.000
821.052;24235.375;   88.875;    0.000
821.239;23119.375;  143.875;    0.000
821.426;22205.375;  186.875;    0.000
821.614;22934.375;  171.875;    0.000
821.801;22837.375;   90.875;    0.000
821.988;20573.375;  143.875;    0.000
822.176;19551.375;   95.875;    0.000
822.363;19394.375;  148.875;    0.000
822.550;17870.375;  139.875;    0.000
822.737;16588.375;  122.875;    0.000
822.924;15474.375;  171.875;    0.000
823.112;14727.375;  147.875;    0.000
823.299;14098.375;  111.875;    0.000
823.486;13356.375;  161.875;    0.000
823.673;12501.375;  124.875;    0.000
823.860;12252.375;  151.875;    0.000
824.047;12083.375;  145.875;    0.000
824.234;12456.375;  139.875;    0.000
824.421;12353.375;  110.875;    0.000
824.608;11500.375;  145.875;    0.000
824.795;10627.375;  115.875;    0.000
824.982;10105.375;  148.875;    0.000
825.169; 9725.375;  135.875;    0.000
825.356; 9180.375;  122.875;    0.000
825.543; 8907.375;  142.875;    0.000
825.730; 8567.375;   89.875;    0.000
825.917; 8260.375;  127.875;    0.000
826.104; 7994.375;  187.875;    0.000
826.290; 7867.375;  138.875;    0.000
826.477; 7485.375;  140.875;    0.000
826.664; 7401.375;  106.875;    0.000
826.851; 7133.375;  155.875;    0.000
827.038; 7086.375;  125.875;    0.000
827.224; 6911.375;  126.875;    0.000
827.411; 6816.375;  163.875;    0.000
827.598; 6592.375;  140.875;    0.000
827.784; 6528.375;  117.875;    0.000
827.971; 6340.375;  114.875;    0.000
828.157; 6353.375;  146.875;    0.000
828.344; 6115.375;  161.875;    0.000
828.531; 6035.375;  155.875;    0.000
828.717; 5909.375;  130.875;    0.000
828.904; 5917.375;  138.875;    0.000
829.090; 5890.375;  176.875;    0.000
829.277; 5655.375;  152.875;    0.000
829.463; 5601.375;  139.875;    0.000
829.650; 5552.375;  168.875;    0.000
829.836; 5400.375;  176.875;    0.000
830.022; 5354.375;  159.875;    0.000
830.209; 5371.375;  135.875;    0.000
830.395; 5238.375;  177.875;    0.000
830.581; 5187.375;  125.875;    0.000
830.768; 5165.375;  155.875;    0.000
830.954; 5048.375;  187.875;    0.000
831.140; 4877.375;  135.875;    0.000
831.327; 4988.375;  158.875;    0.000
831.513; 4971.375;  126.875;    0.000
831.699; 4904.375;  167.875;    0.000
831.885; 4765.375;  165.875;    0.000
832.071; 4782.375;  167.875;    0.000
832.257; 4623.375;  144.875;    0.000
832.444; 4725.375;  158.875;    0.000
832.630; 4657.375;  167.875;    0.000
832.816; 4610.375;  150.875;    0.000
833.002; 4512.375;  157.875;    0.000
833.188; 4431.375;  169.875;    0.000
833.374; 4388.375;  144.875;    0.000
833.560; 4414.375;  179.875;    0.000
833.746; 4276.375;  134.875;    0.000
833.932; 4265.375;  150.875;    0.000
834.118; 4233.375;   98.875;    0.000
834.303; 4233.375;  121.875;    0.000
834.489; 4128.375;  179.875;    0.000
834.675; 4123.375;  136.875;    0.000
834.861; 4148.375;  130.875;    0.000
835.047; 4120.375;  132.875;    0.000
835.233; 3980.375;  104.875;    0.000
835.418; 4175.375;  143.875;    0.000
835.604; 3909.375;  127.875;    0.000
835.790; 3979.375;  138.875;    0.000
835.976; 3975.375;  137.875;    0.000
836.161; 3871.375;  155.875;    0.000
836.347; 3833.375;  101.875;    0.000
836.533; 3822.375;  121.875;    0.000
836.718; 3865.375;  150.875;    0.000
836.904; 3863.375;  168.875;    0.000
837.089; 3819.375;  169.875;    0.000
837.275; 3740.375;  172.875;    0.000
837.460; 3716.375;  140.875;    0.000
837.646; 3836.375;  144.875;    0.000
837.831; 3753.375;  137.875;    0.000
838.017; 3839.375;  176.875;    0.000
838.202; 3777.375;  107.875;    0.000
838.388; 3751.375;  181.875;    0.000
838.573; 3763.375;  151.875;    0.000
838.759; 3684.375;  160.875;    0.000
838.944; 3627.375;  121.875;    0.000
839.129; 3750.375;  145.875;    0.000
839.315; 3653.375;  166.875;    0.000
839.500; 3733.375;  143.875;    0.000
839.685; 3695.375;   93.875;    0.000
839.870; 3649.375;  160.875;    0.000
840.056; 3610.375;  132.875;    0.000
840.241; 3620.375;  154.875;    0.000
840.426; 3680.375;  161.875;    0.000
840.611; 3711.375;  186.875;    0.000
840.796; 3696.375;  135.875;    0.000
840.981; 3664.375;  147.875;    0.000
841.166; 3791.375;  138.875;    0.000
841.352; 3643.375;  156.875;    0.000
841.537; 3741.375;  170.875;    0.000
841.722; 3853.375;  143.875;    0.000
841.907; 3747.375;  143.875;    0.000
842.092; 3869.375;  166.875;    0.000
842.277; 3835.375;  113.875;    0.000
842.461; 3940.375;  126.875;    0.000
842.646; 3962.375;  145.875;    0.000
842.831; 4011.375;  193.875;    0.000
843.016; 4190.375;  162.875;    0.000
843.201; 4155.375;  144.875;    0.000
843.386; 4331.375;  160.875;    0.000
843.571; 4448.375;  136.875;    0.000
843.755; 4691.375;  134.875;    0.000
843.940; 5022.375;  136.875;    0.000
844.125; 5493.375;  169.875;    0.000
844.310; 6337.375;  189.875;    0.000
844.494; 8159.375;  167.875;    0.000
844.679;11059.375;  184.875;    0.000
844.864;11126.375;  147.875;    0.000
845.048; 9134.375;  140.875;    0.000
845.233; 7546.375;  178.875;    0.000
845.418; 6613.375;  145.875;    0.000
845.602; 5951.375;  147.875;    0.000
845.787; 5540.375;  147.875;    0.000
845.971; 5190.375;  165.875;    0.000
846.156; 4754.375;  106.875;    0.000
846.340; 4640.375;  168.875;    0.000
846.525; 4437.375;  155.875;    0.000
846.709; 4221.375;  157.875;    0.000
846.893; 4094.375;  166.875;    0.000
847.078; 4000.375;  138.875;    0.000
847.262; 3799.375;  171.875;    0.000
847.447; 3690.375;  135.875;    0.000
847.631; 3564.375;  136.875;    0.000
847.815; 3646.375;  136.875;    0.000
848.000; 3443.375;  126.875;    0.000
848.184; 3547.375;  131.875;    0.000
848.368; 3408.375;  153.875;    0.000
848.552; 3443.375;  137.875;    0.000
848.736; 3444.375;  151.875;    0.000
848.921; 3269.375;  156.875;    0.000
849.105; 3343.375;  153.875;    0.000
849.289; 3319.375;  180.875;    0.000
849.473; 3197.375;  156.875;    0.000
849.657; 3151.375;  157.875;    0.000
849.841; 3184.375;  147.875;    0.000
850.025; 3213.375;  194.875;    0.000
850.209; 3123.375;  147.875;    0.000
850.393; 3014.375;  141.875;    0.000
850.577; 3017.375;  156.875;    0.000
850.761; 3085.375;  157.875;    0.000
850.945; 3044.375;  128.875;    0.000
851.129; 3007.375;  151.875;    0.000
851.313; 2980.375;  180.875;    0.000
851.497; 3054.375;  123.875;    0.000
851.680; 3042.375;  188.875;    0.000
851.864; 3027.375;  177.875;    0.000
852.048; 2875.375;  163.875;    0.000
852.232; 2981.375;  149.875;    0.000
852.416; 2940.375;  187.875;    0.000
852.599; 2982.375;  169.875;    0.000
852.783; 2893.375;  154.875;    0.000
852.967; 3023.375;  191.875;    0.000
853.150; 2970.375;  170.875;    0.000
853.334; 2845.375;  173.875;    0.000
853.518; 2938.375;  186.875;    0.000
853.701; 2906.375;  142.875;    0.000
853.885; 2965.375;  153.875;    0.000
854.068; 2898.375;  132.875;    0.000
854.252; 2738.375;  184.875;    0.000
854.435; 2972.375;  152.875;    0.000
854.619; 2774.375;  152.875;    0.000
854.802; 2864.375;  164.875;    0.000
854.986; 2848.375;  151.875;    0.000
855.169; 2908.375;  153.875;    0.000
855.353; 2907.375;  183.875;    0.000
855.536; 2804.375;  113.875;    0.000
855.719; 2871.375;  181.875;    0.000
855.903; 2957.375;  159.875;    0.000
856.086; 2959.375;  142.875;    0.000
856.269; 2917.375;  171.875;    0.000
856.452; 2933.375;  132.875;    0.000
856.636; 3015.375;  140.875;    0.000
856.819; 3314.375;  165.875;    0.000
857.002; 3281.375;  170.875;    0.000
857.185; 3162.375;  173.875;    0.000
857.368; 3194.375;  129.875;    0.000
857.552; 3071.375;  151.875;    0.000
857.735; 3058.375;  146.875;    0.000
857.918; 2938.375;  114.875;    0.000
858.101; 3022.375;  152.875;    0.000
858.284; 3046.375;  164.875;    0.000
858.467; 3087.375;  147.875;    0.000
858.650; 3182.375;  146.875;    0.000
858.833; 3124.375;  118.875;    0.000
859.016; 3222.375;  161.875;    0.000
859.199; 3284.375;  135.875;    0.000
859.382; 3533.375;  157.875;    0.000
859.564; 3794.375;  124.875;    0.000
859.747; 3713.375;  154.875;    0.000
859.930; 3652.375;  138.875;    0.000
860.113; 3397.375;  153.875;    0.000
860.296; 3396.375;  180.875;    0.000
860.478; 3274.375;  145.875;    0.000
860.661; 3250.375;  160.875;    0.000
860.844; 3157.375;   96.875;    0.000
861.027; 3206.375;  128.875;    0.000
861.209; 3159.375;  127.875;    0.000
861.392; 3050.375;  126.875;    0.000
861.575; 3248.375;  155.875;    0.000
861.757; 3178.375;  141.875;    0.000
861.940; 3242.375;  181.875;    0.000
862.122; 3255.375;  145.875;    0.000
862.305; 3294.375;  124.875;    0.000
862.487; 3483.375;  151.875;    0.000
862.670; 3734.375;  132.875;    0.000
862.852; 4312.375;  112.875;    0.000
863.035; 5051.375;  116.875;    0.000
863.217; 4964.375;  131.875;    0.000
863.400; 4503.375;  145.875;    0.000
863.582; 4358.375;  147.875;    0.000
863.764; 4011.375;  163.875;    0.000
863.947; 3835.375;  129.875;    0.000
864.129; 3773.375;  159.875;    0.000
864.311; 3747.375;  144.875;    0.000
864.493; 3596.375;  141.875;    0.000
864.676; 3605.375;  159.875;    0.000
864.858; 3639.375;  146.875;    0.000
865.040; 3586.375;  163.875;    0.000
865.222; 3599.375;  133.875;    0.000
865.404; 3577.375;  148.875;    0.000
865.587; 3760.375;  177.875;    0.000
865.769; 3863.375;  172.875;    0.000
865.951; 3802.375;  145.875;    0.000
866.133; 3785.375;  168.875;    0.000
866.315; 3830.375;  147.875;    0.000
866.497; 3847.375;  164.875;    0.000
866.679; 3915.375;  143.875;    0.000
866.861; 4028.375;  170.875;    0.000
867.043; 4298.375;  185.875;    0.000
867.225; 4488.375;  149.875;    0.000
867.407; 4873.375;  143.875;    0.000
867.589; 5515.375;  169.875;    0.000
867.770; 6577.375;  166.875;    0.000
867.952; 8794.375;  158.875;    0.000
868.134;11533.375;  170.875;    0.000
868.316;11506.375;  157.875;    0.000
868.498;11141.375;  186.875;    0.000
868.679; 9610.375;  158.875;    0.000
868.861; 8254.375;  180.875;    0.000
869.043; 6672.375;  164.875;    0.000
869.224; 6052.375;  156.875;    0.000
869.406; 5448.375;  176.875;    0.000
869.588; 5312.375;  152.875;    0.000
869.769; 4962.375;  131.875;    0.000
869.951; 4873.375;  203.875;    0.000
870.132; 5003.375;  143.875;    0.000
870.314; 5503.375;  129.875;    0.000
870.495; 5439.375;  175.875;    0.000
870.677; 5024.375;  165.875;    0.000
870.858; 4940.375;  151.875;    0.000
871.040; 5135.375;  155.875;    0.000
871.221; 5517.375;  144.875;    0.000
871.403; 5399.375;  131.875;    0.000
871.584; 5015.375;  174.875;    0.000
871.765; 4987.375;  169.875;    0.000
871.947; 5317.375;  187.875;    0.000
872.128; 4864.375;  181.875;    0.000
872.309; 4321.375;  129.875;    0.000
872.491; 4045.375;  142.875;    0.000
872.672; 3737.375;  158.875;    0.000
872.853; 3714.375;  179.875;    0.000
873.034; 3551.375;  164.875;    0.000
873.215; 3576.375;  168.875;    0.000
873.396; 3192.375;  114.875;    0.000
873.578; 3218.375;  126.875;    0.000
873.759; 3044.375;  177.875;    0.000
873.940; 3047.375;  169.875;    0.000
874.121; 2809.375;  133.875;    0.000
874.302; 2931.375;  164.875;    0.000
874.483; 2888.375;  162.875;    0.000
874.664; 2789.375;  140.875;    0.000
874.845; 2865.375;  124.875;    0.000
875.026; 2834.375;  146.875;    0.000
875.207; 2831.375;  147.875;    0.000
875.388; 2645.375;  174.875;    0.000
875.568; 2698.375;  179.875;    0.000
875.749; 2648.375;  155.875;    0.000
875.930; 2564.375;  166.875;    0.000
876.111; 2593.375;  153.875;    0.000
876.292; 2592.375;  146.875;    0.000
876.472; 2522.375;  167.875;    0.000
876.653; 2587.375;  145.875;    0.000
876.834; 2501.375;  172.875;    0.000
877.015; 2472.375;  184.875;    0.000
877.195; 2471.375;  160.875;    0.000
877.376; 2416.375;  163.875;    0.000
877.556; 2447.375;  164.875;    0.000
877.737; 2510.375;  179.875;    0.000
877.918; 2361.375;  137.875;    0.000
878.098; 2409.375;  117.875;    0.000
878.279; 2409.375;  135.875;    0.000
878.459; 2217.375;  149.875;    0.000
878.640; 2294.375;  171.875;    0.000
878.820; 2308.375;  142.875;    0.000
879.000; 2304.375;  166.875;    0.000
879.181; 2440.375;  177.875;    0.000
879.361; 2350.375;  176.875;    0.000
879.542; 2322.375;  159.875;    0.000
879.722; 2245.375;  122.875;    0.000
879.902; 2283.375;  166.875;    0.000
880.083; 2249.375;  164.875;    0.000
880.263; 2322.375;  139.875;    0.000
880.443; 2364.375;  179.875;    0.000
880.623; 2296.375;  154.875;    0.000
880.803; 2379.375;  160.875;    0.000
880.984; 2300.375;  181.875;    0.000
881.164; 2298.375;  167.875;    0.000
881.344; 2243.375;  141.875;    0.000
881.524; 2385.375;  190.875;    0.000
881.704; 2363.375;  165.875;    0.000
881.884; 2435.375;  144.875;    0.000
882.064; 2624.375;  135.875;    0.000
882.244; 2701.375;  186.875;    0.000
882.424; 2554.375;  150.875;    0.000
882.604; 2493.375;  168.875;    0.000
882.784; 2439.375;  155.875;    0.000
882.964; 2347.375;  137.875;    0.000
883.144; 2296.375;  136.875;    0.000
883.324; 2348.375;  200.875;    0.000
883.504; 2352.375;  203.875;    0.000
883.683; 2215.375;  149.875;    0.000
883.863; 2223.375;  160.875;    0.000
884.043; 2173.375;  161.875;    0.000
884.223; 2109.375;  147.875;    0.000
884.402; 2205.375;  175.875;    0.000
884.582; 2215.375;  188.875;    0.000
884.762; 2235.375;  173.875;    0.000
884.941; 2150.375;  164.875;    0.000
885.121; 2144.375;  147.875;    0.000
885.301; 2162.375;  135.875;    0.000
885.480; 2111.375;  145.875;    0.000
885.660; 2151.375;  144.875;    0.000
885.839; 2082.375;  155.875;    0.000
886.019; 2103.375;  207.875;    0.000
886.198; 2036.375;  165.875;    0.000
886.378; 2075.375;  120.875;    0.000
886.557; 2183.375;  133.875;    0.000
886.737; 2068.375;  119.875;    0.000
886.916; 2167.375;  129.875;    0.000
887.095; 2115.375;  158.875;    0.000
887.275; 2113.375;  169.875;    0.000
887.454; 2057.375;  184.875;    0.000
887.633; 2061.375;  143.875;    0.000
887.813; 2137.375;  154.875;    0.000
887.992; 2139.375;  188.875;    0.000
888.171; 2060.375;  176.875;    0.000
888.350; 2084.375;  161.875;    0.000
888.530; 2052.375;  163.875;    0.000
888.709; 1992.375;  136.875;    0.000
888.888; 2085.375;  177.875;    0.000
889.067; 2037.375;  169.875;    0.000
889.246; 2091.375;  188.875;    0.000
889.425; 2083.375;  187.875;    0.000
889.604; 2137.375;  169.875;    0.000
889.783; 2070.375;  182.875;    0.000
889.962; 1906.375;  112.875;    0.000
890.141; 2053.375;  231.875;    0.000
890.320; 1951.375;  161.875;    0.000
890.499; 2022.375;  164.875;    0.000
890.678; 2058.375;  176.875;    0.000
890.857; 2030.375;  163.875;    0.000
891.036; 2002.375;  161.875;    0.000
891.214; 2015.375;  156.875;    0.000
891.393; 1964.375;  167.875;    0.000
891.572; 1948.375;  163.875;    0.000
891.751; 2066.375;  205.875;    0.000
891.930; 1984.375;  162.875;    0.000
892.108; 1955.375;  153.875;    0.000
892.287; 2031.375;  153.875;    0.000
892.466; 1997.375;  201.875;    0.000
892.644; 2046.375;  158.875;    0.000
892.823; 1975.375;  122.875;    0.000
893.001; 1959.375;  148.875;    0.000
893.180; 2017.375;  142.875;    0.000
893.359; 2044.375;  192.875;    0.000
893.537; 1974.375;  166.875;    0.000
893.716; 1971.375;  144.875;    0.000
893.894; 1995.375;  145.875;    0.000
894.073; 2022.375;  180.875;    0.000
894.251; 1963.375;  165.875;    0.000
894.429; 1982.375;  182.875;    0.000
894.608; 1929.375;  181.875;    0.000
894.786; 1911.375;  180.875;    0.000
894.964; 2014.375;  207.875;    0.000
895.143; 1975.375;  190.875;    0.000
895.321; 1980.375;  206.875;    0.000
895.499; 1976.375;  164.875;    0.000
895.677; 1871.375;  199.875;    0.000
895.856; 1962.375;  203.875;    0.000
896.034; 1949.375;  200.875;    0.000
896.212; 2067.375;  198.875;    0.000
896.390; 1987.375;  161.875;    0.000
896.568; 1971.375;  205.875;    0.000
896.746; 2042.375;  185.875;    0.000
896.924; 2012.375;  179.875;    0.000
897.102; 1941.375;  190.875;    0.000
897.280; 1969.375;  160.875;    0.000
897.458; 1975.375;  196.875;    0.000
897.636; 1972.375;  168.875;    0.000
897.814; 1977.375;  159.875;    0.000
897.992; 2102.375;  216.875;    0.000
898.170; 1974.375;  195.875;    0.000
898.348; 2107.375;  185.875;    0.000
898.526; 2029.375;  199.875;    0.000
898.704; 2002.375;  215.875;    0.000
898.882; 2070.375;  195.875;    0.000
899.059; 2040.375;  197.875;    0.000
899.237; 2057.375;  168.875;    0.000
899.415; 2012.375;  221.875;    0.000
899.593; 1998.375;  171.875;    0.000
899.770; 2016.375;  191.875;    0.000
899.948; 2075.375;  206.875;    0.000
900.125; 2102.375;  175.875;    0.000
900.303; 2123.375;  176.875;    0.000
900.481; 2040.375;  199.875;    0.000
900.658; 2107.375;  217.875;    0.000
900.836; 2077.375;  192.875;    0.000
901.013; 2152.375;  221.875;    0.000
901.191; 2121.375;  203.875;    0.000
901.368; 2097.375;  189.875;    0.000
901.546; 2259.375;  212.875;    0.000
901.723; 2262.375;  189.875;    0.000
901.901; 2167.375;  198.875;    0.000
902.078; 2284.375;  193.875;    0.000
902.255; 2244.375;  176.875;    0.000
902.433; 2177.375;  201.875;    0.000
902.610; 2234.375;  170.875;    0.000
902.787; 2231.375;  164.875;    0.000
902.964; 2335.375;  216.875;    0.000
903.142; 2409.375;  153.875;    0.000
903.319; 2440.375;  204.875;    0.000
903.496; 2488.375;  188.875;    0.000
903.673; 2475.375;  209.875;    0.000
903.850; 2545.375;  173.875;    0.000
904.027; 2642.375;  186.875;    0.000
904.204; 2785.375;  241.875;    0.000
904.381; 2893.375;  187.875;    0.000
904.558; 3179.375;  196.875;    0.000
904.735; 3592.375;  206.875;    0.000
904.912; 3638.375;  228.875;    0.000
905.089; 3728.375;  172.875;    0.000
905.266; 3394.375;  175.875;    0.000
905.443; 3121.375;  239.875;    0.000
905.620; 2949.375;  176.875;    0.000
905.797; 2772.375;  205.875;    0.000
905.974; 2801.375;  187.875;    0.000
906.151; 2748.375;  135.875;    0.000
906.327; 2728.375;  209.875;    0.000
906.504; 2628.375;  145.875;    0.000
906.681; 2593.375;  178.875;    0.000
906.858; 2536.375;  179.875;    0.000
907.034; 2497.375;  221.875;    0.000
907.211; 2505.375;  166.875;    0.000
907.388; 2373.375;  206.875;    0.000
907.564; 2452.375;  150.875;    0.000
907.741; 2387.375;  187.875;    0.000
907.917; 2344.375;  180.875;    0.000
908.094; 2336.375;  206.875;    0.000
908.271; 2290.375;  184.875;    0.000
908.447; 2307.375;  212.875;    0.000
908.623; 2267.375;  193.875;    0.000
908.800; 2297.375;  185.875;    0.000
908.976; 2225.375;  202.875;    0.000
909.153; 2224.375;  175.875;    0.000
909.329; 2169.375;  193.875;    0.000
909.505; 2179.375;  154.875;    0.000
909.682; 2184.375;  188.875;    0.000
909.858; 2070.375;  162.875;    0.000
910.034; 2123.375;  181.875;    0.000
910.211; 2050.375;  142.875;    0.000
910.387; 2115.375;  200.875;    0.000
910.563; 2071.375;  163.875;    0.000
910.739; 2050.375;  156.875;    0.000
910.915; 2055.375;  202.875;    0.000
911.091; 2070.375;  186.875;    0.000
911.268; 2023.375;  167.875;    0.000
911.444; 2083.375;  193.875;    0.000
911.620; 2068.375;  175.875;    0.000
911.796; 1995.375;  168.875;    0.000
911.972; 2118.375;  154.875;    0.000
912.148; 2087.375;  201.875;    0.000
912.324; 2093.375;  146.875;    0.000
912.500; 2061.375;  185.875;    0.000
912.676; 2017.375;  183.875;    0.000
912.851; 2032.375;  204.875;    0.000
913.027; 1965.375;  196.875;    0.000
913.203; 2058.375;  174.875;    0.000
913.379; 1996.375;  210.875;    0.000
913.555; 2038.375;  197.875;    0.000
913.730; 2017.375;  209.875;    0.000
913.906; 2050.375;  169.875;    0.000
914.082; 2048.375;  236.875;    0.000
914.258; 2099.375;  216.875;    0.000
914.433; 2014.375;  212.875;    0.000
914.609; 1986.375;  180.875;    0.000
914.784; 1966.375;  176.875;    0.000
914.960; 2023.375;  227.875;    0.000
915.136; 1967.375;  149.875;    0.000
915.311; 2110.375;  165.875;    0.000
915.487; 2004.375;  167.875;    0.000
915.662; 2166.375;  225.875;    0.000
915.838; 2039.375;  165.875;    0.000
916.013; 2109.375;  188.875;    0.000
916.189; 2160.375;  200.875;    0.000
916.364; 2089.375;  201.875;    0.000
916.539; 2020.375;  240.875;    0.000
916.715; 2015.375;  180.875;    0.000
916.890; 1986.375;  191.875;    0.000
917.065; 2033.375;  211.875;    0.000
917.240; 2054.375;  212.875;    0.000
917.416; 2009.375;  207.875;    0.000
917.591; 2065.375;  189.875;    0.000
917.766; 2076.375;  205.875;    0.000
917.941; 2016.375;  191.875;    0.000
918.116; 2024.375;  195.875;    0.000
918.292; 1978.375;  183.875;    0.000
918.467; 2032.375;  206.875;    0.000
918.642; 2079.375;  190.875;    0.000
918.817; 2059.375;  193.875;    0.000
918.992; 1935.375;  171.875;    0.000
919.167; 2066.375;  191.875;    0.000
919.342; 2001.375;  202.875;    0.000
919.517; 2063.375;  182.875;    0.000
919.692; 2087.375;  190.875;    0.000
919.867; 2111.375;  221.875;    0.000
920.041; 2084.375;  195.875;    0.000
920.216; 2128.375;  226.875;    0.000
920.391; 2123.375;  230.875;    0.000
920.566; 2193.375;  210.875;    0.000
920.741; 2245.375;  204.875;    0.000
920.915; 2339.375;  213.875;    0.000
921.090; 2567.375;  194.875;    0.000
921.265; 3117.375;  234.875;    0.000
921.439; 3606.375;  228.875;    0.000
921.614; 3124.375;  199.875;    0.000
921.789; 2763.375;  194.875;    0.000
921.963; 2611.375;  236.875;    0.000
922.138; 2536.375;  192.875;    0.000
922.312; 2530.375;  203.875;    0.000
922.487; 2629.375;  207.875;    0.000
922.661; 2671.375;  216.875;    0.000
922.836; 3041.375;  199.875;    0.000
923.010; 3159.375;  179.875;    0.000
923.185; 2904.375;  241.875;    0.000
923.359; 2750.375;  199.875;    0.000
923.534; 2715.375;  227.875;    0.000
923.708; 2896.375;  213.875;    0.000
923.882; 2913.375;  203.875;    0.000
924.057; 2741.375;  194.875;    0.000
924.231; 2602.375;  185.875;    0.000
924.405; 2523.375;  223.875;    0.000
924.579; 2407.375;  196.875;    0.000
924.753; 2410.375;  209.875;    0.000
924.928; 2424.375;  202.875;    0.000
925.102; 2554.375;  184.875;    0.000
925.276; 2475.375;  191.875;    0.000
925.450; 2461.375;  199.875;    0.000
925.624; 2528.375;  190.875;    0.000
925.798; 2651.375;  214.875;    0.000
925.972; 2754.375;  193.875;    0.000
926.146; 2799.375;  191.875;    0.000
926.320; 2920.375;  177.875;    0.000
926.494; 3221.375;  190.875;    0.000
926.668; 3393.375;  182.875;    0.000
926.842; 3472.375;  182.875;    0.000
927.016; 3465.375;  235.875;    0.000
927.190; 3485.375;  234.875;    0.000
927.363; 3278.375;  214.875;    0.000
927.537; 3270.375;  198.875;    0.000
927.711; 3161.375;  154.875;    0.000
927.885; 3172.375;  167.875;    0.000
928.058; 3008.375;  210.875;    0.000
928.232; 3084.375;  206.875;    0.000
928.406; 2872.375;  176.875;    0.000
928.579; 2870.375;  182.875;    0.000
928.753; 2813.375;  179.875;    0.000
928.927; 2767.375;  186.875;    0.000
929.100; 2695.375;  188.875;    0.000
929.274; 2659.375;  167.875;    0.000
929.447; 2560.375;  152.875;    0.000
929.621; 2658.375;  195.875;    0.000
929.794; 2553.375;  200.875;    0.000
929.968; 2497.375;  203.875;    0.000
930.141; 2409.375;  237.875;    0.000
930.315; 2441.375;  165.875;    0.000
930.488; 2456.375;  175.875;    0.000
930.661; 2358.375;  173.875;    0.000
930.835; 2314.375;  171.875;    0.000
931.008; 2366.375;  210.875;    0.000
931.181; 2348.375;  206.875;    0.000
931.354; 2285.375;  195.875;    0.000
931.528; 2322.375;  178.875;    0.000
931.701; 2224.375;  179.875;    0.000
931.874; 2176.375;  150.875;    0.000
932.047; 2151.375;  154.875;    0.000
932.220; 2210.375;  185.875;    0.000
932.393; 2176.375;  166.875;    0.000
932.566; 2127.375;  171.875;    0.000
932.739; 2101.375;  196.875;    0.000
932.912; 2159.375;  212.875;    0.000
933.085; 2136.375;  234.875;    0.000
933.258; 2057.375;  212.875;    0.000
933.431; 2047.375;  181.875;    0.000
933.604; 2108.375;  201.875;    0.000
933.777; 2059.375;  201.875;    0.000
933.950; 2049.375;  176.875;    0.000
934.123; 2018.375;  175.875;    0.000
934.296; 1931.375;  174.875;    0.000
934.468; 2001.375;  186.875;    0.000
934.641; 1993.375;  192.875;    0.000
934.814; 1972.375;  187.875;    0.000
934.987; 2004.375;  165.875;    0.000
935.159; 2041.375;  162.875;    0.000
935.332; 2038.375;  210.875;    0.000
935.505; 2022.375;  191.875;    0.000
935.677; 2047.375;  159.875;    0.000
935.850; 1963.375;  170.875;    0.000
936.022; 2024.375;  172.875;    0.000
936.195; 2022.375;  202.875;    0.000
936.367; 1986.375;  179.875;    0.000
936.540; 2037.375;  207.875;    0.000
936.712; 2033.375;  200.875;    0.000
936.885; 2081.375;  219.875;    0.000
937.057; 2014.375;  150.875;    0.000
937.229; 2002.375;  187.875;    0.000
937.402; 2082.375;  169.875;    0.000
937.574; 2136.375;  127.875;    0.000
937.746; 2132.375;  171.875;    0.000
937.919; 2120.375;  176.875;    0.000
938.091; 2286.375;  193.875;    0.000
938.263; 2450.375;  200.875;    0.000
938.435; 2565.375;  181.875;    0.000
938.608; 2849.375;  191.875;    0.000
938.780; 3423.375;  173.875;    0.000
938.952; 3546.375;  184.875;    0.000
939.124; 3448.375;  171.875;    0.000
939.296; 3984.375;  156.875;    0.000
939.468; 4060.375;  147.875;    0.000
939.640; 3719.375;  186.875;    0.000
939.812; 3360.375;  217.875;    0.000
939.984; 3015.375;  155.875;    0.000
940.156; 2787.375;  191.875;    0.000
940.328; 2699.375;  201.875;    0.000
940.500; 2513.375;  176.875;    0.000
940.672; 2537.375;  190.875;    0.000
940.843; 2417.375;  143.875;    0.000
941.015; 2329.375;  189.875;    0.000
941.187; 2261.375;  172.875;    0.000
941.359; 2376.375;  175.875;    0.000
941.531; 2216.375;  154.875;    0.000
941.702; 2328.375;  183.875;    0.000
941.874; 2208.375;  140.875;    0.000
942.046; 2068.375;  177.875;    0.000
942.217; 2103.375;  147.875;    0.000
942.389; 2229.375;  196.875;    0.000
942.560; 2035.375;  163.875;    0.000
942.732; 2021.375;  187.875;    0.000
942.904; 1979.375;  226.875;    0.000
943.075; 1917.375;  159.875;    0.000
943.247; 1932.375;  209.875;    0.000
943.418; 1893.375;  167.875;    0.000
943.589; 1934.375;  195.875;    0.000
943.761; 1957.375;  190.875;    0.000
943.932; 1998.375;  187.875;    0.000
944.104; 1973.375;  194.875;    0.000
944.275; 1920.375;  177.875;    0.000
944.446; 1888.375;  155.875;    0.000
944.617; 1816.375;  176.875;    0.000
944.789; 1834.375;  171.875;    0.000
944.960; 1810.375;  172.875;    0.000
945.131; 1795.375;  158.875;    0.000
945.302; 1899.375;  201.875;    0.000
945.473; 1787.375;  141.875;    0.000
945.645; 1882.375;  197.875;    0.000
945.816; 1842.375;  165.875;    0.000
945.987; 1937.375;  190.875;    0.000
946.158; 1919.375;  158.875;    0.000
946.329; 1981.375;  160.875;    0.000
946.500; 1856.375;  190.875;    0.000
946.671; 1824.375;  152.875;    0.000
946.842; 1820.375;  182.875;    0.000
947.013; 1715.375;  160.875;    0.000
947.183; 1800.375;  203.875;    0.000
947.354; 1749.375;  174.875;    0.000
947.525; 1743.375;  173.875;    0.000
947.696; 1697.375;  170.875;    0.000
947.867; 1825.375;  187.875;    0.000
948.037; 1727.375;  165.875;    0.000
948.208; 1732.375;  154.875;    0.000
948.379; 1855.375;  176.875;    0.000
948.550; 1764.375;  176.875;    0.000
948.720; 1720.375;  169.875;    0.000
948.891; 1749.375;  216.875;    0.000
949.061; 1743.375;  200.875;    0.000
949.232; 1711.375;  163.875;    0.000
949.403; 1683.375;  157.875;    0.000
949.573; 1675.375;  158.875;    0.000
949.744; 1704.375;  213.875;    0.000
949.914; 1667.375;  177.875;    0.000
950.085; 1665.375;  195.875;    0.000
950.255; 1699.375;  166.875;    0.000
950.425; 1677.375;  196.875;    0.000
950.596; 1675.375;  176.875;    0.000
950.766; 1649.375;  228.875;    0.000
950.936; 1710.375;  185.875;    0.000
951.107; 1615.375;  178.875;    0.000
951.277; 1718.375;  227.875;    0.000
951.447; 1687.375;  219.875;    0.000
951.617; 1678.375;  219.875;    0.000
951.788; 1518.375;  198.875;    0.000
951.958; 1675.375;  202.875;    0.000
952.128; 1632.375;  197.875;    0.000
952.298; 1585.375;  211.875;    0.000
952.468; 1606.375;  233.875;    0.000
952.638; 1612.375;  222.875;    0.000
952.808; 1593.375;  210.875;    0.000
952.978; 1597.375;  216.875;    0.000
953.148; 1584.375;  203.875;    0.000
953.318; 1538.375;  212.875;    0.000
953.488; 1601.375;  156.875;    0.000
953.658; 1642.375;  226.875;    0.000
953.828; 1504.375;  223.875;    0.000
953.998; 1549.375;  209.875;    0.000
954.167; 1600.375;  203.875;    0.000
954.337; 1540.375;  209.875;    0.000
954.507; 1564.375;  252.875;    0.000
954.677; 1645.375;  207.875;    0.000
954.846; 1526.375;  240.875;    0.000
955.016; 1569.375;  197.875;    0.000
955.186; 1575.375;  208.875;    0.000
955.355; 1543.375;  243.875;    0.000
955.525; 1506.375;  211.875;    0.000
955.695; 1526.375;  187.875;    0.000
955.864; 1544.375;  204.875;    0.000
956.034; 1505.375;  199.875;    0.000
956.203; 1555.375;  257.875;    0.000
956.373; 1546.375;  193.875;    0.000
956.542; 1494.375;  187.875;    0.000
956.711; 1521.375;  259.875;    0.000
956.881; 1518.375;  227.875;    0.000
957.050; 1585.375;  260.875;    0.000
957.220; 1506.375;  246.875;    0.000
957.389; 1572.375;  211.875;    0.000
957.558; 1508.375;  197.875;    0.000
957.727; 1514.375;  227.875;    0.000
957.897; 1504.375;  219.875;    0.000
958.066; 1506.375;  180.875;    0.000
958.235; 1439.375;  179.875;    0.000
958.404; 1443.375;  194.875;    0.000
958.573; 1520.375;  235.875;    0.000
958.743; 1455.375;  191.875;    0.000
958.912; 1444.375;  181.875;    0.000
959.081; 1439.375;  193.875;    0.000
959.250; 1401.375;  180.875;    0.000
959.419; 1463.375;  205.875;    0.000
959.588; 1465.375;  241.875;    0.000
959.757; 1445.375;  202.875;    0.000
959.926; 1439.375;  212.875;    0.000
960.094; 1480.375;  199.875;    0.000
960.263; 1413.375;  226.875;    0.000
960.432; 1460.375;  188.875;    0.000
960.601; 1410.375;  200.875;    0.000
960.770; 1341.375;  197.875;    0.000
960.939; 1425.375;  195.875;    0.000
961.107; 1460.375;  198.875;    0.000
961.276; 1383.375;  151.875;    0.000
961.445; 1454.375;  227.875;    0.000
961.613; 1410.375;  186.875;    0.000
961.782; 1440.375;  187.875;    0.000
961.951; 1423.375;  194.875;    0.000
962.119; 1433.375;  227.875;    0.000
962.288; 1352.375;  181.875;    0.000
962.456; 1414.375;  206.875;    0.000
962.625; 1445.375;  181.875;    0.000
962.793; 1389.375;  216.875;    0.000
962.962; 1360.375;  237.875;    0.000
963.130; 1357.375;  194.875;    0.000
963.298; 1384.375;  190.875;    0.000
963.467; 1426.375;  204.875;    0.000
963.635; 1354.375;  159.875;    0.000
963.803; 1407.375;  208.875;    0.000
963.972; 1406.375;  206.875;    0.000
964.140; 1329.375;  178.875;    0.000
964.308; 1464.375;  185.875;    0.000
964.477; 1390.375;  189.875;    0.000
964.645; 1439.375;  201.875;    0.000
964.813; 1428.375;  200.875;    0.000
964.981; 1456.375;  160.875;    0.000
965.149; 1425.375;  230.875;    0.000
965.317; 1460.375;  214.875;    0.000
965.485; 1457.375;  190.875;    0.000
965.653; 1415.375;  239.875;    0.000
965.821; 1385.375;  211.875;    0.000
965.989; 1350.375;  216.875;    0.000
966.157; 1427.375;  198.875;    0.000
966.325; 1374.375;  200.875;    0.000
966.493; 1351.375;  187.875;    0.000
966.661; 1400.375;  181.875;    0.000
966.829; 1350.375;  181.875;    0.000
966.996; 1371.375;  220.875;    0.000
967.164; 1384.375;  179.875;    0.000
967.332; 1453.375;  203.875;    0.000
967.500; 1489.375;  200.875;    0.000
967.667; 1438.375;  196.875;    0.000
967.835; 1417.375;  199.875;    0.000
968.003; 1337.375;  191.875;    0.000
968.170; 1422.375;  141.875;    0.000
968.338; 1424.375;  185.875;    0.000
968.505; 1426.375;  199.875;    0.000
968.673; 1484.375;  191.875;    0.000
968.841; 1372.375;  165.875;    0.000
969.008; 1390.375;  192.875;    0.000
969.175; 1375.375;  172.875;    0.000
969.343; 1400.375;  191.875;    0.000
969.510; 1423.375;  199.875;    0.000
969.678; 1365.375;  156.875;    0.000
969.845; 1414.375;  191.875;    0.000
970.012; 1385.375;  205.875;    0.000
970.180; 1435.375;  201.875;    0.000
970.347; 1345.375;  229.875;    0.000
970.514; 1306.375;  207.875;    0.000
970.681; 1330.375;  169.875;    0.000
970.849; 1366.375;  196.875;    0.000
971.016; 1321.375;  212.875;    0.000
971.183; 1372.375;  178.875;    0.000
971.350; 1376.375;  193.875;    0.000
971.517; 1362.375;  190.875;    0.000
971.684; 1358.375;  261.875;    0.000
971.851; 1470.375;  203.875;    0.000
972.018; 1367.375;  184.875;    0.000
972.185; 1309.375;  226.875;    0.000
972.352; 1412.375;  180.875;    0.000
972.519; 1402.375;  226.875;    0.000
972.686; 1426.375;  233.875;    0.000
972.853; 1373.375;  173.875;    0.000
973.020; 1386.375;  208.875;    0.000
973.186; 1383.375;  173.875;    0.000
973.353; 1392.375;  218.875;    0.000
973.520; 1380.375;  218.875;    0.000
973.687; 1388.375;  176.875;    0.000
973.853; 1424.375;  203.875;    0.000
974.020; 1413.375;  196.875;    0.000
974.187; 1341.375;  188.875;    0.000
974.353; 1351.375;  230.875;    0.000
974.520; 1313.375;  195.875;    0.000
974.687; 1369.375;  209.875;    0.000
974.853; 1372.375;  189.875;    0.000
975.020; 1324.375;  179.875;    0.000
975.186; 1337.375;  204.875;    0.000
975.353; 1336.375;  201.875;    0.000
975.519; 1340.375;  200.875;    0.000
975.685; 1319.375;  176.875;    0.000
975.852; 1393.375;  197.875;    0.000
976.018; 1312.375;  201.875;    0.000
976.184; 1379.375;  176.875;    0.000
976.351; 1417.375;  221.875;    0.000
976.517; 1327.375;  203.875;    0.000
976.683; 1334.375;  236.875;    0.000
976.849; 1379.375;  190.875;    0.000
977.016; 1303.375;  173.875;    0.000
977.182; 1320.375;  200.875;    0.000
977.348; 1313.375;  179.875;    0.000
977.514; 1242.375;  159.875;    0.000
977.680; 1311.375;  200.875;    0.000
977.846; 1291.375;  206.875;    0.000
978.012; 1337.375;  219.875;    0.000
978.178; 1326.375;  229.875;    0.000
978.344; 1318.375;  195.875;    0.000
978.510; 1301.375;  209.875;    0.000
978.676; 1263.375;  190.875;    0.000
978.842; 1350.375;  195.875;    0.000
979.008; 1310.375;  186.875;    0.000
979.174; 1246.375;  185.875;    0.000
979.340; 1340.375;  198.875;    0.000
979.505; 1299.375;  214.875;    0.000
979.671; 1322.375;  159.875;    0.000
979.837; 1306.375;  202.875;    0.000
980.003; 1362.375;  190.875;    0.000
980.168; 1309.375;  216.875;    0.000
980.334; 1287.375;  194.875;    0.000
980.499; 1336.375;  229.875;    0.000
980.665; 1362.375;  240.875;    0.000
980.831; 1356.375;  202.875;    0.000
980.996; 1344.375;  179.875;    0.000
981.162; 1359.375;  212.875;    0.000
981.327; 1333.375;  202.875;    0.000
981.493; 1344.375;  219.875;    0.000
981.658; 1309.375;  218.875;    0.000
981.823; 1255.375;  207.875;    0.000
981.989; 1287.375;  207.875;    0.000
982.154; 1374.375;  224.875;    0.000
982.319; 1339.375;  217.875;    0.000
982.485; 1350.375;  266.875;    0.000
982.650; 1321.375;  245.875;    0.000
982.815; 1327.375;  229.875;    0.000
982.980; 1336.375;  203.875;    0.000
983.146; 1339.375;  242.875;    0.000
983.311; 1330.375;  144.875;    0.000
983.476; 1328.375;  222.875;    0.000
983.641; 1307.375;  206.875;    0.000
983.806; 1313.375;  217.875;    0.000
983.971; 1351.375;  254.875;    0.000
984.136; 1316.375;  217.875;    0.000
984.301; 1289.375;  202.875;    0.000
984.466; 1249.375;  206.875;    0.000
984.631; 1394.375;  224.875;    0.000
984.796; 1371.375;  218.875;    0.000
984.961; 1387.375;  202.875;    0.000
985.126; 1326.375;  238.875;    0.000
985.291; 1260.375;  220.875;    0.000
985.455; 1284.375;  223.875;    0.000
985.620; 1349.375;  218.875;    0.000
985.785; 1261.375;  228.875;    0.000
985.950; 1238.375;  212.875;    0.000
986.114; 1299.375;  215.875;    0.000
986.279; 1317.375;  243.875;    0.000
986.444; 1306.375;  222.875;    0.000
986.608; 1376.375;  243.875;    0.000
986.773; 1336.375;  213.875;    0.000
986.937; 1375.375;  267.875;    0.000
987.102; 1342.375;  235.875;    0.000
987.266; 1314.375;  210.875;    0.000
987.431; 1389.375;  239.875;    0.000
987.595; 1329.375;  230.875;    0.000
987.760; 1389.375;  229.875;    0.000
987.924; 1374.375;  217.875;    0.000
988.088; 1308.375;  210.875;    0.000
988.253; 1328.375;  215.875;    0.000
988.417; 1284.375;  186.875;    0.000
988.581; 1236.375;  214.875;    0.000
988.746; 1286.375;  212.875;    0.000
988.910; 1241.375;  192.875;    0.000
989.074; 1321.375;  195.875;    0.000
989.238; 1281.375;  226.875;    0.000
989.402; 1263.375;  214.875;    0.000
989.566; 1276.375;  201.875;    0.000
989.731; 1324.375;  199.875;    0.000
989.895; 1242.375;  205.875;    0.000
990.059; 1226.375;  204.875;    0.000
990.223; 1253.375;  182.875;    0.000
990.387; 1343.375;  220.875;    0.000
990.551; 1223.375;  199.875;    0.000
990.714; 1312.375;  202.875;    0.000
990.878; 1300.375;  201.875;    0.000
991.042; 1260.375;  202.875;    0.000
991.206; 1281.375;  215.875;    0.000
991.370; 1317.375;  217.875;    0.000
991.534; 1265.375;  152.875;    0.000
991.697; 1279.375;  194.875;    0.000
991.861; 1299.375;  208.875;    0.000
992.025; 1312.375;  209.875;    0.000
992.188; 1190.375;  182.875;    0.000
992.352; 1192.375;  181.875;    0.000
992.516; 1243.375;  192.875;    0.000
992.679; 1199.375;  183.875;    0.000
992.843; 1197.375;  156.875;    0.000
993.006; 1268.375;  192.875;    0.000
993.170; 1279.375;  172.875;    0.000
993.333; 1255.375;  195.875;    0.000
993.497; 1283.375;  185.875;    0.000
993.660; 1224.375;  155.875;    0.000
993.824; 1287.375;  199.875;    0.000
993.987; 1263.375;  211.875;    0.000
994.150; 1227.375;  173.875;    0.000
994.314; 1279.375;  202.875;    0.000
994.477; 1241.375;  171.875;    0.000
994.640; 1237.375;  191.875;    0.000
994.803; 1275.375;  203.875;    0.000
994.967; 1227.375;  198.875;    0.000
995.130; 1239.375;  192.875;    0.000
995.293; 1252.375;  211.875;    0.000
995.456; 1180.375;  207.875;    0.000
995.619; 1239.375;  207.875;    0.000
995.782; 1219.375;  186.875;    0.000
995.945; 1269.375;  203.875;    0.000
996.108; 1277.375;  195.875;    0.000
996.271; 1275.375;  195.875;    0.000
996.434; 1211.375;  179.875;    0.000
996.597; 1265.375;  170.875;    0.000
996.760; 1222.375;  161.875;    0.000
996.923; 1236.375;  177.875;    0.000
997.086; 1169.375;  199.875;    0.000
997.248; 1273.375;  225.875;    0.000
997.411; 1282.375;  194.875;    0.000
997.574; 1226.375;  204.875;    0.000
997.737; 1229.375;  236.875;    0.000
997.899; 1290.375;  191.875;    0.000
998.062; 1132.375;  178.875;    0.000
998.225; 1196.375;  176.875;    0.000
998.387; 1222.375;  203.875;    0.000
998.550; 1180.375;  155.875;    0.000
998.712; 1196.375;  169.875;    0.000
998.875; 1289.375;  234.875;    0.000
999.037; 1237.375;  211.875;    0.000
999.200; 1182.375;  185.875;    0.000
999.362; 1269.375;  199.875;    0.000
999.525; 1251.375;  234.875;    0.000
999.687; 1168.375;  194.875;    0.000
999.849; 1158.375;  223.875;    0.000
1000.012; 1276.375;  222.875;    0.000
1000.174; 1298.375;  187.875;    0.000
1000.336; 1219.375;  204.875;    0.000
1000.499; 1281.375;  240.875;    0.000
1000.661; 1262.375;  215.875;    0.000
1000.823; 1241.375;  206.875;    0.000
1000.985; 1232.375;  197.875;    0.000
1001.147; 1265.375;  221.875;    0.000
1001.309; 1254.375;  207.875;    0.000
1001.471; 1262.375;  227.875;    0.000
1001.633; 1276.375;  208.875;    0.000
1001.796; 1219.375;  158.875;    0.000
1001.958; 1322.375;  210.875;    0.000
1002.119; 1310.375;  223.875;    0.000
1002.281; 1314.375;  211.875;    0.000
1002.443; 1377.375;  227.875;    0.000
1002.605; 1375.375;  186.875;    0.000
1002.767; 1520.375;  242.875;    0.000
1002.929; 1530.375;  219.875;    0.000
1003.091; 1556.375;  191.875;    0.000
1003.252; 1676.375;  233.875;    0.000
1003.414; 1705.375;  214.875;    0.000
1003.576; 1737.375;  186.875;    0.000
1003.738; 1892.375;  175.875;    0.000
1003.899; 1911.375;  237.875;    0.000
1004.061; 2027.375;  220.875;    0.000
1004.222; 2134.375;  186.875;    0.000
1004.384; 2176.375;  216.875;    0.000
1004.546; 2259.375;  203.875;    0.000
1004.707; 2353.375;  216.875;    0.000
1004.869; 2261.375;  219.875;    0.000
1005.030; 2252.375;  188.875;    0.000
1005.191; 2207.375;  223.875;    0.000
1005.353; 2151.375;  227.875;    0.000
1005.514; 2102.375;  235.875;    0.000
1005.675; 1988.375;  201.875;    0.000
1005.837; 1959.375;  199.875;    0.000
1005.998; 1837.375;  219.875;    0.000
1006.159; 1903.375;  235.875;    0.000
1006.321; 1892.375;  199.875;    0.000
1006.482; 1857.375;  222.875;    0.000
1006.643; 1933.375;  195.875;    0.000
1006.804; 2066.375;  205.875;    0.000
1006.965; 2145.375;  199.875;    0.000
1007.126; 2167.375;  231.875;    0.000
1007.287; 2162.375;  208.875;    0.000
1007.448; 2184.375;  205.875;    0.000
1007.609; 2080.375;  256.875;    0.000
1007.770; 1960.375;  231.875;    0.000
1007.931; 2025.375;  223.875;    0.000
1008.092; 1962.375;  217.875;    0.000
1008.253; 2025.375;  236.875;    0.000
1008.414; 2127.375;  197.875;    0.000
1008.575; 2149.375;  233.875;    0.000
1008.736; 2168.375;  193.875;    0.000
1008.896; 2180.375;  238.875;    0.000
1009.057; 2168.375;  245.875;    0.000
1009.218; 2129.375;  240.875;    0.000
1009.379; 2058.375;  210.875;    0.000
1009.539; 2185.375;  234.875;    0.000
1009.700; 2249.375;  228.875;    0.000
1009.860; 2197.375;  238.875;    0.000
1010.021; 2182.375;  199.875;    0.000
1010.182; 2256.375;  214.875;    0.000
1010.342; 2156.375;  216.875;    0.000
1010.503; 2318.375;  207.875;    0.000
1010.663; 2484.375;  258.875;    0.000
1010.823; 2378.375;  243.875;    0.000
1010.984; 2503.375;  268.875;    0.000
1011.144; 2473.375;  217.875;    0.000
1011.305; 2524.375;  237.875;    0.000
1011.465; 2567.375;  216.875;    0.000
1011.625; 2700.375;  195.875;    0.000
1011.785; 2771.375;  201.875;    0.000
1011.946; 2676.375;  200.875;    0.000
1012.106; 2553.375;  206.875;    0.000
1012.266; 2667.375;  227.875;    0.000
1012.426; 2657.375;  221.875;    0.000
1012.586; 2623.375;  198.875;    0.000
1012.746; 2699.375;  215.875;    0.000
1012.906; 2596.375;  226.875;    0.000
1013.066; 2587.375;  221.875;    0.000
1013.226; 2538.375;  202.875;    0.000
1013.386; 2545.375;  210.875;    0.000
1013.546; 2493.375;  243.875;    0.000
1013.706; 2399.375;  200.875;    0.000
1013.866; 2471.375;  232.875;    0.000
1014.026; 2542.375;  206.875;    0.000
1014.186; 2542.375;  222.875;    0.000
1014.346; 2516.375;  233.875;    0.000
1014.505; 2583.375;  241.875;    0.000
1014.665; 2567.375;  225.875;    0.000
1014.825; 2512.375;  196.875;    0.000
1014.985; 2586.375;  234.875;    0.000
1015.144; 2623.375;  232.875;    0.000
1015.304; 2737.375;  214.875;    0.000
1015.464; 2737.375;  210.875;    0.000
1015.623; 2623.375;  219.875;    0.000
1015.783; 2858.375;  216.875;    0.000
1015.942; 3059.375;  267.875;    0.000
1016.102; 2892.375;  234.875;    0.000
1016.261; 2954.375;  230.875;    0.000
1016.420; 3247.375;  225.875;    0.000
1016.580; 3502.375;  205.875;    0.000
1016.739; 3403.375;  199.875;    0.000
1016.899; 3335.375;  218.875;    0.000
1017.058; 3492.375;  204.875;    0.000
1017.217; 3671.375;  196.875;    0.000
1017.376; 3576.375;  204.875;    0.000
1017.536; 3297.375;  195.875;    0.000
1017.695; 3299.375;  216.875;    0.000
1017.854; 3373.375;  235.875;    0.000
1018.013; 3179.375;  189.875;    0.000
1018.172; 3027.375;  217.875;    0.000
1018.331; 3030.375;  215.875;    0.000
1018.490; 3247.375;  233.875;    0.000
1018.649; 3318.375;  211.875;    0.000
1018.808; 3387.375;  196.875;    0.000
1018.967; 3369.375;  222.875;    0.000
1019.126; 3538.375;  221.875;    0.000
1019.285; 3705.375;  212.875;    0.000
1019.444; 3380.375;  231.875;    0.000
1019.603; 3393.375;  227.875;    0.000
1019.762; 3278.375;  192.875;    0.000
1019.921; 3342.375;  240.875;    0.000
1020.079; 3336.375;  209.875;    0.000
1020.238; 3551.375;  211.875;    0.000
1020.397; 3530.375;  253.875;    0.000
1020.555; 3340.375;  179.875;    0.000
1020.714; 3290.375;  225.875;    0.000
1020.873; 3677.375;  232.875;    0.000
1021.031; 3619.375;  245.875;    0.000
1021.190; 3482.375;  230.875;    0.000
1021.348; 3451.375;  221.875;    0.000
1021.507; 3584.375;  212.875;    0.000
1021.665; 3950.375;  211.875;    0.000
1021.824; 3581.375;  206.875;    0.000
1021.982; 3494.375;  218.875;    0.000
1022.141; 3395.375;  232.875;    0.000
1022.299; 3931.375;  193.875;    0.000
1022.457; 3964.375;  217.875;    0.000
1022.616; 3642.375;  248.875;    0.000
1022.774; 3432.375;  222.875;    0.000
1022.932; 3455.375;  211.875;    0.000
1023.090; 4189.375;  288.875;    0.000
1023.249; 4053.375;  214.875;    0.000
1023.407; 3800.375;  233.875;    0.000
1023.565; 3411.375;  208.875;    0.000
1023.723; 3647.375;  217.875;    0.000
1023.881; 4086.375;  235.875;    0.000
1024.039; 4086.375;  228.875;    0.000
1024.197; 3671.375;  216.875;    0.000
1024.355; 3537.375;  251.875;    0.000
1024.513; 3665.375;  232.875;    0.000
1024.671; 4238.375;  217.875;    0.000
1024.829; 4132.375;  255.875;    0.000
1024.987; 3825.375;  203.875;    0.000
1025.145; 3506.375;  239.875;    0.000
1025.302; 3632.375;  209.875;    0.000
1025.460; 4148.375;  224.875;    0.000
1025.618; 4243.375;  193.875;    0.000
1025.776; 4000.375;  209.875;    0.000
1025.933; 3668.375;  229.875;    0.000
1026.091; 3711.375;  218.875;    0.000
1026.249; 4165.375;  269.875;    0.000
1026.406; 4337.375;  264.875;    0.000
1026.564; 4273.375;  230.875;    0.000
1026.721; 3907.375;  198.875;    0.000
1026.879; 3801.375;  216.875;    0.000
1027.036; 4128.375;  226.875;    0.000
1027.194; 4324.375;  245.875;    0.000
1027.351; 4464.375;  236.875;    0.000
1027.509; 4123.375;  262.875;    0.000
1027.666; 3830.375;  227.875;    0.000
1027.823; 4117.375;  214.875;    0.000
1027.981; 4429.375;  258.875;    0.000
1028.138; 4575.375;  239.875;    0.000
1028.295; 4211.375;  226.875;    0.000
1028.452; 3978.375;  225.875;    0.000
1028.609; 3966.375;  276.875;    0.000
1028.767; 4370.375;  228.875;    0.000
1028.924; 4507.375;  213.875;    0.000
1029.081; 4359.375;  232.875;    0.000
1029.238; 4326.375;  250.875;    0.000
1029.395; 4122.375;  255.875;    0.000
1029.552; 4234.375;  217.875;    0.000
1029.709; 4619.375;  210.875;    0.000
1029.866; 4627.375;  243.875;    0.000
1030.023; 4488.375;  202.875;    0.000
1030.180; 4104.375;  233.875;    0.000
1030.337; 4302.375;  234.875;    0.000
1030.494; 4271.375;  222.875;    0.000
1030.650; 4525.375;  241.875;    0.000
1030.807; 4875.375;  206.875;    0.000
1030.964; 4461.375;  206.875;    0.000
1031.121; 4308.375;  228.875;    0.000
1031.277; 4211.375;  228.875;    0.000
1031.434; 4352.375;  234.875;    0.000
1031.591; 4767.375;  250.875;    0.000
1031.747; 4840.375;  246.875;    0.000
1031.904; 4745.375;  201.875;    0.000
1032.060; 4547.375;  237.875;    0.000
1032.217; 4383.375;  232.875;    0.000
1032.373; 4835.375;  210.875;    0.000
1032.530; 4967.375;  246.875;    0.000
1032.686; 5430.375;  196.875;    0.000
1032.843; 5355.375;  212.875;    0.000
1032.999; 4963.375;  243.875;    0.000
1033.155; 5115.375;  234.875;    0.000
1033.312; 5299.375;  246.875;    0.000
1033.468; 5960.375;  233.875;    0.000
1033.624; 6529.375;  237.875;    0.000
1033.780; 6615.375;  263.875;    0.000
1033.937; 6633.375;  214.875;    0.000
1034.093; 6299.375;  230.875;    0.000
1034.249; 6483.375;  206.875;    0.000
1034.405; 6668.375;  238.875;    0.000
1034.561; 7067.375;  231.875;    0.000
1034.717; 7190.375;  228.875;    0.000
1034.873; 7107.375;  262.875;    0.000
1035.029; 7293.375;  252.875;    0.000
1035.185; 6641.375;  232.875;    0.000
1035.341; 6263.375;  245.875;    0.000
1035.497; 6782.375;  253.875;    0.000
1035.653; 6973.375;  252.875;    0.000
1035.809; 7876.375;  245.875;    0.000
1035.964; 8470.375;  229.875;    0.000
1036.120; 7963.375;  226.875;    0.000
1036.276; 8154.375;  236.875;    0.000
1036.432; 7946.375;  203.875;    0.000
1036.587; 7375.375;  228.875;    0.000
1036.743; 7970.375;  240.875;    0.000
1036.899; 8541.375;  220.875;    0.000
1037.054; 8708.375;  153.875;    0.000
1037.210; 9342.375;  219.875;    0.000
1037.365; 9579.375;  229.875;    0.000
1037.521; 9072.375;  257.875;    0.000
1037.676; 8570.375;  211.875;    0.000
1037.832; 8103.375;  234.875;    0.000
1037.987; 8078.375;  235.875;    0.000
1038.143; 8455.375;  176.875;    0.000
1038.298; 9905.375;  262.875;    0.000
1038.453; 9656.375;  209.875;    0.000
1038.609;10693.375;  230.875;    0.000
1038.764;10802.375;  253.875;    0.000
1038.919; 9693.375;  195.875;    0.000
1039.074; 9582.375;  234.875;    0.000
1039.229; 8825.375;  234.875;    0.000
1039.385; 8574.375;  266.875;    0.000
1039.540; 8956.375;  252.875;    0.000
1039.695; 9988.375;  231.875;    0.000
1039.850;10874.375;  208.875;    0.000
1040.005;11754.375;  232.875;    0.000
1040.160;12478.375;  214.875;    0.000
1040.315;12393.375;  221.875;    0.000
1040.470;11461.375;  207.875;    0.000
1040.625;10878.375;  249.875;    0.000
1040.780;10212.375;  251.875;    0.000
1040.935; 9866.375;  254.875;    0.000
1041.089;10766.375;  210.875;    0.000
1041.244;12326.375;  225.875;    0.000
1041.399;13000.375;  208.875;    0.000
1041.554;14319.375;  249.875;    0.000
1041.708;15280.375;  254.875;    0.000
1041.863;14672.375;  248.875;    0.000
1042.018;13944.375;  280.875;    0.000
1042.172;13453.375;  233.875;    0.000
1042.327;12531.375;  256.875;    0.000
1042.481;12373.375;  210.875;    0.000
1042.636;12977.375;  229.875;    0.000
1042.791;13197.375;  215.875;    0.000
1042.945;15296.375;  256.875;    0.000
1043.099;17539.375;  251.875;    0.000
1043.254;17630.375;  204.875;    0.000
1043.408;17300.375;  278.875;    0.000
1043.563;18872.375;  211.875;    0.000
1043.717;18345.375;  259.875;    0.000
1043.871;17105.375;  233.875;    0.000
1044.025;16582.375;  221.875;    0.000
1044.180;16355.375;  208.875;    0.000
1044.334;16109.375;  255.875;    0.000
1044.488;17002.375;  269.875;    0.000
1044.642;17964.375;  228.875;    0.000
1044.796;19712.375;  232.875;    0.000
1044.950;22247.375;  249.875;    0.000
1045.104;24824.375;  205.875;    0.000
1045.258;24566.375;  206.875;    0.000
1045.412;23749.375;  251.875;    0.000
1045.566;23771.375;  249.875;    0.000
1045.720;22189.375;  206.875;    0.000
1045.874;20851.375;  232.875;    0.000
1046.028;19674.375;  266.875;    0.000
1046.182;19784.375;  217.875;    0.000
1046.336;20323.375;  216.875;    0.000
1046.489;20368.375;  236.875;    0.000
1046.643;21101.375;  253.875;    0.000
1046.797;23070.375;  244.875;    0.000
1046.951;24157.375;  234.875;    0.000
1047.104;25089.375;  281.875;    0.000
1047.258;26403.375;  253.875;    0.000
1047.411;27732.375;  228.875;    0.000
1047.565;27312.375;  273.875;    0.000
1047.719;25926.375;  232.875;    0.000
1047.872;24958.375;  230.875;    0.000
1048.026;24089.375;  282.875;    0.000
1048.179;23247.375;  225.875;    0.000
1048.332;23327.375;  234.875;    0.000
1048.486;22842.375;  223.875;    0.000
1048.639;22948.375;  248.875;    0.000
1048.792;23204.375;  244.875;    0.000
1048.946;25197.375;  210.875;    0.000
1049.099;29013.375;  242.875;    0.000
1049.252;29332.375;  269.875;    0.000
1049.406;27443.375;  285.875;    0.000
1049.559;28747.375;  277.875;    0.000
1049.712;30934.375;  254.875;    0.000
1049.865;33712.375;  252.875;    0.000
1050.018;33967.375;  270.875;    0.000
1050.171;29463.375;  230.875;    0.000
1050.324;27019.375;  268.875;    0.000
1050.477;28326.375;  262.875;    0.000
1050.630;31515.375;  243.875;    0.000
1050.783;32763.375;  216.875;    0.000
1050.936;30455.375;  250.875;    0.000
1051.089;27563.375;  247.875;    0.000
1051.242;28224.375;  300.875;    0.000
1051.394;33467.375;  233.875;    0.000
1051.547;35839.375;  263.875;    0.000
1051.700;32023.375;  238.875;    0.000
1051.853;30773.375;  299.875;    0.000
1052.005;33037.375;  275.875;    0.000
1052.158;36773.375;  304.875;    0.000
1052.311;40117.375;  251.875;    0.000
1052.463;40515.375;  276.875;    0.000
1052.616;35522.375;  271.875;    0.000
1052.768;31544.375;  285.875;    0.000
1052.921;29548.375;  261.875;    0.000
1053.073;32952.375;  333.875;    0.000
1053.226;37973.375;  271.875;    0.000
1053.378;44846.375;  309.875;    0.000
1053.531;45887.375;  266.875;    0.000
1053.683;42117.375;  278.875;    0.000
1053.835;36423.375;  274.875;    0.000
1053.988;27570.375;  287.875;    0.000
1054.140; 5134.375;  350.875;    0.000
1054.292; 1287.375;  338.875;    0.000
1054.444; 1042.375;  270.875;    0.000
1054.596;  973.375;  294.875;    0.000
1054.749;  818.375;  285.875;    0.000
1054.901;  802.375;  254.875;    0.000
1055.053;  785.375;  320.875;    0.000
1055.205;  756.375;  284.875;    0.000
1055.357;  716.375;  298.875;    0.000
1055.509;  708.375;  304.875;    0.000
1055.661;  690.375;  350.875;    0.000
1055.813;  636.375;  289.875;    0.000
1055.965;  641.375;  277.875;    0.000
1056.116;  631.375;  288.875;    0.000
1056.268;  645.375;  311.875;    0.000
1056.420;  676.375;  308.875;    0.000

