
Integration time [ms]:   0.300
Averaging Nr. [scans]: 1
Smoothing Nr. [pixels]: 0
Data measured with spectrometer [name]: UV2
Wave   ;Sample   ;Dark     ;Reference
[nm]   ;[counts] ;[counts] ;[counts] 

353.533;  206.725;  235.675;    0.000
353.597;  247.725;  239.675;    0.000
353.660;  241.725;  203.675;    0.000
353.723;  196.725;  225.675;    0.000
353.786;  151.725;  178.675;    0.000
353.850;  206.725;  199.675;    0.000
353.913;  194.725;  179.675;    0.000
353.976;  213.725;  209.675;    0.000
354.039;  177.725;  188.675;    0.000
354.102;  208.725;  219.675;    0.000
354.166;  232.725;  237.675;    0.000
354.229;  220.725;  179.675;    0.000
354.292;  193.725;  210.675;    0.000
354.355;  213.725;  214.675;    0.000
354.418;  203.725;  173.675;    0.000
354.481;  215.725;  170.675;    0.000
354.545;  745.725;  229.675;    0.000
354.608;  709.725;  233.675;    0.000
354.671;  741.725;  183.675;    0.000
354.734;  732.725;  208.675;    0.000
354.797;  760.725;  263.675;    0.000
354.860;  745.725;  208.675;    0.000
354.923;  811.725;  202.675;    0.000
354.986;  805.725;  207.675;    0.000
355.050;  813.725;  180.675;    0.000
355.113;  807.725;  189.675;    0.000
355.176;  817.725;  214.675;    0.000
355.239;  842.725;  199.675;    0.000
355.302;  847.725;  229.675;    0.000
355.365;  851.725;  220.675;    0.000
355.428;  834.725;  196.675;    0.000
355.491;  843.725;  243.675;    0.000
355.554;  848.725;  191.675;    0.000
355.617;  904.725;  200.675;    0.000
355.680;  896.725;  190.675;    0.000
355.743;  940.725;  236.675;    0.000
355.806;  930.725;  193.675;    0.000
355.869;  939.725;  223.675;    0.000
355.932;  901.725;  208.675;    0.000
355.995;  963.725;  231.675;    0.000
356.058;  963.725;  202.675;    0.000
356.121;  948.725;  198.675;    0.000
356.184;  992.725;  209.675;    0.000
356.247;  941.725;  224.675;    0.000
356.310;  942.725;  149.675;    0.000
356.373;  964.725;  211.675;    0.000
356.436;  969.725;  195.675;    0.000
356.498; 1013.725;  176.675;    0.000
356.561;  973.725;  186.675;    0.000
356.624; 1018.725;  184.675;    0.000
356.687;  997.725;  179.675;    0.000
356.750;  983.725;  213.675;    0.000
356.813;  985.725;  172.675;    0.000
356.876; 1021.725;  189.675;    0.000
356.939; 1030.725;  204.675;    0.000
357.001; 1059.725;  195.675;    0.000
357.064; 1062.725;  202.675;    0.000
357.127; 1021.725;  176.675;    0.000
357.190; 1039.725;  186.675;    0.000
357.253; 1042.725;  178.675;    0.000
357.316; 1060.725;  187.675;    0.000
357.378; 1072.725;  181.675;    0.000
357.441; 1049.725;  142.675;    0.000
357.504; 1064.725;  161.675;    0.000
357.567;  998.725;  113.675;    0.000
357.629; 1071.725;  193.675;    0.000
357.692;  995.725;  144.675;    0.000
357.755; 1085.725;  177.675;    0.000
357.818;  985.725;  144.675;    0.000
357.880; 1078.725;  182.675;    0.000
357.943; 1032.725;  166.675;    0.000
358.006; 1074.725;  184.675;    0.000
358.069; 1053.725;  200.675;    0.000
358.131; 1107.725;  148.675;    0.000
358.194; 1066.725;  155.675;    0.000
358.257; 1053.725;  173.675;    0.000
358.319; 1044.725;  178.675;    0.000
358.382; 1099.725;  184.675;    0.000
358.445; 1118.725;  156.675;    0.000
358.507; 1086.725;  199.675;    0.000
358.570; 1089.725;  182.675;    0.000
358.633; 1077.725;  167.675;    0.000
358.695; 1016.725;  124.675;    0.000
358.758; 1118.725;  164.675;    0.000
358.821; 1082.725;  147.675;    0.000
358.883; 1121.725;  153.675;    0.000
358.946; 1127.725;  171.675;    0.000
359.008; 1151.725;  196.675;    0.000
359.071; 1078.725;  178.675;    0.000
359.134; 1086.725;  123.675;    0.000
359.196; 1135.725;  166.675;    0.000
359.259; 1048.725;  173.675;    0.000
359.321; 1140.725;  164.675;    0.000
359.384; 1154.725;  155.675;    0.000
359.446; 1206.725;  157.675;    0.000
359.509; 1146.725;  153.675;    0.000
359.571; 1149.725;  184.675;    0.000
359.634; 1181.725;  138.675;    0.000
359.696; 1102.725;  169.675;    0.000
359.759; 1128.725;  152.675;    0.000
359.821; 1158.725;  150.675;    0.000
359.884; 1087.725;  166.675;    0.000
359.946; 1215.725;  165.675;    0.000
360.009; 1158.725;  176.675;    0.000
360.071; 1159.725;  148.675;    0.000
360.134; 1238.725;  193.675;    0.000
360.196; 1170.725;  151.675;    0.000
360.259; 1152.725;  182.675;    0.000
360.321; 1140.725;  168.675;    0.000
360.384; 1064.725;  176.675;    0.000
360.446; 1122.725;  156.675;    0.000
360.508; 1236.725;  183.675;    0.000
360.571; 1173.725;  193.675;    0.000
360.633; 1155.725;  184.675;    0.000
360.696; 1131.725;  136.675;    0.000
360.758; 1180.725;  186.675;    0.000
360.820; 1187.725;  127.675;    0.000
360.883; 1167.725;  146.675;    0.000
360.945; 1218.725;  144.675;    0.000
361.007; 1186.725;  160.675;    0.000
361.070; 1233.725;  175.675;    0.000
361.132; 1244.725;  195.675;    0.000
361.194; 1194.725;  167.675;    0.000
361.257; 1224.725;  140.675;    0.000
361.319; 1190.725;  154.675;    0.000
361.381; 1213.725;  181.675;    0.000
361.443; 1165.725;  137.675;    0.000
361.506; 1236.725;  159.675;    0.000
361.568; 1233.725;  144.675;    0.000
361.630; 1230.725;  189.675;    0.000
361.693; 1259.725;  162.675;    0.000
361.755; 1239.725;  156.675;    0.000
361.817; 1235.725;  225.675;    0.000
361.879; 1245.725;  172.675;    0.000
361.941; 1284.725;  138.675;    0.000
362.004; 1224.725;  163.675;    0.000
362.066; 1226.725;  164.675;    0.000
362.128; 1264.725;  160.675;    0.000
362.190; 1249.725;  168.675;    0.000
362.252; 1313.725;  177.675;    0.000
362.315; 1251.725;  169.675;    0.000
362.377; 1272.725;  188.675;    0.000
362.439; 1247.725;  158.675;    0.000
362.501; 1279.725;  168.675;    0.000
362.563; 1261.725;  168.675;    0.000
362.625; 1284.725;  188.675;    0.000
362.688; 1287.725;  162.675;    0.000
362.750; 1258.725;  209.675;    0.000
362.812; 1304.725;  154.675;    0.000
362.874; 1259.725;  190.675;    0.000
362.936; 1273.725;  190.675;    0.000
362.998; 1226.725;  143.675;    0.000
363.060; 1298.725;  186.675;    0.000
363.122; 1295.725;  167.675;    0.000
363.184; 1324.725;  163.675;    0.000
363.246; 1343.725;  169.675;    0.000
363.308; 1274.725;  165.675;    0.000
363.370; 1338.725;  177.675;    0.000
363.432; 1342.725;  139.675;    0.000
363.494; 1333.725;  177.675;    0.000
363.556; 1324.725;  164.675;    0.000
363.618; 1282.725;  170.675;    0.000
363.680; 1286.725;  146.675;    0.000
363.742; 1340.725;  179.675;    0.000
363.804; 1307.725;  188.675;    0.000
363.866; 1297.725;  186.675;    0.000
363.928; 1292.725;  147.675;    0.000
363.990; 1342.725;  185.675;    0.000
364.052; 1265.725;  197.675;    0.000
364.114; 1298.725;  150.675;    0.000
364.176; 1337.725;  217.675;    0.000
364.238; 1333.725;  159.675;    0.000
364.300; 1350.725;  192.675;    0.000
364.362; 1315.725;  130.675;    0.000
364.424; 1280.725;  131.675;    0.000
364.486; 1335.725;  178.675;    0.000
364.548; 1307.725;  203.675;    0.000
364.609; 1300.725;  192.675;    0.000
364.671; 1356.725;  169.675;    0.000
364.733; 1319.725;  169.675;    0.000
364.795; 1320.725;  157.675;    0.000
364.857; 1302.725;  171.675;    0.000
364.919; 1267.725;  134.675;    0.000
364.981; 1289.725;  162.675;    0.000
365.042; 1334.725;  136.675;    0.000
365.104; 1345.725;  152.675;    0.000
365.166; 1316.725;  149.675;    0.000
365.228; 1238.725;  195.675;    0.000
365.290; 1353.725;  147.675;    0.000
365.351; 1300.725;  138.675;    0.000
365.413; 1357.725;  168.675;    0.000
365.475; 1327.725;  150.675;    0.000
365.537; 1358.725;  179.675;    0.000
365.598; 1357.725;  177.675;    0.000
365.660; 1265.725;  149.675;    0.000
365.722; 1287.725;  160.675;    0.000
365.784; 1316.725;  175.675;    0.000
365.845; 1304.725;  149.675;    0.000
365.907; 1293.725;  154.675;    0.000
365.969; 1361.725;  128.675;    0.000
366.030; 1326.725;  176.675;    0.000
366.092; 1301.725;  181.675;    0.000
366.154; 1373.725;  194.675;    0.000
366.215; 1359.725;  149.675;    0.000
366.277; 1357.725;  144.675;    0.000
366.339; 1388.725;  160.675;    0.000
366.400; 1361.725;  144.675;    0.000
366.462; 1359.725;  145.675;    0.000
366.524; 1404.725;  148.675;    0.000
366.585; 1385.725;  128.675;    0.000
366.647; 1365.725;  156.675;    0.000
366.708; 1385.725;  128.675;    0.000
366.770; 1378.725;  188.675;    0.000
366.832; 1399.725;  170.675;    0.000
366.893; 1367.725;  158.675;    0.000
366.955; 1381.725;  150.675;    0.000
367.016; 1391.725;  160.675;    0.000
367.078; 1368.725;  144.675;    0.000
367.139; 1400.725;  109.675;    0.000
367.201; 1388.725;  155.675;    0.000
367.262; 1351.725;  165.675;    0.000
367.324; 1492.725;  180.675;    0.000
367.385; 1407.725;  150.675;    0.000
367.447; 1409.725;  164.675;    0.000
367.508; 1445.725;  137.675;    0.000
367.570; 1428.725;  174.675;    0.000
367.631; 1349.725;  126.675;    0.000
367.693; 1392.725;  153.675;    0.000
367.754; 1455.725;  194.675;    0.000
367.816; 1375.725;  154.675;    0.000
367.877; 1505.725;  183.675;    0.000
367.939; 1473.725;  179.675;    0.000
368.000; 1447.725;  142.675;    0.000
368.062; 1384.725;  147.675;    0.000
368.123; 1418.725;  155.675;    0.000
368.184; 1351.725;  169.675;    0.000
368.246; 1355.725;  145.675;    0.000
368.307; 1378.725;  165.675;    0.000
368.369; 1361.725;  177.675;    0.000
368.430; 1410.725;  161.675;    0.000
368.491; 1372.725;  156.675;    0.000
368.553; 1446.725;  156.675;    0.000
368.614; 1482.725;  186.675;    0.000
368.675; 1457.725;  154.675;    0.000
368.737; 1378.725;  162.675;    0.000
368.798; 1383.725;  202.675;    0.000
368.859; 1396.725;  162.675;    0.000
368.921; 1402.725;  171.675;    0.000
368.982; 1473.725;  193.675;    0.000
369.043; 1344.725;  207.675;    0.000
369.104; 1522.725;  143.675;    0.000
369.166; 1495.725;  203.675;    0.000
369.227; 1420.725;  125.675;    0.000
369.288; 1395.725;  154.675;    0.000
369.349; 1413.725;  187.675;    0.000
369.411; 1500.725;  191.675;    0.000
369.472; 1398.725;  175.675;    0.000
369.533; 1437.725;  180.675;    0.000
369.594; 1458.725;  161.675;    0.000
369.656; 1449.725;  169.675;    0.000
369.717; 1439.725;  103.675;    0.000
369.778; 1444.725;  159.675;    0.000
369.839; 1451.725;  146.675;    0.000
369.900; 1454.725;  218.675;    0.000
369.961; 1445.725;  200.675;    0.000
370.023; 1484.725;  177.675;    0.000
370.084; 1477.725;  149.675;    0.000
370.145; 1444.725;  179.675;    0.000
370.206; 1456.725;  179.675;    0.000
370.267; 1437.725;  166.675;    0.000
370.328; 1447.725;  164.675;    0.000
370.389; 1445.725;  162.675;    0.000
370.451; 1481.725;  179.675;    0.000
370.512; 1475.725;  181.675;    0.000
370.573; 1453.725;  173.675;    0.000
370.634; 1472.725;  162.675;    0.000
370.695; 1399.725;  167.675;    0.000
370.756; 1521.725;  177.675;    0.000
370.817; 1476.725;  178.675;    0.000
370.878; 1505.725;  152.675;    0.000
370.939; 1459.725;  185.675;    0.000
371.000; 1482.725;  173.675;    0.000
371.061; 1495.725;  176.675;    0.000
371.122; 1503.725;  169.675;    0.000
371.183; 1435.725;  116.675;    0.000
371.244; 1508.725;  174.675;    0.000
371.305; 1520.725;  152.675;    0.000
371.366; 1570.725;  168.675;    0.000
371.427; 1454.725;  188.675;    0.000
371.488; 1508.725;  180.675;    0.000
371.549; 1557.725;  145.675;    0.000
371.610; 1517.725;  160.675;    0.000
371.671; 1522.725;  164.675;    0.000
371.732; 1476.725;  158.675;    0.000
371.793; 1501.725;  162.675;    0.000
371.853; 1417.725;  130.675;    0.000
371.914; 1469.725;  172.675;    0.000
371.975; 1488.725;   98.675;    0.000
372.036; 1537.725;  161.675;    0.000
372.097; 1489.725;  143.675;    0.000
372.158; 1449.725;  175.675;    0.000
372.219; 1511.725;  196.675;    0.000
372.280; 1491.725;  175.675;    0.000
372.340; 1527.725;  160.675;    0.000
372.401; 1487.725;  163.675;    0.000
372.462; 1457.725;  147.675;    0.000
372.523; 1436.725;  146.675;    0.000
372.584; 1486.725;  173.675;    0.000
372.645; 1502.725;  126.675;    0.000
372.705; 1524.725;  179.675;    0.000
372.766; 1551.725;  173.675;    0.000
372.827; 1501.725;  171.675;    0.000
372.888; 1486.725;  134.675;    0.000
372.948; 1474.725;  167.675;    0.000
373.009; 1523.725;  167.675;    0.000
373.070; 1540.725;  152.675;    0.000
373.131; 1497.725;  177.675;    0.000
373.191; 1594.725;  225.675;    0.000
373.252; 1480.725;  165.675;    0.000
373.313; 1536.725;  171.675;    0.000
373.373; 1489.725;  160.675;    0.000
373.434; 1565.725;  172.675;    0.000
373.495; 1564.725;  150.675;    0.000
373.555; 1559.725;  130.675;    0.000
373.616; 1455.725;  155.675;    0.000
373.677; 1471.725;  212.675;    0.000
373.737; 1517.725;  188.675;    0.000
373.798; 1511.725;  203.675;    0.000
373.859; 1514.725;  169.675;    0.000
373.919; 1540.725;  197.675;    0.000
373.980; 1510.725;  134.675;    0.000
374.041; 1525.725;  186.675;    0.000
374.101; 1496.725;  207.675;    0.000
374.162; 1566.725;  190.675;    0.000
374.222; 1483.725;  182.675;    0.000
374.283; 1540.725;  213.675;    0.000
374.343; 1555.725;  191.675;    0.000
374.404; 1511.725;  181.675;    0.000
374.465; 1470.725;  193.675;    0.000
374.525; 1496.725;  153.675;    0.000
374.586; 1497.725;  190.675;    0.000
374.646; 1536.725;  173.675;    0.000
374.707; 1582.725;  210.675;    0.000
374.767; 1544.725;  218.675;    0.000
374.828; 1577.725;  174.675;    0.000
374.888; 1535.725;  197.675;    0.000
374.949; 1603.725;  196.675;    0.000
375.009; 1598.725;  169.675;    0.000
375.070; 1527.725;  157.675;    0.000
375.130; 1557.725;  203.675;    0.000
375.190; 1568.725;  174.675;    0.000
375.251; 1656.725;  230.675;    0.000
375.311; 1552.725;  198.675;    0.000
375.372; 1542.725;  160.675;    0.000
375.432; 1521.725;  169.675;    0.000
375.493; 1577.725;  159.675;    0.000
375.553; 1583.725;  179.675;    0.000
375.613; 1549.725;  157.675;    0.000
375.674; 1620.725;  174.675;    0.000
375.734; 1589.725;  180.675;    0.000
375.794; 1479.725;  175.675;    0.000
375.855; 1570.725;  193.675;    0.000
375.915; 1483.725;  148.675;    0.000
375.975; 1579.725;  183.675;    0.000
376.036; 1511.725;  144.675;    0.000
376.096; 1584.725;  195.675;    0.000
376.156; 1600.725;  200.675;    0.000
376.217; 1532.725;  160.675;    0.000
376.277; 1542.725;  193.675;    0.000
376.337; 1462.725;  168.675;    0.000
376.398; 1529.725;  183.675;    0.000
376.458; 1559.725;  168.675;    0.000
376.518; 1511.725;  184.675;    0.000
376.578; 1502.725;  176.675;    0.000
376.639; 1536.725;  158.675;    0.000
376.699; 1507.725;  157.675;    0.000
376.759; 1592.725;  184.675;    0.000
376.819; 1548.725;  166.675;    0.000
376.880; 1556.725;  220.675;    0.000
376.940; 1573.725;  195.675;    0.000
377.000; 1468.725;  178.675;    0.000
377.060; 1479.725;  212.675;    0.000
377.120; 1503.725;  161.675;    0.000
377.180; 1495.725;  168.675;    0.000
377.241; 1515.725;  167.675;    0.000
377.301; 1581.725;  171.675;    0.000
377.361; 1516.725;  174.675;    0.000
377.421; 1546.725;  216.675;    0.000
377.481; 1482.725;  164.675;    0.000
377.541; 1542.725;  163.675;    0.000
377.601; 1551.725;  197.675;    0.000
377.661; 1539.725;  175.675;    0.000
377.722; 1512.725;  196.675;    0.000
377.782; 1492.725;  162.675;    0.000
377.842; 1536.725;  179.675;    0.000
377.902; 1494.725;  140.675;    0.000
377.962; 1466.725;  121.675;    0.000
378.022; 1481.725;  174.675;    0.000
378.082; 1535.725;  167.675;    0.000
378.142; 1629.725;  151.675;    0.000
378.202; 1502.725;  174.675;    0.000
378.262; 1516.725;  168.675;    0.000
378.322; 1577.725;  183.675;    0.000
378.382; 1554.725;  159.675;    0.000
378.442; 1539.725;  177.675;    0.000
378.502; 1486.725;  137.675;    0.000
378.562; 1521.725;  140.675;    0.000
378.622; 1455.725;  197.675;    0.000
378.682; 1522.725;  205.675;    0.000
378.742; 1556.725;  160.675;    0.000
378.802; 1482.725;  132.675;    0.000
378.862; 1655.725;  222.675;    0.000
378.921; 1576.725;  178.675;    0.000
378.981; 1544.725;  160.675;    0.000
379.041; 1491.725;  136.675;    0.000
379.101; 1554.725;  184.675;    0.000
379.161; 1554.725;  147.675;    0.000
379.221; 1551.725;  139.675;    0.000
379.281; 1587.725;  204.675;    0.000
379.341; 1572.725;  142.675;    0.000
379.401; 1524.725;  136.675;    0.000
379.460; 1598.725;  161.675;    0.000
379.520; 1490.725;  171.675;    0.000
379.580; 1558.725;  168.675;    0.000
379.640; 1557.725;  183.675;    0.000
379.700; 1497.725;  182.675;    0.000
379.759; 1586.725;  190.675;    0.000
379.819; 1554.725;  149.675;    0.000
379.879; 1574.725;  140.675;    0.000
379.939; 1637.725;  155.675;    0.000
379.999; 1541.725;  199.675;    0.000
380.058; 1564.725;  163.675;    0.000
380.118; 1540.725;  190.675;    0.000
380.178; 1580.725;  220.675;    0.000
380.237; 1609.725;  181.675;    0.000
380.297; 1575.725;  187.675;    0.000
380.357; 1633.725;  193.675;    0.000
380.417; 1591.725;  157.675;    0.000
380.476; 1619.725;  176.675;    0.000
380.536; 1649.725;  180.675;    0.000
380.596; 1580.725;  191.675;    0.000
380.655; 1611.725;  190.675;    0.000
380.715; 1686.725;  180.675;    0.000
380.775; 1664.725;  202.675;    0.000
380.834; 1695.725;  190.675;    0.000
380.894; 1651.725;  163.675;    0.000
380.954; 1550.725;  181.675;    0.000
381.013; 1570.725;  218.675;    0.000
381.073; 1525.725;  181.675;    0.000
381.132; 1650.725;  193.675;    0.000
381.192; 1526.725;  209.675;    0.000
381.252; 1646.725;  206.675;    0.000
381.311; 1638.725;  173.675;    0.000
381.371; 1643.725;  188.675;    0.000
381.430; 1588.725;  162.675;    0.000
381.490; 1584.725;  168.675;    0.000
381.549; 1596.725;  213.675;    0.000
381.609; 1614.725;  194.675;    0.000
381.668; 1592.725;  190.675;    0.000
381.728; 1675.725;  183.675;    0.000
381.787; 1581.725;  172.675;    0.000
381.847; 1629.725;  198.675;    0.000
381.906; 1650.725;  197.675;    0.000
381.966; 1609.725;  201.675;    0.000
382.025; 1634.725;  219.675;    0.000
382.085; 1629.725;  194.675;    0.000
382.144; 1633.725;  187.675;    0.000
382.204; 1712.725;  196.675;    0.000
382.263; 1627.725;  168.675;    0.000
382.323; 1652.725;  135.675;    0.000
382.382; 1627.725;  173.675;    0.000
382.441; 1613.725;  155.675;    0.000
382.501; 1717.725;  168.675;    0.000
382.560; 1638.725;  200.675;    0.000
382.619; 1653.725;  155.675;    0.000
382.679; 1712.725;  198.675;    0.000
382.738; 1703.725;  211.675;    0.000
382.798; 1711.725;  214.675;    0.000
382.857; 1630.725;  146.675;    0.000
382.916; 1687.725;  183.675;    0.000
382.976; 1697.725;  173.675;    0.000
383.035; 1782.725;  165.675;    0.000
383.094; 1734.725;  173.675;    0.000
383.154; 1748.725;  143.675;    0.000
383.213; 1796.725;  173.675;    0.000
383.272; 1733.725;  166.675;    0.000
383.331; 1718.725;  154.675;    0.000
383.391; 1750.725;  232.675;    0.000
383.450; 1745.725;  185.675;    0.000
383.509; 1751.725;  204.675;    0.000
383.568; 1751.725;  197.675;    0.000
383.628; 1832.725;  171.675;    0.000
383.687; 1774.725;  202.675;    0.000
383.746; 1779.725;  116.675;    0.000
383.805; 1832.725;  156.675;    0.000
383.864; 1836.725;  150.675;    0.000
383.924; 1809.725;  195.675;    0.000
383.983; 1744.725;  157.675;    0.000
384.042; 1768.725;  184.675;    0.000
384.101; 1771.725;  210.675;    0.000
384.160; 1735.725;  123.675;    0.000
384.219; 1665.725;  191.675;    0.000
384.279; 1735.725;  184.675;    0.000
384.338; 1701.725;  172.675;    0.000
384.397; 1712.725;  153.675;    0.000
384.456; 1716.725;  181.675;    0.000
384.515; 1695.725;  171.675;    0.000
384.574; 1710.725;  172.675;    0.000
384.633; 1707.725;  174.675;    0.000
384.692; 1695.725;  178.675;    0.000
384.751; 1733.725;  180.675;    0.000
384.810; 1708.725;  161.675;    0.000
384.869; 1732.725;  162.675;    0.000
384.929; 1716.725;  157.675;    0.000
384.988; 1740.725;  153.675;    0.000
385.047; 1773.725;  178.675;    0.000
385.106; 1753.725;  164.675;    0.000
385.165; 1755.725;  127.675;    0.000
385.224; 1763.725;  156.675;    0.000
385.283; 1729.725;  178.675;    0.000
385.342; 1809.725;  177.675;    0.000
385.401; 1731.725;  178.675;    0.000
385.459; 1750.725;  177.675;    0.000
385.518; 1700.725;  152.675;    0.000
385.577; 1721.725;  133.675;    0.000
385.636; 1763.725;  204.675;    0.000
385.695; 1748.725;  161.675;    0.000
385.754; 1694.725;  190.675;    0.000
385.813; 1691.725;  160.675;    0.000
385.872; 1735.725;  138.675;    0.000
385.931; 1770.725;  192.675;    0.000
385.990; 1765.725;  158.675;    0.000
386.049; 1770.725;  187.675;    0.000
386.107; 1706.725;  140.675;    0.000
386.166; 1682.725;  139.675;    0.000
386.225; 1744.725;  182.675;    0.000
386.284; 1789.725;  123.675;    0.000
386.343; 1872.725;  207.675;    0.000
386.402; 1780.725;  150.675;    0.000
386.460; 1770.725;  185.675;    0.000
386.519; 1759.725;  145.675;    0.000
386.578; 1753.725;  153.675;    0.000
386.637; 1755.725;  153.675;    0.000
386.696; 1829.725;  189.675;    0.000
386.754; 1690.725;  128.675;    0.000
386.813; 1760.725;  202.675;    0.000
386.872; 1775.725;  152.675;    0.000
386.931; 1736.725;  166.675;    0.000
386.989; 1825.725;  194.675;    0.000
387.048; 1802.725;  176.675;    0.000
387.107; 1813.725;  203.675;    0.000
387.165; 1854.725;  136.675;    0.000
387.224; 1837.725;  193.675;    0.000
387.283; 1815.725;  157.675;    0.000
387.342; 1840.725;  194.675;    0.000
387.400; 1845.725;  191.675;    0.000
387.459; 1738.725;  142.675;    0.000
387.517; 1811.725;  202.675;    0.000
387.576; 1806.725;  164.675;    0.000
387.635; 1859.725;  147.675;    0.000
387.693; 1893.725;  199.675;    0.000
387.752; 1874.725;  181.675;    0.000
387.811; 1874.725;  161.675;    0.000
387.869; 1800.725;  184.675;    0.000
387.928; 1876.725;  175.675;    0.000
387.986; 1823.725;  143.675;    0.000
388.045; 1838.725;  146.675;    0.000
388.103; 1794.725;  164.675;    0.000
388.162; 1771.725;  170.675;    0.000
388.221; 1875.725;  169.675;    0.000
388.279; 1844.725;  151.675;    0.000
388.338; 1920.725;  175.675;    0.000
388.396; 1836.725;  170.675;    0.000
388.455; 1818.725;  193.675;    0.000
388.513; 1818.725;  134.675;    0.000
388.572; 1843.725;  201.675;    0.000
388.630; 1867.725;  181.675;    0.000
388.689; 1797.725;  165.675;    0.000
388.747; 1832.725;  164.675;    0.000
388.806; 1778.725;  155.675;    0.000
388.864; 1838.725;  172.675;    0.000
388.922; 1912.725;  190.675;    0.000
388.981; 1763.725;  170.675;    0.000
389.039; 1869.725;  142.675;    0.000
389.098; 1916.725;  177.675;    0.000
389.156; 1852.725;  184.675;    0.000
389.214; 1891.725;  197.675;    0.000
389.273; 1872.725;  141.675;    0.000
389.331; 1907.725;  145.675;    0.000
389.390; 1839.725;  160.675;    0.000
389.448; 1885.725;  142.675;    0.000
389.506; 1952.725;  192.675;    0.000
389.565; 1891.725;  176.675;    0.000
389.623; 1898.725;  174.675;    0.000
389.681; 1942.725;  184.675;    0.000
389.740; 1895.725;  193.675;    0.000
389.798; 1887.725;  130.675;    0.000
389.856; 1974.725;  224.675;    0.000
389.914; 1908.725;  223.675;    0.000
389.973; 1946.725;  164.675;    0.000
390.031; 1902.725;  198.675;    0.000
390.089; 1988.725;  177.675;    0.000
390.147; 1890.725;  158.675;    0.000
390.206; 1965.725;  213.675;    0.000
390.264; 1908.725;  178.675;    0.000
390.322; 1930.725;  181.675;    0.000
390.380; 1961.725;  148.675;    0.000
390.439; 1978.725;  185.675;    0.000
390.497; 2003.725;  208.675;    0.000
390.555; 2041.725;  175.675;    0.000
390.613; 2006.725;  178.675;    0.000
390.671; 1921.725;  190.675;    0.000
390.729; 1932.725;  172.675;    0.000
390.788; 1938.725;  194.675;    0.000
390.846; 1973.725;  187.675;    0.000
390.904; 1902.725;  207.675;    0.000
390.962; 2019.725;  211.675;    0.000
391.020; 2013.725;  218.675;    0.000
391.078; 2016.725;  179.675;    0.000
391.136; 1945.725;  223.675;    0.000
391.194; 1966.725;  209.675;    0.000
391.253; 2040.725;  217.675;    0.000
391.311; 1997.725;  217.675;    0.000
391.369; 2069.725;  217.675;    0.000
391.427; 2073.725;  253.675;    0.000
391.485; 2014.725;  176.675;    0.000
391.543; 2101.725;  252.675;    0.000
391.601; 2105.725;  168.675;    0.000
391.659; 2061.725;  206.675;    0.000
391.717; 2063.725;  172.675;    0.000
391.775; 2048.725;  170.675;    0.000
391.833; 2009.725;  196.675;    0.000
391.891; 2105.725;  180.675;    0.000
391.949; 2091.725;  201.675;    0.000
392.007; 2128.725;  196.675;    0.000
392.065; 2145.725;  191.675;    0.000
392.123; 2053.725;  158.675;    0.000
392.180; 2135.725;  192.675;    0.000
392.238; 2164.725;  186.675;    0.000
392.296; 2125.725;  150.675;    0.000
392.354; 2135.725;  175.675;    0.000
392.412; 2071.725;  219.675;    0.000
392.470; 2106.725;  200.675;    0.000
392.528; 2125.725;  177.675;    0.000
392.586; 2105.725;  169.675;    0.000
392.644; 2094.725;  155.675;    0.000
392.701; 2108.725;  215.675;    0.000
392.759; 2062.725;  218.675;    0.000
392.817; 2113.725;  178.675;    0.000
392.875; 2113.725;  190.675;    0.000
392.933; 2178.725;  197.675;    0.000
392.991; 2127.725;  179.675;    0.000
393.048; 2128.725;  205.675;    0.000
393.106; 2069.725;  229.675;    0.000
393.164; 2175.725;  167.675;    0.000
393.222; 2142.725;  156.675;    0.000
393.279; 2244.725;  203.675;    0.000
393.337; 2277.725;  216.675;    0.000
393.395; 2267.725;  180.675;    0.000
393.453; 2162.725;  163.675;    0.000
393.510; 2136.725;  194.675;    0.000
393.568; 2189.725;  207.675;    0.000
393.626; 2173.725;  200.675;    0.000
393.684; 2166.725;  234.675;    0.000
393.741; 2278.725;  197.675;    0.000
393.799; 2147.725;  201.675;    0.000
393.857; 2111.725;  185.675;    0.000
393.914; 2229.725;  200.675;    0.000
393.972; 2164.725;  181.675;    0.000
394.030; 2250.725;  188.675;    0.000
394.087; 2178.725;  202.675;    0.000
394.145; 2252.725;  214.675;    0.000
394.202; 2209.725;  204.675;    0.000
394.260; 2187.725;  178.675;    0.000
394.318; 2120.725;  208.675;    0.000
394.375; 2190.725;  183.675;    0.000
394.433; 2173.725;  175.675;    0.000
394.490; 2191.725;  170.675;    0.000
394.548; 2260.725;  161.675;    0.000
394.605; 2195.725;  196.675;    0.000
394.663; 2164.725;  191.675;    0.000
394.720; 2251.725;  179.675;    0.000
394.778; 2240.725;  193.675;    0.000
394.836; 2183.725;  160.675;    0.000
394.893; 2190.725;  152.675;    0.000
394.951; 2255.725;  179.675;    0.000
395.008; 2250.725;  185.675;    0.000
395.065; 2211.725;  154.675;    0.000
395.123; 2228.725;  176.675;    0.000
395.180; 2262.725;  202.675;    0.000
395.238; 2250.725;  135.675;    0.000
395.295; 2280.725;  178.675;    0.000
395.353; 2290.725;  181.675;    0.000
395.410; 2297.725;  160.675;    0.000
395.468; 2242.725;  179.675;    0.000
395.525; 2304.725;  187.675;    0.000
395.582; 2273.725;  221.675;    0.000
395.640; 2282.725;  220.675;    0.000
395.697; 2231.725;  174.675;    0.000
395.754; 2306.725;  177.675;    0.000
395.812; 2327.725;  193.675;    0.000
395.869; 2291.725;  220.675;    0.000
395.927; 2290.725;  206.675;    0.000
395.984; 2298.725;  213.675;    0.000
396.041; 2286.725;  194.675;    0.000
396.098; 2362.725;  144.675;    0.000
396.156; 2324.725;  168.675;    0.000
396.213; 2426.725;  181.675;    0.000
396.270; 2300.725;  186.675;    0.000
396.328; 2320.725;  165.675;    0.000
396.385; 2430.725;  192.675;    0.000
396.442; 2337.725;  196.675;    0.000
396.499; 2324.725;  162.675;    0.000
396.557; 2289.725;  177.675;    0.000
396.614; 2353.725;  184.675;    0.000
396.671; 2414.725;  180.675;    0.000
396.728; 2423.725;  194.675;    0.000
396.785; 2395.725;  173.675;    0.000
396.843; 2485.725;  154.675;    0.000
396.900; 2401.725;  200.675;    0.000
396.957; 2434.725;  158.675;    0.000
397.014; 2374.725;  203.675;    0.000
397.071; 2400.725;  178.675;    0.000
397.128; 2397.725;  201.675;    0.000
397.186; 2409.725;  200.675;    0.000
397.243; 2476.725;  187.675;    0.000
397.300; 2496.725;  173.675;    0.000
397.357; 2525.725;  189.675;    0.000
397.414; 2487.725;  202.675;    0.000
397.471; 2341.725;  156.675;    0.000
397.528; 2423.725;  197.675;    0.000
397.585; 2441.725;  174.675;    0.000
397.642; 2465.725;  202.675;    0.000
397.699; 2484.725;  197.675;    0.000
397.756; 2493.725;  188.675;    0.000
397.814; 2494.725;  210.675;    0.000
397.871; 2465.725;  203.675;    0.000
397.928; 2471.725;  189.675;    0.000
397.985; 2419.725;  192.675;    0.000
398.042; 2435.725;  198.675;    0.000
398.099; 2458.725;  181.675;    0.000
398.156; 2395.725;  201.675;    0.000
398.212; 2452.725;  216.675;    0.000
398.269; 2506.725;  206.675;    0.000
398.326; 2456.725;  213.675;    0.000
398.383; 2546.725;  168.675;    0.000
398.440; 2506.725;  184.675;    0.000
398.497; 2605.725;  194.675;    0.000
398.554; 2576.725;  219.675;    0.000
398.611; 2621.725;  190.675;    0.000
398.668; 2514.725;  138.675;    0.000
398.725; 2460.725;  170.675;    0.000
398.782; 2619.725;  223.675;    0.000
398.839; 2603.725;  211.675;    0.000
398.895; 2577.725;  173.675;    0.000
398.952; 2610.725;  207.675;    0.000
399.009; 2613.725;  173.675;    0.000
399.066; 2602.725;  171.675;    0.000
399.123; 2664.725;  189.675;    0.000
399.180; 2683.725;  170.675;    0.000
399.236; 2672.725;  193.675;    0.000
399.293; 2755.725;  222.675;    0.000
399.350; 2688.725;  195.675;    0.000
399.407; 2757.725;  214.675;    0.000
399.463; 2646.725;  181.675;    0.000
399.520; 2789.725;  168.675;    0.000
399.577; 2818.725;  231.675;    0.000
399.634; 2847.725;  215.675;    0.000
399.690; 2773.725;  177.675;    0.000
399.747; 2856.725;  212.675;    0.000
399.804; 2771.725;  208.675;    0.000
399.861; 2886.725;  225.675;    0.000
399.917; 2834.725;  191.675;    0.000
399.974; 2789.725;  182.675;    0.000
400.031; 2839.725;  218.675;    0.000
400.087; 2776.725;  202.675;    0.000
400.144; 2800.725;  192.675;    0.000
400.201; 2772.725;  187.675;    0.000
400.257; 2727.725;  193.675;    0.000
400.314; 2882.725;  185.675;    0.000
400.370; 2707.725;  201.675;    0.000
400.427; 2743.725;  208.675;    0.000
400.484; 2671.725;  201.675;    0.000
400.540; 2746.725;  204.675;    0.000
400.597; 2702.725;  210.675;    0.000
400.653; 2708.725;  224.675;    0.000
400.710; 2664.725;  196.675;    0.000
400.766; 2756.725;  224.675;    0.000
400.823; 2698.725;  210.675;    0.000
400.879; 2636.725;  213.675;    0.000
400.936; 2605.725;  182.675;    0.000
400.993; 2671.725;  184.675;    0.000
401.049; 2801.725;  216.675;    0.000
401.105; 2674.725;  235.675;    0.000
401.162; 2707.725;  196.675;    0.000
401.218; 2671.725;  221.675;    0.000
401.275; 2608.725;  216.675;    0.000
401.331; 2755.725;  198.675;    0.000
401.388; 2636.725;  205.675;    0.000
401.444; 2750.725;  154.675;    0.000
401.501; 2694.725;  208.675;    0.000
401.557; 2667.725;  162.675;    0.000
401.614; 2698.725;  157.675;    0.000
401.670; 2649.725;  198.675;    0.000
401.726; 2720.725;  195.675;    0.000
401.783; 2728.725;  186.675;    0.000
401.839; 2668.725;  205.675;    0.000
401.895; 2802.725;  202.675;    0.000
401.952; 2651.725;  143.675;    0.000
402.008; 2699.725;  177.675;    0.000
402.064; 2643.725;  177.675;    0.000
402.121; 2705.725;  194.675;    0.000
402.177; 2608.725;  181.675;    0.000
402.233; 2808.725;  205.675;    0.000
402.290; 2660.725;  190.675;    0.000
402.346; 2694.725;  190.675;    0.000
402.402; 2641.725;  151.675;    0.000
402.458; 2759.725;  194.675;    0.000
402.515; 2735.725;  212.675;    0.000
402.571; 2717.725;  209.675;    0.000
402.627; 2702.725;  199.675;    0.000
402.683; 2691.725;  213.675;    0.000
402.740; 2628.725;  165.675;    0.000
402.796; 2662.725;  168.675;    0.000
402.852; 2721.725;  200.675;    0.000
402.908; 2790.725;  193.675;    0.000
402.964; 2798.725;  166.675;    0.000
403.021; 2767.725;  196.675;    0.000
403.077; 2768.725;  212.675;    0.000
403.133; 2763.725;  186.675;    0.000
403.189; 2738.725;  206.675;    0.000
403.245; 2686.725;  207.675;    0.000
403.301; 2728.725;  204.675;    0.000
403.357; 2743.725;  246.675;    0.000
403.414; 2782.725;  227.675;    0.000
403.470; 2842.725;  207.675;    0.000
403.526; 2744.725;  171.675;    0.000
403.582; 2803.725;  200.675;    0.000
403.638; 2848.725;  213.675;    0.000
403.694; 2830.725;  239.675;    0.000
403.750; 2812.725;  221.675;    0.000
403.806; 2857.725;  197.675;    0.000
403.862; 2780.725;  222.675;    0.000
403.918; 2749.725;  174.675;    0.000
403.974; 2912.725;  183.675;    0.000
404.030; 2853.725;  184.675;    0.000
404.086; 2767.725;  170.675;    0.000
404.142; 2839.725;  215.675;    0.000
404.198; 2805.725;  189.675;    0.000
404.254; 2831.725;  195.675;    0.000
404.310; 2807.725;  206.675;    0.000
404.366; 2788.725;  179.675;    0.000
404.422; 2852.725;  197.675;    0.000
404.478; 2867.725;  176.675;    0.000
404.534; 2706.725;  165.675;    0.000
404.590; 2800.725;  203.675;    0.000
404.646; 2801.725;  195.675;    0.000
404.701; 2791.725;  180.675;    0.000
404.757; 2938.725;  218.675;    0.000
404.813; 2840.725;  160.675;    0.000
404.869; 2879.725;  213.675;    0.000
404.925; 2803.725;  171.675;    0.000
404.981; 2866.725;  194.675;    0.000
405.037; 2808.725;  211.675;    0.000
405.092; 2843.725;  158.675;    0.000
405.148; 2844.725;  140.675;    0.000
405.204; 2884.725;  161.675;    0.000
405.260; 2892.725;  161.675;    0.000
405.316; 2907.725;  155.675;    0.000
405.371; 2894.725;  151.675;    0.000
405.427; 2857.725;  186.675;    0.000
405.483; 2925.725;  206.675;    0.000
405.539; 2869.725;  162.675;    0.000
405.594; 2892.725;  205.675;    0.000
405.650; 2838.725;  153.675;    0.000
405.706; 2857.725;  185.675;    0.000
405.761; 2915.725;  205.675;    0.000
405.817; 2885.725;  185.675;    0.000
405.873; 2887.725;  160.675;    0.000
405.928; 2872.725;  182.675;    0.000
405.984; 2963.725;  206.675;    0.000
406.040; 2932.725;  200.675;    0.000
406.095; 2853.725;  138.675;    0.000
406.151; 2900.725;  178.675;    0.000
406.207; 2987.725;  225.675;    0.000
406.262; 2902.725;  161.675;    0.000
406.318; 2933.725;  186.675;    0.000
406.374; 2899.725;  173.675;    0.000
406.429; 3045.725;  197.675;    0.000
406.485; 3034.725;  260.675;    0.000
406.540; 3022.725;  184.675;    0.000
406.596; 3127.725;  193.675;    0.000
406.651; 3052.725;  176.675;    0.000
406.707; 2991.725;  158.675;    0.000
406.763; 3102.725;  174.675;    0.000
406.818; 2960.725;  188.675;    0.000
406.874; 3162.725;  176.675;    0.000
406.929; 3073.725;  220.675;    0.000
406.985; 3054.725;  167.675;    0.000
407.040; 3066.725;  191.675;    0.000
407.095; 3099.725;  190.675;    0.000
407.151; 3166.725;  196.675;    0.000
407.206; 3151.725;  184.675;    0.000
407.262; 3246.725;  167.675;    0.000
407.317; 3216.725;  199.675;    0.000
407.373; 3134.725;  211.675;    0.000
407.428; 3306.725;  202.675;    0.000
407.484; 3246.725;  172.675;    0.000
407.539; 3180.725;  171.675;    0.000
407.594; 3273.725;  219.675;    0.000
407.650; 3258.725;  179.675;    0.000
407.705; 3198.725;  141.675;    0.000
407.760; 3344.725;  182.675;    0.000
407.816; 3139.725;  203.675;    0.000
407.871; 3227.725;  219.675;    0.000
407.926; 3124.725;  197.675;    0.000
407.982; 3204.725;  176.675;    0.000
408.037; 3193.725;  187.675;    0.000
408.092; 3204.725;  161.675;    0.000
408.148; 3158.725;  185.675;    0.000
408.203; 3131.725;  196.675;    0.000
408.258; 3173.725;  188.675;    0.000
408.314; 3235.725;  225.675;    0.000
408.369; 3081.725;  172.675;    0.000
408.424; 3148.725;  204.675;    0.000
408.479; 3188.725;  182.675;    0.000
408.534; 3127.725;  220.675;    0.000
408.590; 3108.725;  196.675;    0.000
408.645; 3145.725;  170.675;    0.000
408.700; 3239.725;  204.675;    0.000
408.755; 3147.725;  219.675;    0.000
408.810; 3098.725;  174.675;    0.000
408.866; 3077.725;  212.675;    0.000
408.921; 3191.725;  233.675;    0.000
408.976; 3084.725;  198.675;    0.000
409.031; 3144.725;  179.675;    0.000
409.086; 3096.725;  181.675;    0.000
409.141; 3141.725;  192.675;    0.000
409.196; 3158.725;  172.675;    0.000
409.252; 3083.725;  199.675;    0.000
409.307; 3061.725;  159.675;    0.000
409.362; 3083.725;  158.675;    0.000
409.417; 3135.725;  164.675;    0.000
409.472; 3076.725;  186.675;    0.000
409.527; 3072.725;  215.675;    0.000
409.582; 3179.725;  227.675;    0.000
409.637; 3196.725;  211.675;    0.000
409.692; 3170.725;  224.675;    0.000
409.747; 3131.725;  147.675;    0.000
409.802; 3133.725;  203.675;    0.000
409.857; 3088.725;  203.675;    0.000
409.912; 3133.725;  219.675;    0.000
409.967; 3030.725;  200.675;    0.000
410.022; 3210.725;  199.675;    0.000
410.077; 3099.725;  171.675;    0.000
410.132; 3141.725;  193.675;    0.000
410.187; 3051.725;  167.675;    0.000
410.242; 3208.725;  188.675;    0.000
410.297; 3026.725;  195.675;    0.000
410.351; 3156.725;  225.675;    0.000
410.406; 3135.725;  188.675;    0.000
410.461; 3174.725;  197.675;    0.000
410.516; 3197.725;  212.675;    0.000
410.571; 3120.725;  173.675;    0.000
410.626; 3197.725;  180.675;    0.000
410.681; 3112.725;  198.675;    0.000
410.736; 3022.725;  190.675;    0.000
410.790; 3141.725;  204.675;    0.000
410.845; 3217.725;  214.675;    0.000
410.900; 3223.725;  184.675;    0.000
410.955; 3117.725;  231.675;    0.000
411.010; 3104.725;  211.675;    0.000
411.064; 3243.725;  204.675;    0.000
411.119; 3119.725;  219.675;    0.000
411.174; 3126.725;  208.675;    0.000
411.229; 3143.725;  207.675;    0.000
411.283; 3171.725;  199.675;    0.000
411.338; 3174.725;  198.675;    0.000
411.393; 3152.725;  155.675;    0.000
411.447; 3114.725;  200.675;    0.000
411.502; 3110.725;  229.675;    0.000
411.557; 3130.725;  197.675;    0.000
411.612; 3122.725;  171.675;    0.000
411.666; 3193.725;  201.675;    0.000
411.721; 3088.725;  174.675;    0.000
411.776; 3186.725;  222.675;    0.000
411.830; 3146.725;  150.675;    0.000
411.885; 3088.725;  169.675;    0.000
411.939; 3091.725;  216.675;    0.000
411.994; 3145.725;  215.675;    0.000
412.049; 3188.725;  219.675;    0.000
412.103; 3316.725;  225.675;    0.000
412.158; 3185.725;  216.675;    0.000
412.212; 3112.725;  218.675;    0.000
412.267; 3153.725;  219.675;    0.000
412.322; 3167.725;  235.675;    0.000
412.376; 3107.725;  208.675;    0.000
412.431; 3197.725;  232.675;    0.000
412.485; 3241.725;  223.675;    0.000
412.540; 3077.725;  217.675;    0.000
412.594; 3086.725;  195.675;    0.000
412.649; 3248.725;  236.675;    0.000
412.703; 3197.725;  216.675;    0.000
412.758; 3191.725;  201.675;    0.000
412.812; 3045.725;  176.675;    0.000
412.866; 3054.725;  179.675;    0.000
412.921; 3091.725;  196.675;    0.000
412.975; 3101.725;  238.675;    0.000
413.030; 3170.725;  272.675;    0.000
413.084; 3133.725;  208.675;    0.000
413.139; 3268.725;  201.675;    0.000
413.193; 3110.725;  198.675;    0.000
413.247; 3157.725;  213.675;    0.000
413.302; 3174.725;  202.675;    0.000
413.356; 3077.725;  184.675;    0.000
413.410; 3145.725;  202.675;    0.000
413.465; 3120.725;  145.675;    0.000
413.519; 3099.725;  200.675;    0.000
413.573; 3126.725;  197.675;    0.000
413.628; 3149.725;  224.675;    0.000
413.682; 3087.725;  211.675;    0.000
413.736; 3127.725;  202.675;    0.000
413.791; 3122.725;  228.675;    0.000
413.845; 3216.725;  184.675;    0.000
413.899; 3149.725;  226.675;    0.000
413.953; 3108.725;  213.675;    0.000
414.008; 3040.725;  175.675;    0.000
414.062; 3130.725;  216.675;    0.000
414.116; 3133.725;  206.675;    0.000
414.170; 3137.725;  229.675;    0.000
414.225; 3133.725;  196.675;    0.000
414.279; 3171.725;  199.675;    0.000
414.333; 3176.725;  220.675;    0.000
414.387; 3197.725;  217.675;    0.000
414.441; 3201.725;  206.675;    0.000
414.496; 3203.725;  264.675;    0.000
414.550; 3214.725;  217.675;    0.000
414.604; 3169.725;  224.675;    0.000
414.658; 3059.725;  156.675;    0.000
414.712; 3087.725;  203.675;    0.000
414.766; 3222.725;  216.675;    0.000
414.820; 3204.725;  218.675;    0.000
414.874; 3125.725;  240.675;    0.000
414.928; 3168.725;  204.675;    0.000
414.982; 3178.725;  195.675;    0.000
415.037; 3090.725;  212.675;    0.000
415.091; 3259.725;  211.675;    0.000
415.145; 3103.725;  230.675;    0.000
415.199; 3125.725;  208.675;    0.000
415.253; 3166.725;  213.675;    0.000
415.307; 3036.725;  208.675;    0.000
415.361; 3052.725;  193.675;    0.000
415.415; 3206.725;  207.675;    0.000
415.469; 3243.725;  214.675;    0.000
415.523; 3088.725;  226.675;    0.000
415.577; 3061.725;  194.675;    0.000
415.631; 3247.725;  258.675;    0.000
415.684; 3218.725;  239.675;    0.000
415.738; 3130.725;  191.675;    0.000
415.792; 3117.725;  185.675;    0.000
415.846; 3141.725;  239.675;    0.000
415.900; 3104.725;  209.675;    0.000
415.954; 3258.725;  215.675;    0.000
416.008; 3166.725;  229.675;    0.000
416.062; 3095.725;  200.675;    0.000
416.116; 3127.725;  195.675;    0.000
416.169; 3123.725;  238.675;    0.000
416.223; 3154.725;  271.675;    0.000
416.277; 3202.725;  232.675;    0.000
416.331; 3140.725;  226.675;    0.000
416.385; 3126.725;  207.675;    0.000
416.439; 3224.725;  221.675;    0.000
416.492; 3270.725;  269.675;    0.000
416.546; 3188.725;  254.675;    0.000
416.600; 3173.725;  225.675;    0.000
416.654; 3250.725;  269.675;    0.000
416.707; 3161.725;  232.675;    0.000
416.761; 3202.725;  226.675;    0.000
416.815; 3189.725;  219.675;    0.000
416.869; 3115.725;  234.675;    0.000
416.922; 3126.725;  230.675;    0.000
416.976; 3155.725;  216.675;    0.000
417.030; 3242.725;  271.675;    0.000
417.083; 3139.725;  229.675;    0.000
417.137; 3078.725;  249.675;    0.000
417.191; 3118.725;  241.675;    0.000
417.244; 3078.725;  230.675;    0.000
417.298; 3092.725;  215.675;    0.000
417.352; 3072.725;  188.675;    0.000
417.405; 3204.725;  248.675;    0.000
417.459; 3164.725;  256.675;    0.000
417.512; 3226.725;  263.675;    0.000
417.566; 3077.725;  227.675;    0.000
417.620; 3167.725;  270.675;    0.000
417.673; 3135.725;  216.675;    0.000
417.727; 3155.725;  234.675;    0.000
417.780; 3136.725;  215.675;    0.000
417.834; 3157.725;  203.675;    0.000
417.887; 3108.725;  257.675;    0.000
417.941; 3110.725;  216.675;    0.000
417.994; 3250.725;  245.675;    0.000
418.048; 3167.725;  209.675;    0.000
418.101; 3173.725;  207.675;    0.000
418.155; 3087.725;  204.675;    0.000
418.208; 3100.725;  270.675;    0.000
418.262; 3160.725;  228.675;    0.000
418.315; 3112.725;  254.675;    0.000
418.369; 3105.725;  245.675;    0.000
418.422; 3116.725;  224.675;    0.000
418.476; 3247.725;  221.675;    0.000
418.529; 3155.725;  234.675;    0.000
418.582; 3095.725;  249.675;    0.000
418.636; 3105.725;  224.675;    0.000
418.689; 3115.725;  228.675;    0.000
418.743; 3144.725;  240.675;    0.000
418.796; 3122.725;  197.675;    0.000
418.849; 3016.725;  220.675;    0.000
418.903; 3167.725;  246.675;    0.000
418.956; 3186.725;  250.675;    0.000
419.009; 3159.725;  276.675;    0.000
419.063; 3050.725;  232.675;    0.000
419.116; 3067.725;  228.675;    0.000
419.169; 3086.725;  249.675;    0.000
419.222; 3134.725;  215.675;    0.000
419.276; 3022.725;  228.675;    0.000
419.329; 3152.725;  246.675;    0.000
419.382; 3174.725;  188.675;    0.000
419.435; 3132.725;  240.675;    0.000
419.489; 3110.725;  261.675;    0.000
419.542; 3124.725;  224.675;    0.000
419.595; 3045.725;  251.675;    0.000
419.648; 3202.725;  236.675;    0.000
419.701; 3059.725;  244.675;    0.000
419.755; 3054.725;  242.675;    0.000
419.808; 3023.725;  242.675;    0.000
419.861; 2993.725;  189.675;    0.000
419.914; 3186.725;  258.675;    0.000
419.967; 3054.725;  230.675;    0.000
420.020; 3038.725;  223.675;    0.000
420.073; 3030.725;  221.675;    0.000
420.127; 3053.725;  252.675;    0.000
420.180; 2982.725;  219.675;    0.000
420.233; 3064.725;  201.675;    0.000
420.286; 2908.725;  221.675;    0.000
420.339; 3056.725;  250.675;    0.000
420.392; 2957.725;  268.675;    0.000
420.445; 3032.725;  223.675;    0.000
420.498; 3011.725;  240.675;    0.000
420.551; 3033.725;  220.675;    0.000
420.604; 2975.725;  231.675;    0.000
420.657; 2995.725;  228.675;    0.000
420.710; 2999.725;  219.675;    0.000
420.763; 3004.725;  280.675;    0.000
420.816; 2889.725;  202.675;    0.000
420.869; 2930.725;  219.675;    0.000
420.922; 2894.725;  218.675;    0.000
420.975; 2976.725;  237.675;    0.000
421.028; 3023.725;  242.675;    0.000
421.081; 2973.725;  247.675;    0.000
421.134; 2912.725;  239.675;    0.000
421.187; 2902.725;  229.675;    0.000
421.239; 2925.725;  200.675;    0.000
421.292; 2962.725;  205.675;    0.000
421.345; 2921.725;  219.675;    0.000
421.398; 2927.725;  187.675;    0.000
421.451; 2988.725;  226.675;    0.000
421.504; 2939.725;  206.675;    0.000
421.557; 2924.725;  226.675;    0.000
421.609; 2937.725;  209.675;    0.000
421.662; 2898.725;  229.675;    0.000
421.715; 2977.725;  231.675;    0.000
421.768; 2926.725;  215.675;    0.000
421.821; 2953.725;  211.675;    0.000
421.873; 2915.725;  220.675;    0.000
421.926; 2854.725;  212.675;    0.000
421.979; 3003.725;  209.675;    0.000
422.032; 2908.725;  203.675;    0.000
422.084; 2931.725;  213.675;    0.000
422.137; 2996.725;  196.675;    0.000
422.190; 2924.725;  246.675;    0.000
422.243; 2962.725;  194.675;    0.000
422.295; 2953.725;  225.675;    0.000
422.348; 2928.725;  248.675;    0.000
422.401; 2909.725;  252.675;    0.000
422.453; 2943.725;  249.675;    0.000
422.506; 2922.725;  233.675;    0.000
422.559; 2851.725;  228.675;    0.000
422.611; 2879.725;  224.675;    0.000
422.664; 2871.725;  226.675;    0.000
422.716; 2886.725;  226.675;    0.000
422.769; 2900.725;  216.675;    0.000
422.822; 3008.725;  256.675;    0.000
422.874; 2840.725;  206.675;    0.000
422.927; 2850.725;  257.675;    0.000
422.979; 2878.725;  209.675;    0.000
423.032; 2879.725;  244.675;    0.000
423.084; 2885.725;  244.675;    0.000
423.137; 2871.725;  213.675;    0.000
423.189; 2798.725;  208.675;    0.000
423.242; 2772.725;  226.675;    0.000
423.294; 2962.725;  250.675;    0.000
423.347; 2841.725;  206.675;    0.000
423.399; 2968.725;  268.675;    0.000
423.452; 2848.725;  262.675;    0.000
423.504; 2765.725;  237.675;    0.000
423.557; 2798.725;  245.675;    0.000
423.609; 2779.725;  211.675;    0.000
423.662; 2839.725;  222.675;    0.000
423.714; 2847.725;  219.675;    0.000
423.766; 2857.725;  250.675;    0.000
423.819; 2788.725;  220.675;    0.000
423.871; 2848.725;  229.675;    0.000
423.923; 2850.725;  219.675;    0.000
423.976; 2870.725;  221.675;    0.000
424.028; 2843.725;  211.675;    0.000
424.081; 2835.725;  254.675;    0.000
424.133; 2891.725;  230.675;    0.000
424.185; 2794.725;  241.675;    0.000
424.238; 2878.725;  182.675;    0.000
424.290; 2772.725;  215.675;    0.000
424.342; 2812.725;  235.675;    0.000
424.394; 2824.725;  225.675;    0.000
424.447; 2736.725;  264.675;    0.000
424.499; 2926.725;  225.675;    0.000
424.551; 2825.725;  237.675;    0.000
424.603; 2791.725;  219.675;    0.000
424.656; 2853.725;  240.675;    0.000
424.708; 2831.725;  266.675;    0.000
424.760; 2778.725;  230.675;    0.000
424.812; 2831.725;  284.675;    0.000
424.864; 2772.725;  189.675;    0.000
424.917; 2747.725;  226.675;    0.000
424.969; 2790.725;  253.675;    0.000
425.021; 2862.725;  233.675;    0.000
425.073; 2774.725;  246.675;    0.000
425.125; 2723.725;  238.675;    0.000
425.177; 2774.725;  253.675;    0.000
425.229; 2828.725;  254.675;    0.000
425.282; 2732.725;  252.675;    0.000
425.334; 2760.725;  261.675;    0.000
425.386; 2824.725;  227.675;    0.000
425.438; 2778.725;  246.675;    0.000
425.490; 2751.725;  249.675;    0.000
425.542; 2815.725;  236.675;    0.000
425.594; 2705.725;  236.675;    0.000
425.646; 2827.725;  237.675;    0.000
425.698; 2704.725;  271.675;    0.000
425.750; 2718.725;  240.675;    0.000
425.802; 2798.725;  238.675;    0.000
425.854; 2775.725;  256.675;    0.000
425.906; 2800.725;  230.675;    0.000
425.958; 2747.725;  231.675;    0.000
426.010; 2658.725;  268.675;    0.000
426.062; 2688.725;  227.675;    0.000
426.114; 2704.725;  234.675;    0.000
426.166; 2783.725;  239.675;    0.000
426.218; 2748.725;  255.675;    0.000
426.270; 2692.725;  196.675;    0.000
426.321; 2601.725;  231.675;    0.000
426.373; 2659.725;  199.675;    0.000
426.425; 2702.725;  245.675;    0.000
426.477; 2607.725;  259.675;    0.000
426.529; 2681.725;  274.675;    0.000
426.581; 2607.725;  221.675;    0.000
426.633; 2722.725;  231.675;    0.000
426.684; 2730.725;  248.675;    0.000
426.736; 2730.725;  237.675;    0.000
426.788; 2621.725;  191.675;    0.000
426.840; 2642.725;  180.675;    0.000
426.892; 2590.725;  259.675;    0.000
426.943; 2672.725;  256.675;    0.000
426.995; 2598.725;  212.675;    0.000
427.047; 2643.725;  233.675;    0.000
427.099; 2700.725;  222.675;    0.000
427.150; 2672.725;  203.675;    0.000
427.202; 2585.725;  218.675;    0.000
427.254; 2630.725;  198.675;    0.000
427.306; 2648.725;  248.675;    0.000
427.357; 2633.725;  239.675;    0.000
427.409; 2641.725;  193.675;    0.000
427.461; 2627.725;  215.675;    0.000
427.512; 2614.725;  251.675;    0.000
427.564; 2563.725;  210.675;    0.000
427.616; 2603.725;  251.675;    0.000
427.667; 2587.725;  246.675;    0.000
427.719; 2592.725;  227.675;    0.000
427.770; 2512.725;  247.675;    0.000
427.822; 2686.725;  261.675;    0.000
427.874; 2576.725;  231.675;    0.000
427.925; 2570.725;  231.675;    0.000
427.977; 2569.725;  243.675;    0.000
428.028; 2617.725;  249.675;    0.000
428.080; 2668.725;  224.675;    0.000
428.131; 2569.725;  247.675;    0.000
428.183; 2580.725;  213.675;    0.000
428.234; 2581.725;  213.675;    0.000
428.286; 2499.725;  224.675;    0.000
428.337; 2631.725;  212.675;    0.000
428.389; 2499.725;  231.675;    0.000
428.440; 2669.725;  248.675;    0.000
428.492; 2585.725;  242.675;    0.000
428.543; 2582.725;  220.675;    0.000
428.595; 2614.725;  212.675;    0.000
428.646; 2614.725;  231.675;    0.000
428.697; 2627.725;  232.675;    0.000
428.749; 2557.725;  231.675;    0.000
428.800; 2560.725;  270.675;    0.000
428.852; 2626.725;  266.675;    0.000
428.903; 2602.725;  215.675;    0.000
428.954; 2736.725;  200.675;    0.000
429.006; 2533.725;  247.675;    0.000
429.057; 2475.725;  247.675;    0.000
429.108; 2598.725;  193.675;    0.000
429.160; 2560.725;  249.675;    0.000
429.211; 2519.725;  228.675;    0.000
429.262; 2521.725;  243.675;    0.000
429.314; 2516.725;  227.675;    0.000
429.365; 2480.725;  242.675;    0.000
429.416; 2567.725;  240.675;    0.000
429.467; 2570.725;  222.675;    0.000
429.519; 2455.725;  233.675;    0.000
429.570; 2507.725;  223.675;    0.000
429.621; 2519.725;  257.675;    0.000
429.672; 2540.725;  220.675;    0.000
429.724; 2518.725;  203.675;    0.000
429.775; 2450.725;  242.675;    0.000
429.826; 2544.725;  195.675;    0.000
429.877; 2446.725;  248.675;    0.000
429.928; 2491.725;  226.675;    0.000
429.980; 2524.725;  189.675;    0.000
430.031; 2494.725;  223.675;    0.000
430.082; 2405.725;  217.675;    0.000
430.133; 2498.725;  210.675;    0.000
430.184; 2496.725;  271.675;    0.000
430.235; 2487.725;  190.675;    0.000
430.286; 2512.725;  233.675;    0.000
430.337; 2485.725;  232.675;    0.000
430.388; 2454.725;  221.675;    0.000
430.439; 2425.725;  221.675;    0.000
430.490; 2526.725;  229.675;    0.000
430.542; 2427.725;  196.675;    0.000
430.593; 2527.725;  214.675;    0.000
430.644; 2506.725;  224.675;    0.000
430.695; 2509.725;  216.675;    0.000
430.746; 2508.725;  228.675;    0.000
430.797; 2390.725;  190.675;    0.000
430.848; 2592.725;  231.675;    0.000
430.898; 2480.725;  232.675;    0.000
430.949; 2449.725;  224.675;    0.000
431.000; 2461.725;  236.675;    0.000
431.051; 2484.725;  251.675;    0.000
431.102; 2457.725;  205.675;    0.000
431.153; 2505.725;  212.675;    0.000
431.204; 2419.725;  200.675;    0.000
431.255; 2427.725;  220.675;    0.000
431.306; 2427.725;  223.675;    0.000
431.357; 2487.725;  240.675;    0.000
431.408; 2447.725;  232.675;    0.000
431.458; 2440.725;  204.675;    0.000
431.509; 2424.725;  196.675;    0.000
431.560; 2464.725;  243.675;    0.000
431.611; 2446.725;  222.675;    0.000
431.662; 2472.725;  246.675;    0.000
431.713; 2471.725;  188.675;    0.000
431.763; 2441.725;  226.675;    0.000
431.814; 2427.725;  239.675;    0.000
431.865; 2450.725;  245.675;    0.000
431.916; 2413.725;  173.675;    0.000
431.966; 2428.725;  220.675;    0.000
432.017; 2509.725;  247.675;    0.000
432.068; 2546.725;  241.675;    0.000
432.118; 2500.725;  220.675;    0.000
432.169; 2485.725;  244.675;    0.000
432.220; 2461.725;  246.675;    0.000
432.271; 2453.725;  203.675;    0.000
432.321; 2390.725;  244.675;    0.000
432.372; 2459.725;  254.675;    0.000
432.423; 2395.725;  224.675;    0.000
432.473; 2421.725;  211.675;    0.000
432.524; 2485.725;  227.675;    0.000
432.574; 2438.725;  228.675;    0.000
432.625; 2414.725;  223.675;    0.000
432.676; 2446.725;  220.675;    0.000
432.726; 2523.725;  257.675;    0.000
432.777; 2417.725;  257.675;    0.000
432.827; 2518.725;  240.675;    0.000
432.878; 2358.725;  219.675;    0.000
432.928; 2410.725;  234.675;    0.000
432.979; 2388.725;  226.675;    0.000
433.029; 2401.725;  216.675;    0.000
433.080; 2406.725;  232.675;    0.000
433.130; 2386.725;  257.675;    0.000
433.181; 2406.725;  243.675;    0.000
433.231; 2385.725;  239.675;    0.000
433.282; 2417.725;  232.675;    0.000
433.332; 2434.725;  256.675;    0.000
433.383; 2496.725;  268.675;    0.000
433.433; 2506.725;  291.675;    0.000
433.484; 2443.725;  263.675;    0.000
433.534; 2419.725;  248.675;    0.000
433.585; 2394.725;  244.675;    0.000
433.635; 2399.725;  242.675;    0.000
433.685; 2392.725;  243.675;    0.000
433.736; 2410.725;  283.675;    0.000
433.786; 2474.725;  264.675;    0.000
433.836; 2516.725;  282.675;    0.000
433.887; 2406.725;  265.675;    0.000
433.937; 2481.725;  255.675;    0.000
433.987; 2388.725;  245.675;    0.000
434.038; 2366.725;  276.675;    0.000
434.088; 2459.725;  249.675;    0.000
434.138; 2478.725;  260.675;    0.000
434.189; 2329.725;  241.675;    0.000
434.239; 2419.725;  232.675;    0.000
434.289; 2454.725;  272.675;    0.000
434.339; 2510.725;  288.675;    0.000
434.389; 2442.725;  258.675;    0.000
434.440; 2413.725;  244.675;    0.000
434.490; 2372.725;  288.675;    0.000
434.540; 2510.725;  252.675;    0.000
434.590; 2512.725;  256.675;    0.000
434.640; 2422.725;  259.675;    0.000
434.691; 2441.725;  220.675;    0.000
434.741; 2469.725;  238.675;    0.000
434.791; 2482.725;  276.675;    0.000
434.841; 2513.725;  256.675;    0.000
434.891; 2504.725;  297.675;    0.000
434.941; 2477.725;  290.675;    0.000
434.991; 2441.725;  261.675;    0.000
435.042; 2458.725;  300.675;    0.000
435.092; 2437.725;  248.675;    0.000
435.142; 2405.725;  246.675;    0.000
435.192; 2367.725;  201.675;    0.000
435.242; 2395.725;  234.675;    0.000
435.292; 2350.725;  266.675;    0.000
435.342; 2417.725;  250.675;    0.000
435.392; 2361.725;  279.675;    0.000
435.442; 2354.725;  242.675;    0.000
435.492; 2484.725;  265.675;    0.000
435.542; 2330.725;  243.675;    0.000
435.592; 2319.725;  243.675;    0.000
435.642; 2385.725;  241.675;    0.000
435.692; 2396.725;  263.675;    0.000
435.742; 2383.725;  264.675;    0.000
435.792; 2386.725;  291.675;    0.000
435.842; 2404.725;  257.675;    0.000
435.891; 2305.725;  224.675;    0.000
435.941; 2333.725;  243.675;    0.000
435.991; 2296.725;  300.675;    0.000
436.041; 2330.725;  197.675;    0.000
436.091; 2361.725;  238.675;    0.000
436.141; 2251.725;  222.675;    0.000
436.191; 2353.725;  249.675;    0.000
436.241; 2361.725;  208.675;    0.000
436.290; 2304.725;  282.675;    0.000
436.340; 2295.725;  233.675;    0.000
436.390; 2314.725;  223.675;    0.000
436.440; 2291.725;  252.675;    0.000
436.490; 2219.725;  254.675;    0.000
436.539; 2305.725;  271.675;    0.000
436.589; 2284.725;  248.675;    0.000
436.639; 2314.725;  235.675;    0.000
436.689; 2220.725;  238.675;    0.000
436.738; 2176.725;  267.675;    0.000
436.788; 2255.725;  239.675;    0.000
436.838; 2297.725;  244.675;    0.000
436.887; 2258.725;  265.675;    0.000
436.937; 2237.725;  261.675;    0.000
436.987; 2223.725;  235.675;    0.000
437.036; 2258.725;  267.675;    0.000
437.086; 2173.725;  258.675;    0.000
437.136; 2270.725;  250.675;    0.000
437.185; 2233.725;  214.675;    0.000
437.235; 2258.725;  257.675;    0.000
437.285; 2230.725;  259.675;    0.000
437.334; 2229.725;  241.675;    0.000
437.384; 2270.725;  231.675;    0.000
437.433; 2247.725;  239.675;    0.000
437.483; 2162.725;  260.675;    0.000
437.532; 2242.725;  277.675;    0.000
437.582; 2261.725;  268.675;    0.000
437.631; 2194.725;  239.675;    0.000
437.681; 2106.725;  251.675;    0.000
437.730; 2260.725;  246.675;    0.000
437.780; 2184.725;  226.675;    0.000
437.829; 2257.725;  256.675;    0.000
437.879; 2140.725;  239.675;    0.000
437.928; 2220.725;  253.675;    0.000
437.978; 2259.725;  245.675;    0.000
438.027; 2219.725;  277.675;    0.000
438.077; 2191.725;  248.675;    0.000
438.126; 2129.725;  201.675;    0.000
438.176; 2161.725;  220.675;    0.000
438.225; 2160.725;  250.675;    0.000
438.274; 2134.725;  234.675;    0.000
438.324; 2210.725;  276.675;    0.000
438.373; 2117.725;  226.675;    0.000
438.422; 2157.725;  228.675;    0.000
438.472; 2217.725;  225.675;    0.000
438.521; 2164.725;  227.675;    0.000
438.570; 2234.725;  242.675;    0.000
438.620; 2133.725;  277.675;    0.000
438.669; 2119.725;  256.675;    0.000
438.718; 2157.725;  248.675;    0.000
438.768; 2141.725;  225.675;    0.000
438.817; 2160.725;  229.675;    0.000
438.866; 2135.725;  218.675;    0.000
438.915; 2218.725;  256.675;    0.000
438.965; 2129.725;  242.675;    0.000
439.014; 2113.725;  260.675;    0.000
439.063; 2207.725;  238.675;    0.000
439.112; 2122.725;  209.675;    0.000
439.162; 2210.725;  258.675;    0.000
439.211; 2219.725;  275.675;    0.000
439.260; 2179.725;  238.675;    0.000
439.309; 2174.725;  237.675;    0.000
439.358; 2194.725;  252.675;    0.000
439.407; 2110.725;  239.675;    0.000
439.456; 2224.725;  211.675;    0.000
439.506; 2146.725;  261.675;    0.000
439.555; 2138.725;  274.675;    0.000
439.604; 2144.725;  262.675;    0.000
439.653; 2138.725;  245.675;    0.000
439.702; 2097.725;  247.675;    0.000
439.751; 2078.725;  228.675;    0.000
439.800; 2166.725;  253.675;    0.000
439.849; 2089.725;  219.675;    0.000
439.898; 2046.725;  246.675;    0.000
439.947; 2127.725;  229.675;    0.000
439.996; 2142.725;  274.675;    0.000
440.045; 2148.725;  224.675;    0.000
440.094; 2159.725;  225.675;    0.000
440.143; 2140.725;  277.675;    0.000
440.192; 2174.725;  252.675;    0.000
440.241; 2138.725;  253.675;    0.000
440.290; 2141.725;  242.675;    0.000
440.339; 2180.725;  220.675;    0.000
440.388; 2125.725;  244.675;    0.000
440.437; 2184.725;  268.675;    0.000
440.486; 2128.725;  242.675;    0.000
440.535; 2163.725;  269.675;    0.000
440.583; 2265.725;  258.675;    0.000
440.632; 2237.725;  286.675;    0.000
440.681; 2173.725;  238.675;    0.000
440.730; 2225.725;  271.675;    0.000
440.779; 2242.725;  226.675;    0.000
440.828; 2115.725;  213.675;    0.000
440.876; 2153.725;  207.675;    0.000
440.925; 2173.725;  247.675;    0.000
440.974; 2193.725;  229.675;    0.000
441.023; 2188.725;  227.675;    0.000
441.072; 2234.725;  222.675;    0.000
441.120; 2211.725;  273.675;    0.000
441.169; 2173.725;  263.675;    0.000
441.218; 2103.725;  264.675;    0.000
441.267; 2207.725;  287.675;    0.000
441.315; 2220.725;  251.675;    0.000
441.364; 2240.725;  252.675;    0.000
441.413; 2235.725;  227.675;    0.000
441.461; 2238.725;  198.675;    0.000
441.510; 2256.725;  273.675;    0.000
441.559; 2121.725;  245.675;    0.000
441.607; 2215.725;  218.675;    0.000
441.656; 2256.725;  261.675;    0.000
441.705; 2240.725;  259.675;    0.000
441.753; 2223.725;  272.675;    0.000
441.802; 2249.725;  246.675;    0.000
441.850; 2198.725;  255.675;    0.000
441.899; 2195.725;  236.675;    0.000
441.948; 2181.725;  267.675;    0.000
441.996; 2186.725;  246.675;    0.000
442.045; 2119.725;  279.675;    0.000
442.093; 2204.725;  251.675;    0.000
442.142; 2250.725;  274.675;    0.000
442.190; 2151.725;  279.675;    0.000
442.239; 2160.725;  295.675;    0.000
442.287; 2236.725;  229.675;    0.000
442.336; 2269.725;  265.675;    0.000
442.384; 2100.725;  219.675;    0.000
442.433; 2174.725;  287.675;    0.000
442.481; 2205.725;  271.675;    0.000
442.529; 2111.725;  262.675;    0.000
442.578; 2181.725;  282.675;    0.000
442.626; 2055.725;  245.675;    0.000
442.675; 2220.725;  283.675;    0.000
442.723; 2093.725;  247.675;    0.000
442.771; 2124.725;  221.675;    0.000
442.820; 2177.725;  253.675;    0.000
442.868; 2148.725;  204.675;    0.000
442.917; 2091.725;  263.675;    0.000
442.965; 2141.725;  255.675;    0.000
443.013; 2193.725;  282.675;    0.000
443.062; 2213.725;  258.675;    0.000
443.110; 2133.725;  268.675;    0.000
443.158; 2088.725;  247.675;    0.000
443.206; 2153.725;  243.675;    0.000
443.255; 2197.725;  271.675;    0.000
443.303; 2209.725;  279.675;    0.000
443.351; 2123.725;  264.675;    0.000
443.399; 2155.725;  245.675;    0.000
443.448; 2169.725;  259.675;    0.000
443.496; 2231.725;  281.675;    0.000
443.544; 2165.725;  213.675;    0.000
443.592; 2210.725;  290.675;    0.000
443.640; 2118.725;  270.675;    0.000
443.689; 2155.725;  229.675;    0.000
443.737; 2186.725;  254.675;    0.000
443.785; 2197.725;  234.675;    0.000
443.833; 2210.725;  287.675;    0.000
443.881; 2176.725;  229.675;    0.000
443.929; 2196.725;  260.675;    0.000
443.977; 2154.725;  265.675;    0.000
444.025; 2149.725;  257.675;    0.000
444.074; 2108.725;  245.675;    0.000
444.122; 2203.725;  282.675;    0.000
444.170; 2237.725;  240.675;    0.000
444.218; 2180.725;  270.675;    0.000
444.266; 2189.725;  254.675;    0.000
444.314; 2233.725;  264.675;    0.000
444.362; 2192.725;  287.675;    0.000
444.410; 2255.725;  236.675;    0.000
444.458; 2299.725;  273.675;    0.000
444.506; 2221.725;  235.675;    0.000
444.554; 2237.725;  242.675;    0.000
444.602; 2279.725;  283.675;    0.000
444.650; 2226.725;  266.675;    0.000
444.698; 2096.725;  248.675;    0.000
444.746; 2275.725;  247.675;    0.000
444.793; 2149.725;  211.675;    0.000
444.841; 2222.725;  259.675;    0.000
444.889; 2232.725;  253.675;    0.000
444.937; 2235.725;  248.675;    0.000
444.985; 2164.725;  233.675;    0.000
445.033; 2117.725;  245.675;    0.000
445.081; 2156.725;  243.675;    0.000
445.129; 2133.725;  238.675;    0.000
445.176; 2112.725;  204.675;    0.000
445.224; 2157.725;  262.675;    0.000
445.272; 2145.725;  256.675;    0.000
445.320; 2199.725;  235.675;    0.000
445.368; 2097.725;  251.675;    0.000
445.415; 2133.725;  250.675;    0.000
445.463; 2159.725;  225.675;    0.000
445.511; 2147.725;  226.675;    0.000
445.559; 2120.725;  251.675;    0.000
445.606; 2103.725;  213.675;    0.000
445.654; 2137.725;  261.675;    0.000
445.702; 2158.725;  222.675;    0.000
445.749; 2204.725;  257.675;    0.000
445.797; 2145.725;  263.675;    0.000
445.845; 2074.725;  218.675;    0.000
445.892; 2055.725;  228.675;    0.000
445.940; 2106.725;  249.675;    0.000
445.988; 2171.725;  276.675;    0.000
446.035; 2079.725;  229.675;    0.000
446.083; 2148.725;  255.675;    0.000
446.130; 1998.725;  200.675;    0.000
446.178; 2176.725;  256.675;    0.000
446.226; 2148.725;  238.675;    0.000
446.273; 2140.725;  250.675;    0.000
446.321; 2089.725;  233.675;    0.000
446.368; 2102.725;  244.675;    0.000
446.416; 2049.725;  214.675;    0.000
446.463; 2105.725;  225.675;    0.000
446.511; 2065.725;  253.675;    0.000
446.558; 2027.725;  246.675;    0.000
446.606; 2136.725;  238.675;    0.000
446.653; 2069.725;  215.675;    0.000
446.701; 2179.725;  248.675;    0.000
446.748; 2099.725;  258.675;    0.000
446.796; 2118.725;  259.675;    0.000
446.843; 2129.725;  269.675;    0.000
446.891; 2065.725;  259.675;    0.000
446.938; 2066.725;  226.675;    0.000
446.985; 2106.725;  225.675;    0.000
447.033; 2092.725;  269.675;    0.000
447.080; 2061.725;  258.675;    0.000
447.128; 2147.725;  225.675;    0.000
447.175; 2084.725;  259.675;    0.000
447.222; 2066.725;  238.675;    0.000
447.270; 2105.725;  250.675;    0.000
447.317; 1971.725;  217.675;    0.000
447.364; 2032.725;  262.675;    0.000
447.411; 2095.725;  269.675;    0.000
447.459; 2088.725;  251.675;    0.000
447.506; 2073.725;  227.675;    0.000
447.553; 2058.725;  250.675;    0.000
447.601; 2083.725;  251.675;    0.000
447.648; 2068.725;  276.675;    0.000
447.695; 2081.725;  229.675;    0.000
447.742; 2129.725;  245.675;    0.000
447.789; 2058.725;  243.675;    0.000
447.837; 2110.725;  267.675;    0.000
447.884; 2051.725;  246.675;    0.000
447.931; 2039.725;  266.675;    0.000
447.978; 2045.725;  242.675;    0.000
448.025; 2018.725;  267.675;    0.000
448.072; 2016.725;  257.675;    0.000
448.120; 2122.725;  279.675;    0.000
448.167; 2096.725;  275.675;    0.000
448.214; 2049.725;  241.675;    0.000
448.261; 2010.725;  271.675;    0.000
448.308; 2055.725;  256.675;    0.000
448.355; 2042.725;  253.675;    0.000
448.402; 2063.725;  267.675;    0.000
448.449; 2023.725;  252.675;    0.000
448.496; 2034.725;  241.675;    0.000
448.543; 1992.725;  250.675;    0.000
448.590; 2032.725;  288.675;    0.000
448.637; 2074.725;  255.675;    0.000
448.684; 2064.725;  284.675;    0.000
448.731; 1962.725;  244.675;    0.000
448.778; 2059.725;  257.675;    0.000
448.825; 2011.725;  252.675;    0.000
448.872; 1986.725;  205.675;    0.000
448.919; 2063.725;  244.675;    0.000
448.966; 2024.725;  278.675;    0.000
449.013; 2078.725;  262.675;    0.000
449.060; 2052.725;  278.675;    0.000
449.107; 2118.725;  248.675;    0.000
449.154; 1982.725;  230.675;    0.000
449.200; 1979.725;  211.675;    0.000
449.247; 2012.725;  283.675;    0.000
449.294; 2033.725;  251.675;    0.000
449.341; 1998.725;  280.675;    0.000
449.388; 2070.725;  247.675;    0.000
449.435; 1960.725;  267.675;    0.000
449.481; 2021.725;  303.675;    0.000
449.528; 2069.725;  279.675;    0.000
449.575; 2074.725;  226.675;    0.000
449.622; 2022.725;  263.675;    0.000
449.668; 2049.725;  249.675;    0.000
449.715; 2017.725;  257.675;    0.000
449.762; 2035.725;  251.675;    0.000
449.809; 2004.725;  289.675;    0.000
449.855; 2066.725;  239.675;    0.000
449.902; 2065.725;  262.675;    0.000
449.949; 2081.725;  262.675;    0.000
449.995; 1998.725;  265.675;    0.000
450.042; 2069.725;  280.675;    0.000
450.089; 2002.725;  277.675;    0.000
450.135; 2107.725;  285.675;    0.000
450.182; 1961.725;  275.675;    0.000
450.229; 2014.725;  278.675;    0.000
450.275; 2051.725;  288.675;    0.000
450.322; 2002.725;  238.675;    0.000
450.368; 1988.725;  276.675;    0.000
450.415; 2043.725;  295.675;    0.000
450.462; 2020.725;  283.675;    0.000
450.508; 2070.725;  264.675;    0.000
450.555; 2010.725;  275.675;    0.000
450.601; 2091.725;  278.675;    0.000
450.648; 2014.725;  251.675;    0.000
450.694; 2057.725;  237.675;    0.000
450.741; 1998.725;  280.675;    0.000
450.787; 2000.725;  279.675;    0.000
450.834; 1992.725;  287.675;    0.000
450.880; 2018.725;  265.675;    0.000
450.927; 2059.725;  270.675;    0.000
450.973; 2024.725;  308.675;    0.000
451.019; 1989.725;  253.675;    0.000
451.066; 2029.725;  261.675;    0.000
451.112; 2002.725;  276.675;    0.000
451.159; 2008.725;  235.675;    0.000
451.205; 2073.725;  284.675;    0.000
451.251; 2089.725;  264.675;    0.000
451.298; 2033.725;  262.675;    0.000
451.344; 2070.725;  278.675;    0.000
451.390; 2103.725;  273.675;    0.000
451.437; 2061.725;  272.675;    0.000
451.483; 2075.725;  302.675;    0.000
451.529; 2043.725;  255.675;    0.000
451.576; 2020.725;  287.675;    0.000
451.622; 2074.725;  254.675;    0.000
451.668; 2029.725;  260.675;    0.000
451.714; 2026.725;  289.675;    0.000
451.761; 2036.725;  273.675;    0.000
451.807; 2051.725;  307.675;    0.000
451.853; 1992.725;  281.675;    0.000
451.899; 1997.725;  246.675;    0.000
451.945; 2022.725;  258.675;    0.000
451.992; 1977.725;  276.675;    0.000
452.038; 1990.725;  287.675;    0.000
452.084; 1919.725;  288.675;    0.000
452.130; 2007.725;  259.675;    0.000
452.176; 2000.725;  265.675;    0.000
452.222; 1973.725;  222.675;    0.000
452.268; 1990.725;  271.675;    0.000
452.315; 1964.725;  258.675;    0.000
452.361; 2002.725;  233.675;    0.000
452.407; 2063.725;  270.675;    0.000
452.453; 2021.725;  261.675;    0.000
452.499; 2020.725;  279.675;    0.000
452.545; 2009.725;  269.675;    0.000
452.591; 2064.725;  288.675;    0.000
452.637; 2060.725;  279.675;    0.000
452.683; 1971.725;  232.675;    0.000
452.729; 1967.725;  285.675;    0.000
452.775; 1979.725;  280.675;    0.000
452.821; 2015.725;  260.675;    0.000
452.867; 1927.725;  239.675;    0.000
452.913; 1928.725;  240.675;    0.000
452.959; 1972.725;  214.675;    0.000
453.005; 2024.725;  266.675;    0.000
453.051; 1986.725;  258.675;    0.000
453.097; 1968.725;  253.675;    0.000
453.142; 1967.725;  244.675;    0.000
453.188; 1999.725;  241.675;    0.000
453.234; 1967.725;  257.675;    0.000
453.280; 1928.725;  231.675;    0.000
453.326; 1985.725;  240.675;    0.000
453.372; 1962.725;  208.675;    0.000
453.418; 2008.725;  266.675;    0.000
453.463; 1940.725;  232.675;    0.000
453.509; 2023.725;  221.675;    0.000
453.555; 2019.725;  268.675;    0.000
453.601; 1936.725;  242.675;    0.000
453.647; 1925.725;  283.675;    0.000
453.692; 1935.725;  242.675;    0.000
453.738; 1918.725;  294.675;    0.000
453.784; 1962.725;  256.675;    0.000
453.829; 1933.725;  267.675;    0.000
453.875; 1969.725;  233.675;    0.000
453.921; 1994.725;  247.675;    0.000
453.967; 2022.725;  249.675;    0.000
454.012; 2058.725;  274.675;    0.000
454.058; 2063.725;  249.675;    0.000
454.104; 2001.725;  272.675;    0.000
454.149; 1990.725;  277.675;    0.000
454.195; 1992.725;  256.675;    0.000
454.240; 1990.725;  263.675;    0.000
454.286; 2046.725;  276.675;    0.000
454.332; 1999.725;  290.675;    0.000
454.377; 1932.725;  274.675;    0.000
454.423; 1977.725;  282.675;    0.000
454.468; 1968.725;  275.675;    0.000
454.514; 2040.725;  270.675;    0.000
454.559; 1974.725;  249.675;    0.000
454.605; 1921.725;  241.675;    0.000
454.650; 1967.725;  269.675;    0.000
454.696; 1937.725;  253.675;    0.000
454.741; 2023.725;  279.675;    0.000
454.787; 2022.725;  252.675;    0.000
454.832; 1971.725;  246.675;    0.000
454.878; 2058.725;  264.675;    0.000
454.923; 2005.725;  268.675;    0.000
454.969; 1982.725;  253.675;    0.000
455.014; 2074.725;  264.675;    0.000
455.060; 2016.725;  265.675;    0.000
455.105; 1950.725;  270.675;    0.000
455.150; 1961.725;  284.675;    0.000
455.196; 1978.725;  278.675;    0.000
455.241; 1986.725;  248.675;    0.000
455.286; 2017.725;  274.675;    0.000
455.332; 2022.725;  269.675;    0.000
455.377; 1987.725;  218.675;    0.000
455.422; 2014.725;  261.675;    0.000
455.468; 2038.725;  278.675;    0.000
455.513; 2045.725;  235.675;    0.000
455.558; 1938.725;  232.675;    0.000
455.604; 1980.725;  285.675;    0.000
455.649; 1970.725;  264.675;    0.000
455.694; 1990.725;  235.675;    0.000
455.739; 2031.725;  265.675;    0.000
455.785; 2064.725;  266.675;    0.000
455.830; 2059.725;  272.675;    0.000
455.875; 1952.725;  256.675;    0.000
455.920; 1962.725;  191.675;    0.000
455.965; 1996.725;  280.675;    0.000
456.010; 2033.725;  267.675;    0.000
456.056; 1940.725;  270.675;    0.000
456.101; 2033.725;  248.675;    0.000
456.146; 1982.725;  287.675;    0.000
456.191; 1955.725;  280.675;    0.000
456.236; 2005.725;  229.675;    0.000
456.281; 2013.725;  241.675;    0.000
456.326; 2033.725;  248.675;    0.000
456.371; 1904.725;  233.675;    0.000
456.416; 1978.725;  284.675;    0.000
456.461; 1989.725;  256.675;    0.000
456.507; 2019.725;  250.675;    0.000
456.552; 2001.725;  290.675;    0.000
456.597; 2023.725;  260.675;    0.000
456.642; 2014.725;  252.675;    0.000
456.687; 2069.725;  272.675;    0.000
456.732; 2098.725;  303.675;    0.000
456.776; 2011.725;  269.675;    0.000
456.821; 2024.725;  256.675;    0.000
456.866; 1978.725;  278.675;    0.000
456.911; 2031.725;  230.675;    0.000
456.956; 2058.725;  275.675;    0.000
457.001; 1984.725;  248.675;    0.000
457.046; 2019.725;  222.675;    0.000
457.091; 1996.725;  251.675;    0.000
457.136; 1994.725;  231.675;    0.000
457.181; 2030.725;  245.675;    0.000
457.225; 2021.725;  262.675;    0.000
457.270; 2046.725;  277.675;    0.000
457.315; 2071.725;  235.675;    0.000
457.360; 2000.725;  231.675;    0.000
457.405; 1962.725;  214.675;    0.000
457.450; 2013.725;  255.675;    0.000
457.494; 2002.725;  220.675;    0.000
457.539; 2042.725;  257.675;    0.000
457.584; 2047.725;  279.675;    0.000
457.629; 2012.725;  249.675;    0.000
457.673; 2037.725;  237.675;    0.000
457.718; 2052.725;  232.675;    0.000
457.763; 2072.725;  278.675;    0.000
457.807; 2012.725;  279.675;    0.000
457.852; 2073.725;  246.675;    0.000
457.897; 2149.725;  284.675;    0.000
457.941; 2019.725;  272.675;    0.000
457.986; 2015.725;  285.675;    0.000
458.031; 2061.725;  235.675;    0.000
458.075; 2039.725;  299.675;    0.000
458.120; 2063.725;  284.675;    0.000
458.165; 2036.725;  212.675;    0.000
458.209; 2120.725;  254.675;    0.000
458.254; 2081.725;  257.675;    0.000
458.298; 2072.725;  265.675;    0.000
458.343; 2132.725;  278.675;    0.000
458.387; 2013.725;  316.675;    0.000
458.432; 2147.725;  279.675;    0.000
458.476; 2087.725;  272.675;    0.000
458.521; 2121.725;  240.675;    0.000
458.565; 2151.725;  307.675;    0.000
458.610; 2151.725;  246.675;    0.000
458.654; 2102.725;  275.675;    0.000
458.699; 2118.725;  288.675;    0.000
458.743; 2165.725;  244.675;    0.000
458.788; 2156.725;  245.675;    0.000
458.832; 2152.725;  277.675;    0.000
458.877; 2104.725;  285.675;    0.000
458.921; 2138.725;  216.675;    0.000
458.965; 2183.725;  260.675;    0.000
459.010; 2209.725;  284.675;    0.000
459.054; 2133.725;  272.675;    0.000
459.099; 2169.725;  262.675;    0.000
459.143; 2148.725;  276.675;    0.000
459.187; 2150.725;  258.675;    0.000
459.231; 2179.725;  278.675;    0.000
459.276; 2205.725;  262.675;    0.000
459.320; 2157.725;  291.675;    0.000
459.364; 2241.725;  294.675;    0.000
459.409; 2206.725;  269.675;    0.000
459.453; 2310.725;  257.675;    0.000
459.497; 2165.725;  283.675;    0.000
459.541; 2173.725;  275.675;    0.000
459.586; 2233.725;  261.675;    0.000
459.630; 2294.725;  284.675;    0.000
459.674; 2204.725;  244.675;    0.000
459.718; 2219.725;  309.675;    0.000
459.762; 2291.725;  281.675;    0.000
459.807; 2303.725;  250.675;    0.000
459.851; 2196.725;  286.675;    0.000
459.895; 2207.725;  230.675;    0.000
459.939; 2186.725;  262.675;    0.000
459.983; 2180.725;  250.675;    0.000
460.027; 2250.725;  275.675;    0.000
460.071; 2279.725;  301.675;    0.000
460.115; 2240.725;  279.675;    0.000
460.159; 2298.725;  301.675;    0.000
460.204; 2247.725;  287.675;    0.000
460.248; 2240.725;  293.675;    0.000
460.292; 2286.725;  310.675;    0.000
460.336; 2199.725;  263.675;    0.000
460.380; 2286.725;  268.675;    0.000
460.424; 2222.725;  281.675;    0.000
460.468; 2285.725;  310.675;    0.000
460.512; 2294.725;  273.675;    0.000
460.556; 2270.725;  291.675;    0.000
460.599; 2262.725;  240.675;    0.000
460.643; 2256.725;  260.675;    0.000
460.687; 2203.725;  283.675;    0.000
460.731; 2368.725;  254.675;    0.000
460.775; 2254.725;  265.675;    0.000
460.819; 2262.725;  280.675;    0.000
460.863; 2281.725;  316.675;    0.000
460.907; 2264.725;  231.675;    0.000
460.951; 2265.725;  275.675;    0.000
460.995; 2304.725;  290.675;    0.000
461.038; 2368.725;  284.675;    0.000
461.082; 2369.725;  278.675;    0.000
461.126; 2349.725;  321.675;    0.000
461.170; 2297.725;  273.675;    0.000
461.214; 2357.725;  289.675;    0.000
461.257; 2273.725;  296.675;    0.000
461.301; 2381.725;  287.675;    0.000
461.345; 2399.725;  290.675;    0.000
461.389; 2273.725;  260.675;    0.000
461.432; 2295.725;  262.675;    0.000
461.476; 2229.725;  254.675;    0.000
461.520; 2273.725;  305.675;    0.000
461.563; 2238.725;  289.675;    0.000
461.607; 2323.725;  286.675;    0.000
461.651; 2352.725;  271.675;    0.000
461.694; 2351.725;  245.675;    0.000
461.738; 2335.725;  278.675;    0.000
461.782; 2280.725;  284.675;    0.000
461.825; 2432.725;  305.675;    0.000
461.869; 2315.725;  293.675;    0.000
461.913; 2382.725;  280.675;    0.000
461.956; 2368.725;  237.675;    0.000
462.000; 2437.725;  288.675;    0.000
462.043; 2405.725;  282.675;    0.000
462.087; 2380.725;  268.675;    0.000
462.130; 2404.725;  286.675;    0.000
462.174; 2429.725;  312.675;    0.000
462.217; 2365.725;  270.675;    0.000
462.261; 2469.725;  281.675;    0.000
462.304; 2431.725;  248.675;    0.000
462.348; 2293.725;  267.675;    0.000
462.391; 2371.725;  270.675;    0.000
462.435; 2443.725;  287.675;    0.000
462.478; 2397.725;  290.675;    0.000
462.522; 2432.725;  296.675;    0.000
462.565; 2471.725;  275.675;    0.000
462.608; 2484.725;  325.675;    0.000
462.652; 2404.725;  303.675;    0.000
462.695; 2561.725;  355.675;    0.000
462.739; 2389.725;  272.675;    0.000
462.782; 2458.725;  295.675;    0.000
462.825; 2501.725;  300.675;    0.000
462.869; 2543.725;  319.675;    0.000
462.912; 2561.725;  363.675;    0.000
462.955; 2535.725;  298.675;    0.000
462.998; 2562.725;  321.675;    0.000
463.042; 2525.725;  310.675;    0.000
463.085; 2528.725;  305.675;    0.000
463.128; 2585.725;  345.675;    0.000
463.172; 2484.725;  341.675;    0.000
463.215;  372.725;  300.675;    0.000
463.258;  307.725;  287.675;    0.000
463.301;  317.725;  290.675;    0.000
463.344;  319.725;  320.675;    0.000
463.388;  321.725;  340.675;    0.000
463.431;  277.725;  278.675;    0.000
463.474;  322.725;  353.675;    0.000
463.517;  329.725;  295.675;    0.000
463.560;  324.725;  328.675;    0.000
463.603;  345.725;  316.675;    0.000
463.646;  323.725;  295.675;    0.000
463.690;  320.725;  334.675;    0.000
463.733;  315.725;  343.675;    0.000
463.776;  269.725;  300.675;    0.000
463.819;  323.725;  368.675;    0.000
463.862;  302.725;  327.675;    0.000

