
Integration time [ms]:   0.300
Averaging Nr. [scans]: 1
Smoothing Nr. [pixels]: 0
Data measured with spectrometer [name]: NIR
Wave   ;Sample   ;Dark     ;Reference
[nm]   ;[counts] ;[counts] ;[counts] 

691.496;    5.775;  155.525;    0.000
691.696;   40.775;  186.525;    0.000
691.896;  -32.225;  113.525;    0.000
692.096;   24.775;  169.525;    0.000
692.296;  -16.225;  119.525;    0.000
692.496;   67.775;  182.525;    0.000
692.695;  -12.225;  119.525;    0.000
692.895;   42.775;  183.525;    0.000
693.095;  -26.225;  119.525;    0.000
693.295;   22.775;  156.525;    0.000
693.495;   20.775;  145.525;    0.000
693.695;   -5.225;  144.525;    0.000
693.894;  -29.225;  174.525;    0.000
694.094;    1.775;  148.525;    0.000
694.294;  -13.225;  114.525;    0.000
694.494;  389.775;  137.525;    0.000
694.693; 3516.775;  112.525;    0.000
694.893; 3824.775;   85.525;    0.000
695.093; 3959.775;  152.525;    0.000
695.293; 4012.775;  159.525;    0.000
695.492; 3979.775;  131.525;    0.000
695.692; 3959.775;  134.525;    0.000
695.891; 4053.775;  161.525;    0.000
696.091; 4118.775;  180.525;    0.000
696.291; 4007.775;  120.525;    0.000
696.490; 4148.775;  146.525;    0.000
696.690; 4294.775;  145.525;    0.000
696.889; 4129.775;  171.525;    0.000
697.089; 4134.775;   98.525;    0.000
697.288; 4164.775;  172.525;    0.000
697.488; 4167.775;  137.525;    0.000
697.687; 4188.775;  171.525;    0.000
697.887; 4147.775;  142.525;    0.000
698.086; 4238.775;  159.525;    0.000
698.286; 4129.775;  122.525;    0.000
698.485; 4132.775;  121.525;    0.000
698.684; 4205.775;   94.525;    0.000
698.884; 4270.775;  131.525;    0.000
699.083; 4100.775;  112.525;    0.000
699.282; 4159.775;  119.525;    0.000
699.482; 4155.775;  117.525;    0.000
699.681; 4177.775;  115.525;    0.000
699.880; 4234.775;  166.525;    0.000
700.080; 4373.775;  194.525;    0.000
700.279; 4244.775;   98.525;    0.000
700.478; 4220.775;  159.525;    0.000
700.677; 4229.775;  134.525;    0.000
700.877; 4240.775;  171.525;    0.000
701.076; 4297.775;  141.525;    0.000
701.275; 4095.775;  119.525;    0.000
701.474; 4187.775;  132.525;    0.000
701.673; 4259.775;  141.525;    0.000
701.872; 4351.775;  158.525;    0.000
702.071; 4291.775;  129.525;    0.000
702.271; 4310.775;  122.525;    0.000
702.470; 4464.775;  158.525;    0.000
702.669; 4420.775;  145.525;    0.000
702.868; 4318.775;  135.525;    0.000
703.067; 4466.775;  169.525;    0.000
703.266; 4338.775;  125.525;    0.000
703.465; 4221.775;  153.525;    0.000
703.664; 4335.775;  113.525;    0.000
703.863; 4440.775;  170.525;    0.000
704.062; 4292.775;  115.525;    0.000
704.260; 4320.775;  133.525;    0.000
704.459; 4387.775;  123.525;    0.000
704.658; 4408.775;  105.525;    0.000
704.857; 4391.775;  125.525;    0.000
705.056; 4385.775;  108.525;    0.000
705.255; 4329.775;  117.525;    0.000
705.454; 4424.775;  126.525;    0.000
705.652; 4395.775;  137.525;    0.000
705.851; 4446.775;   95.525;    0.000
706.050; 4439.775;  120.525;    0.000
706.249; 4269.775;   81.525;    0.000
706.447; 4417.775;  105.525;    0.000
706.646; 4432.775;  107.525;    0.000
706.845; 4438.775;  104.525;    0.000
707.043; 4346.775;  136.525;    0.000
707.242; 4561.775;   89.525;    0.000
707.441; 4407.775;  147.525;    0.000
707.639; 4451.775;  156.525;    0.000
707.838; 4582.775;  114.525;    0.000
708.037; 4392.775;  100.525;    0.000
708.235; 4495.775;  103.525;    0.000
708.434; 4524.775;  102.525;    0.000
708.632; 4566.775;  100.525;    0.000
708.831; 4514.775;  121.525;    0.000
709.029; 4601.775;  102.525;    0.000
709.228; 4566.775;   88.525;    0.000
709.426; 4631.775;  135.525;    0.000
709.625; 4640.775;  128.525;    0.000
709.823; 4602.775;  123.525;    0.000
710.022; 4639.775;  137.525;    0.000
710.220; 4602.775;  134.525;    0.000
710.418; 4682.775;  122.525;    0.000
710.617; 4659.775;   64.525;    0.000
710.815; 4670.775;   94.525;    0.000
711.013; 4594.775;  127.525;    0.000
711.212; 4622.775;  105.525;    0.000
711.410; 4730.775;  117.525;    0.000
711.608; 4788.775;  114.525;    0.000
711.807; 4648.775;  119.525;    0.000
712.005; 4640.775;   92.525;    0.000
712.203; 4694.775;   95.525;    0.000
712.401; 4670.775;  107.525;    0.000
712.599; 4721.775;  127.525;    0.000
712.798; 4731.775;  120.525;    0.000
712.996; 4651.775;   76.525;    0.000
713.194; 4816.775;  118.525;    0.000
713.392; 4804.775;   60.525;    0.000
713.590; 4897.775;   92.525;    0.000
713.788; 4768.775;  110.525;    0.000
713.986; 4908.775;  130.525;    0.000
714.184; 4881.775;   71.525;    0.000
714.382; 5133.775;   86.525;    0.000
714.580; 4959.775;   74.525;    0.000
714.778; 5161.775;  133.525;    0.000
714.976; 5097.775;   81.525;    0.000
715.174; 5229.775;  100.525;    0.000
715.372; 5393.775;  141.525;    0.000
715.570; 5704.775;   73.525;    0.000
715.768; 6029.775;  119.525;    0.000
715.966; 5995.775;   81.525;    0.000
716.164; 5967.775;  130.525;    0.000
716.362; 5903.775;  125.525;    0.000
716.560; 5787.775;  109.525;    0.000
716.758; 5611.775;   96.525;    0.000
716.955; 5528.775;   83.525;    0.000
717.153; 5472.775;   87.525;    0.000
717.351; 5452.775;  123.525;    0.000
717.549; 5496.775;  121.525;    0.000
717.746; 5322.775;  128.525;    0.000
717.944; 5379.775;  132.525;    0.000
718.142; 5221.775;  120.525;    0.000
718.340; 5337.775;   94.525;    0.000
718.537; 5309.775;   95.525;    0.000
718.735; 5276.775;  152.525;    0.000
718.933; 5330.775;  124.525;    0.000
719.130; 5173.775;  114.525;    0.000
719.328; 5189.775;   63.525;    0.000
719.525; 5311.775;  146.525;    0.000
719.723; 5265.775;   96.525;    0.000
719.920; 5248.775;  120.525;    0.000
720.118; 5257.775;   59.525;    0.000
720.316; 5443.775;  116.525;    0.000
720.513; 5306.775;  127.525;    0.000
720.711; 5171.775;  110.525;    0.000
720.908; 5381.775;   92.525;    0.000
721.105; 5417.775;  138.525;    0.000
721.303; 5222.775;   90.525;    0.000
721.500; 5250.775;  126.525;    0.000
721.698; 5306.775;  103.525;    0.000
721.895; 5321.775;  206.525;    0.000
722.092; 5411.775;   63.525;    0.000
722.290; 5350.775;  123.525;    0.000
722.487; 5332.775;  137.525;    0.000
722.684; 5282.775;  126.525;    0.000
722.882; 5279.775;  119.525;    0.000
723.079; 5228.775;  132.525;    0.000
723.276; 5326.775;   98.525;    0.000
723.473; 5405.775;   97.525;    0.000
723.671; 5268.775;   43.525;    0.000
723.868; 5392.775;  142.525;    0.000
724.065; 5497.775;  102.525;    0.000
724.262; 5480.775;  119.525;    0.000
724.459; 5327.775;   73.525;    0.000
724.656; 5419.775;  128.525;    0.000
724.854; 5555.775;  135.525;    0.000
725.051; 5447.775;   81.525;    0.000
725.248; 5387.775;   88.525;    0.000
725.445; 5574.775;  129.525;    0.000
725.642; 5356.775;   76.525;    0.000
725.839; 5438.775;  134.525;    0.000
726.036; 5458.775;  101.525;    0.000
726.233; 5490.775;   68.525;    0.000
726.430; 5496.775;  121.525;    0.000
726.627; 5489.775;  136.525;    0.000
726.824; 5492.775;   87.525;    0.000
727.021; 5548.775;  141.525;    0.000
727.218; 5404.775;   92.525;    0.000
727.414; 5349.775;  121.525;    0.000
727.611; 5477.775;  100.525;    0.000
727.808; 5495.775;  130.525;    0.000
728.005; 5449.775;   83.525;    0.000
728.202; 5559.775;  120.525;    0.000
728.399; 5553.775;   75.525;    0.000
728.595; 5505.775;  148.525;    0.000
728.792; 5630.775;   79.525;    0.000
728.989; 5531.775;   86.525;    0.000
729.186; 5602.775;   80.525;    0.000
729.382; 5513.775;   72.525;    0.000
729.579; 5549.775;  112.525;    0.000
729.776; 5640.775;  106.525;    0.000
729.972; 5554.775;   77.525;    0.000
730.169; 5624.775;  118.525;    0.000
730.366; 5533.775;   92.525;    0.000
730.562; 5515.775;  104.525;    0.000
730.759; 5607.775;   95.525;    0.000
730.955; 5630.775;   85.525;    0.000
731.152; 5567.775;   79.525;    0.000
731.348; 5529.775;   72.525;    0.000
731.545; 5516.775;   56.525;    0.000
731.741; 5644.775;  106.525;    0.000
731.938; 5724.775;  113.525;    0.000
732.134; 5502.775;  106.525;    0.000
732.331; 5621.775;   82.525;    0.000
732.527; 5759.775;   80.525;    0.000
732.724; 5443.775;   97.525;    0.000
732.920; 5545.775;  127.525;    0.000
733.116; 5540.775;  115.525;    0.000
733.313; 5759.775;  153.525;    0.000
733.509; 5698.775;   76.525;    0.000
733.705; 5646.775;  159.525;    0.000
733.902; 5667.775;   82.525;    0.000
734.098; 5675.775;   70.525;    0.000
734.294; 5650.775;  105.525;    0.000
734.490; 5828.775;  110.525;    0.000
734.687; 5740.775;  102.525;    0.000
734.883; 5684.775;   77.525;    0.000
735.079; 5786.775;   93.525;    0.000
735.275; 5786.775;  109.525;    0.000
735.471; 5721.775;   99.525;    0.000
735.667; 5715.775;  107.525;    0.000
735.863; 5687.775;   89.525;    0.000
736.060; 5850.775;  105.525;    0.000
736.256; 5740.775;  113.525;    0.000
736.452; 5723.775;   90.525;    0.000
736.648; 5672.775;   88.525;    0.000
736.844; 5798.775;  129.525;    0.000
737.040; 5856.775;  139.525;    0.000
737.236; 5901.775;  129.525;    0.000
737.432; 5834.775;   67.525;    0.000
737.628; 5949.775;  104.525;    0.000
737.824; 5894.775;  111.525;    0.000
738.019; 5979.775;  116.525;    0.000
738.215; 6041.775;  135.525;    0.000
738.411; 5964.775;  118.525;    0.000
738.607; 5949.775;   58.525;    0.000
738.803; 5902.775;   32.525;    0.000
738.999; 6182.775;  120.525;    0.000
739.195; 6111.775;   76.525;    0.000
739.390; 6011.775;  119.525;    0.000
739.586; 6055.775;   83.525;    0.000
739.782; 6084.775;  134.525;    0.000
739.978; 6316.775;  122.525;    0.000
740.173; 6204.775;   96.525;    0.000
740.369; 6118.775;   86.525;    0.000
740.565; 6270.775;  122.525;    0.000
740.760; 6313.775;   99.525;    0.000
740.956; 6287.775;  137.525;    0.000
741.152; 6287.775;  108.525;    0.000
741.347; 6378.775;   65.525;    0.000
741.543; 6328.775;   73.525;    0.000
741.738; 6557.775;  142.525;    0.000
741.934; 6720.775;  131.525;    0.000
742.129; 7126.775;   66.525;    0.000
742.325; 7828.775;  143.525;    0.000
742.520; 8637.775;  119.525;    0.000
742.716; 8303.775;  109.525;    0.000
742.911; 7755.775;   62.525;    0.000
743.107; 7582.775;  119.525;    0.000
743.302; 7447.775;   78.525;    0.000
743.498; 7511.775;  130.525;    0.000
743.693; 7740.775;   75.525;    0.000
743.888; 8072.775;  135.525;    0.000
744.084; 9078.775;  106.525;    0.000
744.279;10878.775;  101.525;    0.000
744.474;11146.775;   91.525;    0.000
744.670;10039.775;  144.525;    0.000
744.865; 9359.775;  128.525;    0.000
745.060; 8784.775;   63.525;    0.000
745.255; 8464.775;  155.525;    0.000
745.451; 8276.775;  110.525;    0.000
745.646; 8194.775;  150.525;    0.000
745.841; 8154.775;  128.525;    0.000
746.036; 8159.775;  110.525;    0.000
746.231; 8387.775;  126.525;    0.000
746.426; 8799.775;   83.525;    0.000
746.622; 9988.775;  157.525;    0.000
746.817;13064.775;  112.525;    0.000
747.012;14768.775;  115.525;    0.000
747.207;13046.775;  161.525;    0.000
747.402;11750.775;   88.525;    0.000
747.597;10725.775;  103.525;    0.000
747.792;10321.775;  152.525;    0.000
747.987; 9839.775;   80.525;    0.000
748.182; 9450.775;   89.525;    0.000
748.377; 9096.775;  104.525;    0.000
748.572; 8815.775;  138.525;    0.000
748.767; 8503.775;  100.525;    0.000
748.961; 8080.775;  106.525;    0.000
749.156; 8032.775;  113.525;    0.000
749.351; 7731.775;  116.525;    0.000
749.546; 7690.775;  107.525;    0.000
749.741; 7474.775;  102.525;    0.000
749.936; 7559.775;  105.525;    0.000
750.130; 7391.775;  111.525;    0.000
750.325; 7370.775;   72.525;    0.000
750.520; 7224.775;   96.525;    0.000
750.715; 7240.775;  135.525;    0.000
750.909; 7218.775;  107.525;    0.000
751.104; 7274.775;  106.525;    0.000
751.299; 7230.775;  144.525;    0.000
751.493; 7155.775;  116.525;    0.000
751.688; 7015.775;   96.525;    0.000
751.882; 6968.775;   92.525;    0.000
752.077; 7014.775;  109.525;    0.000
752.272; 6920.775;   96.525;    0.000
752.466; 6866.775;  110.525;    0.000
752.661; 6800.775;  120.525;    0.000
752.855; 6857.775;   70.525;    0.000
753.050; 6812.775;  129.525;    0.000
753.244; 6797.775;  126.525;    0.000
753.439; 6638.775;  115.525;    0.000
753.633; 6701.775;  120.525;    0.000
753.828; 6567.775;  129.525;    0.000
754.022; 6743.775;  139.525;    0.000
754.216; 6617.775;  121.525;    0.000
754.411; 6516.775;  108.525;    0.000
754.605; 6653.775;   94.525;    0.000
754.799; 6622.775;  125.525;    0.000
754.994; 6610.775;  160.525;    0.000
755.188; 6617.775;  151.525;    0.000
755.382; 6515.775;  102.525;    0.000
755.576; 6523.775;  103.525;    0.000
755.771; 6536.775;   99.525;    0.000
755.965; 6480.775;  158.525;    0.000
756.159; 6435.775;   96.525;    0.000
756.353; 6544.775;  157.525;    0.000
756.547; 6250.775;  132.525;    0.000
756.742; 6507.775;  106.525;    0.000
756.936; 6367.775;  113.525;    0.000
757.130; 6496.775;  114.525;    0.000
757.324; 6399.775;  111.525;    0.000
757.518; 6468.775;  142.525;    0.000
757.712; 6454.775;  137.525;    0.000
757.906; 6492.775;   93.525;    0.000
758.100; 6479.775;  119.525;    0.000
758.294; 6512.775;  132.525;    0.000
758.488; 6457.775;  153.525;    0.000
758.682; 6318.775;  101.525;    0.000
758.876; 6343.775;  129.525;    0.000
759.070; 6370.775;  168.525;    0.000
759.264; 6339.775;   96.525;    0.000
759.458; 6305.775;  117.525;    0.000
759.651; 6332.775;  135.525;    0.000
759.845; 6500.775;  127.525;    0.000
760.039; 6300.775;  120.525;    0.000
760.233; 6534.775;  124.525;    0.000
760.427; 6337.775;  115.525;    0.000
760.620; 6441.775;  130.525;    0.000
760.814; 6327.775;  102.525;    0.000
761.008; 6409.775;  174.525;    0.000
761.202; 6454.775;  132.525;    0.000
761.395; 6331.775;  126.525;    0.000
761.589; 6489.775;  133.525;    0.000
761.783; 6390.775;  147.525;    0.000
761.976; 6527.775;  147.525;    0.000
762.170; 6486.775;  174.525;    0.000
762.363; 6498.775;   97.525;    0.000
762.557; 6395.775;  141.525;    0.000
762.750; 6440.775;  112.525;    0.000
762.944; 6500.775;  110.525;    0.000
763.138; 6498.775;  125.525;    0.000
763.331; 6534.775;  101.525;    0.000
763.524; 6608.775;  101.525;    0.000
763.718; 6655.775;  156.525;    0.000
763.911; 6719.775;  143.525;    0.000
764.105; 6542.775;  139.525;    0.000
764.298; 6476.775;   89.525;    0.000
764.492; 6507.775;  111.525;    0.000
764.685; 6588.775;  136.525;    0.000
764.878; 6596.775;  146.525;    0.000
765.072; 6576.775;  110.525;    0.000
765.265; 6577.775;  141.525;    0.000
765.458; 6434.775;   82.525;    0.000
765.651; 6593.775;  144.525;    0.000
765.845; 6473.775;   79.525;    0.000
766.038; 6725.775;  123.525;    0.000
766.231; 7565.775;  125.525;    0.000
766.424;11742.775;  131.525;    0.000
766.617;12149.775;   62.525;    0.000
766.811; 7201.775;  142.525;    0.000
767.004; 6843.775;  134.525;    0.000
767.197; 6783.775;  147.525;    0.000
767.390; 6800.775;  100.525;    0.000
767.583; 6787.775;  121.525;    0.000
767.776; 6649.775;   91.525;    0.000
767.969; 6696.775;  113.525;    0.000
768.162; 6840.775;  170.525;    0.000
768.355; 6679.775;  134.525;    0.000
768.548; 6894.775;  177.525;    0.000
768.741; 6809.775;   96.525;    0.000
768.934; 6795.775;  143.525;    0.000
769.127; 6969.775;  147.525;    0.000
769.320; 6950.775;   93.525;    0.000
769.513; 7200.775;  137.525;    0.000
769.706; 8147.775;   96.525;    0.000
769.898;11488.775;  118.525;    0.000
770.091; 8993.775;  138.525;    0.000
770.284; 7306.775;  133.525;    0.000
770.477; 7181.775;  137.525;    0.000
770.670; 7214.775;  124.525;    0.000
770.862; 7285.775;  125.525;    0.000
771.055; 7157.775;  135.525;    0.000
771.248; 7324.775;  109.525;    0.000
771.441; 7339.775;  141.525;    0.000
771.633; 7308.775;  142.525;    0.000
771.826; 7445.775;  123.525;    0.000
772.018; 7351.775;  136.525;    0.000
772.211; 7449.775;  145.525;    0.000
772.404; 7650.775;  127.525;    0.000
772.596; 7715.775;  193.525;    0.000
772.789; 7791.775;   64.525;    0.000
772.981; 7728.775;  142.525;    0.000
773.174; 7933.775;  105.525;    0.000
773.366; 8074.775;  166.525;    0.000
773.559; 8110.775;  125.525;    0.000
773.751; 8174.775;  126.525;    0.000
773.944; 8383.775;  147.525;    0.000
774.136; 8483.775;  155.525;    0.000
774.329; 8572.775;  127.525;    0.000
774.521; 8900.775;  133.525;    0.000
774.713; 9152.775;  139.525;    0.000
774.906; 9370.775;  170.525;    0.000
775.098; 9830.775;  144.525;    0.000
775.290;10165.775;  162.525;    0.000
775.483;10671.775;  137.525;    0.000
775.675;11307.775;  148.525;    0.000
775.867;12108.775;   81.525;    0.000
776.059;13096.775;  134.525;    0.000
776.251;14437.775;  137.525;    0.000
776.444;16376.775;  155.525;    0.000
776.636;19142.775;  148.525;    0.000
776.828;23649.775;  129.525;    0.000
777.020;33247.773;  133.525;    0.000
777.212;48839.773;  137.525;    0.000
777.404;54483.773;  124.525;    0.000
777.596;50440.773;  142.525;    0.000
777.788;37595.773;  155.525;    0.000
777.980;28874.775;  119.525;    0.000
778.172;23640.775;  129.525;    0.000
778.364;20108.775;  122.525;    0.000
778.556;17699.775;  129.525;    0.000
778.748;16042.775;  178.525;    0.000
778.940;14662.775;  128.525;    0.000
779.132;13363.775;  145.525;    0.000
779.324;12443.775;   89.525;    0.000
779.516;11768.775;  161.525;    0.000
779.708;11176.775;  183.525;    0.000
779.900;10696.775;  124.525;    0.000
780.091;10068.775;  143.525;    0.000
780.283; 9754.775;  135.525;    0.000
780.475; 9455.775;  129.525;    0.000
780.667; 9069.775;  178.525;    0.000
780.859; 8991.775;  146.525;    0.000
781.050; 8641.775;  156.525;    0.000
781.242; 8386.775;  138.525;    0.000
781.434; 8508.775;  117.525;    0.000
781.625; 8283.775;  161.525;    0.000
781.817; 7998.775;  127.525;    0.000
782.008; 7901.775;  138.525;    0.000
782.200; 7860.775;  139.525;    0.000
782.392; 7705.775;  179.525;    0.000
782.583; 7594.775;  137.525;    0.000
782.775; 7564.775;  162.525;    0.000
782.966; 7335.775;  159.525;    0.000
783.158; 7323.775;  118.525;    0.000
783.349; 7201.775;  160.525;    0.000
783.541; 7184.775;  139.525;    0.000
783.732; 7067.775;  145.525;    0.000
783.924; 7082.775;  146.525;    0.000
784.115; 7062.775;  125.525;    0.000
784.306; 6897.775;  118.525;    0.000
784.498; 6979.775;  144.525;    0.000
784.689; 7034.775;  145.525;    0.000
784.880; 6908.775;  137.525;    0.000
785.072; 6704.775;  157.525;    0.000
785.263; 6763.775;  149.525;    0.000
785.454; 6794.775;  128.525;    0.000
785.645; 6614.775;  131.525;    0.000
785.837; 6679.775;  137.525;    0.000
786.028; 6809.775;  161.525;    0.000
786.219; 6652.775;  155.525;    0.000
786.410; 6730.775;  146.525;    0.000
786.601; 6674.775;  120.525;    0.000
786.792; 6714.775;  179.525;    0.000
786.984; 6713.775;  113.525;    0.000
787.175; 6695.775;  156.525;    0.000
787.366; 6712.775;  131.525;    0.000
787.557; 6656.775;  138.525;    0.000
787.748; 6678.775;  112.525;    0.000
787.939; 6705.775;  115.525;    0.000
788.130; 6722.775;  150.525;    0.000
788.321; 6619.775;  122.525;    0.000
788.512; 6843.775;  147.525;    0.000
788.703; 6856.775;  126.525;    0.000
788.894; 6721.775;   80.525;    0.000
789.084; 6784.775;  127.525;    0.000
789.275; 6802.775;  141.525;    0.000
789.466; 6904.775;  108.525;    0.000
789.657; 6851.775;  137.525;    0.000
789.848; 6787.775;  126.525;    0.000
790.039; 6841.775;  144.525;    0.000
790.229; 6962.775;  105.525;    0.000
790.420; 6911.775;   96.525;    0.000
790.611; 6708.775;  171.525;    0.000
790.801; 6886.775;   89.525;    0.000
790.992; 6943.775;  140.525;    0.000
791.183; 6894.775;  143.525;    0.000
791.373; 6720.775;  128.525;    0.000
791.564; 6903.775;   96.525;    0.000
791.755; 6740.775;  111.525;    0.000
791.945; 6820.775;  112.525;    0.000
792.136; 6776.775;  124.525;    0.000
792.326; 6807.775;   88.525;    0.000
792.517; 6948.775;  130.525;    0.000
792.707; 6895.775;  144.525;    0.000
792.898; 6987.775;  120.525;    0.000
793.088; 7095.775;  106.525;    0.000
793.279; 7090.775;  104.525;    0.000
793.469; 7163.775;  103.525;    0.000
793.660; 7364.775;  120.525;    0.000
793.850; 7474.775;  106.525;    0.000
794.040; 7572.775;  135.525;    0.000
794.231; 7892.775;   80.525;    0.000
794.421; 8388.775;  120.525;    0.000
794.611; 9445.775;  154.525;    0.000
794.802;10940.775;  103.525;    0.000
794.992;11673.775;  120.525;    0.000
795.182;11749.775;  156.525;    0.000
795.372;11063.775;  104.525;    0.000
795.563; 9911.775;  153.525;    0.000
795.753; 9249.775;  112.525;    0.000
795.943; 8663.775;  128.525;    0.000
796.133; 7997.775;  128.525;    0.000
796.323; 7914.775;  152.525;    0.000
796.513; 7530.775;  123.525;    0.000
796.703; 7429.775;  134.525;    0.000
796.893; 7394.775;  120.525;    0.000
797.083; 7141.775;  136.525;    0.000
797.273; 6986.775;  128.525;    0.000
797.463; 6852.775;  140.525;    0.000
797.653; 6665.775;   75.525;    0.000
797.843; 6714.775;  114.525;    0.000
798.033; 6633.775;   90.525;    0.000
798.223; 6446.775;  136.525;    0.000
798.413; 6437.775;  164.525;    0.000
798.603; 6235.775;  150.525;    0.000
798.793; 6308.775;  137.525;    0.000
798.983; 6165.775;  119.525;    0.000
799.172; 6244.775;  136.525;    0.000
799.362; 6169.775;  138.525;    0.000
799.552; 6210.775;  123.525;    0.000
799.742; 6071.775;  117.525;    0.000
799.932; 5993.775;  108.525;    0.000
800.121; 5993.775;  152.525;    0.000
800.311; 6011.775;  117.525;    0.000
800.501; 6042.775;  100.525;    0.000
800.690; 5924.775;  139.525;    0.000
800.880; 5849.775;  138.525;    0.000
801.070; 6005.775;  120.525;    0.000
801.259; 5946.775;  143.525;    0.000
801.449; 5814.775;  110.525;    0.000
801.638; 5883.775;  140.525;    0.000
801.828; 5941.775;  103.525;    0.000
802.017; 6033.775;   78.525;    0.000
802.207; 5884.775;  126.525;    0.000
802.396; 5806.775;  151.525;    0.000
802.586; 5746.775;  106.525;    0.000
802.775; 5743.775;  152.525;    0.000
802.965; 5759.775;  117.525;    0.000
803.154; 5765.775;  171.525;    0.000
803.343; 5738.775;  126.525;    0.000
803.533; 5632.775;  135.525;    0.000
803.722; 5722.775;  144.525;    0.000
803.911; 5834.775;  109.525;    0.000
804.101; 5613.775;  146.525;    0.000
804.290; 5722.775;  115.525;    0.000
804.479; 5705.775;  128.525;    0.000
804.668; 5666.775;  156.525;    0.000
804.857; 5748.775;  151.525;    0.000
805.047; 5679.775;  131.525;    0.000
805.236; 5806.775;  144.525;    0.000
805.425; 5747.775;  160.525;    0.000
805.614; 5766.775;  112.525;    0.000
805.803; 5783.775;  120.525;    0.000
805.992; 5710.775;  148.525;    0.000
806.181; 5670.775;  108.525;    0.000
806.370; 5878.775;  142.525;    0.000
806.559; 5846.775;  116.525;    0.000
806.748; 5718.775;  108.525;    0.000
806.937; 5770.775;  110.525;    0.000
807.126; 5676.775;  126.525;    0.000
807.315; 5754.775;  121.525;    0.000
807.504; 5620.775;  102.525;    0.000
807.693; 5714.775;  134.525;    0.000
807.882; 5662.775;  135.525;    0.000
808.071; 5813.775;  135.525;    0.000
808.260; 5760.775;   93.525;    0.000
808.448; 5953.775;  151.525;    0.000
808.637; 5850.775;  105.525;    0.000
808.826; 5746.775;  178.525;    0.000
809.015; 5731.775;  152.525;    0.000
809.203; 5927.775;  147.525;    0.000
809.392; 5925.775;  144.525;    0.000
809.581; 6014.775;  167.525;    0.000
809.770; 5924.775;  151.525;    0.000
809.958; 5952.775;  128.525;    0.000
810.147; 6056.775;  152.525;    0.000
810.335; 6017.775;  160.525;    0.000
810.524; 6172.775;  130.525;    0.000
810.713; 6137.775;  128.525;    0.000
810.901; 6189.775;  140.525;    0.000
811.090; 6273.775;  152.525;    0.000
811.278; 6303.775;  126.525;    0.000
811.467; 6569.775;  161.525;    0.000
811.655; 6543.775;  184.525;    0.000
811.844; 6623.775;  148.525;    0.000
812.032; 6589.775;  138.525;    0.000
812.220; 6468.775;  157.525;    0.000
812.409; 6583.775;  143.525;    0.000
812.597; 6586.775;  124.525;    0.000
812.785; 6710.775;  170.525;    0.000
812.974; 6583.775;  135.525;    0.000
813.162; 6731.775;  135.525;    0.000
813.350; 6900.775;  182.525;    0.000
813.539; 6798.775;  126.525;    0.000
813.727; 6856.775;  127.525;    0.000
813.915; 7006.775;  140.525;    0.000
814.103; 7156.775;  176.525;    0.000
814.291; 7263.775;  115.525;    0.000
814.479; 7232.775;  119.525;    0.000
814.668; 7389.775;  134.525;    0.000
814.856; 7468.775;  120.525;    0.000
815.044; 7653.775;  164.525;    0.000
815.232; 7876.775;  146.525;    0.000
815.420; 7807.775;  154.525;    0.000
815.608; 8069.775;  137.525;    0.000
815.796; 8219.775;  108.525;    0.000
815.984; 8477.775;  134.525;    0.000
816.172; 8613.775;  123.525;    0.000
816.360; 9090.775;  181.525;    0.000
816.548; 9377.775;  139.525;    0.000
816.736; 9710.775;  138.525;    0.000
816.924;10091.775;  151.525;    0.000
817.111;10973.775;  156.525;    0.000
817.299;11744.775;  147.525;    0.000
817.487;12691.775;  188.525;    0.000
817.675;14472.775;  129.525;    0.000
817.863;17194.775;  128.525;    0.000
818.050;24123.775;  110.525;    0.000
818.238;43215.773;  166.525;    0.000
818.426;59202.773;  136.525;    0.000
818.613;43391.773;  143.525;    0.000
818.801;34916.773;  150.525;    0.000
818.989;32650.775;  179.525;    0.000
819.176;35948.773;  123.525;    0.000
819.364;52328.773;  148.525;    0.000
819.552;65161.773;   86.525;    0.000
819.739;54021.773;  169.525;    0.000
819.927;39698.773;  130.525;    0.000
820.114;32319.775;  144.525;    0.000
820.302;27925.775;  166.525;    0.000
820.489;24700.775;  145.525;    0.000
820.677;22525.775;  101.525;    0.000
820.864;21126.775;  149.525;    0.000
821.052;20744.775;  130.525;    0.000
821.239;20505.775;  147.525;    0.000
821.426;20699.775;  121.525;    0.000
821.614;23725.775;  187.525;    0.000
821.801;24580.775;  105.525;    0.000
821.988;21807.775;  167.525;    0.000
822.176;20677.775;  130.525;    0.000
822.363;20750.775;  143.525;    0.000
822.550;19517.775;  108.525;    0.000
822.737;17125.775;  109.525;    0.000
822.924;15966.775;  156.525;    0.000
823.112;15241.775;  123.525;    0.000
823.299;14362.775;  128.525;    0.000
823.486;13837.775;  138.525;    0.000
823.673;12973.775;  125.525;    0.000
823.860;12692.775;  138.525;    0.000
824.047;12647.775;  122.525;    0.000
824.234;13672.775;  134.525;    0.000
824.421;13825.775;   95.525;    0.000
824.608;12463.775;  151.525;    0.000
824.795;11535.775;  117.525;    0.000
824.982;10758.775;  143.525;    0.000
825.169;10173.775;   83.525;    0.000
825.356; 9637.775;  126.525;    0.000
825.543; 9444.775;   92.525;    0.000
825.730; 9084.775;  113.525;    0.000
825.917; 8668.775;  142.525;    0.000
826.104; 8321.775;  182.525;    0.000
826.290; 8133.775;  137.525;    0.000
826.477; 7987.775;  126.525;    0.000
826.664; 7631.775;  135.525;    0.000
826.851; 7529.775;  139.525;    0.000
827.038; 7337.775;  135.525;    0.000
827.224; 7197.775;  143.525;    0.000
827.411; 7122.775;  153.525;    0.000
827.598; 6986.775;  122.525;    0.000
827.784; 6729.775;  138.525;    0.000
827.971; 6675.775;  134.525;    0.000
828.157; 6543.775;  152.525;    0.000
828.344; 6420.775;  135.525;    0.000
828.531; 6308.775;  137.525;    0.000
828.717; 6189.775;  117.525;    0.000
828.904; 6058.775;  127.525;    0.000
829.090; 6106.775;  172.525;    0.000
829.277; 5915.775;  144.525;    0.000
829.463; 5967.775;  159.525;    0.000
829.650; 5879.775;  187.525;    0.000
829.836; 6016.775;  138.525;    0.000
830.022; 5856.775;  196.525;    0.000
830.209; 5660.775;  118.525;    0.000
830.395; 5720.775;  148.525;    0.000
830.581; 5510.775;  108.525;    0.000
830.768; 5371.775;  137.525;    0.000
830.954; 5425.775;  162.525;    0.000
831.140; 5491.775;  117.525;    0.000
831.327; 5359.775;  176.525;    0.000
831.513; 5338.775;  162.525;    0.000
831.699; 5350.775;  157.525;    0.000
831.885; 5225.775;  153.525;    0.000
832.071; 5236.775;  123.525;    0.000
832.257; 5100.775;  142.525;    0.000
832.444; 5196.775;  165.525;    0.000
832.630; 5034.775;  159.525;    0.000
832.816; 5019.775;  145.525;    0.000
833.002; 4971.775;  120.525;    0.000
833.188; 4939.775;  145.525;    0.000
833.374; 4875.775;  137.525;    0.000
833.560; 4800.775;  152.525;    0.000
833.746; 4820.775;  139.525;    0.000
833.932; 4758.775;  170.525;    0.000
834.118; 4658.775;  111.525;    0.000
834.303; 4694.775;  141.525;    0.000
834.489; 4689.775;  146.525;    0.000
834.675; 4655.775;  156.525;    0.000
834.861; 4622.775;   87.525;    0.000
835.047; 4668.775;  134.525;    0.000
835.233; 4548.775;   89.525;    0.000
835.418; 4537.775;  145.525;    0.000
835.604; 4454.775;  136.525;    0.000
835.790; 4604.775;  132.525;    0.000
835.976; 4539.775;  161.525;    0.000
836.161; 4511.775;  157.525;    0.000
836.347; 4427.775;  147.525;    0.000
836.533; 4344.775;  116.525;    0.000
836.718; 4495.775;  168.525;    0.000
836.904; 4550.775;  199.525;    0.000
837.089; 4458.775;  165.525;    0.000
837.275; 4396.775;  166.525;    0.000
837.460; 4401.775;  144.525;    0.000
837.646; 4514.775;  164.525;    0.000
837.831; 4478.775;  122.525;    0.000
838.017; 4468.775;  163.525;    0.000
838.202; 4355.775;  139.525;    0.000
838.388; 4491.775;  174.525;    0.000
838.573; 4398.775;  140.525;    0.000
838.759; 4312.775;  167.525;    0.000
838.944; 4357.775;  142.525;    0.000
839.129; 4440.775;  164.525;    0.000
839.315; 4306.775;  129.525;    0.000
839.500; 4358.775;  150.525;    0.000
839.685; 4291.775;  118.525;    0.000
839.870; 4353.775;  177.525;    0.000
840.056; 4363.775;  144.525;    0.000
840.241; 4300.775;  121.525;    0.000
840.426; 4354.775;  131.525;    0.000
840.611; 4366.775;  177.525;    0.000
840.796; 4485.775;  173.525;    0.000
840.981; 4472.775;  156.525;    0.000
841.166; 4619.775;  145.525;    0.000
841.352; 4518.775;  150.525;    0.000
841.537; 4530.775;  143.525;    0.000
841.722; 4569.775;  165.525;    0.000
841.907; 4535.775;  184.525;    0.000
842.092; 4668.775;  171.525;    0.000
842.277; 4648.775;  155.525;    0.000
842.461; 4760.775;  152.525;    0.000
842.646; 4827.775;  107.525;    0.000
842.831; 4930.775;  160.525;    0.000
843.016; 5103.775;  160.525;    0.000
843.201; 5223.775;  164.525;    0.000
843.386; 5447.775;  134.525;    0.000
843.571; 5578.775;  132.525;    0.000
843.755; 6030.775;  158.525;    0.000
843.940; 6550.775;  152.525;    0.000
844.125; 7364.775;  154.525;    0.000
844.310; 8662.775;  147.525;    0.000
844.494;11386.775;  158.525;    0.000
844.679;15524.775;  173.525;    0.000
844.864;15320.775;  152.525;    0.000
845.048;12275.775;  139.525;    0.000
845.233;10496.775;  200.525;    0.000
845.418; 8894.775;  139.525;    0.000
845.602; 7879.775;  147.525;    0.000
845.787; 7187.775;  148.525;    0.000
845.971; 6680.775;  170.525;    0.000
846.156; 6351.775;  136.525;    0.000
846.340; 5996.775;  146.525;    0.000
846.525; 5718.775;  188.525;    0.000
846.709; 5270.775;  128.525;    0.000
846.893; 5327.775;  151.525;    0.000
847.078; 4994.775;  164.525;    0.000
847.262; 4873.775;  155.525;    0.000
847.447; 4580.775;  114.525;    0.000
847.631; 4600.775;  148.525;    0.000
847.815; 4588.775;  114.525;    0.000
848.000; 4416.775;  134.525;    0.000
848.184; 4335.775;  154.525;    0.000
848.368; 4225.775;  145.525;    0.000
848.552; 4165.775;  122.525;    0.000
848.736; 4193.775;  139.525;    0.000
848.921; 4143.775;  143.525;    0.000
849.105; 4160.775;  145.525;    0.000
849.289; 4073.775;  173.525;    0.000
849.473; 3951.775;  147.525;    0.000
849.657; 4081.775;  144.525;    0.000
849.841; 3914.775;  168.525;    0.000
850.025; 3847.775;  205.525;    0.000
850.209; 3945.775;  171.525;    0.000
850.393; 3686.775;  130.525;    0.000
850.577; 3803.775;  146.525;    0.000
850.761; 3816.775;  188.525;    0.000
850.945; 3770.775;  137.525;    0.000
851.129; 3713.775;  192.525;    0.000
851.313; 3750.775;  199.525;    0.000
851.497; 3826.775;  165.525;    0.000
851.680; 3735.775;  196.525;    0.000
851.864; 3716.775;  169.525;    0.000
852.048; 3701.775;  156.525;    0.000
852.232; 3634.775;  150.525;    0.000
852.416; 3644.775;  219.525;    0.000
852.599; 3716.775;  168.525;    0.000
852.783; 3635.775;  165.525;    0.000
852.967; 3755.775;  166.525;    0.000
853.150; 3716.775;  191.525;    0.000
853.334; 3617.775;  158.525;    0.000
853.518; 3597.775;  168.525;    0.000
853.701; 3604.775;  125.525;    0.000
853.885; 3606.775;  165.525;    0.000
854.068; 3589.775;  142.525;    0.000
854.252; 3481.775;  167.525;    0.000
854.435; 3589.775;  146.525;    0.000
854.619; 3521.775;  163.525;    0.000
854.802; 3624.775;  167.525;    0.000
854.986; 3541.775;  163.525;    0.000
855.169; 3563.775;  146.525;    0.000
855.353; 3543.775;  183.525;    0.000
855.536; 3633.775;  140.525;    0.000
855.719; 3567.775;  168.525;    0.000
855.903; 3599.775;  170.525;    0.000
856.086; 3606.775;  145.525;    0.000
856.269; 3660.775;  126.525;    0.000
856.452; 3829.775;  142.525;    0.000
856.636; 3856.775;  140.525;    0.000
856.819; 4076.775;  127.525;    0.000
857.002; 4258.775;  165.525;    0.000
857.185; 4065.775;  111.525;    0.000
857.368; 3923.775;  143.525;    0.000
857.552; 3783.775;  174.525;    0.000
857.735; 3817.775;  194.525;    0.000
857.918; 3858.775;  171.525;    0.000
858.101; 3793.775;  142.525;    0.000
858.284; 3868.775;  118.525;    0.000
858.467; 3914.775;  163.525;    0.000
858.650; 4053.775;  149.525;    0.000
858.833; 4068.775;  120.525;    0.000
859.016; 4141.775;  169.525;    0.000
859.199; 4319.775;  121.525;    0.000
859.382; 4670.775;  184.525;    0.000
859.564; 5109.775;  139.525;    0.000
859.747; 4985.775;  126.525;    0.000
859.930; 4625.775;  109.525;    0.000
860.113; 4502.775;  137.525;    0.000
860.296; 4498.775;  182.525;    0.000
860.478; 4151.775;  136.525;    0.000
860.661; 4231.775;  157.525;    0.000
860.844; 4133.775;  129.525;    0.000
861.027; 4082.775;  163.525;    0.000
861.209; 4128.775;  151.525;    0.000
861.392; 4058.775;  124.525;    0.000
861.575; 4188.775;  163.525;    0.000
861.757; 4277.775;  205.525;    0.000
861.940; 4156.775;  180.525;    0.000
862.122; 4267.775;  148.525;    0.000
862.305; 4324.775;  128.525;    0.000
862.487; 4649.775;  172.525;    0.000
862.670; 4905.775;  123.525;    0.000
862.852; 5849.775;  126.525;    0.000
863.035; 7042.775;  174.525;    0.000
863.217; 6919.775;  160.525;    0.000
863.400; 6151.775;  164.525;    0.000
863.582; 5857.775;  118.525;    0.000
863.764; 5523.775;  143.525;    0.000
863.947; 5258.775;  137.525;    0.000
864.129; 5142.775;  166.525;    0.000
864.311; 4966.775;  128.525;    0.000
864.493; 4975.775;  153.525;    0.000
864.676; 4864.775;  156.525;    0.000
864.858; 4722.775;  159.525;    0.000
865.040; 4712.775;  163.525;    0.000
865.222; 4790.775;  138.525;    0.000
865.404; 4810.775;  157.525;    0.000
865.587; 5067.775;  184.525;    0.000
865.769; 5332.775;  178.525;    0.000
865.951; 5195.775;  104.525;    0.000
866.133; 5218.775;  147.525;    0.000
866.315; 5232.775;  141.525;    0.000
866.497; 5084.775;  132.525;    0.000
866.679; 5371.775;  139.525;    0.000
866.861; 5600.775;  118.525;    0.000
867.043; 5810.775;  154.525;    0.000
867.225; 6159.775;  147.525;    0.000
867.407; 6875.775;  158.525;    0.000
867.589; 7762.775;  172.525;    0.000
867.770; 9405.775;  159.525;    0.000
867.952;13112.775;  149.525;    0.000
868.134;17078.775;  156.525;    0.000
868.316;16868.775;  171.525;    0.000
868.498;16028.775;  200.525;    0.000
868.679;14007.775;  174.525;    0.000
868.861;11769.775;  175.525;    0.000
869.043; 9758.775;  174.525;    0.000
869.224; 8659.775;  122.525;    0.000
869.406; 7773.775;  166.525;    0.000
869.588; 7226.775;  143.525;    0.000
869.769; 6851.775;  152.525;    0.000
869.951; 6684.775;  165.525;    0.000
870.132; 6772.775;  115.525;    0.000
870.314; 7541.775;  139.525;    0.000
870.495; 7906.775;  168.525;    0.000
870.677; 7048.775;  188.525;    0.000
870.858; 6757.775;  123.525;    0.000
871.040; 7095.775;  170.525;    0.000
871.221; 8097.775;  148.525;    0.000
871.403; 7538.775;  140.525;    0.000
871.584; 6965.775;  174.525;    0.000
871.765; 7023.775;  168.525;    0.000
871.947; 7570.775;  191.525;    0.000
872.128; 6841.775;  132.525;    0.000
872.309; 6028.775;  140.525;    0.000
872.491; 5493.775;  157.525;    0.000
872.672; 5188.775;  130.525;    0.000
872.853; 4876.775;  148.525;    0.000
873.034; 4887.775;  138.525;    0.000
873.215; 4657.775;  152.525;    0.000
873.396; 4345.775;  149.525;    0.000
873.578; 4241.775;  173.525;    0.000
873.759; 4093.775;  158.525;    0.000
873.940; 4016.775;  147.525;    0.000
874.121; 3919.775;  136.525;    0.000
874.302; 3727.775;  151.525;    0.000
874.483; 3807.775;  137.525;    0.000
874.664; 3865.775;  163.525;    0.000
874.845; 3749.775;  124.525;    0.000
875.026; 3608.775;  134.525;    0.000
875.207; 3580.775;  164.525;    0.000
875.388; 3578.775;  163.525;    0.000
875.568; 3519.775;  176.525;    0.000
875.749; 3419.775;  108.525;    0.000
875.930; 3345.775;  191.525;    0.000
876.111; 3381.775;  170.525;    0.000
876.292; 3238.775;  180.525;    0.000
876.472; 3290.775;  150.525;    0.000
876.653; 3220.775;  162.525;    0.000
876.834; 3225.775;  176.525;    0.000
877.015; 3215.775;  203.525;    0.000
877.195; 3196.775;  178.525;    0.000
877.376; 3096.775;  141.525;    0.000
877.556; 3103.775;  135.525;    0.000
877.737; 3121.775;  174.525;    0.000
877.918; 3088.775;  150.525;    0.000
878.098; 3067.775;  133.525;    0.000
878.279; 3103.775;  129.525;    0.000
878.459; 3022.775;  162.525;    0.000
878.640; 3143.775;  187.525;    0.000
878.820; 2943.775;  151.525;    0.000
879.000; 3082.775;  159.525;    0.000
879.181; 2976.775;  171.525;    0.000
879.361; 2962.775;  167.525;    0.000
879.542; 2986.775;  126.525;    0.000
879.722; 3018.775;  152.525;    0.000
879.902; 3054.775;  144.525;    0.000
880.083; 3059.775;  154.525;    0.000
880.263; 3132.775;  148.525;    0.000
880.443; 3438.775;  185.525;    0.000
880.623; 4164.775;  172.525;    0.000
880.803; 4810.775;  152.525;    0.000
880.984; 3968.775;  165.525;    0.000
881.164; 3473.775;  164.525;    0.000
881.344; 3308.775;  141.525;    0.000
881.524; 3289.775;  160.525;    0.000
881.704; 3344.775;  164.525;    0.000
881.884; 3409.775;  159.525;    0.000
882.064; 3541.775;  158.525;    0.000
882.244; 3583.775;  147.525;    0.000
882.424; 3359.775;  160.525;    0.000
882.604; 3309.775;  150.525;    0.000
882.784; 3205.775;  138.525;    0.000
882.964; 3021.775;  157.525;    0.000
883.144; 3074.775;  128.525;    0.000
883.324; 3088.775;  220.525;    0.000
883.504; 2929.775;  177.525;    0.000
883.683; 2899.775;  159.525;    0.000
883.863; 2885.775;  143.525;    0.000
884.043; 2752.775;  156.525;    0.000
884.223; 2851.775;  152.525;    0.000
884.402; 2833.775;  169.525;    0.000
884.582; 2874.775;  162.525;    0.000
884.762; 2783.775;  172.525;    0.000
884.941; 2747.775;  220.525;    0.000
885.121; 2760.775;  128.525;    0.000
885.301; 2771.775;  141.525;    0.000
885.480; 2728.775;  141.525;    0.000
885.660; 2744.775;  132.525;    0.000
885.839; 2720.775;  146.525;    0.000
886.019; 2677.775;  170.525;    0.000
886.198; 2698.775;  143.525;    0.000
886.378; 2631.775;  159.525;    0.000
886.557; 2645.775;  148.525;    0.000
886.737; 2631.775;  125.525;    0.000
886.916; 2691.775;  177.525;    0.000
887.095; 2662.775;  186.525;    0.000
887.275; 2576.775;  134.525;    0.000
887.454; 2589.775;  148.525;    0.000
887.633; 2596.775;  171.525;    0.000
887.813; 2756.775;  187.525;    0.000
887.992; 2672.775;  157.525;    0.000
888.171; 2537.775;  143.525;    0.000
888.350; 2613.775;  182.525;    0.000
888.530; 2551.775;  142.525;    0.000
888.709; 2553.775;  160.525;    0.000
888.888; 2559.775;  197.525;    0.000
889.067; 2511.775;  126.525;    0.000
889.246; 2537.775;  197.525;    0.000
889.425; 2570.775;  161.525;    0.000
889.604; 2573.775;  180.525;    0.000
889.783; 2590.775;  135.525;    0.000
889.962; 2524.775;  107.525;    0.000
890.141; 2543.775;  167.525;    0.000
890.320; 2578.775;  149.525;    0.000
890.499; 2625.775;  194.525;    0.000
890.678; 2572.775;  138.525;    0.000
890.857; 2505.775;  146.525;    0.000
891.036; 2538.775;  178.525;    0.000
891.214; 2498.775;  151.525;    0.000
891.393; 2519.775;  137.525;    0.000
891.572; 2519.775;  177.525;    0.000
891.751; 2581.775;  149.525;    0.000
891.930; 2512.775;  189.525;    0.000
892.108; 2588.775;  136.525;    0.000
892.287; 2612.775;  129.525;    0.000
892.466; 2606.775;  163.525;    0.000
892.644; 2453.775;  147.525;    0.000
892.823; 2555.775;  127.525;    0.000
893.001; 2369.775;  192.525;    0.000
893.180; 2529.775;  157.525;    0.000
893.359; 2500.775;  176.525;    0.000
893.537; 2551.775;  146.525;    0.000
893.716; 2538.775;  154.525;    0.000
893.894; 2535.775;  166.525;    0.000
894.073; 2519.775;  163.525;    0.000
894.251; 2501.775;  166.525;    0.000
894.429; 2468.775;  149.525;    0.000
894.608; 2594.775;  141.525;    0.000
894.786; 2466.775;  139.525;    0.000
894.964; 2426.775;  180.525;    0.000
895.143; 2563.775;  193.525;    0.000
895.321; 2491.775;  163.525;    0.000
895.499; 2468.775;  163.525;    0.000
895.677; 2458.775;  194.525;    0.000
895.856; 2602.775;  176.525;    0.000
896.034; 2502.775;  173.525;    0.000
896.212; 2476.775;  180.525;    0.000
896.390; 2607.775;  146.525;    0.000
896.568; 2464.775;  167.525;    0.000
896.746; 2570.775;  158.525;    0.000
896.924; 2538.775;  163.525;    0.000
897.102; 2485.775;  170.525;    0.000
897.280; 2554.775;  159.525;    0.000
897.458; 2639.775;  182.525;    0.000
897.636; 2590.775;  151.525;    0.000
897.814; 2562.775;  130.525;    0.000
897.992; 2553.775;  213.525;    0.000
898.170; 2578.775;  164.525;    0.000
898.348; 2582.775;  159.525;    0.000
898.526; 2600.775;  182.525;    0.000
898.704; 2590.775;  209.525;    0.000
898.882; 2535.775;  145.525;    0.000
899.059; 2628.775;  172.525;    0.000
899.237; 2528.775;  172.525;    0.000
899.415; 2579.775;  211.525;    0.000
899.593; 2688.775;  151.525;    0.000
899.770; 2592.775;  147.525;    0.000
899.948; 2667.775;  218.525;    0.000
900.125; 2615.775;  166.525;    0.000
900.303; 2668.775;  146.525;    0.000
900.481; 2639.775;  174.525;    0.000
900.658; 2687.775;  198.525;    0.000
900.836; 2640.775;  125.525;    0.000
901.013; 2696.775;  197.525;    0.000
901.191; 2789.775;  181.525;    0.000
901.368; 2688.775;  185.525;    0.000
901.546; 2830.775;  197.525;    0.000
901.723; 2777.775;  205.525;    0.000
901.901; 2879.775;  187.525;    0.000
902.078; 2957.775;  163.525;    0.000
902.255; 2973.775;  141.525;    0.000
902.433; 2952.775;  183.525;    0.000
902.610; 2993.775;  181.525;    0.000
902.787; 3020.775;  174.525;    0.000
902.964; 3093.775;  174.525;    0.000
903.142; 3099.775;  141.525;    0.000
903.319; 3245.775;  214.525;    0.000
903.496; 3297.775;  187.525;    0.000
903.673; 3317.775;  183.525;    0.000
903.850; 3325.775;  125.525;    0.000
904.027; 3462.775;  197.525;    0.000
904.204; 3633.775;  197.525;    0.000
904.381; 3977.775;  196.525;    0.000
904.558; 4557.775;  176.525;    0.000
904.735; 5081.775;  179.525;    0.000
904.912; 5106.775;  203.525;    0.000
905.089; 5155.775;  159.525;    0.000
905.266; 4693.775;  176.525;    0.000
905.443; 4455.775;  184.525;    0.000
905.620; 4073.775;  168.525;    0.000
905.797; 3898.775;  214.525;    0.000
905.974; 3822.775;  154.525;    0.000
906.151; 3717.775;  132.525;    0.000
906.327; 3714.775;  192.525;    0.000
906.504; 3681.775;  186.525;    0.000
906.681; 3512.775;  171.525;    0.000
906.858; 3356.775;  181.525;    0.000
907.034; 3431.775;  164.525;    0.000
907.211; 3392.775;  184.525;    0.000
907.388; 3089.775;  177.525;    0.000
907.564; 3135.775;  150.525;    0.000
907.741; 3053.775;  195.525;    0.000
907.917; 3038.775;  190.525;    0.000
908.094; 3137.775;  214.525;    0.000
908.271; 2997.775;  173.525;    0.000
908.447; 3046.775;  229.525;    0.000
908.623; 3001.775;  162.525;    0.000
908.800; 2854.775;  195.525;    0.000
908.976; 2795.775;  171.525;    0.000
909.153; 2869.775;  167.525;    0.000
909.329; 2888.775;  227.525;    0.000
909.505; 2823.775;  167.525;    0.000
909.682; 2770.775;  174.525;    0.000
909.858; 2752.775;  158.525;    0.000
910.034; 2793.775;  188.525;    0.000
910.211; 2629.775;  158.525;    0.000
910.387; 2814.775;  208.525;    0.000
910.563; 2708.775;  203.525;    0.000
910.739; 2775.775;  201.525;    0.000
910.915; 2735.775;  170.525;    0.000
911.091; 2689.775;  171.525;    0.000
911.268; 2688.775;  220.525;    0.000
911.444; 2653.775;  202.525;    0.000
911.620; 2672.775;  175.525;    0.000
911.796; 2706.775;  175.525;    0.000
911.972; 2643.775;  164.525;    0.000
912.148; 2713.775;  174.525;    0.000
912.324; 2673.775;  155.525;    0.000
912.500; 2689.775;  156.525;    0.000
912.676; 2626.775;  138.525;    0.000
912.851; 2720.775;  158.525;    0.000
913.027; 2657.775;  161.525;    0.000
913.203; 2711.775;  168.525;    0.000
913.379; 2605.775;  172.525;    0.000
913.555; 2506.775;  193.525;    0.000
913.730; 2693.775;  149.525;    0.000
913.906; 2695.775;  159.525;    0.000
914.082; 2750.775;  184.525;    0.000
914.258; 2763.775;  194.525;    0.000
914.433; 2668.775;  175.525;    0.000
914.609; 2579.775;  175.525;    0.000
914.784; 2620.775;  170.525;    0.000
914.960; 2676.775;  212.525;    0.000
915.136; 2494.775;  157.525;    0.000
915.311; 2747.775;  204.525;    0.000
915.487; 2652.775;  180.525;    0.000
915.662; 2655.775;  203.525;    0.000
915.838; 2759.775;  194.525;    0.000
916.013; 2708.775;  217.525;    0.000
916.189; 2614.775;  196.525;    0.000
916.364; 2691.775;  236.525;    0.000
916.539; 2714.775;  192.525;    0.000
916.715; 2692.775;  181.525;    0.000
916.890; 2697.775;  185.525;    0.000
917.065; 2676.775;  166.525;    0.000
917.240; 2700.775;  182.525;    0.000
917.416; 2774.775;  188.525;    0.000
917.591; 2739.775;  185.525;    0.000
917.766; 2683.775;  187.525;    0.000
917.941; 2761.775;  181.525;    0.000
918.116; 2715.775;  207.525;    0.000
918.292; 2730.775;  140.525;    0.000
918.467; 2876.775;  187.525;    0.000
918.642; 2674.775;  208.525;    0.000
918.817; 2725.775;  203.525;    0.000
918.992; 2728.775;  162.525;    0.000
919.167; 2654.775;  206.525;    0.000
919.342; 2769.775;  188.525;    0.000
919.517; 2784.775;  190.525;    0.000
919.692; 2769.775;  174.525;    0.000
919.867; 2753.775;  181.525;    0.000
920.041; 2828.775;  179.525;    0.000
920.216; 2937.775;  186.525;    0.000
920.391; 3011.775;  209.525;    0.000
920.566; 3007.775;  205.525;    0.000
920.741; 3163.775;  205.525;    0.000
920.915; 3207.775;  206.525;    0.000
921.090; 3529.775;  219.525;    0.000
921.265; 4302.775;  185.525;    0.000
921.439; 4730.775;  171.525;    0.000
921.614; 4366.775;  197.525;    0.000
921.789; 3926.775;  189.525;    0.000
921.963; 3733.775;  210.525;    0.000
922.138; 3532.775;  171.525;    0.000
922.312; 3484.775;  194.525;    0.000
922.487; 3452.775;  231.525;    0.000
922.661; 3670.775;  179.525;    0.000
922.836; 4169.775;  213.525;    0.000
923.010; 4301.775;  182.525;    0.000
923.185; 3853.775;  239.525;    0.000
923.359; 3561.775;  200.525;    0.000
923.534; 3570.775;  232.525;    0.000
923.708; 3741.775;  221.525;    0.000
923.882; 4065.775;  193.525;    0.000
924.057; 3797.775;  204.525;    0.000
924.231; 3663.775;  172.525;    0.000
924.405; 3466.775;  202.525;    0.000
924.579; 3395.775;  207.525;    0.000
924.753; 3333.775;  167.525;    0.000
924.928; 3227.775;  202.525;    0.000
925.102; 3248.775;  200.525;    0.000
925.276; 3404.775;  185.525;    0.000
925.450; 3442.775;  170.525;    0.000
925.624; 3401.775;  176.525;    0.000
925.798; 3614.775;  221.525;    0.000
925.972; 3595.775;  162.525;    0.000
926.146; 3819.775;  207.525;    0.000
926.320; 4152.775;  185.525;    0.000
926.494; 4519.775;  192.525;    0.000
926.668; 4700.775;  179.525;    0.000
926.842; 4872.775;  181.525;    0.000
927.016; 4866.775;  224.525;    0.000
927.190; 4665.775;  193.525;    0.000
927.363; 4646.775;  194.525;    0.000
927.537; 4545.775;  210.525;    0.000
927.711; 4349.775;  153.525;    0.000
927.885; 4198.775;  184.525;    0.000
928.058; 4195.775;  197.525;    0.000
928.232; 4070.775;  219.525;    0.000
928.406; 3847.775;  175.525;    0.000
928.579; 3847.775;  179.525;    0.000
928.753; 3752.775;  208.525;    0.000
928.927; 3702.775;  163.525;    0.000
929.100; 3600.775;  138.525;    0.000
929.274; 3532.775;  160.525;    0.000
929.447; 3436.775;  152.525;    0.000
929.621; 3459.775;  168.525;    0.000
929.794; 3388.775;  152.525;    0.000
929.968; 3307.775;  163.525;    0.000
930.141; 3391.775;  164.525;    0.000
930.315; 3233.775;  170.525;    0.000
930.488; 3198.775;  216.525;    0.000
930.661; 3225.775;  184.525;    0.000
930.835; 3076.775;  156.525;    0.000
931.008; 3072.775;  206.525;    0.000
931.181; 3115.775;  163.525;    0.000
931.354; 2954.775;  198.525;    0.000
931.528; 2977.775;  156.525;    0.000
931.701; 2925.775;  170.525;    0.000
931.874; 2931.775;  167.525;    0.000
932.047; 2850.775;  146.525;    0.000
932.220; 2804.775;  159.525;    0.000
932.393; 2801.775;  186.525;    0.000
932.566; 2811.775;  147.525;    0.000
932.739; 2704.775;  192.525;    0.000
932.912; 2734.775;  197.525;    0.000
933.085; 2769.775;  176.525;    0.000
933.258; 2763.775;  171.525;    0.000
933.431; 2690.775;  150.525;    0.000
933.604; 2701.775;  176.525;    0.000
933.777; 2698.775;  215.525;    0.000
933.950; 2697.775;  164.525;    0.000
934.123; 2676.775;  174.525;    0.000
934.296; 2792.775;  203.525;    0.000
934.468; 2635.775;  208.525;    0.000
934.641; 2560.775;  182.525;    0.000
934.814; 2667.775;  170.525;    0.000
934.987; 2623.775;  183.525;    0.000
935.159; 2571.775;  154.525;    0.000
935.332; 2592.775;  178.525;    0.000
935.505; 2683.775;  213.525;    0.000
935.677; 2576.775;  173.525;    0.000
935.850; 2566.775;  190.525;    0.000
936.022; 2624.775;  205.525;    0.000
936.195; 2587.775;  201.525;    0.000
936.367; 2620.775;  189.525;    0.000
936.540; 2633.775;  179.525;    0.000
936.712; 2598.775;  195.525;    0.000
936.885; 2643.775;  207.525;    0.000
937.057; 2634.775;  163.525;    0.000
937.229; 2761.775;  175.525;    0.000
937.402; 2721.775;  168.525;    0.000
937.574; 2836.775;  136.525;    0.000
937.746; 2874.775;  166.525;    0.000
937.919; 2924.775;  178.525;    0.000
938.091; 3095.775;  192.525;    0.000
938.263; 3247.775;  164.525;    0.000
938.435; 3589.775;  204.525;    0.000
938.608; 4062.775;  153.525;    0.000
938.780; 4825.775;  159.525;    0.000
938.952; 4882.775;  160.525;    0.000
939.124; 4914.775;  156.525;    0.000
939.296; 5793.775;  110.525;    0.000
939.468; 5914.775;  135.525;    0.000
939.640; 5191.775;  144.525;    0.000
939.812; 4658.775;  232.525;    0.000
939.984; 4098.775;  128.525;    0.000
940.156; 3915.775;  195.525;    0.000
940.328; 3736.775;  226.525;    0.000
940.500; 3476.775;  146.525;    0.000
940.672; 3314.775;  190.525;    0.000
940.843; 3210.775;  156.525;    0.000
941.015; 3154.775;  200.525;    0.000
941.187; 3099.775;  159.525;    0.000
941.359; 3151.775;  183.525;    0.000
941.531; 2942.775;  137.525;    0.000
941.702; 3008.775;  186.525;    0.000
941.874; 2838.775;  164.525;    0.000
942.046; 2820.775;  202.525;    0.000
942.217; 2724.775;  146.525;    0.000
942.389; 2840.775;  165.525;    0.000
942.560; 2695.775;  191.525;    0.000
942.732; 2618.775;  240.525;    0.000
942.904; 2593.775;  173.525;    0.000
943.075; 2537.775;  157.525;    0.000
943.247; 2437.775;  155.525;    0.000
943.418; 2444.775;  164.525;    0.000
943.589; 2406.775;  150.525;    0.000
943.761; 2521.775;  143.525;    0.000
943.932; 2473.775;  151.525;    0.000
944.104; 2491.775;  194.525;    0.000
944.275; 2447.775;  154.525;    0.000
944.446; 2388.775;  169.525;    0.000
944.617; 2323.775;  138.525;    0.000
944.789; 2391.775;  158.525;    0.000
944.960; 2360.775;  197.525;    0.000
945.131; 2292.775;  139.525;    0.000
945.302; 2369.775;  169.525;    0.000
945.473; 2290.775;  149.525;    0.000
945.645; 2404.775;  171.525;    0.000
945.816; 2355.775;  167.525;    0.000
945.987; 2445.775;  156.525;    0.000
946.158; 2419.775;  185.525;    0.000
946.329; 2482.775;  201.525;    0.000
946.500; 2391.775;  182.525;    0.000
946.671; 2332.775;  156.525;    0.000
946.842; 2327.775;  190.525;    0.000
947.013; 2198.775;  159.525;    0.000
947.183; 2232.775;  209.525;    0.000
947.354; 2122.775;  171.525;    0.000
947.525; 2185.775;  180.525;    0.000
947.696; 2204.775;  163.525;    0.000
947.867; 2172.775;  168.525;    0.000
948.037; 2127.775;  153.525;    0.000
948.208; 2188.775;  178.525;    0.000
948.379; 2269.775;  192.525;    0.000
948.550; 2209.775;  180.525;    0.000
948.720; 2209.775;  196.525;    0.000
948.891; 2250.775;  173.525;    0.000
949.061; 2207.775;  207.525;    0.000
949.232; 2147.775;  176.525;    0.000
949.403; 2109.775;  152.525;    0.000
949.573; 2083.775;  186.525;    0.000
949.744; 2154.775;  181.525;    0.000
949.914; 2190.775;  174.525;    0.000
950.085; 2108.775;  146.525;    0.000
950.255; 2079.775;  162.525;    0.000
950.425; 2106.775;  189.525;    0.000
950.596; 2160.775;  175.525;    0.000
950.766; 2060.775;  209.525;    0.000
950.936; 2085.775;  201.525;    0.000
951.107; 2072.775;  141.525;    0.000
951.277; 2082.775;  211.525;    0.000
951.447; 2121.775;  218.525;    0.000
951.617; 2111.775;  191.525;    0.000
951.788; 2119.775;  193.525;    0.000
951.958; 2173.775;  217.525;    0.000
952.128; 2064.775;  192.525;    0.000
952.298; 2103.775;  237.525;    0.000
952.468; 2108.775;  194.525;    0.000
952.638; 1990.775;  201.525;    0.000
952.808; 2039.775;  203.525;    0.000
952.978; 2155.775;  216.525;    0.000
953.148; 2090.775;  209.525;    0.000
953.318; 2049.775;  213.525;    0.000
953.488; 2048.775;  161.525;    0.000
953.658; 1958.775;  222.525;    0.000
953.828; 1982.775;  196.525;    0.000
953.998; 1992.775;  227.525;    0.000
954.167; 2013.775;  163.525;    0.000
954.337; 2037.775;  201.525;    0.000
954.507; 1990.775;  227.525;    0.000
954.677; 1986.775;  204.525;    0.000
954.846; 2025.775;  210.525;    0.000
955.016; 1967.775;  198.525;    0.000
955.186; 1913.775;  203.525;    0.000
955.355; 1898.775;  198.525;    0.000
955.525; 1948.775;  198.525;    0.000
955.695; 1941.775;  187.525;    0.000
955.864; 1922.775;  243.525;    0.000
956.034; 1869.775;  192.525;    0.000
956.203; 1928.775;  259.525;    0.000
956.373; 1871.775;  185.525;    0.000
956.542; 1821.775;  230.525;    0.000
956.711; 1950.775;  218.525;    0.000
956.881; 1901.775;  232.525;    0.000
957.050; 1919.775;  246.525;    0.000
957.220; 1910.775;  229.525;    0.000
957.389; 1877.775;  211.525;    0.000
957.558; 1842.775;  173.525;    0.000
957.727; 1861.775;  226.525;    0.000
957.897; 1790.775;  209.525;    0.000
958.066; 1830.775;  217.525;    0.000
958.235; 1811.775;  160.525;    0.000
958.404; 1870.775;  199.525;    0.000
958.573; 1917.775;  223.525;    0.000
958.743; 1816.775;  189.525;    0.000
958.912; 1778.775;  199.525;    0.000
959.081; 1842.775;  216.525;    0.000
959.250; 1782.775;  192.525;    0.000
959.419; 1837.775;  216.525;    0.000
959.588; 1785.775;  209.525;    0.000
959.757; 1736.775;  194.525;    0.000
959.926; 1736.775;  200.525;    0.000
960.094; 1800.775;  174.525;    0.000
960.263; 1797.775;  218.525;    0.000
960.432; 1763.775;  173.525;    0.000
960.601; 1679.775;  177.525;    0.000
960.770; 1755.775;  188.525;    0.000
960.939; 1757.775;  167.525;    0.000
961.107; 1785.775;  195.525;    0.000
961.276; 1788.775;  183.525;    0.000
961.445; 1710.775;  195.525;    0.000
961.613; 1738.775;  198.525;    0.000
961.782; 1713.775;  224.525;    0.000
961.951; 1731.775;  178.525;    0.000
962.119; 1705.775;  214.525;    0.000
962.288; 1698.775;  174.525;    0.000
962.456; 1702.775;  197.525;    0.000
962.625; 1733.775;  212.525;    0.000
962.793; 1694.775;  183.525;    0.000
962.962; 1751.775;  189.525;    0.000
963.130; 1734.775;  151.525;    0.000
963.298; 1782.775;  197.525;    0.000
963.467; 1787.775;  202.525;    0.000
963.635; 1704.775;  172.525;    0.000
963.803; 1716.775;  203.525;    0.000
963.972; 1680.775;  204.525;    0.000
964.140; 1694.775;  193.525;    0.000
964.308; 1754.775;  159.525;    0.000
964.477; 1699.775;  142.525;    0.000
964.645; 1723.775;  202.525;    0.000
964.813; 1755.775;  158.525;    0.000
964.981; 1818.775;  179.525;    0.000
965.149; 1834.775;  176.525;    0.000
965.317; 1782.775;  229.525;    0.000
965.485; 1764.775;  179.525;    0.000
965.653; 1748.775;  205.525;    0.000
965.821; 1778.775;  196.525;    0.000
965.989; 1778.775;  202.525;    0.000
966.157; 1748.775;  199.525;    0.000
966.325; 1697.775;  178.525;    0.000
966.493; 1685.775;  177.525;    0.000
966.661; 1704.775;  172.525;    0.000
966.829; 1694.775;  167.525;    0.000
966.996; 1785.775;  202.525;    0.000
967.164; 1757.775;  175.525;    0.000
967.332; 1715.775;  207.525;    0.000
967.500; 1795.775;  170.525;    0.000
967.667; 1754.775;  222.525;    0.000
967.835; 1747.775;  245.525;    0.000
968.003; 1683.775;  180.525;    0.000
968.170; 1802.775;  222.525;    0.000
968.338; 1756.775;  183.525;    0.000
968.505; 1716.775;  197.525;    0.000
968.673; 1756.775;  209.525;    0.000
968.841; 1752.775;  162.525;    0.000
969.008; 1768.775;  187.525;    0.000
969.175; 1743.775;  204.525;    0.000
969.343; 1775.775;  157.525;    0.000
969.510; 1737.775;  189.525;    0.000
969.678; 1675.775;  153.525;    0.000
969.845; 1677.775;  190.525;    0.000
970.012; 1730.775;  162.525;    0.000
970.180; 1778.775;  223.525;    0.000
970.347; 1681.775;  195.525;    0.000
970.514; 1702.775;  185.525;    0.000
970.681; 1645.775;  187.525;    0.000
970.849; 1640.775;  183.525;    0.000
971.016; 1656.775;  168.525;    0.000
971.183; 1751.775;  160.525;    0.000
971.350; 1726.775;  193.525;    0.000
971.517; 1705.775;  202.525;    0.000
971.684; 1661.775;  242.525;    0.000
971.851; 1585.775;  192.525;    0.000
972.018; 1674.775;  194.525;    0.000
972.185; 1702.775;  193.525;    0.000
972.352; 1711.775;  187.525;    0.000
972.519; 1785.775;  233.525;    0.000
972.686; 1701.775;  186.525;    0.000
972.853; 1662.775;  165.525;    0.000
973.020; 1650.775;  183.525;    0.000
973.186; 1672.775;  186.525;    0.000
973.353; 1693.775;  177.525;    0.000
973.520; 1623.775;  203.525;    0.000
973.687; 1762.775;  211.525;    0.000
973.853; 1632.775;  194.525;    0.000
974.020; 1641.775;  201.525;    0.000
974.187; 1617.775;  187.525;    0.000
974.353; 1638.775;  188.525;    0.000
974.520; 1656.775;  136.525;    0.000
974.687; 1671.775;  169.525;    0.000
974.853; 1683.775;  207.525;    0.000
975.020; 1611.775;  190.525;    0.000
975.186; 1636.775;  182.525;    0.000
975.353; 1707.775;  202.525;    0.000
975.519; 1574.775;  189.525;    0.000
975.685; 1642.775;  176.525;    0.000
975.852; 1650.775;  175.525;    0.000
976.018; 1699.775;  155.525;    0.000
976.184; 1618.775;  179.525;    0.000
976.351; 1618.775;  191.525;    0.000
976.517; 1672.775;  246.525;    0.000
976.683; 1658.775;  222.525;    0.000
976.849; 1628.775;  216.525;    0.000
977.016; 1622.775;  212.525;    0.000
977.182; 1648.775;  192.525;    0.000
977.348; 1543.775;  145.525;    0.000
977.514; 1640.775;  195.525;    0.000
977.680; 1595.775;  210.525;    0.000
977.846; 1650.775;  172.525;    0.000
978.012; 1639.775;  190.525;    0.000
978.178; 1652.775;  201.525;    0.000
978.344; 1599.775;  190.525;    0.000
978.510; 1624.775;  199.525;    0.000
978.676; 1582.775;  174.525;    0.000
978.842; 1574.775;  195.525;    0.000
979.008; 1593.775;  205.525;    0.000
979.174; 1572.775;  187.525;    0.000
979.340; 1691.775;  194.525;    0.000
979.505; 1660.775;  221.525;    0.000
979.671; 1576.775;  178.525;    0.000
979.837; 1617.775;  215.525;    0.000
980.003; 1601.775;  176.525;    0.000
980.168; 1618.775;  185.525;    0.000
980.334; 1577.775;  165.525;    0.000
980.499; 1611.775;  231.525;    0.000
980.665; 1587.775;  238.525;    0.000
980.831; 1667.775;  194.525;    0.000
980.996; 1598.775;  169.525;    0.000
981.162; 1667.775;  199.525;    0.000
981.327; 1670.775;  158.525;    0.000
981.493; 1640.775;  193.525;    0.000
981.658; 1586.775;  181.525;    0.000
981.823; 1626.775;  199.525;    0.000
981.989; 1620.775;  186.525;    0.000
982.154; 1690.775;  225.525;    0.000
982.319; 1635.775;  191.525;    0.000
982.485; 1636.775;  205.525;    0.000
982.650; 1704.775;  234.525;    0.000
982.815; 1679.775;  193.525;    0.000
982.980; 1556.775;  177.525;    0.000
983.146; 1676.775;  212.525;    0.000
983.311; 1625.775;  177.525;    0.000
983.476; 1639.775;  185.525;    0.000
983.641; 1588.775;  149.525;    0.000
983.806; 1611.775;  175.525;    0.000
983.971; 1605.775;  234.525;    0.000
984.136; 1639.775;  191.525;    0.000
984.301; 1600.775;  215.525;    0.000
984.466; 1643.775;  207.525;    0.000
984.631; 1568.775;  206.525;    0.000
984.796; 1641.775;  229.525;    0.000
984.961; 1672.775;  220.525;    0.000
985.126; 1619.775;  204.525;    0.000
985.291; 1624.775;  210.525;    0.000
985.455; 1649.775;  193.525;    0.000
985.620; 1617.775;  207.525;    0.000
985.785; 1653.775;  188.525;    0.000
985.950; 1604.775;  168.525;    0.000
986.114; 1601.775;  239.525;    0.000
986.279; 1643.775;  223.525;    0.000
986.444; 1653.775;  154.525;    0.000
986.608; 1641.775;  232.525;    0.000
986.773; 1661.775;  214.525;    0.000
986.937; 1743.775;  220.525;    0.000
987.102; 1670.775;  224.525;    0.000
987.266; 1649.775;  157.525;    0.000
987.431; 1735.775;  246.525;    0.000
987.595; 1687.775;  203.525;    0.000
987.760; 1694.775;  202.525;    0.000
987.924; 1602.775;  208.525;    0.000
988.088; 1587.775;  169.525;    0.000
988.253; 1686.775;  237.525;    0.000
988.417; 1656.775;  202.525;    0.000
988.581; 1634.775;  215.525;    0.000
988.746; 1554.775;  210.525;    0.000
988.910; 1628.775;  191.525;    0.000
989.074; 1580.775;  197.525;    0.000
989.238; 1515.775;  191.525;    0.000
989.402; 1568.775;  222.525;    0.000
989.566; 1608.775;  221.525;    0.000
989.731; 1497.775;  216.525;    0.000
989.895; 1507.775;  183.525;    0.000
990.059; 1576.775;  150.525;    0.000
990.223; 1513.775;  183.525;    0.000
990.387; 1627.775;  241.525;    0.000
990.551; 1607.775;  198.525;    0.000
990.714; 1486.775;  176.525;    0.000
990.878; 1541.775;  203.525;    0.000
991.042; 1545.775;  146.525;    0.000
991.206; 1532.775;  199.525;    0.000
991.370; 1594.775;  223.525;    0.000
991.534; 1488.775;  158.525;    0.000
991.697; 1537.775;  182.525;    0.000
991.861; 1513.775;  195.525;    0.000
992.025; 1563.775;  206.525;    0.000
992.188; 1508.775;  174.525;    0.000
992.352; 1545.775;  183.525;    0.000
992.516; 1577.775;  181.525;    0.000
992.679; 1535.775;  162.525;    0.000
992.843; 1468.775;  173.525;    0.000
993.006; 1501.775;  189.525;    0.000
993.170; 1601.775;  200.525;    0.000
993.333; 1575.775;  167.525;    0.000
993.497; 1538.775;  217.525;    0.000
993.660; 1565.775;  179.525;    0.000
993.824; 1585.775;  195.525;    0.000
993.987; 1597.775;  186.525;    0.000
994.150; 1518.775;  164.525;    0.000
994.314; 1606.775;  215.525;    0.000
994.477; 1579.775;  186.525;    0.000
994.640; 1499.775;  192.525;    0.000
994.803; 1615.775;  215.525;    0.000
994.967; 1578.775;  208.525;    0.000
995.130; 1524.775;  196.525;    0.000
995.293; 1540.775;  221.525;    0.000
995.456; 1526.775;  164.525;    0.000
995.619; 1546.775;  224.525;    0.000
995.782; 1544.775;  184.525;    0.000
995.945; 1573.775;  220.525;    0.000
996.108; 1527.775;  187.525;    0.000
996.271; 1538.775;  192.525;    0.000
996.434; 1532.775;  162.525;    0.000
996.597; 1493.775;  148.525;    0.000
996.760; 1527.775;  186.525;    0.000
996.923; 1474.775;  154.525;    0.000
997.086; 1478.775;  156.525;    0.000
997.248; 1553.775;  215.525;    0.000
997.411; 1491.775;  160.525;    0.000
997.574; 1478.775;  159.525;    0.000
997.737; 1522.775;  179.525;    0.000
997.899; 1414.775;  184.525;    0.000
998.062; 1451.775;  180.525;    0.000
998.225; 1436.775;  168.525;    0.000
998.387; 1496.775;  192.525;    0.000
998.550; 1476.775;  178.525;    0.000
998.712; 1462.775;  192.525;    0.000
998.875; 1522.775;  230.525;    0.000
999.037; 1461.775;  200.525;    0.000
999.200; 1435.775;  196.525;    0.000
999.362; 1465.775;  173.525;    0.000
999.525; 1510.775;  196.525;    0.000
999.687; 1456.775;  159.525;    0.000
999.849; 1467.775;  180.525;    0.000
1000.012; 1480.775;  210.525;    0.000
1000.174; 1471.775;  175.525;    0.000
1000.336; 1592.775;  174.525;    0.000
1000.499; 1499.775;  180.525;    0.000
1000.661; 1546.775;  204.525;    0.000
1000.823; 1487.775;  181.525;    0.000
1000.985; 1500.775;  178.525;    0.000
1001.147; 1537.775;  215.525;    0.000
1001.309; 1626.775;  212.525;    0.000
1001.471; 1564.775;  192.525;    0.000
1001.633; 1588.775;  207.525;    0.000
1001.796; 1567.775;  211.525;    0.000
1001.958; 1567.775;  200.525;    0.000
1002.119; 1662.775;  210.525;    0.000
1002.281; 1623.775;  204.525;    0.000
1002.443; 1763.775;  230.525;    0.000
1002.605; 1772.775;  178.525;    0.000
1002.767; 1800.775;  228.525;    0.000
1002.929; 1866.775;  199.525;    0.000
1003.091; 2022.775;  220.525;    0.000
1003.252; 2054.775;  219.525;    0.000
1003.414; 2115.775;  213.525;    0.000
1003.576; 2183.775;  202.525;    0.000
1003.738; 2290.775;  184.525;    0.000
1003.899; 2478.775;  218.525;    0.000
1004.061; 2510.775;  210.525;    0.000
1004.222; 2488.775;  179.525;    0.000
1004.384; 2666.775;  183.525;    0.000
1004.546; 2758.775;  206.525;    0.000
1004.707; 2678.775;  191.525;    0.000
1004.869; 2640.775;  197.525;    0.000
1005.030; 2689.775;  186.525;    0.000
1005.191; 2640.775;  188.525;    0.000
1005.353; 2584.775;  215.525;    0.000
1005.514; 2442.775;  184.525;    0.000
1005.675; 2259.775;  209.525;    0.000
1005.837; 2365.775;  239.525;    0.000
1005.998; 2265.775;  218.525;    0.000
1006.159; 2163.775;  212.525;    0.000
1006.321; 2226.775;  220.525;    0.000
1006.482; 2324.775;  201.525;    0.000
1006.643; 2435.775;  222.525;    0.000
1006.804; 2419.775;  191.525;    0.000
1006.965; 2612.775;  214.525;    0.000
1007.126; 2548.775;  214.525;    0.000
1007.287; 2545.775;  243.525;    0.000
1007.448; 2532.775;  251.525;    0.000
1007.609; 2596.775;  244.525;    0.000
1007.770; 2491.775;  211.525;    0.000
1007.931; 2369.775;  225.525;    0.000
1008.092; 2429.775;  188.525;    0.000
1008.253; 2539.775;  224.525;    0.000
1008.414; 2559.775;  198.525;    0.000
1008.575; 2602.775;  244.525;    0.000
1008.736; 2623.775;  219.525;    0.000
1008.896; 2653.775;  206.525;    0.000
1009.057; 2586.775;  258.525;    0.000
1009.218; 2622.775;  209.525;    0.000
1009.379; 2552.775;  204.525;    0.000
1009.539; 2726.775;  242.525;    0.000
1009.700; 2705.775;  205.525;    0.000
1009.860; 2734.775;  211.525;    0.000
1010.021; 2724.775;  219.525;    0.000
1010.182; 2717.775;  206.525;    0.000
1010.342; 2692.775;  219.525;    0.000
1010.503; 2809.775;  231.525;    0.000
1010.663; 2938.775;  260.525;    0.000
1010.823; 2995.775;  200.525;    0.000
1010.984; 2953.775;  189.525;    0.000
1011.144; 3181.775;  234.525;    0.000
1011.305; 3275.775;  212.525;    0.000
1011.465; 3232.775;  202.525;    0.000
1011.625; 3432.775;  236.525;    0.000
1011.785; 3421.775;  203.525;    0.000
1011.946; 3343.775;  195.525;    0.000
1012.106; 3390.775;  176.525;    0.000
1012.266; 3325.775;  211.525;    0.000
1012.426; 3287.775;  244.525;    0.000
1012.586; 3325.775;  202.525;    0.000
1012.746; 3316.775;  234.525;    0.000
1012.906; 3260.775;  246.525;    0.000
1013.066; 3301.775;  232.525;    0.000
1013.226; 3274.775;  248.525;    0.000
1013.386; 3211.775;  231.525;    0.000
1013.546; 3211.775;  233.525;    0.000
1013.706; 3141.775;  211.525;    0.000
1013.866; 3127.775;  240.525;    0.000
1014.026; 3196.775;  188.525;    0.000
1014.186; 3118.775;  186.525;    0.000
1014.346; 3194.775;  203.525;    0.000
1014.505; 3309.775;  238.525;    0.000
1014.665; 3226.775;  206.525;    0.000
1014.825; 3113.775;  200.525;    0.000
1014.985; 3168.775;  215.525;    0.000
1015.144; 3488.775;  250.525;    0.000
1015.304; 3475.775;  195.525;    0.000
1015.464; 3326.775;  237.525;    0.000
1015.623; 3311.775;  232.525;    0.000
1015.783; 3697.775;  220.525;    0.000
1015.942; 4025.775;  219.525;    0.000
1016.102; 3762.775;  202.525;    0.000
1016.261; 3676.775;  225.525;    0.000
1016.420; 4262.775;  246.525;    0.000
1016.580; 4417.775;  226.525;    0.000
1016.739; 4151.775;  214.525;    0.000
1016.899; 4282.775;  205.525;    0.000
1017.058; 4523.775;  217.525;    0.000
1017.217; 4602.775;  199.525;    0.000
1017.376; 4237.775;  219.525;    0.000
1017.536; 3858.775;  209.525;    0.000
1017.695; 4198.775;  213.525;    0.000
1017.854; 4272.775;  187.525;    0.000
1018.013; 3876.775;  222.525;    0.000
1018.172; 3673.775;  204.525;    0.000
1018.331; 3782.775;  195.525;    0.000
1018.490; 4128.775;  213.525;    0.000
1018.649; 4203.775;  216.525;    0.000
1018.808; 4291.775;  227.525;    0.000
1018.967; 4227.775;  206.525;    0.000
1019.126; 4430.775;  206.525;    0.000
1019.285; 4443.775;  219.525;    0.000
1019.444; 4278.775;  218.525;    0.000
1019.603; 4136.775;  206.525;    0.000
1019.762; 4088.775;  189.525;    0.000
1019.921; 4246.775;  217.525;    0.000
1020.079; 4262.775;  200.525;    0.000
1020.238; 4430.775;  219.525;    0.000
1020.397; 4425.775;  227.525;    0.000
1020.555; 4223.775;  207.525;    0.000
1020.714; 4276.775;  253.525;    0.000
1020.873; 4550.775;  230.525;    0.000
1021.031; 4480.775;  232.525;    0.000
1021.190; 4345.775;  226.525;    0.000
1021.348; 4188.775;  224.525;    0.000
1021.507; 4599.775;  215.525;    0.000
1021.665; 4618.775;  233.525;    0.000
1021.824; 4491.775;  196.525;    0.000
1021.982; 4281.775;  215.525;    0.000
1022.141; 4255.775;  200.525;    0.000
1022.299; 4912.775;  200.525;    0.000
1022.457; 4742.775;  179.525;    0.000
1022.616; 4460.775;  226.525;    0.000
1022.774; 4229.775;  216.525;    0.000
1022.932; 4432.775;  212.525;    0.000
1023.090; 4991.775;  220.525;    0.000
1023.249; 4946.775;  194.525;    0.000
1023.407; 4505.775;  227.525;    0.000
1023.565; 4307.775;  190.525;    0.000
1023.723; 4547.775;  190.525;    0.000
1023.881; 5058.775;  214.525;    0.000
1024.039; 5020.775;  179.525;    0.000
1024.197; 4615.775;  274.525;    0.000
1024.355; 4350.775;  269.525;    0.000
1024.513; 4646.775;  259.525;    0.000
1024.671; 5276.775;  211.525;    0.000
1024.829; 5035.775;  230.525;    0.000
1024.987; 4738.775;  239.525;    0.000
1025.145; 4358.775;  231.525;    0.000
1025.302; 4718.775;  212.525;    0.000
1025.460; 5027.775;  224.525;    0.000
1025.618; 5248.775;  217.525;    0.000
1025.776; 4826.775;  232.525;    0.000
1025.933; 4526.775;  212.525;    0.000
1026.091; 4862.775;  214.525;    0.000
1026.249; 5180.775;  224.525;    0.000
1026.406; 5263.775;  219.525;    0.000
1026.564; 4946.775;  262.525;    0.000
1026.721; 4690.775;  206.525;    0.000
1026.879; 4548.775;  227.525;    0.000
1027.036; 5221.775;  234.525;    0.000
1027.194; 5456.775;  256.525;    0.000
1027.351; 5486.775;  229.525;    0.000
1027.509; 4786.775;  253.525;    0.000
1027.666; 4621.775;  248.525;    0.000
1027.823; 5185.775;  215.525;    0.000
1027.981; 5475.775;  248.525;    0.000
1028.138; 5586.775;  257.525;    0.000
1028.295; 4904.775;  215.525;    0.000
1028.452; 4621.775;  236.525;    0.000
1028.609; 4875.775;  240.525;    0.000
1028.767; 5536.775;  258.525;    0.000
1028.924; 5752.775;  211.525;    0.000
1029.081; 5323.775;  226.525;    0.000
1029.238; 5261.775;  228.525;    0.000
1029.395; 4896.775;  264.525;    0.000
1029.552; 5215.775;  227.525;    0.000
1029.709; 5751.775;  232.525;    0.000
1029.866; 6028.775;  223.525;    0.000
1030.023; 5569.775;  220.525;    0.000
1030.180; 4851.775;  222.525;    0.000
1030.337; 4930.775;  224.525;    0.000
1030.494; 5406.775;  228.525;    0.000
1030.650; 5859.775;  242.525;    0.000
1030.807; 6027.775;  214.525;    0.000
1030.964; 5390.775;  207.525;    0.000
1031.121; 5192.775;  236.525;    0.000
1031.277; 4906.775;  206.525;    0.000
1031.434; 5416.775;  249.525;    0.000
1031.591; 6026.775;  253.525;    0.000
1031.747; 6168.775;  240.525;    0.000
1031.904; 5895.775;  212.525;    0.000
1032.060; 5260.775;  185.525;    0.000
1032.217; 5153.775;  201.525;    0.000
1032.373; 5836.775;  207.525;    0.000
1032.530; 6305.775;  226.525;    0.000
1032.686; 7004.775;  226.525;    0.000
1032.843; 6837.775;  203.525;    0.000
1032.999; 6277.775;  233.525;    0.000
1033.155; 6227.775;  232.525;    0.000
1033.312; 6237.775;  239.525;    0.000
1033.468; 7459.775;  207.525;    0.000
1033.624; 8305.775;  238.525;    0.000
1033.780; 8467.775;  255.525;    0.000
1033.937; 8382.775;  188.525;    0.000
1034.093; 7669.775;  244.525;    0.000
1034.249; 7548.775;  182.525;    0.000
1034.405; 7673.775;  251.525;    0.000
1034.561; 8278.775;  250.525;    0.000
1034.717; 8728.775;  208.525;    0.000
1034.873; 8815.775;  210.525;    0.000
1035.029; 8947.775;  245.525;    0.000
1035.185; 8511.775;  230.525;    0.000
1035.341; 8018.775;  209.525;    0.000
1035.497; 8755.775;  244.525;    0.000
1035.653; 9256.775;  229.525;    0.000
1035.809; 9850.775;  275.525;    0.000
1035.964;10624.775;  203.525;    0.000
1036.120; 9796.775;  215.525;    0.000
1036.276; 9764.775;  228.525;    0.000
1036.432; 9545.775;  183.525;    0.000
1036.587; 9082.775;  214.525;    0.000
1036.743; 9989.775;  240.525;    0.000
1036.899;10551.775;  202.525;    0.000
1037.054;10655.775;  182.525;    0.000
1037.210;11615.775;  228.525;    0.000
1037.365;11868.775;  239.525;    0.000
1037.521;10769.775;  230.525;    0.000
1037.676;10954.775;  217.525;    0.000
1037.832; 9878.775;  235.525;    0.000
1037.987;10206.775;  210.525;    0.000
1038.143;10625.775;  206.525;    0.000
1038.298;12171.775;  177.525;    0.000
1038.453;11784.775;  215.525;    0.000
1038.609;12870.775;  210.525;    0.000
1038.764;13672.775;  227.525;    0.000
1038.919;11725.775;  197.525;    0.000
1039.074;12646.775;  183.525;    0.000
1039.229;10869.775;  218.525;    0.000
1039.385;11014.775;  251.525;    0.000
1039.540;11325.775;  222.525;    0.000
1039.695;12611.775;  215.525;    0.000
1039.850;13852.775;  204.525;    0.000
1040.005;14487.775;  241.525;    0.000
1040.160;15904.775;  180.525;    0.000
1040.315;15063.775;  197.525;    0.000
1040.470;14140.775;  180.525;    0.000
1040.625;13783.775;  196.525;    0.000
1040.780;13062.775;  245.525;    0.000
1040.935;13063.775;  204.525;    0.000
1041.089;13588.775;  213.525;    0.000
1041.244;15691.775;  200.525;    0.000
1041.399;16450.775;  212.525;    0.000
1041.554;16826.775;  239.525;    0.000
1041.708;19176.775;  238.525;    0.000
1041.863;18371.775;  213.525;    0.000
1042.018;16894.775;  236.525;    0.000
1042.172;16818.775;  238.525;    0.000
1042.327;15760.775;  254.525;    0.000
1042.481;16293.775;  197.525;    0.000
1042.636;16776.775;  205.525;    0.000
1042.791;16962.775;  218.525;    0.000
1042.945;19566.775;  261.525;    0.000
1043.099;21615.775;  201.525;    0.000
1043.254;20343.775;  191.525;    0.000
1043.408;21643.775;  279.525;    0.000
1043.563;23394.775;  203.525;    0.000
1043.717;21730.775;  229.525;    0.000
1043.871;20958.775;  213.525;    0.000
1044.025;21286.775;  240.525;    0.000
1044.180;20104.775;  220.525;    0.000
1044.334;20614.775;  268.525;    0.000
1044.488;21918.775;  261.525;    0.000
1044.642;21876.775;  205.525;    0.000
1044.796;24204.775;  240.525;    0.000
1044.950;27035.775;  258.525;    0.000
1045.104;28822.775;  218.525;    0.000
1045.258;29892.775;  213.525;    0.000
1045.412;28665.775;  223.525;    0.000
1045.566;27367.775;  240.525;    0.000
1045.720;27670.775;  235.525;    0.000
1045.874;25394.775;  221.525;    0.000
1046.028;23231.775;  247.525;    0.000
1046.182;22427.775;  200.525;    0.000
1046.336;23702.775;  220.525;    0.000
1046.489;25614.775;  228.525;    0.000
1046.643;25636.775;  249.525;    0.000
1046.797;27580.775;  230.525;    0.000
1046.951;28412.775;  234.525;    0.000
1047.104;29948.775;  262.525;    0.000
1047.258;31256.775;  210.525;    0.000
1047.411;33177.773;  235.525;    0.000
1047.565;31799.775;  237.525;    0.000
1047.719;30545.775;  237.525;    0.000
1047.872;29645.775;  225.525;    0.000
1048.026;27793.775;  237.525;    0.000
1048.179;27823.775;  220.525;    0.000
1048.332;29084.775;  219.525;    0.000
1048.486;27655.775;  195.525;    0.000
1048.639;28321.775;  213.525;    0.000
1048.792;28387.775;  245.525;    0.000
1048.946;30684.775;  234.525;    0.000
1049.099;34679.773;  226.525;    0.000
1049.252;35950.773;  282.525;    0.000
1049.406;33533.773;  255.525;    0.000
1049.559;33752.773;  223.525;    0.000
1049.712;38161.773;  253.525;    0.000
1049.865;41776.773;  271.525;    0.000
1050.018;39950.773;  241.525;    0.000
1050.171;34095.773;  202.525;    0.000
1050.324;32739.775;  250.525;    0.000
1050.477;34997.773;  251.525;    0.000
1050.630;37933.773;  216.525;    0.000
1050.783;38404.773;  205.525;    0.000
1050.936;35494.773;  219.525;    0.000
1051.089;34276.773;  247.525;    0.000
1051.242;36373.773;  238.525;    0.000
1051.394;40223.773;  252.525;    0.000
1051.547;43423.773;  245.525;    0.000
1051.700;39548.773;  206.525;    0.000
1051.853;37715.773;  270.525;    0.000
1052.005;39779.773;  245.525;    0.000
1052.158;45354.773;  290.525;    0.000
1052.311;50726.773;  237.525;    0.000
1052.463;48735.773;  271.525;    0.000
1052.616;43576.773;  255.525;    0.000
1052.768;38716.773;  257.525;    0.000
1052.921;37022.773;  289.525;    0.000
1053.073;39578.773;  287.525;    0.000
1053.226;43672.773;  268.525;    0.000
1053.378;51111.773;  294.525;    0.000
1053.531;54247.773;  255.525;    0.000
1053.683;50606.773;  293.525;    0.000
1053.835;41690.773;  274.525;    0.000
1053.988;32327.775;  282.525;    0.000
1054.140; 5786.775;  291.525;    0.000
1054.292; 1442.775;  292.525;    0.000
1054.444; 1116.775;  299.525;    0.000
1054.596; 1072.775;  319.525;    0.000
1054.749;  968.775;  295.525;    0.000
1054.901;  910.775;  266.525;    0.000
1055.053;  804.775;  300.525;    0.000
1055.205;  849.775;  290.525;    0.000
1055.357;  781.775;  304.525;    0.000
1055.509;  727.775;  292.525;    0.000
1055.661;  752.775;  339.525;    0.000
1055.813;  745.775;  306.525;    0.000
1055.965;  675.775;  293.525;    0.000
1056.116;  675.775;  300.525;    0.000
1056.268;  652.775;  306.525;    0.000
1056.420;  679.775;  288.525;    0.000

