
Integration time [ms]:   0.300
Averaging Nr. [scans]: 1
Smoothing Nr. [pixels]: 0
Data measured with spectrometer [name]: UV1
Wave   ;Sample   ;Dark     ;Reference
[nm]   ;[counts] ;[counts] ;[counts] 

236.381;  150.275;  160.350;    0.000
236.451;  212.275;  198.350;    0.000
236.520;  177.275;  179.350;    0.000
236.590;  200.275;  205.350;    0.000
236.660;  182.275;  199.350;    0.000
236.730;  187.275;  178.350;    0.000
236.799;  194.275;  201.350;    0.000
236.869;  160.275;  197.350;    0.000
236.939;  182.275;  180.350;    0.000
237.009;  191.275;  165.350;    0.000
237.078;  185.275;  191.350;    0.000
237.148;  157.275;  146.350;    0.000
237.218;  186.275;  142.350;    0.000
237.287;  191.275;  190.350;    0.000
237.357;  143.275;  182.350;    0.000
237.427;  196.275;  139.350;    0.000
237.496; 1332.275;  221.350;    0.000
237.566; 1333.275;  183.350;    0.000
237.636; 1325.275;  157.350;    0.000
237.705; 1259.275;  189.350;    0.000
237.775; 1298.275;  169.350;    0.000
237.845; 1310.275;  156.350;    0.000
237.914; 1282.275;  185.350;    0.000
237.984; 1334.275;  194.350;    0.000
238.054; 1291.275;  138.350;    0.000
238.123; 1277.275;  166.350;    0.000
238.193; 1285.275;  174.350;    0.000
238.263; 1321.275;  158.350;    0.000
238.332; 1225.275;  167.350;    0.000
238.402; 1325.275;  173.350;    0.000
238.471; 1226.275;  153.350;    0.000
238.541; 1270.275;  167.350;    0.000
238.611; 1290.275;  165.350;    0.000
238.680; 1252.275;  157.350;    0.000
238.750; 1282.275;  152.350;    0.000
238.819; 1273.275;  190.350;    0.000
238.889; 1341.275;  151.350;    0.000
238.958; 1313.275;  166.350;    0.000
239.028; 1312.275;  180.350;    0.000
239.097; 1261.275;  170.350;    0.000
239.167; 1362.275;  177.350;    0.000
239.237; 1296.275;  195.350;    0.000
239.306; 1316.275;  145.350;    0.000
239.376; 1332.275;  158.350;    0.000
239.445; 1334.275;  187.350;    0.000
239.515; 1287.275;  160.350;    0.000
239.584; 1282.275;  173.350;    0.000
239.654; 1324.275;  184.350;    0.000
239.723; 1240.275;  195.350;    0.000
239.793; 1241.275;  183.350;    0.000
239.862; 1255.275;  190.350;    0.000
239.932; 1223.275;  168.350;    0.000
240.001; 1252.275;  164.350;    0.000
240.070; 1304.275;  183.350;    0.000
240.140; 1236.275;  175.350;    0.000
240.209; 1241.275;  135.350;    0.000
240.279; 1267.275;  176.350;    0.000
240.348; 1316.275;  184.350;    0.000
240.418; 1270.275;  157.350;    0.000
240.487; 1224.275;  189.350;    0.000
240.556; 1266.275;  157.350;    0.000
240.626; 1243.275;  174.350;    0.000
240.695; 1252.275;  180.350;    0.000
240.765; 1267.275;  152.350;    0.000
240.834; 1262.275;  136.350;    0.000
240.903; 1241.275;  196.350;    0.000
240.973; 1205.275;  183.350;    0.000
241.042; 1192.275;  150.350;    0.000
241.112; 1241.275;  168.350;    0.000
241.181; 1305.275;  152.350;    0.000
241.250; 1184.275;  132.350;    0.000
241.320; 1316.275;  209.350;    0.000
241.389; 1220.275;  169.350;    0.000
241.458; 1272.275;  204.350;    0.000
241.528; 1210.275;  176.350;    0.000
241.597; 1240.275;  170.350;    0.000
241.666; 1256.275;  168.350;    0.000
241.736; 1230.275;  172.350;    0.000
241.805; 1224.275;  160.350;    0.000
241.874; 1255.275;  176.350;    0.000
241.943; 1232.275;  165.350;    0.000
242.013; 1264.275;  206.350;    0.000
242.082; 1241.275;  162.350;    0.000
242.151; 1274.275;  180.350;    0.000
242.221; 1187.275;  154.350;    0.000
242.290; 1226.275;  122.350;    0.000
242.359; 1202.275;  121.350;    0.000
242.428; 1226.275;  187.350;    0.000
242.498; 1229.275;  140.350;    0.000
242.567; 1217.275;  173.350;    0.000
242.636; 1231.275;  155.350;    0.000
242.705; 1155.275;  108.350;    0.000
242.774; 1243.275;  145.350;    0.000
242.844; 1238.275;  162.350;    0.000
242.913; 1222.275;  178.350;    0.000
242.982; 1175.275;  163.350;    0.000
243.051; 1145.275;  138.350;    0.000
243.120; 1199.275;  172.350;    0.000
243.190; 1211.275;  155.350;    0.000
243.259; 1243.275;  159.350;    0.000
243.328; 1191.275;  173.350;    0.000
243.397; 1152.275;  175.350;    0.000
243.466; 1201.275;  170.350;    0.000
243.535; 1287.275;  161.350;    0.000
243.605; 1161.275;  149.350;    0.000
243.674; 1165.275;  162.350;    0.000
243.743; 1260.275;  175.350;    0.000
243.812; 1144.275;  159.350;    0.000
243.881; 1223.275;  158.350;    0.000
243.950; 1174.275;  154.350;    0.000
244.019; 1184.275;  185.350;    0.000
244.088; 1200.275;  175.350;    0.000
244.158; 1202.275;  167.350;    0.000
244.227; 1137.275;  159.350;    0.000
244.296; 1189.275;  143.350;    0.000
244.365; 1230.275;  182.350;    0.000
244.434; 1106.275;  117.350;    0.000
244.503; 1187.275;  109.350;    0.000
244.572; 1168.275;  147.350;    0.000
244.641; 1114.275;  129.350;    0.000
244.710; 1183.275;  159.350;    0.000
244.779; 1189.275;  166.350;    0.000
244.848; 1127.275;  122.350;    0.000
244.917; 1128.275;  167.350;    0.000
244.986; 1149.275;  158.350;    0.000
245.055; 1227.275;  175.350;    0.000
245.124; 1142.275;  153.350;    0.000
245.193; 1147.275;  155.350;    0.000
245.262; 1120.275;  137.350;    0.000
245.331; 1154.275;  145.350;    0.000
245.400; 1125.275;  107.350;    0.000
245.469; 1129.275;  162.350;    0.000
245.538; 1139.275;  165.350;    0.000
245.607; 1152.275;  178.350;    0.000
245.676; 1035.275;  166.350;    0.000
245.745; 1058.275;  169.350;    0.000
245.814; 1066.275;  155.350;    0.000
245.883; 1059.275;  186.350;    0.000
245.952; 1000.275;  165.350;    0.000
246.021; 1073.275;  169.350;    0.000
246.090; 1057.275;  170.350;    0.000
246.159; 1067.275;  155.350;    0.000
246.227; 1051.275;  161.350;    0.000
246.296;  994.275;  142.350;    0.000
246.365; 1030.275;  160.350;    0.000
246.434; 1044.275;  199.350;    0.000
246.503; 1003.275;  155.350;    0.000
246.572; 1047.275;  206.350;    0.000
246.641; 1065.275;  177.350;    0.000
246.710; 1069.275;  178.350;    0.000
246.779; 1020.275;  193.350;    0.000
246.847; 1015.275;  147.350;    0.000
246.916;  989.275;  131.350;    0.000
246.985; 1022.275;  168.350;    0.000
247.054;  958.275;  143.350;    0.000
247.123;  998.275;  130.350;    0.000
247.192; 1049.275;  175.350;    0.000
247.260; 1078.275;  171.350;    0.000
247.329;  929.275;  162.350;    0.000
247.398; 1047.275;  163.350;    0.000
247.467; 1001.275;  155.350;    0.000
247.536; 1076.275;  149.350;    0.000
247.604; 1081.275;  191.350;    0.000
247.673; 1016.275;  193.350;    0.000
247.742;  989.275;  159.350;    0.000
247.811; 1016.275;  167.350;    0.000
247.879; 1022.275;  176.350;    0.000
247.948; 1008.275;  157.350;    0.000
248.017;  958.275;  150.350;    0.000
248.086;  978.275;  153.350;    0.000
248.154;  990.275;  157.350;    0.000
248.223; 1005.275;  198.350;    0.000
248.292;  984.275;  188.350;    0.000
248.361;  985.275;  157.350;    0.000
248.429;  963.275;  138.350;    0.000
248.498;  965.275;  166.350;    0.000
248.567;  998.275;  179.350;    0.000
248.635;  964.275;  210.350;    0.000
248.704; 1008.275;  168.350;    0.000
248.773;  979.275;  147.350;    0.000
248.841;  988.275;  155.350;    0.000
248.910; 1085.275;  183.350;    0.000
248.979;  968.275;  171.350;    0.000
249.047;  978.275;  152.350;    0.000
249.116; 1017.275;  155.350;    0.000
249.185;  986.275;  217.350;    0.000
249.253;  922.275;  149.350;    0.000
249.322;  962.275;  167.350;    0.000
249.390;  961.275;  182.350;    0.000
249.459;  970.275;  173.350;    0.000
249.528;  957.275;  162.350;    0.000
249.596;  983.275;  162.350;    0.000
249.665;  985.275;  163.350;    0.000
249.733;  892.275;  147.350;    0.000
249.802;  977.275;  170.350;    0.000
249.871;  952.275;  179.350;    0.000
249.939;  861.275;  179.350;    0.000
250.008;  978.275;  201.350;    0.000
250.076;  952.275;  189.350;    0.000
250.145;  976.275;  171.350;    0.000
250.213;  950.275;  161.350;    0.000
250.282;  938.275;  171.350;    0.000
250.350;  911.275;  138.350;    0.000
250.419;  930.275;  172.350;    0.000
250.487; 1008.275;  207.350;    0.000
250.556;  913.275;  160.350;    0.000
250.624;  959.275;  187.350;    0.000
250.693;  861.275;  141.350;    0.000
250.761;  923.275;  182.350;    0.000
250.830;  968.275;  203.350;    0.000
250.898;  900.275;  160.350;    0.000
250.967;  875.275;  143.350;    0.000
251.035;  908.275;  142.350;    0.000
251.104;  941.275;  159.350;    0.000
251.172;  948.275;  189.350;    0.000
251.241;  922.275;  134.350;    0.000
251.309;  897.275;  179.350;    0.000
251.378;  914.275;  203.350;    0.000
251.446;  942.275;  151.350;    0.000
251.514;  884.275;  176.350;    0.000
251.583;  875.275;  173.350;    0.000
251.651;  922.275;  163.350;    0.000
251.720;  899.275;  151.350;    0.000
251.788;  969.275;  205.350;    0.000
251.856;  892.275;  126.350;    0.000
251.925;  927.275;  118.350;    0.000
251.993;  941.275;  139.350;    0.000
252.062;  945.275;  161.350;    0.000
252.130;  910.275;  180.350;    0.000
252.198;  926.275;  141.350;    0.000
252.267;  881.275;  145.350;    0.000
252.335;  880.275;  159.350;    0.000
252.403;  934.275;  158.350;    0.000
252.472;  899.275;  142.350;    0.000
252.540;  859.275;  162.350;    0.000
252.608;  914.275;  180.350;    0.000
252.677;  856.275;  137.350;    0.000
252.745;  881.275;  183.350;    0.000
252.813;  819.275;  151.350;    0.000
252.881;  837.275;  109.350;    0.000
252.950;  827.275;  174.350;    0.000
253.018;  810.275;  136.350;    0.000
253.086;  814.275;  149.350;    0.000
253.155;  791.275;  127.350;    0.000
253.223;  796.275;  156.350;    0.000
253.291;  773.275;  163.350;    0.000
253.359;  793.275;  174.350;    0.000
253.428;  779.275;  174.350;    0.000
253.496;  739.275;  161.350;    0.000
253.564;  670.275;  128.350;    0.000
253.632;  734.275;  153.350;    0.000
253.700;  720.275;  185.350;    0.000
253.769;  731.275;  163.350;    0.000
253.837;  737.275;  176.350;    0.000
253.905;  767.275;  164.350;    0.000
253.973;  709.275;  156.350;    0.000
254.041;  744.275;  154.350;    0.000
254.110;  731.275;  165.350;    0.000
254.178;  684.275;  148.350;    0.000
254.246;  705.275;  138.350;    0.000
254.314;  722.275;  164.350;    0.000
254.382;  710.275;  167.350;    0.000
254.450;  705.275;  134.350;    0.000
254.518;  742.275;  192.350;    0.000
254.587;  716.275;  139.350;    0.000
254.655;  743.275;  162.350;    0.000
254.723;  713.275;  131.350;    0.000
254.791;  728.275;  181.350;    0.000
254.859;  773.275;  146.350;    0.000
254.927;  772.275;  189.350;    0.000
254.995;  689.275;  141.350;    0.000
255.063;  744.275;  181.350;    0.000
255.131;  722.275;  156.350;    0.000
255.199;  732.275;  175.350;    0.000
255.267;  642.275;  120.350;    0.000
255.336;  744.275;  186.350;    0.000
255.404;  704.275;  134.350;    0.000
255.472;  769.275;  172.350;    0.000
255.540;  730.275;  157.350;    0.000
255.608;  739.275;  186.350;    0.000
255.676;  710.275;  155.350;    0.000
255.744;  742.275;  143.350;    0.000
255.812;  766.275;  134.350;    0.000
255.880;  769.275;  188.350;    0.000
255.948;  819.275;  163.350;    0.000
256.016;  795.275;  175.350;    0.000
256.084;  821.275;  191.350;    0.000
256.152;  761.275;  187.350;    0.000
256.220;  796.275;  152.350;    0.000
256.288;  835.275;  141.350;    0.000
256.356;  773.275;  139.350;    0.000
256.424;  798.275;  121.350;    0.000
256.491;  774.275;  139.350;    0.000
256.559;  810.275;  144.350;    0.000
256.627;  805.275;  158.350;    0.000
256.695;  782.275;  121.350;    0.000
256.763;  857.275;  150.350;    0.000
256.831;  873.275;  181.350;    0.000
256.899;  871.275;  146.350;    0.000
256.967;  856.275;   71.350;    0.000
257.035;  869.275;  164.350;    0.000
257.103;  944.275;  191.350;    0.000
257.171;  888.275;  140.350;    0.000
257.238;  899.275;  165.350;    0.000
257.306;  962.275;  127.350;    0.000
257.374;  992.275;  120.350;    0.000
257.442;  930.275;  139.350;    0.000
257.510;  978.275;  158.350;    0.000
257.578;  951.275;  164.350;    0.000
257.646;  989.275;  151.350;    0.000
257.713; 1000.275;  136.350;    0.000
257.781;  945.275;  137.350;    0.000
257.849;  967.275;  151.350;    0.000
257.917;  985.275;  154.350;    0.000
257.985; 1114.275;  113.350;    0.000
258.052;  980.275;  140.350;    0.000
258.120; 1056.275;  176.350;    0.000
258.188; 1039.275;  157.350;    0.000
258.256; 1096.275;  153.350;    0.000
258.324; 1095.275;  184.350;    0.000
258.391; 1042.275;  144.350;    0.000
258.459; 1154.275;  162.350;    0.000
258.527; 1151.275;  154.350;    0.000
258.595; 1040.275;  122.350;    0.000
258.662; 1159.275;  164.350;    0.000
258.730; 1181.275;  114.350;    0.000
258.798; 1173.275;  131.350;    0.000
258.865; 1163.275;  171.350;    0.000
258.933; 1210.275;  145.350;    0.000
259.001; 1179.275;  150.350;    0.000
259.069; 1184.275;  123.350;    0.000
259.136; 1236.275;  139.350;    0.000
259.204; 1261.275;  165.350;    0.000
259.272; 1265.275;  114.350;    0.000
259.339; 1229.275;  179.350;    0.000
259.407; 1350.275;  153.350;    0.000
259.475; 1292.275;  143.350;    0.000
259.542; 1328.275;  136.350;    0.000
259.610; 1334.275;  133.350;    0.000
259.677; 1374.275;  159.350;    0.000
259.745; 1359.275;  130.350;    0.000
259.813; 1444.275;  175.350;    0.000
259.880; 1442.275;  158.350;    0.000
259.948; 1429.275;  124.350;    0.000
260.016; 1435.275;  105.350;    0.000
260.083; 1445.275;  169.350;    0.000
260.151; 1426.275;  133.350;    0.000
260.218; 1445.275;  143.350;    0.000
260.286; 1566.275;  134.350;    0.000
260.353; 1527.275;  160.350;    0.000
260.421; 1460.275;  128.350;    0.000
260.489; 1561.275;  150.350;    0.000
260.556; 1524.275;  179.350;    0.000
260.624; 1589.275;  113.350;    0.000
260.691; 1625.275;  128.350;    0.000
260.759; 1670.275;  146.350;    0.000
260.826; 1538.275;  111.350;    0.000
260.894; 1664.275;  115.350;    0.000
260.961; 1646.275;  138.350;    0.000
261.029; 1714.275;  152.350;    0.000
261.096; 1679.275;  175.350;    0.000
261.164; 1705.275;  131.350;    0.000
261.231; 1752.275;  141.350;    0.000
261.299; 1745.275;  125.350;    0.000
261.366; 1731.275;  142.350;    0.000
261.434; 1773.275;  133.350;    0.000
261.501; 1672.275;  137.350;    0.000
261.568; 1852.275;  184.350;    0.000
261.636; 1860.275;  138.350;    0.000
261.703; 1893.275;  161.350;    0.000
261.771; 1880.275;  160.350;    0.000
261.838; 1906.275;  178.350;    0.000
261.906; 1898.275;  128.350;    0.000
261.973; 1844.275;  139.350;    0.000
262.040; 1960.275;  148.350;    0.000
262.108; 1906.275;  130.350;    0.000
262.175; 1899.275;  117.350;    0.000
262.243; 1969.275;  174.350;    0.000
262.310; 1972.275;  145.350;    0.000
262.377; 1970.275;  108.350;    0.000
262.445; 2007.275;  147.350;    0.000
262.512; 2099.275;  124.350;    0.000
262.579; 2004.275;  127.350;    0.000
262.647; 2084.275;  166.350;    0.000
262.714; 2165.275;  150.350;    0.000
262.781; 2037.275;  121.350;    0.000
262.849; 2137.275;  126.350;    0.000
262.916; 2230.275;  119.350;    0.000
262.983; 2214.275;  155.350;    0.000
263.051; 2132.275;  137.350;    0.000
263.118; 2170.275;  160.350;    0.000
263.185; 2194.275;  151.350;    0.000
263.252; 2195.275;  167.350;    0.000
263.320; 2201.275;  123.350;    0.000
263.387; 2304.275;  134.350;    0.000
263.454; 2323.275;  144.350;    0.000
263.522; 2285.275;  153.350;    0.000
263.589; 2295.275;  161.350;    0.000
263.656; 2324.275;  117.350;    0.000
263.723; 2274.275;  101.350;    0.000
263.790; 2337.275;  128.350;    0.000
263.858; 2374.275;  142.350;    0.000
263.925; 2389.275;  182.350;    0.000
263.992; 2408.275;  146.350;    0.000
264.059; 2433.275;  132.350;    0.000
264.126; 2480.275;  154.350;    0.000
264.194; 2517.275;  153.350;    0.000
264.261; 2506.275;  157.350;    0.000
264.328; 2474.275;  171.350;    0.000
264.395; 2452.275;  166.350;    0.000
264.462; 2524.275;  165.350;    0.000
264.529; 2474.275;  124.350;    0.000
264.597; 2523.275;  120.350;    0.000
264.664; 2651.275;  159.350;    0.000
264.731; 2544.275;  145.350;    0.000
264.798; 2584.275;  100.350;    0.000
264.865; 2569.275;  166.350;    0.000
264.932; 2599.275;  132.350;    0.000
264.999; 2647.275;  137.350;    0.000
265.066; 2576.275;  124.350;    0.000
265.133; 2692.275;  162.350;    0.000
265.201; 2668.275;  163.350;    0.000
265.268; 2697.275;  174.350;    0.000
265.335; 2689.275;  132.350;    0.000
265.402; 2660.275;  116.350;    0.000
265.469; 2710.275;  121.350;    0.000
265.536; 2728.275;  157.350;    0.000
265.603; 2850.275;  151.350;    0.000
265.670; 2714.275;  164.350;    0.000
265.737; 2776.275;  142.350;    0.000
265.804; 2825.275;  146.350;    0.000
265.871; 2770.275;  168.350;    0.000
265.938; 2921.275;  131.350;    0.000
266.005; 2827.275;  208.350;    0.000
266.072; 2788.275;  125.350;    0.000
266.139; 2840.275;  161.350;    0.000
266.206; 2913.275;  134.350;    0.000
266.273; 2880.275;  155.350;    0.000
266.340; 2797.275;  122.350;    0.000
266.407; 2880.275;  134.350;    0.000
266.474; 2900.275;  126.350;    0.000
266.541; 2814.275;  153.350;    0.000
266.608; 3008.275;  129.350;    0.000
266.675; 2944.275;  185.350;    0.000
266.742; 2898.275;  153.350;    0.000
266.808; 3050.275;  169.350;    0.000
266.875; 2915.275;  156.350;    0.000
266.942; 2920.275;  172.350;    0.000
267.009; 2986.275;  150.350;    0.000
267.076; 3005.275;  184.350;    0.000
267.143; 3047.275;  170.350;    0.000
267.210; 2979.275;  132.350;    0.000
267.277; 3080.275;  146.350;    0.000
267.344; 3091.275;  159.350;    0.000
267.410; 3074.275;  174.350;    0.000
267.477; 3093.275;  169.350;    0.000
267.544; 3145.275;  130.350;    0.000
267.611; 3062.275;  169.350;    0.000
267.678; 3121.275;  197.350;    0.000
267.745; 3155.275;  185.350;    0.000
267.811; 3086.275;  160.350;    0.000
267.878; 3190.275;  143.350;    0.000
267.945; 3107.275;  126.350;    0.000
268.012; 3140.275;  172.350;    0.000
268.079; 3015.275;  156.350;    0.000
268.145; 3099.275;  128.350;    0.000
268.212; 3187.275;  107.350;    0.000
268.279; 3213.275;  135.350;    0.000
268.346; 3132.275;  166.350;    0.000
268.412; 3129.275;  150.350;    0.000
268.479; 3075.275;  176.350;    0.000
268.546; 3065.275;  119.350;    0.000
268.613; 3104.275;  201.350;    0.000
268.679; 3054.275;  141.350;    0.000
268.746; 3218.275;  177.350;    0.000
268.813; 3087.275;  134.350;    0.000
268.879; 3094.275;  141.350;    0.000
268.946; 3106.275;  172.350;    0.000
269.013; 3149.275;  150.350;    0.000
269.079; 3063.275;  124.350;    0.000
269.146; 3191.275;  135.350;    0.000
269.213; 3101.275;  200.350;    0.000
269.280; 3079.275;  142.350;    0.000
269.346; 3148.275;  153.350;    0.000
269.413; 3087.275;  140.350;    0.000
269.479; 3173.275;  171.350;    0.000
269.546; 3138.275;  156.350;    0.000
269.613; 2915.275;  145.350;    0.000
269.679; 3124.275;  168.350;    0.000
269.746; 3093.275;  136.350;    0.000
269.813; 3212.275;  153.350;    0.000
269.879; 3073.275;  162.350;    0.000
269.946; 3125.275;  156.350;    0.000
270.012; 3150.275;  178.350;    0.000
270.079; 3030.275;  132.350;    0.000
270.145; 3126.275;  146.350;    0.000
270.212; 3080.275;  145.350;    0.000
270.279; 3072.275;  184.350;    0.000
270.345; 3107.275;  143.350;    0.000
270.412; 3083.275;  158.350;    0.000
270.478; 3129.275;  143.350;    0.000
270.545; 3158.275;  150.350;    0.000
270.611; 3114.275;  156.350;    0.000
270.678; 3099.275;  121.350;    0.000
270.744; 3091.275;  161.350;    0.000
270.811; 3032.275;  173.350;    0.000
270.877; 3045.275;  115.350;    0.000
270.944; 3037.275;  114.350;    0.000
271.010; 2977.275;  122.350;    0.000
271.077; 3027.275;  142.350;    0.000
271.143; 3146.275;  152.350;    0.000
271.210; 3088.275;  135.350;    0.000
271.276; 3012.275;  107.350;    0.000
271.342; 3042.275;  173.350;    0.000
271.409; 3163.275;  171.350;    0.000
271.475; 3061.275;  136.350;    0.000
271.542; 3040.275;  121.350;    0.000
271.608; 3092.275;  133.350;    0.000
271.675; 2977.275;  136.350;    0.000
271.741; 3117.275;  151.350;    0.000
271.807; 3046.275;  130.350;    0.000
271.874; 3084.275;  168.350;    0.000
271.940; 2998.275;  156.350;    0.000
272.007; 3094.275;  122.350;    0.000
272.073; 2958.275;  121.350;    0.000
272.139; 3069.275;  137.350;    0.000
272.206; 3118.275;  152.350;    0.000
272.272; 3061.275;  162.350;    0.000
272.338; 3041.275;  197.350;    0.000
272.405; 3061.275;  144.350;    0.000
272.471; 3130.275;  160.350;    0.000
272.537; 3069.275;  142.350;    0.000
272.604; 3120.275;  141.350;    0.000
272.670; 3030.275;  182.350;    0.000
272.736; 3120.275;  126.350;    0.000
272.802; 3119.275;  146.350;    0.000
272.869; 3068.275;  163.350;    0.000
272.935; 3146.275;  132.350;    0.000
273.001; 3017.275;  119.350;    0.000
273.068; 3128.275;  137.350;    0.000
273.134; 3155.275;  155.350;    0.000
273.200; 3090.275;  165.350;    0.000
273.266; 3129.275;  156.350;    0.000
273.333; 3270.275;  143.350;    0.000
273.399; 3092.275;  128.350;    0.000
273.465; 3199.275;  167.350;    0.000
273.531; 3165.275;  122.350;    0.000
273.597; 3172.275;  182.350;    0.000
273.664; 3195.275;  177.350;    0.000
273.730; 3164.275;  124.350;    0.000
273.796; 3235.275;  143.350;    0.000
273.862; 3108.275;  155.350;    0.000
273.928; 3172.275;  137.350;    0.000
273.995; 3431.275;  188.350;    0.000
274.061; 3222.275;  154.350;    0.000
274.127; 3303.275;  161.350;    0.000
274.193; 3190.275;   95.350;    0.000
274.259; 3244.275;  128.350;    0.000
274.325; 3193.275;  146.350;    0.000
274.391; 3249.275;  113.350;    0.000
274.457; 3321.275;  150.350;    0.000
274.524; 3319.275;  165.350;    0.000
274.590; 3174.275;  140.350;    0.000
274.656; 3272.275;  165.350;    0.000
274.722; 3306.275;  118.350;    0.000
274.788; 3338.275;  143.350;    0.000
274.854; 3377.275;  150.350;    0.000
274.920; 3405.275;   88.350;    0.000
274.986; 3392.275;  178.350;    0.000
275.052; 3463.275;  145.350;    0.000
275.118; 3431.275;  105.350;    0.000
275.184; 3578.275;  129.350;    0.000
275.250; 3572.275;  138.350;    0.000
275.316; 3500.275;  173.350;    0.000
275.382; 3483.275;  106.350;    0.000
275.448; 3623.275;  160.350;    0.000
275.514; 3589.275;  162.350;    0.000
275.580; 3644.275;  135.350;    0.000
275.646; 3690.275;  120.350;    0.000
275.712; 3773.275;  157.350;    0.000
275.778; 3677.275;  128.350;    0.000
275.844; 3756.275;  117.350;    0.000
275.910; 3762.275;  121.350;    0.000
275.976; 3949.275;  172.350;    0.000
276.042; 4064.275;  114.350;    0.000
276.108; 4058.275;  200.350;    0.000
276.174; 3990.275;  132.350;    0.000
276.240; 4151.275;  128.350;    0.000
276.306; 4206.275;  124.350;    0.000
276.372; 4020.275;  133.350;    0.000
276.437; 4209.275;  146.350;    0.000
276.503; 4249.275;  136.350;    0.000
276.569; 4425.275;  162.350;    0.000
276.635; 4341.275;  128.350;    0.000
276.701; 4532.275;  148.350;    0.000
276.767; 4524.275;  155.350;    0.000
276.833; 4646.275;  128.350;    0.000
276.899; 4672.275;  145.350;    0.000
276.964; 4686.275;  124.350;    0.000
277.030; 5020.275;  130.350;    0.000
277.096; 5034.275;  139.350;    0.000
277.162; 5207.275;  164.350;    0.000
277.228; 5250.275;  108.350;    0.000
277.293; 5521.275;  138.350;    0.000
277.359; 5728.275;  123.350;    0.000
277.425; 5911.275;  183.350;    0.000
277.491; 6387.275;  144.350;    0.000
277.557; 7675.275;  130.350;    0.000
277.622;10320.275;  151.350;    0.000
277.688; 9984.275;  169.350;    0.000
277.754;10287.275;  199.350;    0.000
277.820;11077.275;  170.350;    0.000
277.885;12777.275;  173.350;    0.000
277.951;15368.275;  187.350;    0.000
278.017;13398.275;  152.350;    0.000
278.083;12023.275;  137.350;    0.000
278.148;11450.275;  147.350;    0.000
278.214;11774.275;  162.350;    0.000
278.280;12476.275;  171.350;    0.000
278.345;11063.275;  174.350;    0.000
278.411;10261.275;  152.350;    0.000
278.477;10425.275;  173.350;    0.000
278.542;11157.275;  161.350;    0.000
278.608;11966.275;  155.350;    0.000
278.674;13033.275;  169.350;    0.000
278.739;14416.275;  142.350;    0.000
278.805;16300.275;  164.350;    0.000
278.871;19002.275;  160.350;    0.000
278.936;23709.275;  121.350;    0.000
279.002;34612.273;  166.350;    0.000
279.067;43796.273;  199.350;    0.000
279.133;41492.273;  150.350;    0.000
279.199;37523.273;  154.350;    0.000
279.264;38386.273;  154.350;    0.000
279.330;43954.273;  159.350;    0.000
279.395;53252.273;  143.350;    0.000
279.461;61392.273;  173.350;    0.000
279.527;64497.273;  163.350;    0.000
279.592;63353.273;  167.350;    0.000
279.658;59071.273;  189.350;    0.000
279.723;59604.273;  153.350;    0.000
279.789;61778.273;  174.350;    0.000
279.854;55376.273;  129.350;    0.000
279.920;46494.273;  165.350;    0.000
279.985;43149.273;  152.350;    0.000
280.051;43844.273;  164.350;    0.000
280.116;50343.273;  187.350;    0.000
280.182;59834.273;  160.350;    0.000
280.247;63565.273;  124.350;    0.000
280.313;57952.273;  154.350;    0.000
280.378;46078.273;  152.350;    0.000
280.444;35603.273;  165.350;    0.000
280.509;29157.275;  164.350;    0.000
280.574;24886.275;  160.350;    0.000
280.640;21520.275;  167.350;    0.000
280.705;19353.275;  190.350;    0.000
280.771;17653.275;  154.350;    0.000
280.836;16348.275;  158.350;    0.000
280.902;15413.275;  124.350;    0.000
280.967;14192.275;  179.350;    0.000
281.032;13738.275;  187.350;    0.000
281.098;13036.275;  155.350;    0.000
281.163;12262.275;  133.350;    0.000
281.229;11712.275;  170.350;    0.000
281.294;11136.275;  175.350;    0.000
281.359;10625.275;  163.350;    0.000
281.425;10436.275;  161.350;    0.000
281.490; 9899.275;  162.350;    0.000
281.555; 9610.275;  137.350;    0.000
281.621; 9236.275;  163.350;    0.000
281.686; 9090.275;  155.350;    0.000
281.751; 8800.275;  158.350;    0.000
281.816; 8563.275;  139.350;    0.000
281.882; 8253.275;  150.350;    0.000
281.947; 8134.275;  165.350;    0.000
282.012; 7927.275;  171.350;    0.000
282.078; 7680.275;  177.350;    0.000
282.143; 7539.275;  149.350;    0.000
282.208; 7456.275;  181.350;    0.000
282.273; 7543.275;  166.350;    0.000
282.339; 7271.275;  165.350;    0.000
282.404; 7054.275;  166.350;    0.000
282.469; 6921.275;  150.350;    0.000
282.534; 6790.275;  176.350;    0.000
282.600; 6761.275;  117.350;    0.000
282.665; 6721.275;  134.350;    0.000
282.730; 6499.275;  155.350;    0.000
282.795; 6564.275;  193.350;    0.000
282.860; 6531.275;  160.350;    0.000
282.926; 6492.275;  174.350;    0.000
282.991; 6436.275;  161.350;    0.000
283.056; 6391.275;  157.350;    0.000
283.121; 6222.275;  178.350;    0.000
283.186; 6181.275;  152.350;    0.000
283.251; 6012.275;  167.350;    0.000
283.316; 6176.275;  186.350;    0.000
283.382; 6065.275;  148.350;    0.000
283.447; 6095.275;  191.350;    0.000
283.512; 6002.275;  132.350;    0.000
283.577; 6034.275;  179.350;    0.000
283.642; 5856.275;  185.350;    0.000
283.707; 5968.275;  136.350;    0.000
283.772; 5951.275;  119.350;    0.000
283.837; 5961.275;  136.350;    0.000
283.902; 5845.275;  135.350;    0.000
283.967; 5898.275;  146.350;    0.000
284.032; 5876.275;  140.350;    0.000
284.097; 5999.275;  199.350;    0.000
284.163; 5978.275;  144.350;    0.000
284.228; 5866.275;  183.350;    0.000
284.293; 6021.275;  141.350;    0.000
284.358; 6136.275;  146.350;    0.000
284.423; 6159.275;  127.350;    0.000
284.488; 6347.275;  186.350;    0.000
284.553; 6641.275;  155.350;    0.000
284.618; 6654.275;  118.350;    0.000
284.683; 6980.275;  145.350;    0.000
284.748; 7221.275;  139.350;    0.000
284.812; 7987.275;  147.350;    0.000
284.877; 8600.275;  123.350;    0.000
284.942; 9933.275;  153.350;    0.000
285.007;11952.275;  168.350;    0.000
285.072;15636.275;  181.350;    0.000
285.137;20353.275;  147.350;    0.000
285.202;24706.275;  175.350;    0.000
285.267;24054.275;  182.350;    0.000
285.332;18506.275;  136.350;    0.000
285.397;14042.275;  138.350;    0.000
285.462;11686.275;  151.350;    0.000
285.527;10269.275;  159.350;    0.000
285.591; 9195.275;  177.350;    0.000
285.656; 8333.275;  144.350;    0.000
285.721; 7833.275;  125.350;    0.000
285.786; 7565.275;  169.350;    0.000
285.851; 6926.275;  175.350;    0.000
285.916; 6793.275;  164.350;    0.000
285.981; 6818.275;  134.350;    0.000
286.045; 6514.275;  154.350;    0.000
286.110; 6268.275;  136.350;    0.000
286.175; 6311.275;  155.350;    0.000
286.240; 6066.275;  138.350;    0.000
286.305; 6011.275;  213.350;    0.000
286.369; 5919.275;  221.350;    0.000
286.434; 5924.275;  172.350;    0.000
286.499; 5683.275;  161.350;    0.000
286.564; 5819.275;  189.350;    0.000
286.628; 5621.275;  144.350;    0.000
286.693; 5629.275;  176.350;    0.000
286.758; 5632.275;  168.350;    0.000
286.823; 5615.275;  142.350;    0.000
286.887; 5527.275;  134.350;    0.000
286.952; 5516.275;  180.350;    0.000
287.017; 5374.275;  204.350;    0.000
287.082; 5408.275;  120.350;    0.000
287.146; 5411.275;  173.350;    0.000
287.211; 5477.275;  167.350;    0.000
287.276; 5384.275;  164.350;    0.000
287.340; 5403.275;  138.350;    0.000
287.405; 5232.275;  172.350;    0.000
287.470; 5275.275;  142.350;    0.000
287.534; 5390.275;  155.350;    0.000
287.599; 5294.275;  166.350;    0.000
287.663; 5299.275;  171.350;    0.000
287.728; 5316.275;  190.350;    0.000
287.793; 5255.275;  197.350;    0.000
287.857; 5233.275;  165.350;    0.000
287.922; 5219.275;  147.350;    0.000
287.987; 5167.275;  167.350;    0.000
288.051; 5142.275;  151.350;    0.000
288.116; 5217.275;  154.350;    0.000
288.180; 5136.275;  186.350;    0.000
288.245; 5193.275;  161.350;    0.000
288.309; 5065.275;  177.350;    0.000
288.374; 5259.275;  151.350;    0.000
288.439; 5098.275;  169.350;    0.000
288.503; 4944.275;  133.350;    0.000
288.568; 5128.275;  206.350;    0.000
288.632; 5128.275;  192.350;    0.000
288.697; 5159.275;  183.350;    0.000
288.761; 4983.275;  148.350;    0.000
288.826; 5110.275;  136.350;    0.000
288.890; 5060.275;  185.350;    0.000
288.955; 4994.275;  150.350;    0.000
289.019; 5101.275;  165.350;    0.000
289.084; 5043.275;  150.350;    0.000
289.148; 4933.275;  146.350;    0.000
289.212; 4898.275;  172.350;    0.000
289.277; 4949.275;  177.350;    0.000
289.341; 4892.275;  190.350;    0.000
289.406; 4839.275;  117.350;    0.000
289.470; 4980.275;  173.350;    0.000
289.535; 4909.275;  170.350;    0.000
289.599; 4804.275;  154.350;    0.000
289.663; 5044.275;  173.350;    0.000
289.728; 4863.275;  176.350;    0.000
289.792; 4940.275;  138.350;    0.000
289.857; 4860.275;  203.350;    0.000
289.921; 4854.275;  143.350;    0.000
289.985; 5000.275;  150.350;    0.000
290.050; 4821.275;  170.350;    0.000
290.114; 4900.275;  125.350;    0.000
290.178; 4952.275;  161.350;    0.000
290.243; 4933.275;  119.350;    0.000
290.307; 5004.275;  169.350;    0.000
290.371; 4914.275;  169.350;    0.000
290.436; 5084.275;  170.350;    0.000
290.500; 4996.275;  144.350;    0.000
290.564; 4960.275;  179.350;    0.000
290.629; 4924.275;  166.350;    0.000
290.693; 5005.275;  156.350;    0.000
290.757; 4834.275;  147.350;    0.000
290.821; 5066.275;  170.350;    0.000
290.886; 5006.275;  167.350;    0.000
290.950; 5046.275;  187.350;    0.000
291.014; 5032.275;  164.350;    0.000
291.078; 4967.275;  115.350;    0.000
291.143; 5153.275;  149.350;    0.000
291.207; 5115.275;  163.350;    0.000
291.271; 5127.275;  177.350;    0.000
291.335; 5106.275;  148.350;    0.000
291.399; 5291.275;  155.350;    0.000
291.464; 5570.275;  114.350;    0.000
291.528; 5897.275;  153.350;    0.000
291.592; 5671.275;  156.350;    0.000
291.656; 5523.275;  170.350;    0.000
291.720; 5399.275;  159.350;    0.000
291.784; 5369.275;  159.350;    0.000
291.849; 5486.275;  154.350;    0.000
291.913; 5287.275;  118.350;    0.000
291.977; 5273.275;  157.350;    0.000
292.041; 5443.275;  163.350;    0.000
292.105; 5486.275;  135.350;    0.000
292.169; 5353.275;  155.350;    0.000
292.233; 5489.275;  163.350;    0.000
292.297; 5596.275;  144.350;    0.000
292.361; 5627.275;  143.350;    0.000
292.425; 5705.275;  177.350;    0.000
292.490; 5778.275;  159.350;    0.000
292.554; 6168.275;  137.350;    0.000
292.618; 6396.275;  144.350;    0.000
292.682; 6811.275;  169.350;    0.000
292.746; 7660.275;  166.350;    0.000
292.810;10359.275;  147.350;    0.000
292.874;12850.275;  160.350;    0.000
292.938;12584.275;  174.350;    0.000
293.002;11467.275;  148.350;    0.000
293.066;10230.275;  115.350;    0.000
293.130; 9553.275;  133.350;    0.000
293.194; 9177.275;  148.350;    0.000
293.258; 8662.275;  167.350;    0.000
293.322; 8651.275;  166.350;    0.000
293.386; 8943.275;  193.350;    0.000
293.450; 9166.275;  142.350;    0.000
293.514;10362.275;  170.350;    0.000
293.577;13723.275;  153.350;    0.000
293.641;18589.275;  171.350;    0.000
293.705;19689.275;  168.350;    0.000
293.769;17217.275;  155.350;    0.000
293.833;14883.275;  161.350;    0.000
293.897;13145.275;  124.350;    0.000
293.961;11868.275;  165.350;    0.000
294.025;10742.275;  118.350;    0.000
294.089; 9922.275;  125.350;    0.000
294.152; 9195.275;  160.350;    0.000
294.216; 8560.275;  160.350;    0.000
294.280; 8114.275;  158.350;    0.000
294.344; 7715.275;  119.350;    0.000
294.408; 7403.275;  168.350;    0.000
294.472; 7127.275;  156.350;    0.000
294.536; 7026.275;  192.350;    0.000
294.599; 6757.275;  171.350;    0.000
294.663; 6595.275;  139.350;    0.000
294.727; 6445.275;  136.350;    0.000
294.791; 6257.275;  118.350;    0.000
294.855; 6195.275;  118.350;    0.000
294.918; 5998.275;  127.350;    0.000
294.982; 5999.275;  167.350;    0.000
295.046; 5804.275;  178.350;    0.000
295.110; 5792.275;  157.350;    0.000
295.173; 5569.275;  101.350;    0.000
295.237; 5533.275;  145.350;    0.000
295.301; 5615.275;  135.350;    0.000
295.364; 5442.275;  185.350;    0.000
295.428; 5422.275;  112.350;    0.000
295.492; 5352.275;  142.350;    0.000
295.556; 5336.275;  170.350;    0.000
295.619; 5381.275;  193.350;    0.000
295.683; 5147.275;  144.350;    0.000
295.747; 5223.275;  152.350;    0.000
295.810; 5188.275;  139.350;    0.000
295.874; 5118.275;  157.350;    0.000
295.938; 4966.275;  128.350;    0.000
296.001; 4969.275;  164.350;    0.000
296.065; 4975.275;  184.350;    0.000
296.128; 5004.275;  127.350;    0.000
296.192; 4915.275;  166.350;    0.000
296.256; 4815.275;  154.350;    0.000
296.319; 4812.275;  128.350;    0.000
296.383; 4901.275;  146.350;    0.000
296.447; 4812.275;  155.350;    0.000
296.510; 4841.275;  177.350;    0.000
296.574; 4653.275;  169.350;    0.000
296.637; 4602.275;  140.350;    0.000
296.701; 4792.275;  181.350;    0.000
296.764; 4636.275;  131.350;    0.000
296.828; 4712.275;  194.350;    0.000
296.891; 4632.275;  146.350;    0.000
296.955; 4645.275;  160.350;    0.000
297.018; 4604.275;  174.350;    0.000
297.082; 4492.275;  153.350;    0.000
297.145; 4532.275;  133.350;    0.000
297.209; 4542.275;  149.350;    0.000
297.272; 4394.275;  150.350;    0.000
297.336; 4538.275;  119.350;    0.000
297.399; 4566.275;  160.350;    0.000
297.463; 4514.275;  158.350;    0.000
297.526; 4529.275;  160.350;    0.000
297.590; 4481.275;  173.350;    0.000
297.653; 4483.275;  121.350;    0.000
297.717; 4311.275;  168.350;    0.000
297.780; 4321.275;  131.350;    0.000
297.843; 4440.275;  154.350;    0.000
297.907; 4322.275;  126.350;    0.000
297.970; 4443.275;  180.350;    0.000
298.034; 4505.275;  140.350;    0.000
298.097; 4434.275;  207.350;    0.000
298.160; 4278.275;  177.350;    0.000
298.224; 4369.275;  165.350;    0.000
298.287; 4243.275;  160.350;    0.000
298.350; 4374.275;  176.350;    0.000
298.414; 4443.275;  155.350;    0.000
298.477; 4279.275;  132.350;    0.000
298.540; 4298.275;  162.350;    0.000
298.604; 4321.275;  180.350;    0.000
298.667; 4221.275;  208.350;    0.000
298.730; 4241.275;  177.350;    0.000
298.794; 4243.275;  126.350;    0.000
298.857; 4107.275;  171.350;    0.000
298.920; 4168.275;  124.350;    0.000
298.984; 4164.275;  146.350;    0.000
299.047; 4226.275;  140.350;    0.000
299.110; 4153.275;  159.350;    0.000
299.173; 4099.275;  177.350;    0.000
299.237; 4124.275;  196.350;    0.000
299.300; 4166.275;  121.350;    0.000
299.363; 4197.275;  172.350;    0.000
299.426; 4058.275;  117.350;    0.000
299.489; 4055.275;  138.350;    0.000
299.553; 4138.275;  198.350;    0.000
299.616; 4007.275;  158.350;    0.000
299.679; 3986.275;  148.350;    0.000
299.742; 3983.275;  138.350;    0.000
299.805; 4025.275;  157.350;    0.000
299.868; 4015.275;  183.350;    0.000
299.932; 3927.275;  137.350;    0.000
299.995; 3889.275;  152.350;    0.000
300.058; 3953.275;  171.350;    0.000
300.121; 4020.275;  172.350;    0.000
300.184; 3997.275;  161.350;    0.000
300.247; 3953.275;  156.350;    0.000
300.310; 3970.275;  154.350;    0.000
300.374; 3916.275;  147.350;    0.000
300.437; 4002.275;  144.350;    0.000
300.500; 4026.275;  152.350;    0.000
300.563; 3872.275;  160.350;    0.000
300.626; 3925.275;  167.350;    0.000
300.689; 3940.275;  193.350;    0.000
300.752; 3933.275;  134.350;    0.000
300.815; 3917.275;  194.350;    0.000
300.878; 3902.275;  156.350;    0.000
300.941; 3856.275;  177.350;    0.000
301.004; 3718.275;  160.350;    0.000
301.067; 3898.275;  153.350;    0.000
301.130; 3978.275;  167.350;    0.000
301.193; 3853.275;  156.350;    0.000
301.256; 3774.275;  176.350;    0.000
301.319; 3719.275;  172.350;    0.000
301.382; 3823.275;  150.350;    0.000
301.445; 3941.275;  183.350;    0.000
301.508; 3864.275;  118.350;    0.000
301.571; 3739.275;  142.350;    0.000
301.634; 3731.275;  164.350;    0.000
301.697; 3781.275;  169.350;    0.000
301.760; 3834.275;  197.350;    0.000
301.823; 3876.275;  155.350;    0.000
301.885; 3763.275;  165.350;    0.000
301.948; 3819.275;  168.350;    0.000
302.011; 3820.275;  172.350;    0.000
302.074; 3761.275;  182.350;    0.000
302.137; 3754.275;  161.350;    0.000
302.200; 3771.275;  174.350;    0.000
302.263; 3785.275;  158.350;    0.000
302.326; 3774.275;  168.350;    0.000
302.388; 3764.275;  165.350;    0.000
302.451; 3699.275;  158.350;    0.000
302.514; 3717.275;  181.350;    0.000
302.577; 3796.275;  147.350;    0.000
302.640; 3723.275;  178.350;    0.000
302.703; 3570.275;  164.350;    0.000
302.765; 3733.275;  149.350;    0.000
302.828; 3800.275;  192.350;    0.000
302.891; 3772.275;  201.350;    0.000
302.954; 3623.275;  135.350;    0.000
303.016; 3793.275;  180.350;    0.000
303.079; 3698.275;  192.350;    0.000
303.142; 3754.275;  176.350;    0.000
303.205; 3696.275;  176.350;    0.000
303.267; 3805.275;  163.350;    0.000
303.330; 3654.275;  162.350;    0.000
303.393; 3671.275;  164.350;    0.000
303.456; 3681.275;  180.350;    0.000
303.518; 3730.275;  162.350;    0.000
303.581; 3768.275;  137.350;    0.000
303.644; 3715.275;  135.350;    0.000
303.706; 3715.275;  170.350;    0.000
303.769; 3812.275;  216.350;    0.000
303.832; 3729.275;  143.350;    0.000
303.894; 3828.275;  162.350;    0.000
303.957; 3675.275;  149.350;    0.000
304.020; 3683.275;  111.350;    0.000
304.082; 3712.275;  158.350;    0.000
304.145; 3790.275;  149.350;    0.000
304.207; 3716.275;  169.350;    0.000
304.270; 3717.275;  170.350;    0.000
304.333; 3621.275;  185.350;    0.000
304.395; 3750.275;  179.350;    0.000
304.458; 3745.275;  174.350;    0.000
304.520; 3802.275;  160.350;    0.000
304.583; 3806.275;  175.350;    0.000
304.646; 3744.275;  160.350;    0.000
304.708; 3719.275;  173.350;    0.000
304.771; 3724.275;  115.350;    0.000
304.833; 3707.275;  172.350;    0.000
304.896; 3655.275;  187.350;    0.000
304.958; 3680.275;  142.350;    0.000
305.021; 3753.275;  164.350;    0.000
305.083; 3734.275;  139.350;    0.000
305.146; 3787.275;  162.350;    0.000
305.208; 3793.275;  135.350;    0.000
305.271; 3716.275;  159.350;    0.000
305.333; 3824.275;  210.350;    0.000
305.396; 3761.275;  151.350;    0.000
305.458; 3727.275;  195.350;    0.000
305.520; 3726.275;  179.350;    0.000
305.583; 3828.275;  157.350;    0.000
305.645; 3822.275;  187.350;    0.000
305.708; 3692.275;  159.350;    0.000
305.770; 3769.275;  189.350;    0.000
305.833; 3695.275;  147.350;    0.000
305.895; 3764.275;  154.350;    0.000
305.957; 3727.275;  143.350;    0.000
306.020; 3814.275;  133.350;    0.000
306.082; 3674.275;  146.350;    0.000
306.144; 3841.275;  171.350;    0.000
306.207; 3740.275;  151.350;    0.000
306.269; 3703.275;  169.350;    0.000
306.331; 3803.275;  162.350;    0.000
306.394; 3765.275;  171.350;    0.000
306.456; 3658.275;  155.350;    0.000
306.518; 3752.275;  183.350;    0.000
306.581; 3779.275;  180.350;    0.000
306.643; 3705.275;  199.350;    0.000
306.705; 3720.275;  163.350;    0.000
306.768; 3723.275;  183.350;    0.000
306.830; 3868.275;  183.350;    0.000
306.892; 3865.275;  190.350;    0.000
306.954; 3818.275;  161.350;    0.000
307.017; 3838.275;  151.350;    0.000
307.079; 3821.275;  147.350;    0.000
307.141; 3774.275;  179.350;    0.000
307.203; 3954.275;  143.350;    0.000
307.266; 3891.275;  142.350;    0.000
307.328; 3969.275;  161.350;    0.000
307.390; 3870.275;  189.350;    0.000
307.452; 3877.275;  155.350;    0.000
307.514; 3861.275;  211.350;    0.000
307.577; 3853.275;  201.350;    0.000
307.639; 3914.275;  192.350;    0.000
307.701; 3953.275;  162.350;    0.000
307.763; 4030.275;  155.350;    0.000
307.825; 4018.275;  193.350;    0.000
307.887; 3968.275;  214.350;    0.000
307.949; 3993.275;  208.350;    0.000
308.012; 3960.275;  175.350;    0.000
308.074; 3903.275;  155.350;    0.000
308.136; 4023.275;  172.350;    0.000
308.198; 3986.275;  171.350;    0.000
308.260; 4070.275;  182.350;    0.000
308.322; 4094.275;  177.350;    0.000
308.384; 4137.275;  207.350;    0.000
308.446; 4007.275;  170.350;    0.000
308.508; 4151.275;  177.350;    0.000
308.570; 4143.275;  195.350;    0.000
308.632; 4165.275;  190.350;    0.000
308.694; 4156.275;  161.350;    0.000
308.756; 4155.275;  173.350;    0.000
308.818; 4153.275;  190.350;    0.000
308.880; 4227.275;  197.350;    0.000
308.942; 4308.275;  223.350;    0.000
309.004; 4412.275;  176.350;    0.000
309.066; 4407.275;  182.350;    0.000
309.128; 4488.275;  185.350;    0.000
309.190; 4735.275;  166.350;    0.000
309.252; 4898.275;  191.350;    0.000
309.314; 4800.275;  208.350;    0.000
309.376; 4853.275;  205.350;    0.000
309.438; 4828.275;  166.350;    0.000
309.500; 4705.275;  195.350;    0.000
309.562; 4789.275;  163.350;    0.000
309.624; 5026.275;  162.350;    0.000
309.686; 5014.275;  194.350;    0.000
309.747; 5200.275;  179.350;    0.000
309.809; 4894.275;  211.350;    0.000
309.871; 4806.275;  191.350;    0.000
309.933; 4653.275;  151.350;    0.000
309.995; 4605.275;  179.350;    0.000
310.057; 4620.275;  175.350;    0.000
310.119; 4463.275;  161.350;    0.000
310.180; 4359.275;  167.350;    0.000
310.242; 4320.275;  171.350;    0.000
310.304; 4256.275;  209.350;    0.000
310.366; 4374.275;  229.350;    0.000
310.428; 4263.275;  132.350;    0.000
310.489; 4223.275;  165.350;    0.000
310.551; 4360.275;  193.350;    0.000
310.613; 4306.275;  182.350;    0.000
310.675; 4239.275;  186.350;    0.000
310.737; 4281.275;  192.350;    0.000
310.798; 4169.275;  194.350;    0.000
310.860; 4154.275;  220.350;    0.000
310.922; 4247.275;  161.350;    0.000
310.983; 4201.275;  203.350;    0.000
311.045; 4144.275;  198.350;    0.000
311.107; 4110.275;  179.350;    0.000
311.169; 4071.275;  154.350;    0.000
311.230; 4079.275;  134.350;    0.000
311.292; 4126.275;  215.350;    0.000
311.354; 4152.275;  171.350;    0.000
311.415; 4141.275;  195.350;    0.000
311.477; 4225.275;  185.350;    0.000
311.539; 4129.275;  183.350;    0.000
311.600; 4163.275;  183.350;    0.000
311.662; 4028.275;  207.350;    0.000
311.724; 3958.275;  193.350;    0.000
311.785; 4128.275;  180.350;    0.000
311.847; 4072.275;  155.350;    0.000
311.908; 4021.275;  179.350;    0.000
311.970; 4134.275;  193.350;    0.000
312.032; 4047.275;  188.350;    0.000
312.093; 4026.275;  166.350;    0.000
312.155; 4088.275;  147.350;    0.000
312.216; 4054.275;  177.350;    0.000
312.278; 4145.275;  162.350;    0.000
312.339; 4031.275;  158.350;    0.000
312.401; 4181.275;  181.350;    0.000
312.462; 4154.275;  153.350;    0.000
312.524; 4157.275;  186.350;    0.000
312.585; 4116.275;  191.350;    0.000
312.647; 4063.275;  131.350;    0.000
312.708; 4004.275;  170.350;    0.000
312.770; 4165.275;  194.350;    0.000
312.831; 4048.275;  161.350;    0.000
312.893; 4202.275;  179.350;    0.000
312.954; 4221.275;  183.350;    0.000
313.016; 4126.275;  189.350;    0.000
313.077; 4132.275;  169.350;    0.000
313.139; 4168.275;  148.350;    0.000
313.200; 4239.275;  155.350;    0.000
313.261; 4176.275;  213.350;    0.000
313.323; 4117.275;  162.350;    0.000
313.384; 4144.275;  160.350;    0.000
313.446; 4132.275;  202.350;    0.000
313.507; 4133.275;  149.350;    0.000
313.568; 4166.275;  194.350;    0.000
313.630; 4088.275;  163.350;    0.000
313.691; 4180.275;  158.350;    0.000
313.752; 4108.275;  179.350;    0.000
313.814; 4108.275;  180.350;    0.000
313.875; 4033.275;  191.350;    0.000
313.936; 4134.275;  169.350;    0.000
313.998; 4058.275;  165.350;    0.000
314.059; 4106.275;  211.350;    0.000
314.120; 4066.275;  190.350;    0.000
314.182; 4064.275;  185.350;    0.000
314.243; 4173.275;  186.350;    0.000
314.304; 4087.275;  178.350;    0.000
314.365; 4057.275;  187.350;    0.000
314.427; 4085.275;  145.350;    0.000
314.488; 4118.275;  184.350;    0.000
314.549; 4058.275;  181.350;    0.000
314.610; 4155.275;  151.350;    0.000
314.672; 4074.275;  153.350;    0.000
314.733; 4024.275;  148.350;    0.000
314.794; 3991.275;  156.350;    0.000
314.855; 4147.275;  196.350;    0.000
314.917; 4097.275;  157.350;    0.000
314.978; 4087.275;  174.350;    0.000
315.039; 4102.275;  168.350;    0.000
315.100; 4221.275;  154.350;    0.000
315.161; 4067.275;  176.350;    0.000
315.222; 4010.275;  198.350;    0.000
315.283; 4025.275;  169.350;    0.000
315.345; 4029.275;  162.350;    0.000
315.406; 4092.275;  199.350;    0.000
315.467; 4059.275;  180.350;    0.000
315.528; 4077.275;  179.350;    0.000
315.589; 3932.275;  166.350;    0.000
315.650; 4014.275;  179.350;    0.000
315.711; 4070.275;  177.350;    0.000
315.772; 3899.275;  180.350;    0.000
315.833; 4102.275;  157.350;    0.000
315.894; 4120.275;  133.350;    0.000
315.955; 3917.275;  205.350;    0.000
316.016; 3931.275;  190.350;    0.000
316.078; 4033.275;  174.350;    0.000
316.139; 3995.275;  208.350;    0.000
316.200; 3958.275;  166.350;    0.000
316.261; 3966.275;  186.350;    0.000
316.322; 3927.275;  185.350;    0.000
316.383; 4078.275;  179.350;    0.000
316.444; 3943.275;  172.350;    0.000
316.504; 3815.275;  181.350;    0.000
316.565; 3943.275;  197.350;    0.000
316.626; 3927.275;  196.350;    0.000
316.687; 3997.275;  173.350;    0.000
316.748; 4037.275;  178.350;    0.000
316.809; 3897.275;  178.350;    0.000
316.870; 3947.275;  134.350;    0.000
316.931; 3935.275;  166.350;    0.000
316.992; 3902.275;  200.350;    0.000
317.053; 3960.275;  169.350;    0.000
317.114; 3968.275;  185.350;    0.000
317.175; 4055.275;  213.350;    0.000
317.235; 3901.275;  199.350;    0.000
317.296; 3949.275;  190.350;    0.000
317.357; 3918.275;  152.350;    0.000
317.418; 3902.275;  192.350;    0.000
317.479; 3985.275;  170.350;    0.000
317.540; 3946.275;  179.350;    0.000
317.601; 3864.275;  155.350;    0.000
317.661; 3891.275;  154.350;    0.000
317.722; 3863.275;  190.350;    0.000
317.783; 3886.275;  149.350;    0.000
317.844; 3899.275;  207.350;    0.000
317.904; 3962.275;  153.350;    0.000
317.965; 3899.275;  179.350;    0.000
318.026; 3925.275;  235.350;    0.000
318.087; 4005.275;  184.350;    0.000
318.148; 3917.275;  201.350;    0.000
318.208; 3869.275;  220.350;    0.000
318.269; 3913.275;  175.350;    0.000
318.330; 3896.275;  185.350;    0.000
318.390; 3888.275;  180.350;    0.000
318.451; 3820.275;  164.350;    0.000
318.512; 3778.275;  150.350;    0.000
318.572; 3906.275;  205.350;    0.000
318.633; 3966.275;  224.350;    0.000
318.694; 3922.275;  202.350;    0.000
318.754; 3912.275;  196.350;    0.000
318.815; 3879.275;  187.350;    0.000
318.876; 3911.275;  200.350;    0.000
318.936; 3817.275;  232.350;    0.000
318.997; 3893.275;  211.350;    0.000
319.058; 3958.275;  194.350;    0.000
319.118; 3909.275;  197.350;    0.000
319.179; 3987.275;  162.350;    0.000
319.239; 3938.275;  188.350;    0.000
319.300; 3858.275;  205.350;    0.000
319.361; 3885.275;  179.350;    0.000
319.421; 3880.275;  182.350;    0.000
319.482; 3949.275;  189.350;    0.000
319.542; 3743.275;  180.350;    0.000
319.603; 3847.275;  204.350;    0.000
319.663; 3914.275;  195.350;    0.000
319.724; 3738.275;  135.350;    0.000
319.784; 3806.275;  184.350;    0.000
319.845; 3737.275;  160.350;    0.000
319.905; 3789.275;  206.350;    0.000
319.966; 3817.275;  203.350;    0.000
320.026; 3895.275;  203.350;    0.000
320.087; 3909.275;  206.350;    0.000
320.147; 3778.275;  180.350;    0.000
320.208; 3910.275;  189.350;    0.000
320.268; 3886.275;  179.350;    0.000
320.329; 3749.275;  215.350;    0.000
320.389; 3742.275;  193.350;    0.000
320.449; 3767.275;  210.350;    0.000
320.510; 3825.275;  206.350;    0.000
320.570; 3623.275;  221.350;    0.000
320.631; 3784.275;  203.350;    0.000
320.691; 3757.275;  190.350;    0.000
320.751; 3909.275;  205.350;    0.000
320.812; 3852.275;  191.350;    0.000
320.872; 3937.275;  216.350;    0.000
320.932; 3880.275;  209.350;    0.000
320.993; 3916.275;  189.350;    0.000
321.053; 3834.275;  228.350;    0.000
321.113; 3878.275;  163.350;    0.000
321.174; 3768.275;  204.350;    0.000
321.234; 3876.275;  214.350;    0.000
321.294; 3864.275;  184.350;    0.000
321.355; 3773.275;  216.350;    0.000
321.415; 3879.275;  187.350;    0.000
321.475; 3804.275;  216.350;    0.000
321.535; 3814.275;  189.350;    0.000
321.596; 3728.275;  186.350;    0.000
321.656; 3800.275;  204.350;    0.000
321.716; 3735.275;  183.350;    0.000
321.776; 3782.275;  194.350;    0.000
321.837; 3831.275;  190.350;    0.000
321.897; 3746.275;  219.350;    0.000
321.957; 3772.275;  222.350;    0.000
322.017; 3779.275;  183.350;    0.000
322.077; 3845.275;  239.350;    0.000
322.138; 3815.275;  219.350;    0.000
322.198; 3799.275;  185.350;    0.000
322.258; 3702.275;  231.350;    0.000
322.318; 3675.275;  197.350;    0.000
322.378; 3660.275;  179.350;    0.000
322.438; 3733.275;  217.350;    0.000
322.499; 3735.275;  238.350;    0.000
322.559; 3701.275;  197.350;    0.000
322.619; 3745.275;  204.350;    0.000
322.679; 3646.275;  199.350;    0.000
322.739; 3612.275;  194.350;    0.000
322.799; 3687.275;  203.350;    0.000
322.859; 3764.275;  234.350;    0.000
322.919; 3820.275;  194.350;    0.000
322.979; 3723.275;  219.350;    0.000
323.039; 3654.275;  193.350;    0.000
323.099; 3761.275;  207.350;    0.000
323.159; 3712.275;  213.350;    0.000
323.219; 3650.275;  171.350;    0.000
323.279; 3765.275;  215.350;    0.000
323.339; 3627.275;  170.350;    0.000
323.399; 3736.275;  195.350;    0.000
323.459; 3812.275;  234.350;    0.000
323.519; 3839.275;  201.350;    0.000
323.579; 3740.275;  167.350;    0.000
323.639; 3751.275;  209.350;    0.000
323.699; 3688.275;  217.350;    0.000
323.759; 3720.275;  213.350;    0.000
323.819; 3659.275;  216.350;    0.000
323.879; 3746.275;  193.350;    0.000
323.939; 3583.275;  182.350;    0.000
323.999; 3626.275;  206.350;    0.000
324.059; 3746.275;  196.350;    0.000
324.119; 3733.275;  240.350;    0.000
324.178; 3709.275;  186.350;    0.000
324.238; 3703.275;  179.350;    0.000
324.298; 3711.275;  195.350;    0.000
324.358; 3725.275;  208.350;    0.000
324.418; 3698.275;  190.350;    0.000
324.478; 3648.275;  197.350;    0.000
324.538; 3671.275;  157.350;    0.000
324.597; 3659.275;  219.350;    0.000
324.657; 3640.275;  176.350;    0.000
324.717; 3529.275;  179.350;    0.000
324.777; 3550.275;  190.350;    0.000
324.837; 3719.275;  172.350;    0.000
324.896; 3591.275;  199.350;    0.000
324.956; 3676.275;  216.350;    0.000
325.016; 3664.275;  191.350;    0.000
325.076; 3599.275;  185.350;    0.000
325.135; 3599.275;  174.350;    0.000
325.195; 3613.275;  175.350;    0.000
325.255; 3624.275;  144.350;    0.000
325.315; 3718.275;  201.350;    0.000
325.374; 3647.275;  198.350;    0.000
325.434; 3593.275;  181.350;    0.000
325.494; 3736.275;  183.350;    0.000
325.553; 3642.275;  172.350;    0.000
325.613; 3645.275;  200.350;    0.000
325.673; 3631.275;  177.350;    0.000
325.732; 3694.275;  174.350;    0.000
325.792; 3612.275;  181.350;    0.000
325.852; 3677.275;  214.350;    0.000
325.911; 3738.275;  230.350;    0.000
325.971; 3739.275;  198.350;    0.000
326.031; 3649.275;  201.350;    0.000
326.090; 3702.275;  214.350;    0.000
326.150; 3668.275;  163.350;    0.000
326.209; 3621.275;  207.350;    0.000
326.269; 3613.275;  201.350;    0.000
326.328; 3688.275;  208.350;    0.000
326.388; 3615.275;  169.350;    0.000
326.448; 3716.275;  229.350;    0.000
326.507; 3554.275;  243.350;    0.000
326.567; 3588.275;  162.350;    0.000
326.626; 3598.275;  200.350;    0.000
326.686; 3689.275;  166.350;    0.000
326.745; 3546.275;  178.350;    0.000
326.805; 3573.275;  185.350;    0.000
326.864; 3602.275;  209.350;    0.000
326.924; 3615.275;  234.350;    0.000
326.983; 3532.275;  197.350;    0.000
327.043; 3555.275;  217.350;    0.000
327.102; 3514.275;  174.350;    0.000
327.161; 3621.275;  172.350;    0.000
327.221; 3623.275;  183.350;    0.000
327.280; 3644.275;  200.350;    0.000
327.340; 3543.275;  200.350;    0.000
327.399; 3591.275;  219.350;    0.000
327.459; 3544.275;  246.350;    0.000
327.518; 3487.275;  217.350;    0.000
327.577; 3548.275;  212.350;    0.000
327.637; 3427.275;  188.350;    0.000
327.696; 3469.275;  201.350;    0.000
327.755; 3510.275;  199.350;    0.000
327.815; 3589.275;  224.350;    0.000
327.874; 3624.275;  236.350;    0.000
327.933; 3577.275;  182.350;    0.000
327.993; 3532.275;  206.350;    0.000
328.052; 3513.275;  191.350;    0.000
328.111; 3572.275;  222.350;    0.000
328.171; 3484.275;  200.350;    0.000
328.230; 3446.275;  203.350;    0.000
328.289; 3490.275;  219.350;    0.000
328.349; 3594.275;  231.350;    0.000
328.408; 3502.275;  223.350;    0.000
328.467; 3554.275;  226.350;    0.000
328.526; 3499.275;  197.350;    0.000
328.586; 3469.275;  221.350;    0.000
328.645; 3513.275;  199.350;    0.000
328.704; 3491.275;  227.350;    0.000
328.763; 3511.275;  201.350;    0.000
328.822; 3435.275;  230.350;    0.000
328.882; 3556.275;  244.350;    0.000
328.941; 3548.275;  221.350;    0.000
329.000; 3449.275;  207.350;    0.000
329.059; 3501.275;  208.350;    0.000
329.118; 3493.275;  203.350;    0.000
329.177; 3370.275;  198.350;    0.000
329.237; 3596.275;  218.350;    0.000
329.296; 3514.275;  213.350;    0.000
329.355; 3426.275;  208.350;    0.000
329.414; 3498.275;  231.350;    0.000
329.473; 3495.275;  221.350;    0.000
329.532; 3616.275;  243.350;    0.000
329.591; 3453.275;  210.350;    0.000
329.650; 3529.275;  232.350;    0.000
329.709; 3663.275;  211.350;    0.000
329.768; 3687.275;  194.350;    0.000
329.827; 3782.275;  237.350;    0.000
329.886; 3676.275;  213.350;    0.000
329.945; 3964.275;  190.350;    0.000
330.004; 4023.275;  233.350;    0.000
330.063; 4141.275;  191.350;    0.000
330.122; 4765.275;  234.350;    0.000
330.181; 5360.275;  220.350;    0.000
330.240; 5536.275;  191.350;    0.000
330.299; 4837.275;  210.350;    0.000
330.358; 4262.275;  191.350;    0.000
330.417; 3846.275;  225.350;    0.000
330.476; 3820.275;  226.350;    0.000
330.535; 3666.275;  217.350;    0.000
330.594; 3464.275;  205.350;    0.000
330.653; 3535.275;  193.350;    0.000
330.712; 3449.275;  206.350;    0.000
330.771; 3474.275;  175.350;    0.000
330.830; 3365.275;  204.350;    0.000
330.889; 3400.275;  198.350;    0.000
330.948; 3405.275;  198.350;    0.000
331.006; 3280.275;  207.350;    0.000
331.065; 3457.275;  203.350;    0.000
331.124; 3416.275;  210.350;    0.000
331.183; 3344.275;  165.350;    0.000
331.242; 3332.275;  195.350;    0.000
331.301; 3306.275;  191.350;    0.000
331.359; 3362.275;  205.350;    0.000
331.418; 3286.275;  183.350;    0.000
331.477; 3384.275;  198.350;    0.000
331.536; 3330.275;  211.350;    0.000
331.595; 3327.275;  191.350;    0.000
331.653; 3305.275;  232.350;    0.000
331.712; 3265.275;  225.350;    0.000
331.771; 3354.275;  199.350;    0.000
331.830; 3319.275;  189.350;    0.000
331.888; 3241.275;  219.350;    0.000
331.947; 3312.275;  188.350;    0.000
332.006; 3292.275;  180.350;    0.000
332.065; 3369.275;  177.350;    0.000
332.123; 3381.275;  214.350;    0.000
332.182; 3386.275;  223.350;    0.000
332.241; 3336.275;  202.350;    0.000
332.299; 3210.275;  180.350;    0.000
332.358; 3358.275;  206.350;    0.000
332.417; 3434.275;  195.350;    0.000
332.475; 3323.275;  221.350;    0.000
332.534; 3370.275;  207.350;    0.000
332.592; 3401.275;  190.350;    0.000
332.651; 3357.275;  203.350;    0.000
332.710; 3445.275;  219.350;    0.000
332.768; 3369.275;  210.350;    0.000
332.827; 3431.275;  173.350;    0.000
332.885; 3438.275;  239.350;    0.000
332.944; 3446.275;  145.350;    0.000
333.003; 3368.275;  197.350;    0.000
333.061; 3394.275;  179.350;    0.000
333.120; 3573.275;  198.350;    0.000
333.178; 3575.275;  185.350;    0.000
333.237; 3657.275;  204.350;    0.000
333.295; 3580.275;  266.350;    0.000
333.354; 3551.275;  181.350;    0.000
333.412; 3474.275;  189.350;    0.000
333.471; 3549.275;  216.350;    0.000
333.529; 3574.275;  220.350;    0.000
333.588; 3504.275;  193.350;    0.000
333.646; 3811.275;  186.350;    0.000
333.705; 3793.275;  210.350;    0.000
333.763; 3782.275;  222.350;    0.000
333.822; 3663.275;  222.350;    0.000
333.880; 3592.275;  202.350;    0.000
333.938; 3537.275;  205.350;    0.000
333.997; 3324.275;  199.350;    0.000
334.055; 3599.275;  199.350;    0.000
334.114; 3565.275;  237.350;    0.000
334.172; 3520.275;  155.350;    0.000
334.230; 3416.275;  208.350;    0.000
334.289; 3524.275;  191.350;    0.000
334.347; 3523.275;  211.350;    0.000
334.405; 3480.275;  212.350;    0.000
334.464; 3416.275;  179.350;    0.000
334.522; 3472.275;  160.350;    0.000
334.580; 3450.275;  195.350;    0.000
334.639; 3503.275;  191.350;    0.000
334.697; 3396.275;  194.350;    0.000
334.755; 3370.275;  185.350;    0.000
334.814; 3470.275;  214.350;    0.000
334.872; 3357.275;  179.350;    0.000
334.930; 3317.275;  169.350;    0.000
334.988; 3400.275;  201.350;    0.000
335.047; 3497.275;  188.350;    0.000
335.105; 3503.275;  175.350;    0.000
335.163; 3378.275;  191.350;    0.000
335.221; 3448.275;  196.350;    0.000
335.280; 3356.275;  182.350;    0.000
335.338; 3352.275;  202.350;    0.000
335.396; 3359.275;  219.350;    0.000
335.454; 3431.275;  187.350;    0.000
335.512; 3444.275;  236.350;    0.000
335.570; 3490.275;  209.350;    0.000
335.629; 3404.275;  247.350;    0.000
335.687; 3299.275;  219.350;    0.000
335.745; 3367.275;  203.350;    0.000
335.803; 3408.275;  220.350;    0.000
335.861; 3509.275;  208.350;    0.000
335.919; 3432.275;  223.350;    0.000
335.977; 3399.275;  201.350;    0.000
336.035; 3391.275;  193.350;    0.000
336.094; 3318.275;  178.350;    0.000
336.152; 3370.275;  182.350;    0.000
336.210; 3476.275;  199.350;    0.000
336.268; 3421.275;  216.350;    0.000
336.326; 3399.275;  216.350;    0.000
336.384; 3453.275;  201.350;    0.000
336.442; 3353.275;  197.350;    0.000
336.500; 3342.275;  203.350;    0.000
336.558; 3400.275;  198.350;    0.000
336.616; 3361.275;  210.350;    0.000
336.674; 3416.275;  192.350;    0.000
336.732; 3356.275;  182.350;    0.000
336.790; 3311.275;  189.350;    0.000
336.848; 3310.275;  233.350;    0.000
336.906; 3240.275;  235.350;    0.000
336.964; 3384.275;  208.350;    0.000
337.022; 3354.275;  249.350;    0.000
337.080; 3363.275;  204.350;    0.000
337.138; 3385.275;  176.350;    0.000
337.195; 3376.275;  207.350;    0.000
337.253; 3388.275;  214.350;    0.000
337.311; 3289.275;  210.350;    0.000
337.369; 3361.275;  222.350;    0.000
337.427; 3238.275;  236.350;    0.000
337.485; 3260.275;  241.350;    0.000
337.543; 3276.275;  217.350;    0.000
337.601; 3370.275;  221.350;    0.000
337.658; 3318.275;  205.350;    0.000
337.716; 3235.275;  210.350;    0.000
337.774; 3166.275;  196.350;    0.000
337.832; 3310.275;  200.350;    0.000
337.890; 3231.275;  192.350;    0.000
337.947; 3213.275;  192.350;    0.000
338.005; 3243.275;  211.350;    0.000
338.063; 3277.275;  176.350;    0.000
338.121; 3301.275;  222.350;    0.000
338.178; 3303.275;  198.350;    0.000
338.236; 3232.275;  210.350;    0.000
338.294; 3271.275;  211.350;    0.000
338.352; 3232.275;  212.350;    0.000
338.409; 3238.275;  199.350;    0.000
338.467; 3273.275;  205.350;    0.000
338.525; 3184.275;  217.350;    0.000
338.583; 3207.275;  197.350;    0.000
338.640; 3194.275;  226.350;    0.000
338.698; 3229.275;  201.350;    0.000
338.756; 3190.275;  192.350;    0.000
338.813; 3274.275;  220.350;    0.000
338.871; 3199.275;  258.350;    0.000
338.928; 3149.275;  223.350;    0.000
338.986; 3340.275;  200.350;    0.000
339.044; 3231.275;  206.350;    0.000
339.101; 3259.275;  250.350;    0.000
339.159; 3207.275;  245.350;    0.000
339.216; 3224.275;  227.350;    0.000
339.274; 3222.275;  260.350;    0.000
339.332; 3245.275;  223.350;    0.000
339.389; 3271.275;  233.350;    0.000
339.447; 3243.275;  206.350;    0.000
339.504; 3178.275;  229.350;    0.000
339.562; 3197.275;  194.350;    0.000
339.619; 3172.275;  245.350;    0.000
339.677; 3245.275;  238.350;    0.000
339.734; 3217.275;  197.350;    0.000
339.792; 3187.275;  210.350;    0.000
339.849; 3178.275;  201.350;    0.000
339.907; 3100.275;  252.350;    0.000
339.964; 3150.275;  191.350;    0.000
340.022; 3118.275;  246.350;    0.000
340.079; 3247.275;  213.350;    0.000
340.137; 3177.275;  240.350;    0.000
340.194; 3148.275;  208.350;    0.000
340.252; 3073.275;  215.350;    0.000
340.309; 3107.275;  203.350;    0.000
340.366; 3101.275;  194.350;    0.000
340.424; 3244.275;  226.350;    0.000
340.481; 3228.275;  234.350;    0.000
340.538; 3154.275;  205.350;    0.000
340.596; 3089.275;  197.350;    0.000
340.653; 3124.275;  233.350;    0.000
340.711; 3202.275;  273.350;    0.000
340.768; 3136.275;  237.350;    0.000
340.825; 3181.275;  224.350;    0.000
340.883; 3248.275;  240.350;    0.000
340.940; 3088.275;  216.350;    0.000
340.997; 3203.275;  228.350;    0.000
341.054; 3136.275;  200.350;    0.000
341.112; 3168.275;  220.350;    0.000
341.169; 3234.275;  226.350;    0.000
341.226; 3166.275;  206.350;    0.000
341.284; 3207.275;  204.350;    0.000
341.341; 3136.275;  214.350;    0.000
341.398; 3164.275;  160.350;    0.000
341.455; 3133.275;  209.350;    0.000
341.512; 3229.275;  233.350;    0.000
341.570; 3101.275;  240.350;    0.000
341.627; 3150.275;  209.350;    0.000
341.684; 3126.275;  178.350;    0.000
341.741; 3248.275;  254.350;    0.000
341.798; 3232.275;  232.350;    0.000
341.856; 3314.275;  196.350;    0.000
341.913; 3211.275;  244.350;    0.000
341.970; 3191.275;  203.350;    0.000
342.027; 3262.275;  235.350;    0.000
342.084; 3174.275;  214.350;    0.000
342.141; 3217.275;  194.350;    0.000
342.198; 3163.275;  194.350;    0.000
342.255; 3181.275;  219.350;    0.000
342.313; 3243.275;  195.350;    0.000
342.370; 3235.275;  207.350;    0.000
342.427; 3242.275;  217.350;    0.000
342.484; 3217.275;  213.350;    0.000
342.541; 3168.275;  215.350;    0.000
342.598; 3145.275;  247.350;    0.000
342.655; 3141.275;  205.350;    0.000
342.712; 3229.275;  226.350;    0.000
342.769; 3162.275;  212.350;    0.000
342.826; 3130.275;  203.350;    0.000
342.883; 3192.275;  207.350;    0.000
342.940; 3236.275;  204.350;    0.000
342.997; 3274.275;  237.350;    0.000
343.054; 3165.275;  210.350;    0.000
343.111; 3251.275;  209.350;    0.000
343.168; 3296.275;  201.350;    0.000
343.225; 3240.275;  208.350;    0.000
343.282; 3355.275;  216.350;    0.000
343.339; 3290.275;  237.350;    0.000
343.395; 3369.275;  218.350;    0.000
343.452; 3346.275;  234.350;    0.000
343.509; 3376.275;  214.350;    0.000
343.566; 3433.275;  222.350;    0.000
343.623; 3295.275;  226.350;    0.000
343.680; 3432.275;  245.350;    0.000
343.737; 3453.275;  209.350;    0.000
343.794; 3396.275;  227.350;    0.000
343.850; 3488.275;  197.350;    0.000
343.907; 3483.275;  211.350;    0.000
343.964; 3598.275;  190.350;    0.000
344.021; 3568.275;  252.350;    0.000
344.078; 3548.275;  261.350;    0.000
344.134; 3482.275;  206.350;    0.000
344.191; 3473.275;  231.350;    0.000
344.248; 3467.275;  225.350;    0.000
344.305; 3402.275;  210.350;    0.000
344.361; 3456.275;  194.350;    0.000
344.418; 3545.275;  219.350;    0.000
344.475; 3494.275;  245.350;    0.000
344.532; 3487.275;  238.350;    0.000
344.588; 3493.275;  235.350;    0.000
344.645; 3498.275;  229.350;    0.000
344.702; 3522.275;  145.350;    0.000
344.758; 3445.275;  240.350;    0.000
344.815; 3387.275;  215.350;    0.000
344.872; 3414.275;  203.350;    0.000
344.928; 3355.275;  208.350;    0.000
344.985; 3471.275;  216.350;    0.000
345.042; 3508.275;  234.350;    0.000
345.098; 3443.275;  183.350;    0.000
345.155; 3465.275;  241.350;    0.000
345.212; 3413.275;  222.350;    0.000
345.268; 3359.275;  234.350;    0.000
345.325; 3428.275;  181.350;    0.000
345.381; 3479.275;  251.350;    0.000
345.438; 3486.275;  256.350;    0.000
345.495; 3416.275;  247.350;    0.000
345.551; 3459.275;  231.350;    0.000
345.608; 3366.275;  206.350;    0.000
345.664; 3365.275;  201.350;    0.000
345.721; 3383.275;  216.350;    0.000
345.777; 3320.275;  195.350;    0.000
345.834; 3303.275;  195.350;    0.000
345.890; 3439.275;  227.350;    0.000
345.947; 3466.275;  240.350;    0.000
346.003; 3403.275;  248.350;    0.000
346.060; 3362.275;  213.350;    0.000
346.116; 3399.275;  225.350;    0.000
346.173; 3441.275;  199.350;    0.000
346.229; 3455.275;  264.350;    0.000
346.285; 3461.275;  246.350;    0.000
346.342; 3423.275;  240.350;    0.000
346.398; 3397.275;  222.350;    0.000
346.455; 3458.275;  231.350;    0.000
346.511; 3423.275;  214.350;    0.000
346.567; 3466.275;  231.350;    0.000
346.624; 3449.275;  222.350;    0.000
346.680; 3482.275;  197.350;    0.000
346.737; 3403.275;  225.350;    0.000
346.793; 3427.275;  255.350;    0.000
346.849; 3519.275;  245.350;    0.000
346.906; 3466.275;  221.350;    0.000
346.962; 3563.275;  260.350;    0.000
347.018; 3529.275;  238.350;    0.000
347.074; 3485.275;  257.350;    0.000
347.131; 3403.275;  200.350;    0.000
347.187; 3573.275;  232.350;    0.000
347.243; 3503.275;  240.350;    0.000
347.300; 3482.275;  249.350;    0.000
347.356; 3458.275;  250.350;    0.000
347.412; 3521.275;  252.350;    0.000
347.468; 3430.275;  254.350;    0.000
347.524; 3577.275;  280.350;    0.000
347.581; 3445.275;  228.350;    0.000
347.637; 3517.275;  261.350;    0.000
347.693; 3536.275;  238.350;    0.000
347.749; 3575.275;  261.350;    0.000
347.805; 3456.275;  238.350;    0.000
347.862; 3400.275;  246.350;    0.000
347.918; 3542.275;  256.350;    0.000
347.974; 3482.275;  277.350;    0.000
348.030; 3529.275;  242.350;    0.000
348.086; 3462.275;  223.350;    0.000
348.142; 3494.275;  215.350;    0.000
348.198; 3459.275;  272.350;    0.000
348.254; 3469.275;  292.350;    0.000
348.311; 3560.275;  235.350;    0.000
348.367; 3499.275;  263.350;    0.000
348.423; 3483.275;  193.350;    0.000
348.479; 3457.275;  266.350;    0.000
348.535; 3498.275;  238.350;    0.000
348.591; 3428.275;  237.350;    0.000
348.647; 3577.275;  239.350;    0.000
348.703; 3643.275;  240.350;    0.000
348.759; 3564.275;  253.350;    0.000
348.815; 3499.275;  255.350;    0.000
348.871; 3596.275;  256.350;    0.000
348.927; 3538.275;  261.350;    0.000
348.983; 3613.275;  258.350;    0.000
349.039; 3638.275;  204.350;    0.000
349.095; 3619.275;  215.350;    0.000
349.151; 3606.275;  230.350;    0.000
349.207; 3509.275;  216.350;    0.000
349.263; 3566.275;  235.350;    0.000
349.319; 3511.275;  244.350;    0.000
349.374; 3579.275;  213.350;    0.000
349.430; 3625.275;  241.350;    0.000
349.486; 3620.275;  248.350;    0.000
349.542; 3669.275;  259.350;    0.000
349.598; 3675.275;  208.350;    0.000
349.654; 3569.275;  242.350;    0.000
349.710; 3570.275;  246.350;    0.000
349.766; 3694.275;  226.350;    0.000
349.821; 3500.275;  227.350;    0.000
349.877; 3571.275;  226.350;    0.000
349.933; 3686.275;  249.350;    0.000
349.989; 3591.275;  263.350;    0.000
350.045; 3577.275;  267.350;    0.000
350.100; 3592.275;  219.350;    0.000
350.156; 3525.275;  207.350;    0.000
350.212; 3697.275;  230.350;    0.000
350.268; 3613.275;  223.350;    0.000
350.323; 3650.275;  217.350;    0.000
350.379; 3444.275;  227.350;    0.000
350.435; 3560.275;  219.350;    0.000
350.491; 3590.275;  195.350;    0.000
350.546; 3578.275;  229.350;    0.000
350.602; 3625.275;  222.350;    0.000
350.658; 3552.275;  225.350;    0.000
350.713; 3628.275;  231.350;    0.000
350.769; 3597.275;  193.350;    0.000
350.825; 3629.275;  182.350;    0.000
350.880; 3638.275;  193.350;    0.000
350.936; 3592.275;  222.350;    0.000
350.992; 3586.275;  217.350;    0.000
351.047; 3578.275;  226.350;    0.000
351.103; 3518.275;  187.350;    0.000
351.158; 3583.275;  212.350;    0.000
351.214; 3564.275;  207.350;    0.000
351.270; 3529.275;  194.350;    0.000
351.325; 3525.275;  213.350;    0.000
351.381; 3517.275;  223.350;    0.000
351.436; 3583.275;  222.350;    0.000
351.492; 3582.275;  219.350;    0.000
351.547; 3528.275;  205.350;    0.000
351.603; 3542.275;  218.350;    0.000
351.658; 3618.275;  199.350;    0.000
351.714; 3671.275;  201.350;    0.000
351.769; 3617.275;  209.350;    0.000
351.825; 3638.275;  226.350;    0.000
351.880; 3637.275;  189.350;    0.000
351.936; 3685.275;  201.350;    0.000
351.991; 3603.275;  220.350;    0.000
352.047; 3618.275;  232.350;    0.000
352.102; 3581.275;  185.350;    0.000
352.158; 3606.275;  228.350;    0.000
352.213; 3556.275;  204.350;    0.000
352.268; 3591.275;  220.350;    0.000
352.324; 3617.275;  206.350;    0.000
352.379; 3590.275;  182.350;    0.000
352.434; 3697.275;  214.350;    0.000
352.490; 3600.275;  250.350;    0.000
352.545; 3525.275;  290.350;    0.000
352.601; 3594.275;  247.350;    0.000
352.656; 3709.275;  203.350;    0.000
352.711; 3592.275;  197.350;    0.000
352.767; 3578.275;  169.350;    0.000
352.822; 3666.275;  191.350;    0.000
352.877; 3631.275;  235.350;    0.000
352.932; 3688.275;  231.350;    0.000
352.988; 3632.275;  224.350;    0.000
353.043; 3655.275;  226.350;    0.000
353.098; 3725.275;  227.350;    0.000
353.153; 3731.275;  239.350;    0.000
353.209; 3782.275;  217.350;    0.000
353.264; 3644.275;  198.350;    0.000
353.319; 3675.275;  247.350;    0.000
353.374; 3590.275;  199.350;    0.000
353.430; 3725.275;  247.350;    0.000
353.485; 3717.275;  242.350;    0.000
353.540; 3732.275;  237.350;    0.000
353.595; 3717.275;  233.350;    0.000
353.650; 3705.275;  221.350;    0.000
353.705; 3614.275;  259.350;    0.000
353.761; 3628.275;  223.350;    0.000
353.816; 3700.275;  234.350;    0.000
353.871; 3694.275;  226.350;    0.000
353.926; 3678.275;  232.350;    0.000
353.981; 3731.275;  245.350;    0.000
354.036; 3680.275;  247.350;    0.000
354.091; 3712.275;  233.350;    0.000
354.146; 3653.275;  253.350;    0.000
354.201; 3665.275;  236.350;    0.000
354.256; 3571.275;  210.350;    0.000
354.311; 3734.275;  279.350;    0.000
354.367; 3760.275;  208.350;    0.000
354.422; 3662.275;  228.350;    0.000
354.477; 3706.275;  202.350;    0.000
354.532; 3663.275;  215.350;    0.000
354.587; 3751.275;  249.350;    0.000
354.642; 3754.275;  206.350;    0.000
354.697; 3697.275;  226.350;    0.000
354.751; 3693.275;  241.350;    0.000
354.806; 3679.275;  249.350;    0.000
354.861; 3695.275;  216.350;    0.000
354.916; 3753.275;  249.350;    0.000
354.971; 3682.275;  217.350;    0.000
355.026; 3694.275;  236.350;    0.000
355.081; 3723.275;  242.350;    0.000
355.136; 3681.275;  216.350;    0.000
355.191; 3636.275;  216.350;    0.000
355.246; 3685.275;  258.350;    0.000
355.301; 3817.275;  250.350;    0.000
355.355; 3721.275;  251.350;    0.000
355.410; 3710.275;  216.350;    0.000
355.465; 3764.275;  224.350;    0.000
355.520; 3652.275;  221.350;    0.000
355.575; 3742.275;  255.350;    0.000
355.630; 3790.275;  225.350;    0.000
355.684; 3715.275;  210.350;    0.000
355.739; 3716.275;  232.350;    0.000
355.794; 3726.275;  202.350;    0.000
355.849; 3775.275;  211.350;    0.000
355.904; 3685.275;  226.350;    0.000
355.958; 3641.275;  191.350;    0.000
356.013; 3678.275;  208.350;    0.000
356.068; 3777.275;  229.350;    0.000
356.123; 3755.275;  243.350;    0.000
356.177; 3746.275;  227.350;    0.000
356.232; 3682.275;  243.350;    0.000
356.287; 3689.275;  216.350;    0.000
356.341; 3732.275;  242.350;    0.000
356.396; 3697.275;  175.350;    0.000
356.451; 3721.275;  271.350;    0.000
356.505; 3731.275;  225.350;    0.000
356.560; 3730.275;  260.350;    0.000
356.615; 3752.275;  213.350;    0.000
356.669; 3794.275;  213.350;    0.000
356.724; 3734.275;  221.350;    0.000
356.778; 3831.275;  232.350;    0.000
356.833; 3737.275;  178.350;    0.000
356.888; 3696.275;  236.350;    0.000
356.942; 3829.275;  224.350;    0.000
356.997; 3827.275;  228.350;    0.000
357.051; 3759.275;  226.350;    0.000
357.106; 3686.275;  185.350;    0.000
357.160; 3652.275;  202.350;    0.000
357.215; 3794.275;  232.350;    0.000
357.269; 3751.275;  224.350;    0.000
357.324; 3609.275;  219.350;    0.000
357.378; 3659.275;  196.350;    0.000
357.433; 3812.275;  241.350;    0.000
357.487; 3753.275;  244.350;    0.000
357.542; 3745.275;  210.350;    0.000
357.596; 3764.275;  231.350;    0.000
357.651; 3803.275;  248.350;    0.000
357.705; 3756.275;  232.350;    0.000
357.760; 3716.275;  224.350;    0.000
357.814; 3730.275;  221.350;    0.000
357.868; 3730.275;  207.350;    0.000
357.923; 3727.275;  234.350;    0.000
357.977; 3748.275;  218.350;    0.000
358.032; 3644.275;  244.350;    0.000
358.086; 3717.275;  246.350;    0.000
358.140; 3705.275;  235.350;    0.000
358.195; 3677.275;  237.350;    0.000
358.249; 3772.275;  233.350;    0.000
358.303; 3728.275;  254.350;    0.000
358.358; 3740.275;  217.350;    0.000
358.412; 3682.275;  245.350;    0.000
358.466; 3810.275;  230.350;    0.000
358.521; 3606.275;  214.350;    0.000
358.575; 3702.275;  243.350;    0.000
358.629; 3600.275;  230.350;    0.000
358.683; 3715.275;  232.350;    0.000
358.738; 3729.275;  249.350;    0.000
358.792; 3635.275;  249.350;    0.000
358.846; 3713.275;  271.350;    0.000
358.900; 3738.275;  265.350;    0.000
358.954; 3751.275;  236.350;    0.000
359.009; 3722.275;  254.350;    0.000
359.063; 3745.275;  216.350;    0.000
359.117; 3740.275;  245.350;    0.000
359.171; 3785.275;  252.350;    0.000
359.225; 3797.275;  240.350;    0.000
359.280; 3705.275;  239.350;    0.000
359.334; 3654.275;  234.350;    0.000
359.388; 3866.275;  258.350;    0.000
359.442; 3814.275;  220.350;    0.000
359.496; 3742.275;  206.350;    0.000
359.550; 3814.275;  279.350;    0.000
359.604; 3841.275;  263.350;    0.000
359.658; 3757.275;  251.350;    0.000
359.712; 3841.275;  244.350;    0.000
359.766; 3667.275;  217.350;    0.000
359.820; 3733.275;  235.350;    0.000
359.875; 3826.275;  249.350;    0.000
359.929; 3676.275;  269.350;    0.000
359.983; 3696.275;  240.350;    0.000
360.037; 3733.275;  252.350;    0.000
360.091; 3688.275;  271.350;    0.000
360.145; 3715.275;  222.350;    0.000
360.199; 3792.275;  302.350;    0.000
360.253; 3704.275;  234.350;    0.000
360.306; 3736.275;  258.350;    0.000
360.360; 3708.275;  249.350;    0.000
360.414; 3779.275;  231.350;    0.000
360.468; 3734.275;  261.350;    0.000
360.522; 3620.275;  277.350;    0.000
360.576; 3720.275;  273.350;    0.000
360.630; 3768.275;  264.350;    0.000
360.684; 3815.275;  223.350;    0.000
360.738; 3655.275;  266.350;    0.000
360.792; 3856.275;  252.350;    0.000
360.846; 3692.275;  234.350;    0.000
360.899; 3864.275;  296.350;    0.000
360.953; 3717.275;  273.350;    0.000
361.007; 3747.275;  251.350;    0.000
361.061; 3760.275;  250.350;    0.000
361.115; 3816.275;  267.350;    0.000
361.168; 3730.275;  308.350;    0.000
361.222; 3760.275;  246.350;    0.000
361.276; 3735.275;  261.350;    0.000
361.330; 3752.275;  233.350;    0.000
361.384; 3650.275;  269.350;    0.000
361.437; 3611.275;  270.350;    0.000
361.491; 3696.275;  263.350;    0.000
361.545; 3647.275;  288.350;    0.000
361.599; 3768.275;  270.350;    0.000
361.652; 3697.275;  256.350;    0.000
361.706; 3771.275;  263.350;    0.000
361.760; 3804.275;  237.350;    0.000
361.813; 3701.275;  278.350;    0.000
361.867; 3864.275;  317.350;    0.000
361.921; 3712.275;  260.350;    0.000
361.974; 3675.275;  239.350;    0.000
362.028; 3800.275;  266.350;    0.000
362.082; 3768.275;  269.350;    0.000
362.135; 3650.275;  262.350;    0.000
362.189; 3748.275;  258.350;    0.000
362.242; 3787.275;  273.350;    0.000
362.296; 3650.275;  261.350;    0.000
362.350; 3702.275;  272.350;    0.000
362.403; 3799.275;  291.350;    0.000
362.457; 3680.275;  253.350;    0.000
362.510; 3689.275;  266.350;    0.000
362.564; 3657.275;  260.350;    0.000
362.617; 3727.275;  280.350;    0.000
362.671; 3731.275;  281.350;    0.000
362.724; 3818.275;  234.350;    0.000
362.778; 3780.275;  311.350;    0.000
362.831; 3682.275;  276.350;    0.000
362.885; 3571.275;  288.350;    0.000
362.938; 3495.275;  284.350;    0.000
362.992;  335.275;  245.350;    0.000
363.045;  272.275;  277.350;    0.000
363.099;  267.275;  246.350;    0.000
363.152;  297.275;  290.350;    0.000
363.205;  267.275;  256.350;    0.000
363.259;  275.275;  238.350;    0.000
363.312;  306.275;  290.350;    0.000
363.366;  291.275;  287.350;    0.000
363.419;  272.275;  279.350;    0.000
363.472;  299.275;  304.350;    0.000
363.526;  277.275;  305.350;    0.000
363.579;  263.275;  281.350;    0.000
363.632;  273.275;  279.350;    0.000
363.686;  268.275;  277.350;    0.000
363.739;  261.275;  268.350;    0.000
363.792;  284.275;  274.350;    0.000

