
Integration time [ms]:   0.300
Averaging Nr. [scans]: 1
Smoothing Nr. [pixels]: 0
Data measured with spectrometer [name]: NIR
Wave   ;Sample   ;Dark     ;Reference
[nm]   ;[counts] ;[counts] ;[counts] 

691.496;    3.500;  155.525;    0.000
691.696;   58.500;  186.525;    0.000
691.896;    8.500;  113.525;    0.000
692.096;   29.500;  169.525;    0.000
692.296;   -6.500;  119.525;    0.000
692.496;   60.500;  182.525;    0.000
692.695;    1.500;  119.525;    0.000
692.895;   72.500;  183.525;    0.000
693.095;   25.500;  119.525;    0.000
693.295;   41.500;  156.525;    0.000
693.495;   44.500;  145.525;    0.000
693.695;   15.500;  144.525;    0.000
693.894;   44.500;  174.525;    0.000
694.094;   19.500;  148.525;    0.000
694.294;   19.500;  114.525;    0.000
694.494;  418.500;  137.525;    0.000
694.693; 3990.500;  112.525;    0.000
694.893; 4344.500;   85.525;    0.000
695.093; 4340.500;  152.525;    0.000
695.293; 4414.500;  159.525;    0.000
695.492; 4415.500;  131.525;    0.000
695.692; 4361.500;  134.525;    0.000
695.891; 4516.500;  161.525;    0.000
696.091; 4440.500;  180.525;    0.000
696.291; 4421.500;  120.525;    0.000
696.490; 4498.500;  146.525;    0.000
696.690; 4623.500;  145.525;    0.000
696.889; 4612.500;  171.525;    0.000
697.089; 4588.500;   98.525;    0.000
697.288; 4497.500;  172.525;    0.000
697.488; 4585.500;  137.525;    0.000
697.687; 4548.500;  171.525;    0.000
697.887; 4544.500;  142.525;    0.000
698.086; 4590.500;  159.525;    0.000
698.286; 4597.500;  122.525;    0.000
698.485; 4647.500;  121.525;    0.000
698.684; 4656.500;   94.525;    0.000
698.884; 4618.500;  131.525;    0.000
699.083; 4573.500;  112.525;    0.000
699.282; 4603.500;  119.525;    0.000
699.482; 4610.500;  117.525;    0.000
699.681; 4732.500;  115.525;    0.000
699.880; 4747.500;  166.525;    0.000
700.080; 4697.500;  194.525;    0.000
700.279; 4622.500;   98.525;    0.000
700.478; 4627.500;  159.525;    0.000
700.677; 4580.500;  134.525;    0.000
700.877; 4738.500;  171.525;    0.000
701.076; 4811.500;  141.525;    0.000
701.275; 4709.500;  119.525;    0.000
701.474; 4714.500;  132.525;    0.000
701.673; 4578.500;  141.525;    0.000
701.872; 4721.500;  158.525;    0.000
702.071; 4772.500;  129.525;    0.000
702.271; 4825.500;  122.525;    0.000
702.470; 4867.500;  158.525;    0.000
702.669; 4669.500;  145.525;    0.000
702.868; 4831.500;  135.525;    0.000
703.067; 4914.500;  169.525;    0.000
703.266; 4751.500;  125.525;    0.000
703.465; 4894.500;  153.525;    0.000
703.664; 4819.500;  113.525;    0.000
703.863; 4852.500;  170.525;    0.000
704.062; 4777.500;  115.525;    0.000
704.260; 4988.500;  133.525;    0.000
704.459; 4807.500;  123.525;    0.000
704.658; 4886.500;  105.525;    0.000
704.857; 4904.500;  125.525;    0.000
705.056; 4821.500;  108.525;    0.000
705.255; 4924.500;  117.525;    0.000
705.454; 4864.500;  126.525;    0.000
705.652; 4897.500;  137.525;    0.000
705.851; 4840.500;   95.525;    0.000
706.050; 4909.500;  120.525;    0.000
706.249; 4836.500;   81.525;    0.000
706.447; 4894.500;  105.525;    0.000
706.646; 4831.500;  107.525;    0.000
706.845; 4938.500;  104.525;    0.000
707.043; 4941.500;  136.525;    0.000
707.242; 4954.500;   89.525;    0.000
707.441; 5021.500;  147.525;    0.000
707.639; 5006.500;  156.525;    0.000
707.838; 4981.500;  114.525;    0.000
708.037; 5053.500;  100.525;    0.000
708.235; 5063.500;  103.525;    0.000
708.434; 4931.500;  102.525;    0.000
708.632; 5039.500;  100.525;    0.000
708.831; 5071.500;  121.525;    0.000
709.029; 5083.500;  102.525;    0.000
709.228; 5036.500;   88.525;    0.000
709.426; 5078.500;  135.525;    0.000
709.625; 5018.500;  128.525;    0.000
709.823; 5192.500;  123.525;    0.000
710.022; 5116.500;  137.525;    0.000
710.220; 5084.500;  134.525;    0.000
710.418; 5165.500;  122.525;    0.000
710.617; 5209.500;   64.525;    0.000
710.815; 5146.500;   94.525;    0.000
711.013; 5178.500;  127.525;    0.000
711.212; 5206.500;  105.525;    0.000
711.410; 5143.500;  117.525;    0.000
711.608; 5229.500;  114.525;    0.000
711.807; 5315.500;  119.525;    0.000
712.005; 5239.500;   92.525;    0.000
712.203; 5331.500;   95.525;    0.000
712.401; 5320.500;  107.525;    0.000
712.599; 5273.500;  127.525;    0.000
712.798; 5314.500;  120.525;    0.000
712.996; 5322.500;   76.525;    0.000
713.194; 5368.500;  118.525;    0.000
713.392; 5276.500;   60.525;    0.000
713.590; 5443.500;   92.525;    0.000
713.788; 5369.500;  110.525;    0.000
713.986; 5425.500;  130.525;    0.000
714.184; 5424.500;   71.525;    0.000
714.382; 5498.500;   86.525;    0.000
714.580; 5586.500;   74.525;    0.000
714.778; 5645.500;  133.525;    0.000
714.976; 5725.500;   81.525;    0.000
715.174; 5626.500;  100.525;    0.000
715.372; 5951.500;  141.525;    0.000
715.570; 6239.500;   73.525;    0.000
715.768; 6761.500;  119.525;    0.000
715.966; 6723.500;   81.525;    0.000
716.164; 6617.500;  130.525;    0.000
716.362; 6532.500;  125.525;    0.000
716.560; 6278.500;  109.525;    0.000
716.758; 6315.500;   96.525;    0.000
716.955; 6082.500;   83.525;    0.000
717.153; 6137.500;   87.525;    0.000
717.351; 6046.500;  123.525;    0.000
717.549; 5997.500;  121.525;    0.000
717.746; 5942.500;  128.525;    0.000
717.944; 5953.500;  132.525;    0.000
718.142; 5973.500;  120.525;    0.000
718.340; 5957.500;   94.525;    0.000
718.537; 5851.500;   95.525;    0.000
718.735; 5935.500;  152.525;    0.000
718.933; 5939.500;  124.525;    0.000
719.130; 5937.500;  114.525;    0.000
719.328; 5927.500;   63.525;    0.000
719.525; 5800.500;  146.525;    0.000
719.723; 5826.500;   96.525;    0.000
719.920; 5886.500;  120.525;    0.000
720.118; 5823.500;   59.525;    0.000
720.316; 5840.500;  116.525;    0.000
720.513; 5766.500;  127.525;    0.000
720.711; 5853.500;  110.525;    0.000
720.908; 5953.500;   92.525;    0.000
721.105; 5862.500;  138.525;    0.000
721.303; 5906.500;   90.525;    0.000
721.500; 5779.500;  126.525;    0.000
721.698; 5957.500;  103.525;    0.000
721.895; 5859.500;  206.525;    0.000
722.092; 5867.500;   63.525;    0.000
722.290; 5811.500;  123.525;    0.000
722.487; 5852.500;  137.525;    0.000
722.684; 5879.500;  126.525;    0.000
722.882; 5706.500;  119.525;    0.000
723.079; 5894.500;  132.525;    0.000
723.276; 5926.500;   98.525;    0.000
723.473; 5894.500;   97.525;    0.000
723.671; 5844.500;   43.525;    0.000
723.868; 5971.500;  142.525;    0.000
724.065; 5979.500;  102.525;    0.000
724.262; 6077.500;  119.525;    0.000
724.459; 6003.500;   73.525;    0.000
724.656; 6078.500;  128.525;    0.000
724.854; 5876.500;  135.525;    0.000
725.051; 5898.500;   81.525;    0.000
725.248; 5933.500;   88.525;    0.000
725.445; 6012.500;  129.525;    0.000
725.642; 5931.500;   76.525;    0.000
725.839; 6114.500;  134.525;    0.000
726.036; 6159.500;  101.525;    0.000
726.233; 5941.500;   68.525;    0.000
726.430; 6136.500;  121.525;    0.000
726.627; 6026.500;  136.525;    0.000
726.824; 6095.500;   87.525;    0.000
727.021; 6056.500;  141.525;    0.000
727.218; 6037.500;   92.525;    0.000
727.414; 5982.500;  121.525;    0.000
727.611; 6121.500;  100.525;    0.000
727.808; 6028.500;  130.525;    0.000
728.005; 6062.500;   83.525;    0.000
728.202; 6141.500;  120.525;    0.000
728.399; 6245.500;   75.525;    0.000
728.595; 6085.500;  148.525;    0.000
728.792; 6068.500;   79.525;    0.000
728.989; 6229.500;   86.525;    0.000
729.186; 6161.500;   80.525;    0.000
729.382; 6193.500;   72.525;    0.000
729.579; 6211.500;  112.525;    0.000
729.776; 6184.500;  106.525;    0.000
729.972; 6125.500;   77.525;    0.000
730.169; 6123.500;  118.525;    0.000
730.366; 6187.500;   92.525;    0.000
730.562; 6242.500;  104.525;    0.000
730.759; 6254.500;   95.525;    0.000
730.955; 6221.500;   85.525;    0.000
731.152; 6166.500;   79.525;    0.000
731.348; 6228.500;   72.525;    0.000
731.545; 6191.500;   56.525;    0.000
731.741; 6257.500;  106.525;    0.000
731.938; 6301.500;  113.525;    0.000
732.134; 6285.500;  106.525;    0.000
732.331; 6128.500;   82.525;    0.000
732.527; 6132.500;   80.525;    0.000
732.724; 6329.500;   97.525;    0.000
732.920; 6279.500;  127.525;    0.000
733.116; 6081.500;  115.525;    0.000
733.313; 6304.500;  153.525;    0.000
733.509; 6280.500;   76.525;    0.000
733.705; 6169.500;  159.525;    0.000
733.902; 6206.500;   82.525;    0.000
734.098; 6445.500;   70.525;    0.000
734.294; 6360.500;  105.525;    0.000
734.490; 6404.500;  110.525;    0.000
734.687; 6379.500;  102.525;    0.000
734.883; 6291.500;   77.525;    0.000
735.079; 6501.500;   93.525;    0.000
735.275; 6398.500;  109.525;    0.000
735.471; 6432.500;   99.525;    0.000
735.667; 6322.500;  107.525;    0.000
735.863; 6470.500;   89.525;    0.000
736.060; 6355.500;  105.525;    0.000
736.256; 6341.500;  113.525;    0.000
736.452; 6462.500;   90.525;    0.000
736.648; 6501.500;   88.525;    0.000
736.844; 6449.500;  129.525;    0.000
737.040; 6432.500;  139.525;    0.000
737.236; 6575.500;  129.525;    0.000
737.432; 6585.500;   67.525;    0.000
737.628; 6653.500;  104.525;    0.000
737.824; 6547.500;  111.525;    0.000
738.019; 6592.500;  116.525;    0.000
738.215; 6682.500;  135.525;    0.000
738.411; 6645.500;  118.525;    0.000
738.607; 6641.500;   58.525;    0.000
738.803; 6598.500;   32.525;    0.000
738.999; 6634.500;  120.525;    0.000
739.195; 6595.500;   76.525;    0.000
739.390; 6789.500;  119.525;    0.000
739.586; 6661.500;   83.525;    0.000
739.782; 6795.500;  134.525;    0.000
739.978; 6767.500;  122.525;    0.000
740.173; 6780.500;   96.525;    0.000
740.369; 6879.500;   86.525;    0.000
740.565; 7055.500;  122.525;    0.000
740.760; 7096.500;   99.525;    0.000
740.956; 6926.500;  137.525;    0.000
741.152; 7016.500;  108.525;    0.000
741.347; 7010.500;   65.525;    0.000
741.543; 6970.500;   73.525;    0.000
741.738; 7212.500;  142.525;    0.000
741.934; 7473.500;  131.525;    0.000
742.129; 7936.500;   66.525;    0.000
742.325; 8821.500;  143.525;    0.000
742.520; 9467.500;  119.525;    0.000
742.716; 9194.500;  109.525;    0.000
742.911; 8553.500;   62.525;    0.000
743.107; 8644.500;  119.525;    0.000
743.302; 8227.500;   78.525;    0.000
743.498; 8302.500;  130.525;    0.000
743.693; 8531.500;   75.525;    0.000
743.888; 8915.500;  135.525;    0.000
744.084;10056.500;  106.525;    0.000
744.279;12098.500;  101.525;    0.000
744.474;12249.500;   91.525;    0.000
744.670;11184.500;  144.525;    0.000
744.865;10100.500;  128.525;    0.000
745.060; 9632.500;   63.525;    0.000
745.255; 9381.500;  155.525;    0.000
745.451; 9171.500;  110.525;    0.000
745.646; 8978.500;  150.525;    0.000
745.841; 8844.500;  128.525;    0.000
746.036; 9096.500;  110.525;    0.000
746.231; 9035.500;  126.525;    0.000
746.426; 9630.500;   83.525;    0.000
746.622;11057.500;  157.525;    0.000
746.817;14414.500;  112.525;    0.000
747.012;16158.500;  115.525;    0.000
747.207;14392.500;  161.525;    0.000
747.402;12847.500;   88.525;    0.000
747.597;11901.500;  103.525;    0.000
747.792;11279.500;  152.525;    0.000
747.987;10935.500;   80.525;    0.000
748.182;10588.500;   89.525;    0.000
748.377;10046.500;  104.525;    0.000
748.572; 9673.500;  138.525;    0.000
748.767; 9206.500;  100.525;    0.000
748.961; 8948.500;  106.525;    0.000
749.156; 8882.500;  113.525;    0.000
749.351; 8793.500;  116.525;    0.000
749.546; 8589.500;  107.525;    0.000
749.741; 8463.500;  102.525;    0.000
749.936; 8410.500;  105.525;    0.000
750.130; 8073.500;  111.525;    0.000
750.325; 8151.500;   72.525;    0.000
750.520; 8109.500;   96.525;    0.000
750.715; 8106.500;  135.525;    0.000
750.909; 7797.500;  107.525;    0.000
751.104; 7917.500;  106.525;    0.000
751.299; 7724.500;  144.525;    0.000
751.493; 7949.500;  116.525;    0.000
751.688; 7789.500;   96.525;    0.000
751.882; 7847.500;   92.525;    0.000
752.077; 7683.500;  109.525;    0.000
752.272; 7656.500;   96.525;    0.000
752.466; 7533.500;  110.525;    0.000
752.661; 7521.500;  120.525;    0.000
752.855; 7470.500;   70.525;    0.000
753.050; 7406.500;  129.525;    0.000
753.244; 7398.500;  126.525;    0.000
753.439; 7403.500;  115.525;    0.000
753.633; 7551.500;  120.525;    0.000
753.828; 7281.500;  129.525;    0.000
754.022; 7313.500;  139.525;    0.000
754.216; 7187.500;  121.525;    0.000
754.411; 7316.500;  108.525;    0.000
754.605; 7288.500;   94.525;    0.000
754.799; 7331.500;  125.525;    0.000
754.994; 7271.500;  160.525;    0.000
755.188; 7222.500;  151.525;    0.000
755.382; 7176.500;  102.525;    0.000
755.576; 7286.500;  103.525;    0.000
755.771; 7232.500;   99.525;    0.000
755.965; 7248.500;  158.525;    0.000
756.159; 7215.500;   96.525;    0.000
756.353; 7222.500;  157.525;    0.000
756.547; 7285.500;  132.525;    0.000
756.742; 7238.500;  106.525;    0.000
756.936; 7098.500;  113.525;    0.000
757.130; 7086.500;  114.525;    0.000
757.324; 7183.500;  111.525;    0.000
757.518; 7239.500;  142.525;    0.000
757.712; 7185.500;  137.525;    0.000
757.906; 7225.500;   93.525;    0.000
758.100; 7287.500;  119.525;    0.000
758.294; 7094.500;  132.525;    0.000
758.488; 7224.500;  153.525;    0.000
758.682; 7121.500;  101.525;    0.000
758.876; 7021.500;  129.525;    0.000
759.070; 7232.500;  168.525;    0.000
759.264; 7195.500;   96.525;    0.000
759.458; 6986.500;  117.525;    0.000
759.651; 7051.500;  135.525;    0.000
759.845; 7093.500;  127.525;    0.000
760.039; 7142.500;  120.525;    0.000
760.233; 7172.500;  124.525;    0.000
760.427; 7053.500;  115.525;    0.000
760.620; 7014.500;  130.525;    0.000
760.814; 7045.500;  102.525;    0.000
761.008; 7201.500;  174.525;    0.000
761.202; 7088.500;  132.525;    0.000
761.395; 7171.500;  126.525;    0.000
761.589; 7045.500;  133.525;    0.000
761.783; 7085.500;  147.525;    0.000
761.976; 7203.500;  147.525;    0.000
762.170; 7078.500;  174.525;    0.000
762.363; 7164.500;   97.525;    0.000
762.557; 7227.500;  141.525;    0.000
762.750; 7201.500;  112.525;    0.000
762.944; 7310.500;  110.525;    0.000
763.138; 7243.500;  125.525;    0.000
763.331; 7180.500;  101.525;    0.000
763.524; 7190.500;  101.525;    0.000
763.718; 7351.500;  156.525;    0.000
763.911; 7235.500;  143.525;    0.000
764.105; 7170.500;  139.525;    0.000
764.298; 7360.500;   89.525;    0.000
764.492; 7267.500;  111.525;    0.000
764.685; 7192.500;  136.525;    0.000
764.878; 7356.500;  146.525;    0.000
765.072; 7157.500;  110.525;    0.000
765.265; 7364.500;  141.525;    0.000
765.458; 7202.500;   82.525;    0.000
765.651; 7434.500;  144.525;    0.000
765.845; 7416.500;   79.525;    0.000
766.038; 7553.500;  123.525;    0.000
766.231; 8464.500;  125.525;    0.000
766.424;13175.500;  131.525;    0.000
766.617;13805.500;   62.525;    0.000
766.811; 8160.500;  142.525;    0.000
767.004; 7567.500;  134.525;    0.000
767.197; 7498.500;  147.525;    0.000
767.390; 7504.500;  100.525;    0.000
767.583; 7373.500;  121.525;    0.000
767.776; 7432.500;   91.525;    0.000
767.969; 7536.500;  113.525;    0.000
768.162; 7515.500;  170.525;    0.000
768.355; 7464.500;  134.525;    0.000
768.548; 7535.500;  177.525;    0.000
768.741; 7576.500;   96.525;    0.000
768.934; 7766.500;  143.525;    0.000
769.127; 7648.500;  147.525;    0.000
769.320; 7626.500;   93.525;    0.000
769.513; 7796.500;  137.525;    0.000
769.706; 9006.500;   96.525;    0.000
769.898;12891.500;  118.525;    0.000
770.091;10120.500;  138.525;    0.000
770.284; 8035.500;  133.525;    0.000
770.477; 8026.500;  137.525;    0.000
770.670; 7827.500;  124.525;    0.000
770.862; 7980.500;  125.525;    0.000
771.055; 7992.500;  135.525;    0.000
771.248; 8108.500;  109.525;    0.000
771.441; 8211.500;  141.525;    0.000
771.633; 8144.500;  142.525;    0.000
771.826; 8366.500;  123.525;    0.000
772.018; 8266.500;  136.525;    0.000
772.211; 8328.500;  145.525;    0.000
772.404; 8502.500;  127.525;    0.000
772.596; 8488.500;  193.525;    0.000
772.789; 8459.500;   64.525;    0.000
772.981; 8603.500;  142.525;    0.000
773.174; 8542.500;  105.525;    0.000
773.366; 8947.500;  166.525;    0.000
773.559; 8890.500;  125.525;    0.000
773.751; 9142.500;  126.525;    0.000
773.944; 9302.500;  147.525;    0.000
774.136; 9433.500;  155.525;    0.000
774.329; 9552.500;  127.525;    0.000
774.521; 9821.500;  133.525;    0.000
774.713;10229.500;  139.525;    0.000
774.906;10427.500;  170.525;    0.000
775.098;10799.500;  144.525;    0.000
775.290;11446.500;  162.525;    0.000
775.483;11771.500;  137.525;    0.000
775.675;12523.500;  148.525;    0.000
775.867;13440.500;   81.525;    0.000
776.059;14642.500;  134.525;    0.000
776.251;15877.500;  137.525;    0.000
776.444;18224.500;  155.525;    0.000
776.636;21156.500;  148.525;    0.000
776.828;26358.500;  129.525;    0.000
777.020;36859.500;  133.525;    0.000
777.212;54233.500;  137.525;    0.000
777.404;59770.500;  124.525;    0.000
777.596;55844.500;  142.525;    0.000
777.788;41677.500;  155.525;    0.000
777.980;32264.500;  119.525;    0.000
778.172;25889.500;  129.525;    0.000
778.364;22331.500;  122.525;    0.000
778.556;19742.500;  129.525;    0.000
778.748;17559.500;  178.525;    0.000
778.940;16124.500;  128.525;    0.000
779.132;14915.500;  145.525;    0.000
779.324;13758.500;   89.525;    0.000
779.516;12923.500;  161.525;    0.000
779.708;12344.500;  183.525;    0.000
779.900;11752.500;  124.525;    0.000
780.091;11186.500;  143.525;    0.000
780.283;10937.500;  135.525;    0.000
780.475;10426.500;  129.525;    0.000
780.667;10136.500;  178.525;    0.000
780.859; 9926.500;  146.525;    0.000
781.050; 9523.500;  156.525;    0.000
781.242; 9435.500;  138.525;    0.000
781.434; 9017.500;  117.525;    0.000
781.625; 9068.500;  161.525;    0.000
781.817; 8935.500;  127.525;    0.000
782.008; 8720.500;  138.525;    0.000
782.200; 8574.500;  139.525;    0.000
782.392; 8553.500;  179.525;    0.000
782.583; 8398.500;  137.525;    0.000
782.775; 8362.500;  162.525;    0.000
782.966; 8138.500;  159.525;    0.000
783.158; 8107.500;  118.525;    0.000
783.349; 7973.500;  160.525;    0.000
783.541; 7921.500;  139.525;    0.000
783.732; 7899.500;  145.525;    0.000
783.924; 7807.500;  146.525;    0.000
784.115; 7626.500;  125.525;    0.000
784.306; 7733.500;  118.525;    0.000
784.498; 7641.500;  144.525;    0.000
784.689; 7570.500;  145.525;    0.000
784.880; 7802.500;  137.525;    0.000
785.072; 7587.500;  157.525;    0.000
785.263; 7461.500;  149.525;    0.000
785.454; 7431.500;  128.525;    0.000
785.645; 7363.500;  131.525;    0.000
785.837; 7439.500;  137.525;    0.000
786.028; 7544.500;  161.525;    0.000
786.219; 7481.500;  155.525;    0.000
786.410; 7458.500;  146.525;    0.000
786.601; 7394.500;  120.525;    0.000
786.792; 7390.500;  179.525;    0.000
786.984; 7492.500;  113.525;    0.000
787.175; 7327.500;  156.525;    0.000
787.366; 7425.500;  131.525;    0.000
787.557; 7391.500;  138.525;    0.000
787.748; 7499.500;  112.525;    0.000
787.939; 7456.500;  115.525;    0.000
788.130; 7418.500;  150.525;    0.000
788.321; 7543.500;  122.525;    0.000
788.512; 7494.500;  147.525;    0.000
788.703; 7606.500;  126.525;    0.000
788.894; 7620.500;   80.525;    0.000
789.084; 7471.500;  127.525;    0.000
789.275; 7606.500;  141.525;    0.000
789.466; 7719.500;  108.525;    0.000
789.657; 7677.500;  137.525;    0.000
789.848; 7620.500;  126.525;    0.000
790.039; 7702.500;  144.525;    0.000
790.229; 7787.500;  105.525;    0.000
790.420; 7626.500;   96.525;    0.000
790.611; 7641.500;  171.525;    0.000
790.801; 7554.500;   89.525;    0.000
790.992; 7579.500;  140.525;    0.000
791.183; 7638.500;  143.525;    0.000
791.373; 7657.500;  128.525;    0.000
791.564; 7687.500;   96.525;    0.000
791.755; 7587.500;  111.525;    0.000
791.945; 7476.500;  112.525;    0.000
792.136; 7453.500;  124.525;    0.000
792.326; 7633.500;   88.525;    0.000
792.517; 7684.500;  130.525;    0.000
792.707; 7626.500;  144.525;    0.000
792.898; 7756.500;  120.525;    0.000
793.088; 7759.500;  106.525;    0.000
793.279; 7793.500;  104.525;    0.000
793.469; 7916.500;  103.525;    0.000
793.660; 7955.500;  120.525;    0.000
793.850; 8238.500;  106.525;    0.000
794.040; 8350.500;  135.525;    0.000
794.231; 8889.500;   80.525;    0.000
794.421; 9490.500;  120.525;    0.000
794.611;10514.500;  154.525;    0.000
794.802;12395.500;  103.525;    0.000
794.992;12941.500;  120.525;    0.000
795.182;13109.500;  156.525;    0.000
795.372;12239.500;  104.525;    0.000
795.563;11079.500;  153.525;    0.000
795.753;10228.500;  112.525;    0.000
795.943; 9669.500;  128.525;    0.000
796.133; 9045.500;  128.525;    0.000
796.323; 8834.500;  152.525;    0.000
796.513; 8526.500;  123.525;    0.000
796.703; 8360.500;  134.525;    0.000
796.893; 8019.500;  120.525;    0.000
797.083; 7773.500;  136.525;    0.000
797.273; 7799.500;  128.525;    0.000
797.463; 7567.500;  140.525;    0.000
797.653; 7444.500;   75.525;    0.000
797.843; 7444.500;  114.525;    0.000
798.033; 7231.500;   90.525;    0.000
798.223; 7238.500;  136.525;    0.000
798.413; 7246.500;  164.525;    0.000
798.603; 7112.500;  150.525;    0.000
798.793; 7028.500;  137.525;    0.000
798.983; 6926.500;  119.525;    0.000
799.172; 6975.500;  136.525;    0.000
799.362; 6847.500;  138.525;    0.000
799.552; 6788.500;  123.525;    0.000
799.742; 6762.500;  117.525;    0.000
799.932; 6709.500;  108.525;    0.000
800.121; 6690.500;  152.525;    0.000
800.311; 6666.500;  117.525;    0.000
800.501; 6626.500;  100.525;    0.000
800.690; 6511.500;  139.525;    0.000
800.880; 6661.500;  138.525;    0.000
801.070; 6541.500;  120.525;    0.000
801.259; 6567.500;  143.525;    0.000
801.449; 6515.500;  110.525;    0.000
801.638; 6620.500;  140.525;    0.000
801.828; 6457.500;  103.525;    0.000
802.017; 6495.500;   78.525;    0.000
802.207; 6584.500;  126.525;    0.000
802.396; 6554.500;  151.525;    0.000
802.586; 6426.500;  106.525;    0.000
802.775; 6547.500;  152.525;    0.000
802.965; 6478.500;  117.525;    0.000
803.154; 6388.500;  171.525;    0.000
803.343; 6247.500;  126.525;    0.000
803.533; 6395.500;  135.525;    0.000
803.722; 6438.500;  144.525;    0.000
803.911; 6513.500;  109.525;    0.000
804.101; 6550.500;  146.525;    0.000
804.290; 6118.500;  115.525;    0.000
804.479; 6368.500;  128.525;    0.000
804.668; 6447.500;  156.525;    0.000
804.857; 6369.500;  151.525;    0.000
805.047; 6299.500;  131.525;    0.000
805.236; 6339.500;  144.525;    0.000
805.425; 6392.500;  160.525;    0.000
805.614; 6394.500;  112.525;    0.000
805.803; 6429.500;  120.525;    0.000
805.992; 6414.500;  148.525;    0.000
806.181; 6428.500;  108.525;    0.000
806.370; 6412.500;  142.525;    0.000
806.559; 6323.500;  116.525;    0.000
806.748; 6417.500;  108.525;    0.000
806.937; 6383.500;  110.525;    0.000
807.126; 6380.500;  126.525;    0.000
807.315; 6542.500;  121.525;    0.000
807.504; 6280.500;  102.525;    0.000
807.693; 6625.500;  134.525;    0.000
807.882; 6522.500;  135.525;    0.000
808.071; 6594.500;  135.525;    0.000
808.260; 6505.500;   93.525;    0.000
808.448; 6576.500;  151.525;    0.000
808.637; 6597.500;  105.525;    0.000
808.826; 6453.500;  178.525;    0.000
809.015; 6699.500;  152.525;    0.000
809.203; 6563.500;  147.525;    0.000
809.392; 6692.500;  144.525;    0.000
809.581; 6657.500;  167.525;    0.000
809.770; 6725.500;  151.525;    0.000
809.958; 6622.500;  128.525;    0.000
810.147; 6826.500;  152.525;    0.000
810.335; 6886.500;  160.525;    0.000
810.524; 6849.500;  130.525;    0.000
810.713; 7129.500;  128.525;    0.000
810.901; 7037.500;  140.525;    0.000
811.090; 7111.500;  152.525;    0.000
811.278; 7207.500;  126.525;    0.000
811.467; 7447.500;  161.525;    0.000
811.655; 7507.500;  184.525;    0.000
811.844; 7345.500;  148.525;    0.000
812.032; 7452.500;  138.525;    0.000
812.220; 7498.500;  157.525;    0.000
812.409; 7480.500;  143.525;    0.000
812.597; 7582.500;  124.525;    0.000
812.785; 7663.500;  170.525;    0.000
812.974; 7620.500;  135.525;    0.000
813.162; 7663.500;  135.525;    0.000
813.350; 7870.500;  182.525;    0.000
813.539; 7817.500;  126.525;    0.000
813.727; 8022.500;  127.525;    0.000
813.915; 7962.500;  140.525;    0.000
814.103; 8110.500;  176.525;    0.000
814.291; 8303.500;  115.525;    0.000
814.479; 8419.500;  119.525;    0.000
814.668; 8407.500;  134.525;    0.000
814.856; 8475.500;  120.525;    0.000
815.044; 8815.500;  164.525;    0.000
815.232; 8942.500;  146.525;    0.000
815.420; 9210.500;  154.525;    0.000
815.608; 9174.500;  137.525;    0.000
815.796; 9424.500;  108.525;    0.000
815.984; 9814.500;  134.525;    0.000
816.172;10223.500;  123.525;    0.000
816.360;10413.500;  181.525;    0.000
816.548;10757.500;  139.525;    0.000
816.736;11258.500;  138.525;    0.000
816.924;12009.500;  151.525;    0.000
817.111;12640.500;  156.525;    0.000
817.299;13705.500;  147.525;    0.000
817.487;14957.500;  188.525;    0.000
817.675;16909.500;  129.525;    0.000
817.863;20185.500;  128.525;    0.000
818.050;28876.500;  110.525;    0.000
818.238;52403.500;  166.525;    0.000
818.426;65184.500;  136.525;    0.000
818.613;51953.500;  143.525;    0.000
818.801;40733.500;  150.525;    0.000
818.989;38292.500;  179.525;    0.000
819.176;43076.500;  123.525;    0.000
819.364;62161.500;  148.525;    0.000
819.552;65184.500;   86.525;    0.000
819.739;64333.500;  169.525;    0.000
819.927;46986.500;  130.525;    0.000
820.114;37796.500;  144.525;    0.000
820.302;32349.500;  166.525;    0.000
820.489;28437.500;  145.525;    0.000
820.677;26051.500;  101.525;    0.000
820.864;24197.500;  149.525;    0.000
821.052;23768.500;  130.525;    0.000
821.239;23669.500;  147.525;    0.000
821.426;23755.500;  121.525;    0.000
821.614;26760.500;  187.525;    0.000
821.801;27513.500;  105.525;    0.000
821.988;24396.500;  167.525;    0.000
822.176;23485.500;  130.525;    0.000
822.363;23110.500;  143.525;    0.000
822.550;21576.500;  108.525;    0.000
822.737;19605.500;  109.525;    0.000
822.924;18370.500;  156.525;    0.000
823.112;17513.500;  123.525;    0.000
823.299;16645.500;  128.525;    0.000
823.486;15680.500;  138.525;    0.000
823.673;14925.500;  125.525;    0.000
823.860;14477.500;  138.525;    0.000
824.047;14499.500;  122.525;    0.000
824.234;15849.500;  134.525;    0.000
824.421;15808.500;   95.525;    0.000
824.608;14339.500;  151.525;    0.000
824.795;12991.500;  117.525;    0.000
824.982;12072.500;  143.525;    0.000
825.169;11409.500;   83.525;    0.000
825.356;11046.500;  126.525;    0.000
825.543;10498.500;   92.525;    0.000
825.730;10144.500;  113.525;    0.000
825.917; 9720.500;  142.525;    0.000
826.104; 9555.500;  182.525;    0.000
826.290; 9377.500;  137.525;    0.000
826.477; 9263.500;  126.525;    0.000
826.664; 8892.500;  135.525;    0.000
826.851; 8652.500;  139.525;    0.000
827.038; 8448.500;  135.525;    0.000
827.224; 8221.500;  143.525;    0.000
827.411; 8144.500;  153.525;    0.000
827.598; 7982.500;  122.525;    0.000
827.784; 7900.500;  138.525;    0.000
827.971; 7564.500;  134.525;    0.000
828.157; 7515.500;  152.525;    0.000
828.344; 7404.500;  135.525;    0.000
828.531; 7129.500;  137.525;    0.000
828.717; 7144.500;  117.525;    0.000
828.904; 7022.500;  127.525;    0.000
829.090; 7120.500;  172.525;    0.000
829.277; 6870.500;  144.525;    0.000
829.463; 6849.500;  159.525;    0.000
829.650; 6670.500;  187.525;    0.000
829.836; 6685.500;  138.525;    0.000
830.022; 6582.500;  196.525;    0.000
830.209; 6545.500;  118.525;    0.000
830.395; 6505.500;  148.525;    0.000
830.581; 6319.500;  108.525;    0.000
830.768; 6155.500;  137.525;    0.000
830.954; 6137.500;  162.525;    0.000
831.140; 6067.500;  117.525;    0.000
831.327; 6017.500;  176.525;    0.000
831.513; 6084.500;  162.525;    0.000
831.699; 5902.500;  157.525;    0.000
831.885; 5913.500;  153.525;    0.000
832.071; 5808.500;  123.525;    0.000
832.257; 5753.500;  142.525;    0.000
832.444; 5772.500;  165.525;    0.000
832.630; 5713.500;  159.525;    0.000
832.816; 5751.500;  145.525;    0.000
833.002; 5550.500;  120.525;    0.000
833.188; 5605.500;  145.525;    0.000
833.374; 5470.500;  137.525;    0.000
833.560; 5471.500;  152.525;    0.000
833.746; 5410.500;  139.525;    0.000
833.932; 5395.500;  170.525;    0.000
834.118; 5267.500;  111.525;    0.000
834.303; 5135.500;  141.525;    0.000
834.489; 5372.500;  146.525;    0.000
834.675; 5309.500;  156.525;    0.000
834.861; 5214.500;   87.525;    0.000
835.047; 5284.500;  134.525;    0.000
835.233; 5196.500;   89.525;    0.000
835.418; 5162.500;  145.525;    0.000
835.604; 5085.500;  136.525;    0.000
835.790; 5109.500;  132.525;    0.000
835.976; 5156.500;  161.525;    0.000
836.161; 5092.500;  157.525;    0.000
836.347; 4999.500;  147.525;    0.000
836.533; 4965.500;  116.525;    0.000
836.718; 5073.500;  168.525;    0.000
836.904; 4990.500;  199.525;    0.000
837.089; 5054.500;  165.525;    0.000
837.275; 4948.500;  166.525;    0.000
837.460; 4913.500;  144.525;    0.000
837.646; 4989.500;  164.525;    0.000
837.831; 4943.500;  122.525;    0.000
838.017; 5001.500;  163.525;    0.000
838.202; 4896.500;  139.525;    0.000
838.388; 4957.500;  174.525;    0.000
838.573; 4995.500;  140.525;    0.000
838.759; 4918.500;  167.525;    0.000
838.944; 4885.500;  142.525;    0.000
839.129; 4840.500;  164.525;    0.000
839.315; 4873.500;  129.525;    0.000
839.500; 4820.500;  150.525;    0.000
839.685; 4885.500;  118.525;    0.000
839.870; 4921.500;  177.525;    0.000
840.056; 4930.500;  144.525;    0.000
840.241; 4873.500;  121.525;    0.000
840.426; 4842.500;  131.525;    0.000
840.611; 4977.500;  177.525;    0.000
840.796; 4965.500;  173.525;    0.000
840.981; 5093.500;  156.525;    0.000
841.166; 5151.500;  145.525;    0.000
841.352; 5085.500;  150.525;    0.000
841.537; 5063.500;  143.525;    0.000
841.722; 5115.500;  165.525;    0.000
841.907; 5115.500;  184.525;    0.000
842.092; 5264.500;  171.525;    0.000
842.277; 5141.500;  155.525;    0.000
842.461; 5298.500;  152.525;    0.000
842.646; 5442.500;  107.525;    0.000
842.831; 5474.500;  160.525;    0.000
843.016; 5700.500;  160.525;    0.000
843.201; 5803.500;  164.525;    0.000
843.386; 5971.500;  134.525;    0.000
843.571; 6393.500;  132.525;    0.000
843.755; 6809.500;  158.525;    0.000
843.940; 7168.500;  152.525;    0.000
844.125; 8166.500;  154.525;    0.000
844.310; 9688.500;  147.525;    0.000
844.494;12659.500;  158.525;    0.000
844.679;17471.500;  173.525;    0.000
844.864;17108.500;  152.525;    0.000
845.048;13879.500;  139.525;    0.000
845.233;11426.500;  200.525;    0.000
845.418;10016.500;  139.525;    0.000
845.602; 8902.500;  147.525;    0.000
845.787; 8004.500;  148.525;    0.000
845.971; 7422.500;  170.525;    0.000
846.156; 6935.500;  136.525;    0.000
846.340; 6750.500;  146.525;    0.000
846.525; 6301.500;  188.525;    0.000
846.709; 5870.500;  128.525;    0.000
846.893; 5707.500;  151.525;    0.000
847.078; 5594.500;  164.525;    0.000
847.262; 5309.500;  155.525;    0.000
847.447; 5325.500;  114.525;    0.000
847.631; 5193.500;  148.525;    0.000
847.815; 5018.500;  114.525;    0.000
848.000; 4919.500;  134.525;    0.000
848.184; 4907.500;  154.525;    0.000
848.368; 4685.500;  145.525;    0.000
848.552; 4691.500;  122.525;    0.000
848.736; 4693.500;  139.525;    0.000
848.921; 4552.500;  143.525;    0.000
849.105; 4572.500;  145.525;    0.000
849.289; 4429.500;  173.525;    0.000
849.473; 4532.500;  147.525;    0.000
849.657; 4385.500;  144.525;    0.000
849.841; 4426.500;  168.525;    0.000
850.025; 4290.500;  205.525;    0.000
850.209; 4221.500;  171.525;    0.000
850.393; 4174.500;  130.525;    0.000
850.577; 4359.500;  146.525;    0.000
850.761; 4173.500;  188.525;    0.000
850.945; 4149.500;  137.525;    0.000
851.129; 4139.500;  192.525;    0.000
851.313; 4051.500;  199.525;    0.000
851.497; 4082.500;  165.525;    0.000
851.680; 4047.500;  196.525;    0.000
851.864; 4119.500;  169.525;    0.000
852.048; 4066.500;  156.525;    0.000
852.232; 4106.500;  150.525;    0.000
852.416; 4159.500;  219.525;    0.000
852.599; 4096.500;  168.525;    0.000
852.783; 4030.500;  165.525;    0.000
852.967; 4025.500;  166.525;    0.000
853.150; 3891.500;  191.525;    0.000
853.334; 3820.500;  158.525;    0.000
853.518; 3984.500;  168.525;    0.000
853.701; 3921.500;  125.525;    0.000
853.885; 3975.500;  165.525;    0.000
854.068; 3814.500;  142.525;    0.000
854.252; 3908.500;  167.525;    0.000
854.435; 4000.500;  146.525;    0.000
854.619; 3889.500;  163.525;    0.000
854.802; 3964.500;  167.525;    0.000
854.986; 3999.500;  163.525;    0.000
855.169; 3872.500;  146.525;    0.000
855.353; 4030.500;  183.525;    0.000
855.536; 3859.500;  140.525;    0.000
855.719; 4016.500;  168.525;    0.000
855.903; 4044.500;  170.525;    0.000
856.086; 3956.500;  145.525;    0.000
856.269; 3941.500;  126.525;    0.000
856.452; 4148.500;  142.525;    0.000
856.636; 4338.500;  140.525;    0.000
856.819; 4520.500;  127.525;    0.000
857.002; 4706.500;  165.525;    0.000
857.185; 4487.500;  111.525;    0.000
857.368; 4342.500;  143.525;    0.000
857.552; 4161.500;  174.525;    0.000
857.735; 4218.500;  194.525;    0.000
857.918; 4203.500;  171.525;    0.000
858.101; 4178.500;  142.525;    0.000
858.284; 4241.500;  118.525;    0.000
858.467; 4347.500;  163.525;    0.000
858.650; 4503.500;  149.525;    0.000
858.833; 4376.500;  120.525;    0.000
859.016; 4471.500;  169.525;    0.000
859.199; 4745.500;  121.525;    0.000
859.382; 5210.500;  184.525;    0.000
859.564; 5648.500;  139.525;    0.000
859.747; 5392.500;  126.525;    0.000
859.930; 5062.500;  109.525;    0.000
860.113; 4907.500;  137.525;    0.000
860.296; 4917.500;  182.525;    0.000
860.478; 4608.500;  136.525;    0.000
860.661; 4606.500;  157.525;    0.000
860.844; 4609.500;  129.525;    0.000
861.027; 4694.500;  163.525;    0.000
861.209; 4553.500;  151.525;    0.000
861.392; 4450.500;  124.525;    0.000
861.575; 4583.500;  163.525;    0.000
861.757; 4545.500;  205.525;    0.000
861.940; 4669.500;  180.525;    0.000
862.122; 4711.500;  148.525;    0.000
862.305; 4843.500;  128.525;    0.000
862.487; 5108.500;  172.525;    0.000
862.670; 5485.500;  123.525;    0.000
862.852; 6381.500;  126.525;    0.000
863.035; 7720.500;  174.525;    0.000
863.217; 7578.500;  160.525;    0.000
863.400; 6898.500;  164.525;    0.000
863.582; 6431.500;  118.525;    0.000
863.764; 5933.500;  143.525;    0.000
863.947; 5680.500;  137.525;    0.000
864.129; 5483.500;  166.525;    0.000
864.311; 5429.500;  128.525;    0.000
864.493; 5286.500;  153.525;    0.000
864.676; 5205.500;  156.525;    0.000
864.858; 5160.500;  159.525;    0.000
865.040; 5218.500;  163.525;    0.000
865.222; 5151.500;  138.525;    0.000
865.404; 5251.500;  157.525;    0.000
865.587; 5501.500;  184.525;    0.000
865.769; 5696.500;  178.525;    0.000
865.951; 5627.500;  104.525;    0.000
866.133; 5740.500;  147.525;    0.000
866.315; 5662.500;  141.525;    0.000
866.497; 5697.500;  132.525;    0.000
866.679; 5942.500;  139.525;    0.000
866.861; 6054.500;  118.525;    0.000
867.043; 6440.500;  154.525;    0.000
867.225; 6667.500;  147.525;    0.000
867.407; 7339.500;  158.525;    0.000
867.589; 8343.500;  172.525;    0.000
867.770;10127.500;  159.525;    0.000
867.952;14282.500;  149.525;    0.000
868.134;18728.500;  156.525;    0.000
868.316;18532.500;  171.525;    0.000
868.498;17730.500;  200.525;    0.000
868.679;15278.500;  174.525;    0.000
868.861;12817.500;  175.525;    0.000
869.043;10632.500;  174.525;    0.000
869.224; 9410.500;  122.525;    0.000
869.406; 8443.500;  166.525;    0.000
869.588; 7883.500;  143.525;    0.000
869.769; 7631.500;  152.525;    0.000
869.951; 7412.500;  165.525;    0.000
870.132; 7465.500;  115.525;    0.000
870.314; 8334.500;  139.525;    0.000
870.495; 8486.500;  168.525;    0.000
870.677; 7738.500;  188.525;    0.000
870.858; 7424.500;  123.525;    0.000
871.040; 7825.500;  170.525;    0.000
871.221; 8753.500;  148.525;    0.000
871.403; 8309.500;  140.525;    0.000
871.584; 7607.500;  174.525;    0.000
871.765; 7484.500;  168.525;    0.000
871.947; 8245.500;  191.525;    0.000
872.128; 7343.500;  132.525;    0.000
872.309; 6515.500;  140.525;    0.000
872.491; 5824.500;  157.525;    0.000
872.672; 5758.500;  130.525;    0.000
872.853; 5409.500;  148.525;    0.000
873.034; 5346.500;  138.525;    0.000
873.215; 4992.500;  152.525;    0.000
873.396; 4742.500;  149.525;    0.000
873.578; 4631.500;  173.525;    0.000
873.759; 4345.500;  158.525;    0.000
873.940; 4295.500;  147.525;    0.000
874.121; 4186.500;  136.525;    0.000
874.302; 4177.500;  151.525;    0.000
874.483; 4070.500;  137.525;    0.000
874.664; 4131.500;  163.525;    0.000
874.845; 4166.500;  124.525;    0.000
875.026; 3975.500;  134.525;    0.000
875.207; 3915.500;  164.525;    0.000
875.388; 3805.500;  163.525;    0.000
875.568; 3690.500;  176.525;    0.000
875.749; 3669.500;  108.525;    0.000
875.930; 3680.500;  191.525;    0.000
876.111; 3636.500;  170.525;    0.000
876.292; 3567.500;  180.525;    0.000
876.472; 3589.500;  150.525;    0.000
876.653; 3533.500;  162.525;    0.000
876.834; 3530.500;  176.525;    0.000
877.015; 3454.500;  203.525;    0.000
877.195; 3374.500;  178.525;    0.000
877.376; 3331.500;  141.525;    0.000
877.556; 3389.500;  135.525;    0.000
877.737; 3397.500;  174.525;    0.000
877.918; 3249.500;  150.525;    0.000
878.098; 3357.500;  133.525;    0.000
878.279; 3236.500;  129.525;    0.000
878.459; 3321.500;  162.525;    0.000
878.640; 3333.500;  187.525;    0.000
878.820; 3283.500;  151.525;    0.000
879.000; 3345.500;  159.525;    0.000
879.181; 3200.500;  171.525;    0.000
879.361; 3187.500;  167.525;    0.000
879.542; 3133.500;  126.525;    0.000
879.722; 3262.500;  152.525;    0.000
879.902; 3285.500;  144.525;    0.000
880.083; 3242.500;  154.525;    0.000
880.263; 3322.500;  148.525;    0.000
880.443; 3657.500;  185.525;    0.000
880.623; 4537.500;  172.525;    0.000
880.803; 5505.500;  152.525;    0.000
880.984; 4375.500;  165.525;    0.000
881.164; 3891.500;  164.525;    0.000
881.344; 3745.500;  141.525;    0.000
881.524; 3595.500;  160.525;    0.000
881.704; 3703.500;  164.525;    0.000
881.884; 3782.500;  159.525;    0.000
882.064; 4008.500;  158.525;    0.000
882.244; 3965.500;  147.525;    0.000
882.424; 3800.500;  160.525;    0.000
882.604; 3632.500;  150.525;    0.000
882.784; 3511.500;  138.525;    0.000
882.964; 3444.500;  157.525;    0.000
883.144; 3289.500;  128.525;    0.000
883.324; 3376.500;  220.525;    0.000
883.504; 3244.500;  177.525;    0.000
883.683; 3154.500;  159.525;    0.000
883.863; 3138.500;  143.525;    0.000
884.043; 3095.500;  156.525;    0.000
884.223; 3040.500;  152.525;    0.000
884.402; 3004.500;  169.525;    0.000
884.582; 2991.500;  162.525;    0.000
884.762; 2963.500;  172.525;    0.000
884.941; 3038.500;  220.525;    0.000
885.121; 2890.500;  128.525;    0.000
885.301; 2980.500;  141.525;    0.000
885.480; 2864.500;  141.525;    0.000
885.660; 3004.500;  132.525;    0.000
885.839; 2899.500;  146.525;    0.000
886.019; 2927.500;  170.525;    0.000
886.198; 2926.500;  143.525;    0.000
886.378; 2866.500;  159.525;    0.000
886.557; 2816.500;  148.525;    0.000
886.737; 2866.500;  125.525;    0.000
886.916; 2916.500;  177.525;    0.000
887.095; 2825.500;  186.525;    0.000
887.275; 2819.500;  134.525;    0.000
887.454; 2856.500;  148.525;    0.000
887.633; 2827.500;  171.525;    0.000
887.813; 2830.500;  187.525;    0.000
887.992; 2879.500;  157.525;    0.000
888.171; 2742.500;  143.525;    0.000
888.350; 2726.500;  182.525;    0.000
888.530; 2688.500;  142.525;    0.000
888.709; 2727.500;  160.525;    0.000
888.888; 2754.500;  197.525;    0.000
889.067; 2733.500;  126.525;    0.000
889.246; 2751.500;  197.525;    0.000
889.425; 2774.500;  161.525;    0.000
889.604; 2790.500;  180.525;    0.000
889.783; 2771.500;  135.525;    0.000
889.962; 2743.500;  107.525;    0.000
890.141; 2706.500;  167.525;    0.000
890.320; 2689.500;  149.525;    0.000
890.499; 2799.500;  194.525;    0.000
890.678; 2688.500;  138.525;    0.000
890.857; 2702.500;  146.525;    0.000
891.036; 2757.500;  178.525;    0.000
891.214; 2661.500;  151.525;    0.000
891.393; 2708.500;  137.525;    0.000
891.572; 2754.500;  177.525;    0.000
891.751; 2821.500;  149.525;    0.000
891.930; 2739.500;  189.525;    0.000
892.108; 2725.500;  136.525;    0.000
892.287; 2684.500;  129.525;    0.000
892.466; 2739.500;  163.525;    0.000
892.644; 2641.500;  147.525;    0.000
892.823; 2692.500;  127.525;    0.000
893.001; 2669.500;  192.525;    0.000
893.180; 2708.500;  157.525;    0.000
893.359; 2732.500;  176.525;    0.000
893.537; 2691.500;  146.525;    0.000
893.716; 2776.500;  154.525;    0.000
893.894; 2661.500;  166.525;    0.000
894.073; 2712.500;  163.525;    0.000
894.251; 2682.500;  166.525;    0.000
894.429; 2696.500;  149.525;    0.000
894.608; 2730.500;  141.525;    0.000
894.786; 2707.500;  139.525;    0.000
894.964; 2702.500;  180.525;    0.000
895.143; 2653.500;  193.525;    0.000
895.321; 2662.500;  163.525;    0.000
895.499; 2671.500;  163.525;    0.000
895.677; 2716.500;  194.525;    0.000
895.856; 2775.500;  176.525;    0.000
896.034; 2743.500;  173.525;    0.000
896.212; 2825.500;  180.525;    0.000
896.390; 2644.500;  146.525;    0.000
896.568; 2728.500;  167.525;    0.000
896.746; 2716.500;  158.525;    0.000
896.924; 2750.500;  163.525;    0.000
897.102; 2793.500;  170.525;    0.000
897.280; 2660.500;  159.525;    0.000
897.458; 2722.500;  182.525;    0.000
897.636; 2720.500;  151.525;    0.000
897.814; 2709.500;  130.525;    0.000
897.992; 2875.500;  213.525;    0.000
898.170; 2702.500;  164.525;    0.000
898.348; 2721.500;  159.525;    0.000
898.526; 2738.500;  182.525;    0.000
898.704; 2773.500;  209.525;    0.000
898.882; 2750.500;  145.525;    0.000
899.059; 2795.500;  172.525;    0.000
899.237; 2713.500;  172.525;    0.000
899.415; 2781.500;  211.525;    0.000
899.593; 2789.500;  151.525;    0.000
899.770; 2789.500;  147.525;    0.000
899.948; 2816.500;  218.525;    0.000
900.125; 2877.500;  166.525;    0.000
900.303; 2891.500;  146.525;    0.000
900.481; 2835.500;  174.525;    0.000
900.658; 2777.500;  198.525;    0.000
900.836; 2794.500;  125.525;    0.000
901.013; 2897.500;  197.525;    0.000
901.191; 2976.500;  181.525;    0.000
901.368; 2936.500;  185.525;    0.000
901.546; 3061.500;  197.525;    0.000
901.723; 3113.500;  205.525;    0.000
901.901; 3065.500;  187.525;    0.000
902.078; 3262.500;  163.525;    0.000
902.255; 3264.500;  141.525;    0.000
902.433; 3297.500;  183.525;    0.000
902.610; 3331.500;  181.525;    0.000
902.787; 3191.500;  174.525;    0.000
902.964; 3313.500;  174.525;    0.000
903.142; 3404.500;  141.525;    0.000
903.319; 3423.500;  214.525;    0.000
903.496; 3470.500;  187.525;    0.000
903.673; 3568.500;  183.525;    0.000
903.850; 3649.500;  125.525;    0.000
904.027; 3724.500;  197.525;    0.000
904.204; 3930.500;  197.525;    0.000
904.381; 4327.500;  196.525;    0.000
904.558; 4932.500;  176.525;    0.000
904.735; 5501.500;  179.525;    0.000
904.912; 5550.500;  203.525;    0.000
905.089; 5641.500;  159.525;    0.000
905.266; 5174.500;  176.525;    0.000
905.443; 4828.500;  184.525;    0.000
905.620; 4349.500;  168.525;    0.000
905.797; 4181.500;  214.525;    0.000
905.974; 4107.500;  154.525;    0.000
906.151; 3949.500;  132.525;    0.000
906.327; 3992.500;  192.525;    0.000
906.504; 3961.500;  186.525;    0.000
906.681; 3723.500;  171.525;    0.000
906.858; 3696.500;  181.525;    0.000
907.034; 3583.500;  164.525;    0.000
907.211; 3496.500;  184.525;    0.000
907.388; 3527.500;  177.525;    0.000
907.564; 3416.500;  150.525;    0.000
907.741; 3262.500;  195.525;    0.000
907.917; 3334.500;  190.525;    0.000
908.094; 3334.500;  214.525;    0.000
908.271; 3214.500;  173.525;    0.000
908.447; 3240.500;  229.525;    0.000
908.623; 3123.500;  162.525;    0.000
908.800; 3121.500;  195.525;    0.000
908.976; 3049.500;  171.525;    0.000
909.153; 3123.500;  167.525;    0.000
909.329; 3026.500;  227.525;    0.000
909.505; 2972.500;  167.525;    0.000
909.682; 3023.500;  174.525;    0.000
909.858; 2931.500;  158.525;    0.000
910.034; 2876.500;  188.525;    0.000
910.211; 2909.500;  158.525;    0.000
910.387; 2906.500;  208.525;    0.000
910.563; 3010.500;  203.525;    0.000
910.739; 2928.500;  201.525;    0.000
910.915; 2838.500;  170.525;    0.000
911.091; 2871.500;  171.525;    0.000
911.268; 2919.500;  220.525;    0.000
911.444; 2915.500;  202.525;    0.000
911.620; 2826.500;  175.525;    0.000
911.796; 2809.500;  175.525;    0.000
911.972; 2886.500;  164.525;    0.000
912.148; 2812.500;  174.525;    0.000
912.324; 2938.500;  155.525;    0.000
912.500; 2925.500;  156.525;    0.000
912.676; 2815.500;  138.525;    0.000
912.851; 2845.500;  158.525;    0.000
913.027; 2872.500;  161.525;    0.000
913.203; 2843.500;  168.525;    0.000
913.379; 2813.500;  172.525;    0.000
913.555; 2824.500;  193.525;    0.000
913.730; 2889.500;  149.525;    0.000
913.906; 2844.500;  159.525;    0.000
914.082; 2870.500;  184.525;    0.000
914.258; 2845.500;  194.525;    0.000
914.433; 2798.500;  175.525;    0.000
914.609; 2813.500;  175.525;    0.000
914.784; 2944.500;  170.525;    0.000
914.960; 2901.500;  212.525;    0.000
915.136; 2779.500;  157.525;    0.000
915.311; 2917.500;  204.525;    0.000
915.487; 2893.500;  180.525;    0.000
915.662; 3062.500;  203.525;    0.000
915.838; 2941.500;  194.525;    0.000
916.013; 2994.500;  217.525;    0.000
916.189; 2911.500;  196.525;    0.000
916.364; 2991.500;  236.525;    0.000
916.539; 2883.500;  192.525;    0.000
916.715; 2879.500;  181.525;    0.000
916.890; 2849.500;  185.525;    0.000
917.065; 2796.500;  166.525;    0.000
917.240; 2888.500;  182.525;    0.000
917.416; 2876.500;  188.525;    0.000
917.591; 2850.500;  185.525;    0.000
917.766; 2865.500;  187.525;    0.000
917.941; 2838.500;  181.525;    0.000
918.116; 2992.500;  207.525;    0.000
918.292; 2898.500;  140.525;    0.000
918.467; 2983.500;  187.525;    0.000
918.642; 2933.500;  208.525;    0.000
918.817; 3035.500;  203.525;    0.000
918.992; 2886.500;  162.525;    0.000
919.167; 2965.500;  206.525;    0.000
919.342; 2992.500;  188.525;    0.000
919.517; 2929.500;  190.525;    0.000
919.692; 3032.500;  174.525;    0.000
919.867; 3119.500;  181.525;    0.000
920.041; 3045.500;  179.525;    0.000
920.216; 3138.500;  186.525;    0.000
920.391; 3165.500;  209.525;    0.000
920.566; 3316.500;  205.525;    0.000
920.741; 3350.500;  205.525;    0.000
920.915; 3647.500;  206.525;    0.000
921.090; 3919.500;  219.525;    0.000
921.265; 4905.500;  185.525;    0.000
921.439; 5682.500;  171.525;    0.000
921.614; 4905.500;  197.525;    0.000
921.789; 4362.500;  189.525;    0.000
921.963; 4110.500;  210.525;    0.000
922.138; 3915.500;  171.525;    0.000
922.312; 3805.500;  194.525;    0.000
922.487; 3841.500;  231.525;    0.000
922.661; 3977.500;  179.525;    0.000
922.836; 4741.500;  213.525;    0.000
923.010; 4800.500;  182.525;    0.000
923.185; 4183.500;  239.525;    0.000
923.359; 4055.500;  200.525;    0.000
923.534; 3953.500;  232.525;    0.000
923.708; 4211.500;  221.525;    0.000
923.882; 4536.500;  193.525;    0.000
924.057; 4190.500;  204.525;    0.000
924.231; 3970.500;  172.525;    0.000
924.405; 3909.500;  202.525;    0.000
924.579; 3780.500;  207.525;    0.000
924.753; 3714.500;  167.525;    0.000
924.928; 3683.500;  202.525;    0.000
925.102; 3543.500;  200.525;    0.000
925.276; 3673.500;  185.525;    0.000
925.450; 3726.500;  170.525;    0.000
925.624; 3815.500;  176.525;    0.000
925.798; 3864.500;  221.525;    0.000
925.972; 4054.500;  162.525;    0.000
926.146; 4287.500;  207.525;    0.000
926.320; 4551.500;  185.525;    0.000
926.494; 4926.500;  192.525;    0.000
926.668; 5252.500;  179.525;    0.000
926.842; 5321.500;  181.525;    0.000
927.016; 5354.500;  224.525;    0.000
927.190; 5198.500;  193.525;    0.000
927.363; 5057.500;  194.525;    0.000
927.537; 4956.500;  210.525;    0.000
927.711; 4815.500;  153.525;    0.000
927.885; 4655.500;  184.525;    0.000
928.058; 4609.500;  197.525;    0.000
928.232; 4513.500;  219.525;    0.000
928.406; 4462.500;  175.525;    0.000
928.579; 4144.500;  179.525;    0.000
928.753; 4062.500;  208.525;    0.000
928.927; 4103.500;  163.525;    0.000
929.100; 3995.500;  138.525;    0.000
929.274; 3729.500;  160.525;    0.000
929.447; 3772.500;  152.525;    0.000
929.621; 3709.500;  168.525;    0.000
929.794; 3668.500;  152.525;    0.000
929.968; 3492.500;  163.525;    0.000
930.141; 3595.500;  164.525;    0.000
930.315; 3548.500;  170.525;    0.000
930.488; 3491.500;  216.525;    0.000
930.661; 3366.500;  184.525;    0.000
930.835; 3324.500;  156.525;    0.000
931.008; 3390.500;  206.525;    0.000
931.181; 3312.500;  163.525;    0.000
931.354; 3166.500;  198.525;    0.000
931.528; 3229.500;  156.525;    0.000
931.701; 3118.500;  170.525;    0.000
931.874; 3141.500;  167.525;    0.000
932.047; 3046.500;  146.525;    0.000
932.220; 3057.500;  159.525;    0.000
932.393; 3001.500;  186.525;    0.000
932.566; 2983.500;  147.525;    0.000
932.739; 3081.500;  192.525;    0.000
932.912; 3019.500;  197.525;    0.000
933.085; 2975.500;  176.525;    0.000
933.258; 2943.500;  171.525;    0.000
933.431; 2894.500;  150.525;    0.000
933.604; 2957.500;  176.525;    0.000
933.777; 2872.500;  215.525;    0.000
933.950; 2798.500;  164.525;    0.000
934.123; 2828.500;  174.525;    0.000
934.296; 2779.500;  203.525;    0.000
934.468; 2841.500;  208.525;    0.000
934.641; 2888.500;  182.525;    0.000
934.814; 2789.500;  170.525;    0.000
934.987; 2774.500;  183.525;    0.000
935.159; 2834.500;  154.525;    0.000
935.332; 2891.500;  178.525;    0.000
935.505; 2714.500;  213.525;    0.000
935.677; 2779.500;  173.525;    0.000
935.850; 2771.500;  190.525;    0.000
936.022; 2819.500;  205.525;    0.000
936.195; 2900.500;  201.525;    0.000
936.367; 2749.500;  189.525;    0.000
936.540; 2812.500;  179.525;    0.000
936.712; 2814.500;  195.525;    0.000
936.885; 2860.500;  207.525;    0.000
937.057; 2894.500;  163.525;    0.000
937.229; 2865.500;  175.525;    0.000
937.402; 2942.500;  168.525;    0.000
937.574; 2987.500;  136.525;    0.000
937.746; 3032.500;  166.525;    0.000
937.919; 3189.500;  178.525;    0.000
938.091; 3307.500;  192.525;    0.000
938.263; 3511.500;  164.525;    0.000
938.435; 3904.500;  204.525;    0.000
938.608; 4382.500;  153.525;    0.000
938.780; 5191.500;  159.525;    0.000
938.952; 5378.500;  160.525;    0.000
939.124; 5406.500;  156.525;    0.000
939.296; 6164.500;  110.525;    0.000
939.468; 6241.500;  135.525;    0.000
939.640; 5620.500;  144.525;    0.000
939.812; 4977.500;  232.525;    0.000
939.984; 4523.500;  128.525;    0.000
940.156; 4266.500;  195.525;    0.000
940.328; 3895.500;  226.525;    0.000
940.500; 3686.500;  146.525;    0.000
940.672; 3541.500;  190.525;    0.000
940.843; 3454.500;  156.525;    0.000
941.015; 3327.500;  200.525;    0.000
941.187; 3194.500;  159.525;    0.000
941.359; 3261.500;  183.525;    0.000
941.531; 3237.500;  137.525;    0.000
941.702; 3259.500;  186.525;    0.000
941.874; 3044.500;  164.525;    0.000
942.046; 2919.500;  202.525;    0.000
942.217; 2977.500;  146.525;    0.000
942.389; 2977.500;  165.525;    0.000
942.560; 2832.500;  191.525;    0.000
942.732; 2842.500;  240.525;    0.000
942.904; 2764.500;  173.525;    0.000
943.075; 2707.500;  157.525;    0.000
943.247; 2739.500;  155.525;    0.000
943.418; 2718.500;  164.525;    0.000
943.589; 2657.500;  150.525;    0.000
943.761; 2682.500;  143.525;    0.000
943.932; 2642.500;  151.525;    0.000
944.104; 2602.500;  194.525;    0.000
944.275; 2553.500;  154.525;    0.000
944.446; 2539.500;  169.525;    0.000
944.617; 2509.500;  138.525;    0.000
944.789; 2449.500;  158.525;    0.000
944.960; 2419.500;  197.525;    0.000
945.131; 2535.500;  139.525;    0.000
945.302; 2554.500;  169.525;    0.000
945.473; 2481.500;  149.525;    0.000
945.645; 2469.500;  171.525;    0.000
945.816; 2574.500;  167.525;    0.000
945.987; 2654.500;  156.525;    0.000
946.158; 2705.500;  185.525;    0.000
946.329; 2603.500;  201.525;    0.000
946.500; 2603.500;  182.525;    0.000
946.671; 2497.500;  156.525;    0.000
946.842; 2447.500;  190.525;    0.000
947.013; 2453.500;  159.525;    0.000
947.183; 2342.500;  209.525;    0.000
947.354; 2370.500;  171.525;    0.000
947.525; 2393.500;  180.525;    0.000
947.696; 2340.500;  163.525;    0.000
947.867; 2403.500;  168.525;    0.000
948.037; 2363.500;  153.525;    0.000
948.208; 2417.500;  178.525;    0.000
948.379; 2399.500;  192.525;    0.000
948.550; 2400.500;  180.525;    0.000
948.720; 2352.500;  196.525;    0.000
948.891; 2330.500;  173.525;    0.000
949.061; 2287.500;  207.525;    0.000
949.232; 2286.500;  176.525;    0.000
949.403; 2298.500;  152.525;    0.000
949.573; 2292.500;  186.525;    0.000
949.744; 2307.500;  181.525;    0.000
949.914; 2232.500;  174.525;    0.000
950.085; 2221.500;  146.525;    0.000
950.255; 2229.500;  162.525;    0.000
950.425; 2240.500;  189.525;    0.000
950.596; 2344.500;  175.525;    0.000
950.766; 2246.500;  209.525;    0.000
950.936; 2227.500;  201.525;    0.000
951.107; 2225.500;  141.525;    0.000
951.277; 2340.500;  211.525;    0.000
951.447; 2186.500;  218.525;    0.000
951.617; 2245.500;  191.525;    0.000
951.788; 2170.500;  193.525;    0.000
951.958; 2205.500;  217.525;    0.000
952.128; 2184.500;  192.525;    0.000
952.298; 2207.500;  237.525;    0.000
952.468; 2221.500;  194.525;    0.000
952.638; 2101.500;  201.525;    0.000
952.808; 2151.500;  203.525;    0.000
952.978; 2178.500;  216.525;    0.000
953.148; 2148.500;  209.525;    0.000
953.318; 2115.500;  213.525;    0.000
953.488; 2049.500;  161.525;    0.000
953.658; 2098.500;  222.525;    0.000
953.828; 2209.500;  196.525;    0.000
953.998; 2082.500;  227.525;    0.000
954.167; 2140.500;  163.525;    0.000
954.337; 2073.500;  201.525;    0.000
954.507; 2095.500;  227.525;    0.000
954.677; 2007.500;  204.525;    0.000
954.846; 2121.500;  210.525;    0.000
955.016; 2074.500;  198.525;    0.000
955.186; 2049.500;  203.525;    0.000
955.355; 2044.500;  198.525;    0.000
955.525; 2038.500;  198.525;    0.000
955.695; 2063.500;  187.525;    0.000
955.864; 2105.500;  243.525;    0.000
956.034; 1997.500;  192.525;    0.000
956.203; 2052.500;  259.525;    0.000
956.373; 1965.500;  185.525;    0.000
956.542; 1988.500;  230.525;    0.000
956.711; 2015.500;  218.525;    0.000
956.881; 1993.500;  232.525;    0.000
957.050; 2004.500;  246.525;    0.000
957.220; 2003.500;  229.525;    0.000
957.389; 1922.500;  211.525;    0.000
957.558; 1958.500;  173.525;    0.000
957.727; 1959.500;  226.525;    0.000
957.897; 1958.500;  209.525;    0.000
958.066; 1936.500;  217.525;    0.000
958.235; 1865.500;  160.525;    0.000
958.404; 1899.500;  199.525;    0.000
958.573; 1848.500;  223.525;    0.000
958.743; 1889.500;  189.525;    0.000
958.912; 1838.500;  199.525;    0.000
959.081; 1885.500;  216.525;    0.000
959.250; 1880.500;  192.525;    0.000
959.419; 1858.500;  216.525;    0.000
959.588; 1869.500;  209.525;    0.000
959.757; 1771.500;  194.525;    0.000
959.926; 1895.500;  200.525;    0.000
960.094; 1844.500;  174.525;    0.000
960.263; 1825.500;  218.525;    0.000
960.432; 1799.500;  173.525;    0.000
960.601; 1852.500;  177.525;    0.000
960.770; 1788.500;  188.525;    0.000
960.939; 1844.500;  167.525;    0.000
961.107; 1799.500;  195.525;    0.000
961.276; 1890.500;  183.525;    0.000
961.445; 1800.500;  195.525;    0.000
961.613; 1788.500;  198.525;    0.000
961.782; 1826.500;  224.525;    0.000
961.951; 1790.500;  178.525;    0.000
962.119; 1841.500;  214.525;    0.000
962.288; 1800.500;  174.525;    0.000
962.456; 1780.500;  197.525;    0.000
962.625; 1829.500;  212.525;    0.000
962.793; 1733.500;  183.525;    0.000
962.962; 1765.500;  189.525;    0.000
963.130; 1792.500;  151.525;    0.000
963.298; 1848.500;  197.525;    0.000
963.467; 1831.500;  202.525;    0.000
963.635; 1761.500;  172.525;    0.000
963.803; 1829.500;  203.525;    0.000
963.972; 1798.500;  204.525;    0.000
964.140; 1764.500;  193.525;    0.000
964.308; 1736.500;  159.525;    0.000
964.477; 1809.500;  142.525;    0.000
964.645; 1827.500;  202.525;    0.000
964.813; 1927.500;  158.525;    0.000
964.981; 1986.500;  179.525;    0.000
965.149; 1936.500;  176.525;    0.000
965.317; 1899.500;  229.525;    0.000
965.485; 1880.500;  179.525;    0.000
965.653; 1806.500;  205.525;    0.000
965.821; 1797.500;  196.525;    0.000
965.989; 1810.500;  202.525;    0.000
966.157; 1834.500;  199.525;    0.000
966.325; 1736.500;  178.525;    0.000
966.493; 1797.500;  177.525;    0.000
966.661; 1797.500;  172.525;    0.000
966.829; 1709.500;  167.525;    0.000
966.996; 1777.500;  202.525;    0.000
967.164; 1778.500;  175.525;    0.000
967.332; 1889.500;  207.525;    0.000
967.500; 1905.500;  170.525;    0.000
967.667; 1829.500;  222.525;    0.000
967.835; 1861.500;  245.525;    0.000
968.003; 1829.500;  180.525;    0.000
968.170; 1879.500;  222.525;    0.000
968.338; 1859.500;  183.525;    0.000
968.505; 1767.500;  197.525;    0.000
968.673; 1783.500;  209.525;    0.000
968.841; 1747.500;  162.525;    0.000
969.008; 1800.500;  187.525;    0.000
969.175; 1766.500;  204.525;    0.000
969.343; 1798.500;  157.525;    0.000
969.510; 1798.500;  189.525;    0.000
969.678; 1774.500;  153.525;    0.000
969.845; 1808.500;  190.525;    0.000
970.012; 1777.500;  162.525;    0.000
970.180; 1819.500;  223.525;    0.000
970.347; 1839.500;  195.525;    0.000
970.514; 1753.500;  185.525;    0.000
970.681; 1780.500;  187.525;    0.000
970.849; 1723.500;  183.525;    0.000
971.016; 1728.500;  168.525;    0.000
971.183; 1732.500;  160.525;    0.000
971.350; 1747.500;  193.525;    0.000
971.517; 1716.500;  202.525;    0.000
971.684; 1788.500;  242.525;    0.000
971.851; 1746.500;  192.525;    0.000
972.018; 1778.500;  194.525;    0.000
972.185; 1742.500;  193.525;    0.000
972.352; 1728.500;  187.525;    0.000
972.519; 1748.500;  233.525;    0.000
972.686; 1779.500;  186.525;    0.000
972.853; 1661.500;  165.525;    0.000
973.020; 1761.500;  183.525;    0.000
973.186; 1706.500;  186.525;    0.000
973.353; 1696.500;  177.525;    0.000
973.520; 1694.500;  203.525;    0.000
973.687; 1727.500;  211.525;    0.000
973.853; 1721.500;  194.525;    0.000
974.020; 1739.500;  201.525;    0.000
974.187; 1716.500;  187.525;    0.000
974.353; 1663.500;  188.525;    0.000
974.520; 1672.500;  136.525;    0.000
974.687; 1781.500;  169.525;    0.000
974.853; 1680.500;  207.525;    0.000
975.020; 1712.500;  190.525;    0.000
975.186; 1684.500;  182.525;    0.000
975.353; 1652.500;  202.525;    0.000
975.519; 1705.500;  189.525;    0.000
975.685; 1638.500;  176.525;    0.000
975.852; 1650.500;  175.525;    0.000
976.018; 1654.500;  155.525;    0.000
976.184; 1670.500;  179.525;    0.000
976.351; 1641.500;  191.525;    0.000
976.517; 1657.500;  246.525;    0.000
976.683; 1689.500;  222.525;    0.000
976.849; 1673.500;  216.525;    0.000
977.016; 1689.500;  212.525;    0.000
977.182; 1635.500;  192.525;    0.000
977.348; 1677.500;  145.525;    0.000
977.514; 1649.500;  195.525;    0.000
977.680; 1649.500;  210.525;    0.000
977.846; 1591.500;  172.525;    0.000
978.012; 1670.500;  190.525;    0.000
978.178; 1707.500;  201.525;    0.000
978.344; 1637.500;  190.525;    0.000
978.510; 1599.500;  199.525;    0.000
978.676; 1692.500;  174.525;    0.000
978.842; 1601.500;  195.525;    0.000
979.008; 1688.500;  205.525;    0.000
979.174; 1609.500;  187.525;    0.000
979.340; 1674.500;  194.525;    0.000
979.505; 1646.500;  221.525;    0.000
979.671; 1751.500;  178.525;    0.000
979.837; 1628.500;  215.525;    0.000
980.003; 1651.500;  176.525;    0.000
980.168; 1643.500;  185.525;    0.000
980.334; 1599.500;  165.525;    0.000
980.499; 1656.500;  231.525;    0.000
980.665; 1704.500;  238.525;    0.000
980.831; 1638.500;  194.525;    0.000
980.996; 1640.500;  169.525;    0.000
981.162; 1728.500;  199.525;    0.000
981.327; 1658.500;  158.525;    0.000
981.493; 1678.500;  193.525;    0.000
981.658; 1687.500;  181.525;    0.000
981.823; 1630.500;  199.525;    0.000
981.989; 1638.500;  186.525;    0.000
982.154; 1609.500;  225.525;    0.000
982.319; 1663.500;  191.525;    0.000
982.485; 1736.500;  205.525;    0.000
982.650; 1755.500;  234.525;    0.000
982.815; 1713.500;  193.525;    0.000
982.980; 1735.500;  177.525;    0.000
983.146; 1678.500;  212.525;    0.000
983.311; 1694.500;  177.525;    0.000
983.476; 1670.500;  185.525;    0.000
983.641; 1641.500;  149.525;    0.000
983.806; 1612.500;  175.525;    0.000
983.971; 1691.500;  234.525;    0.000
984.136; 1631.500;  191.525;    0.000
984.301; 1679.500;  215.525;    0.000
984.466; 1633.500;  207.525;    0.000
984.631; 1688.500;  206.525;    0.000
984.796; 1652.500;  229.525;    0.000
984.961; 1628.500;  220.525;    0.000
985.126; 1694.500;  204.525;    0.000
985.291; 1687.500;  210.525;    0.000
985.455; 1656.500;  193.525;    0.000
985.620; 1600.500;  207.525;    0.000
985.785; 1602.500;  188.525;    0.000
985.950; 1661.500;  168.525;    0.000
986.114; 1698.500;  239.525;    0.000
986.279; 1714.500;  223.525;    0.000
986.444; 1698.500;  154.525;    0.000
986.608; 1779.500;  232.525;    0.000
986.773; 1669.500;  214.525;    0.000
986.937; 1799.500;  220.525;    0.000
987.102; 1697.500;  224.525;    0.000
987.266; 1715.500;  157.525;    0.000
987.431; 1678.500;  246.525;    0.000
987.595; 1757.500;  203.525;    0.000
987.760; 1650.500;  202.525;    0.000
987.924; 1691.500;  208.525;    0.000
988.088; 1654.500;  169.525;    0.000
988.253; 1711.500;  237.525;    0.000
988.417; 1627.500;  202.525;    0.000
988.581; 1645.500;  215.525;    0.000
988.746; 1578.500;  210.525;    0.000
988.910; 1579.500;  191.525;    0.000
989.074; 1572.500;  197.525;    0.000
989.238; 1594.500;  191.525;    0.000
989.402; 1657.500;  222.525;    0.000
989.566; 1617.500;  221.525;    0.000
989.731; 1630.500;  216.525;    0.000
989.895; 1620.500;  183.525;    0.000
990.059; 1583.500;  150.525;    0.000
990.223; 1501.500;  183.525;    0.000
990.387; 1587.500;  241.525;    0.000
990.551; 1533.500;  198.525;    0.000
990.714; 1610.500;  176.525;    0.000
990.878; 1598.500;  203.525;    0.000
991.042; 1541.500;  146.525;    0.000
991.206; 1528.500;  199.525;    0.000
991.370; 1593.500;  223.525;    0.000
991.534; 1529.500;  158.525;    0.000
991.697; 1535.500;  182.525;    0.000
991.861; 1573.500;  195.525;    0.000
992.025; 1588.500;  206.525;    0.000
992.188; 1607.500;  174.525;    0.000
992.352; 1497.500;  183.525;    0.000
992.516; 1552.500;  181.525;    0.000
992.679; 1513.500;  162.525;    0.000
992.843; 1560.500;  173.525;    0.000
993.006; 1542.500;  189.525;    0.000
993.170; 1553.500;  200.525;    0.000
993.333; 1556.500;  167.525;    0.000
993.497; 1573.500;  217.525;    0.000
993.660; 1574.500;  179.525;    0.000
993.824; 1579.500;  195.525;    0.000
993.987; 1503.500;  186.525;    0.000
994.150; 1586.500;  164.525;    0.000
994.314; 1543.500;  215.525;    0.000
994.477; 1469.500;  186.525;    0.000
994.640; 1588.500;  192.525;    0.000
994.803; 1614.500;  215.525;    0.000
994.967; 1591.500;  208.525;    0.000
995.130; 1532.500;  196.525;    0.000
995.293; 1531.500;  221.525;    0.000
995.456; 1572.500;  164.525;    0.000
995.619; 1613.500;  224.525;    0.000
995.782; 1584.500;  184.525;    0.000
995.945; 1616.500;  220.525;    0.000
996.108; 1484.500;  187.525;    0.000
996.271; 1534.500;  192.525;    0.000
996.434; 1577.500;  162.525;    0.000
996.597; 1554.500;  148.525;    0.000
996.760; 1536.500;  186.525;    0.000
996.923; 1500.500;  154.525;    0.000
997.086; 1539.500;  156.525;    0.000
997.248; 1547.500;  215.525;    0.000
997.411; 1567.500;  160.525;    0.000
997.574; 1514.500;  159.525;    0.000
997.737; 1524.500;  179.525;    0.000
997.899; 1484.500;  184.525;    0.000
998.062; 1474.500;  180.525;    0.000
998.225; 1434.500;  168.525;    0.000
998.387; 1545.500;  192.525;    0.000
998.550; 1410.500;  178.525;    0.000
998.712; 1476.500;  192.525;    0.000
998.875; 1625.500;  230.525;    0.000
999.037; 1395.500;  200.525;    0.000
999.200; 1525.500;  196.525;    0.000
999.362; 1567.500;  173.525;    0.000
999.525; 1520.500;  196.525;    0.000
999.687; 1469.500;  159.525;    0.000
999.849; 1474.500;  180.525;    0.000
1000.012; 1525.500;  210.525;    0.000
1000.174; 1538.500;  175.525;    0.000
1000.336; 1598.500;  174.525;    0.000
1000.499; 1477.500;  180.525;    0.000
1000.661; 1481.500;  204.525;    0.000
1000.823; 1483.500;  181.525;    0.000
1000.985; 1571.500;  178.525;    0.000
1001.147; 1601.500;  215.525;    0.000
1001.309; 1515.500;  212.525;    0.000
1001.471; 1559.500;  192.525;    0.000
1001.633; 1560.500;  207.525;    0.000
1001.796; 1542.500;  211.525;    0.000
1001.958; 1593.500;  200.525;    0.000
1002.119; 1628.500;  210.525;    0.000
1002.281; 1678.500;  204.525;    0.000
1002.443; 1660.500;  230.525;    0.000
1002.605; 1709.500;  178.525;    0.000
1002.767; 1745.500;  228.525;    0.000
1002.929; 1818.500;  199.525;    0.000
1003.091; 1859.500;  220.525;    0.000
1003.252; 1924.500;  219.525;    0.000
1003.414; 1969.500;  213.525;    0.000
1003.576; 2001.500;  202.525;    0.000
1003.738; 2059.500;  184.525;    0.000
1003.899; 2224.500;  218.525;    0.000
1004.061; 2356.500;  210.525;    0.000
1004.222; 2343.500;  179.525;    0.000
1004.384; 2357.500;  183.525;    0.000
1004.546; 2450.500;  206.525;    0.000
1004.707; 2444.500;  191.525;    0.000
1004.869; 2476.500;  197.525;    0.000
1005.030; 2428.500;  186.525;    0.000
1005.191; 2381.500;  188.525;    0.000
1005.353; 2309.500;  215.525;    0.000
1005.514; 2202.500;  184.525;    0.000
1005.675; 2172.500;  209.525;    0.000
1005.837; 2052.500;  239.525;    0.000
1005.998; 2041.500;  218.525;    0.000
1006.159; 2041.500;  212.525;    0.000
1006.321; 2055.500;  220.525;    0.000
1006.482; 2250.500;  201.525;    0.000
1006.643; 2254.500;  222.525;    0.000
1006.804; 2261.500;  191.525;    0.000
1006.965; 2275.500;  214.525;    0.000
1007.126; 2394.500;  214.525;    0.000
1007.287; 2371.500;  243.525;    0.000
1007.448; 2325.500;  251.525;    0.000
1007.609; 2189.500;  244.525;    0.000
1007.770; 2324.500;  211.525;    0.000
1007.931; 2229.500;  225.525;    0.000
1008.092; 2230.500;  188.525;    0.000
1008.253; 2363.500;  224.525;    0.000
1008.414; 2285.500;  198.525;    0.000
1008.575; 2490.500;  244.525;    0.000
1008.736; 2317.500;  219.525;    0.000
1008.896; 2405.500;  206.525;    0.000
1009.057; 2382.500;  258.525;    0.000
1009.218; 2413.500;  209.525;    0.000
1009.379; 2425.500;  204.525;    0.000
1009.539; 2487.500;  242.525;    0.000
1009.700; 2545.500;  205.525;    0.000
1009.860; 2419.500;  211.525;    0.000
1010.021; 2511.500;  219.525;    0.000
1010.182; 2483.500;  206.525;    0.000
1010.342; 2510.500;  219.525;    0.000
1010.503; 2701.500;  231.525;    0.000
1010.663; 2684.500;  260.525;    0.000
1010.823; 2762.500;  200.525;    0.000
1010.984; 2770.500;  189.525;    0.000
1011.144; 2947.500;  234.525;    0.000
1011.305; 3019.500;  212.525;    0.000
1011.465; 3172.500;  202.525;    0.000
1011.625; 3255.500;  236.525;    0.000
1011.785; 3307.500;  203.525;    0.000
1011.946; 3152.500;  195.525;    0.000
1012.106; 3256.500;  176.525;    0.000
1012.266; 3154.500;  211.525;    0.000
1012.426; 3100.500;  244.525;    0.000
1012.586; 3100.500;  202.525;    0.000
1012.746; 3028.500;  234.525;    0.000
1012.906; 2936.500;  246.525;    0.000
1013.066; 3045.500;  232.525;    0.000
1013.226; 3052.500;  248.525;    0.000
1013.386; 3042.500;  231.525;    0.000
1013.546; 2928.500;  233.525;    0.000
1013.706; 2898.500;  211.525;    0.000
1013.866; 2901.500;  240.525;    0.000
1014.026; 2882.500;  188.525;    0.000
1014.186; 2859.500;  186.525;    0.000
1014.346; 2876.500;  203.525;    0.000
1014.505; 2967.500;  238.525;    0.000
1014.665; 2979.500;  206.525;    0.000
1014.825; 2869.500;  200.525;    0.000
1014.985; 2970.500;  215.525;    0.000
1015.144; 2992.500;  250.525;    0.000
1015.304; 3008.500;  195.525;    0.000
1015.464; 3092.500;  237.525;    0.000
1015.623; 2991.500;  232.525;    0.000
1015.783; 3173.500;  220.525;    0.000
1015.942; 3404.500;  219.525;    0.000
1016.102; 3272.500;  202.525;    0.000
1016.261; 3318.500;  225.525;    0.000
1016.420; 3604.500;  246.525;    0.000
1016.580; 3665.500;  226.525;    0.000
1016.739; 3624.500;  214.525;    0.000
1016.899; 3774.500;  205.525;    0.000
1017.058; 3821.500;  217.525;    0.000
1017.217; 3922.500;  199.525;    0.000
1017.376; 3671.500;  219.525;    0.000
1017.536; 3578.500;  209.525;    0.000
1017.695; 3513.500;  213.525;    0.000
1017.854; 3341.500;  187.525;    0.000
1018.013; 3317.500;  222.525;    0.000
1018.172; 3508.500;  204.525;    0.000
1018.331; 3345.500;  195.525;    0.000
1018.490; 3489.500;  213.525;    0.000
1018.649; 3539.500;  216.525;    0.000
1018.808; 3645.500;  227.525;    0.000
1018.967; 3670.500;  206.525;    0.000
1019.126; 3675.500;  206.525;    0.000
1019.285; 3601.500;  219.525;    0.000
1019.444; 3640.500;  218.525;    0.000
1019.603; 3647.500;  206.525;    0.000
1019.762; 3419.500;  189.525;    0.000
1019.921; 3368.500;  217.525;    0.000
1020.079; 3697.500;  200.525;    0.000
1020.238; 3914.500;  219.525;    0.000
1020.397; 3742.500;  227.525;    0.000
1020.555; 3536.500;  207.525;    0.000
1020.714; 3606.500;  253.525;    0.000
1020.873; 3853.500;  230.525;    0.000
1021.031; 3823.500;  232.525;    0.000
1021.190; 3579.500;  226.525;    0.000
1021.348; 3542.500;  224.525;    0.000
1021.507; 3811.500;  215.525;    0.000
1021.665; 4017.500;  233.525;    0.000
1021.824; 3800.500;  196.525;    0.000
1021.982; 3628.500;  215.525;    0.000
1022.141; 3627.500;  200.525;    0.000
1022.299; 4016.500;  200.525;    0.000
1022.457; 4131.500;  179.525;    0.000
1022.616; 3880.500;  226.525;    0.000
1022.774; 3576.500;  216.525;    0.000
1022.932; 3658.500;  212.525;    0.000
1023.090; 4136.500;  220.525;    0.000
1023.249; 4238.500;  194.525;    0.000
1023.407; 3980.500;  227.525;    0.000
1023.565; 3570.500;  190.525;    0.000
1023.723; 3709.500;  190.525;    0.000
1023.881; 4050.500;  214.525;    0.000
1024.039; 4137.500;  179.525;    0.000
1024.197; 3852.500;  274.525;    0.000
1024.355; 3795.500;  269.525;    0.000
1024.513; 3783.500;  259.525;    0.000
1024.671; 4357.500;  211.525;    0.000
1024.829; 4247.500;  230.525;    0.000
1024.987; 4052.500;  239.525;    0.000
1025.145; 3738.500;  231.525;    0.000
1025.302; 3934.500;  212.525;    0.000
1025.460; 4243.500;  224.525;    0.000
1025.618; 4430.500;  217.525;    0.000
1025.776; 4132.500;  232.525;    0.000
1025.933; 3943.500;  212.525;    0.000
1026.091; 3851.500;  214.525;    0.000
1026.249; 4308.500;  224.525;    0.000
1026.406; 4513.500;  219.525;    0.000
1026.564; 4292.500;  262.525;    0.000
1026.721; 4130.500;  206.525;    0.000
1026.879; 3870.500;  227.525;    0.000
1027.036; 4174.500;  234.525;    0.000
1027.194; 4479.500;  256.525;    0.000
1027.351; 4590.500;  229.525;    0.000
1027.509; 4167.500;  253.525;    0.000
1027.666; 3989.500;  248.525;    0.000
1027.823; 4241.500;  215.525;    0.000
1027.981; 4466.500;  248.525;    0.000
1028.138; 4505.500;  257.525;    0.000
1028.295; 4212.500;  215.525;    0.000
1028.452; 4087.500;  236.525;    0.000
1028.609; 3955.500;  240.525;    0.000
1028.767; 4485.500;  258.525;    0.000
1028.924; 4543.500;  211.525;    0.000
1029.081; 4352.500;  226.525;    0.000
1029.238; 4378.500;  228.525;    0.000
1029.395; 4116.500;  264.525;    0.000
1029.552; 4217.500;  227.525;    0.000
1029.709; 4656.500;  232.525;    0.000
1029.866; 4626.500;  223.525;    0.000
1030.023; 4343.500;  220.525;    0.000
1030.180; 4062.500;  222.525;    0.000
1030.337; 4219.500;  224.525;    0.000
1030.494; 4306.500;  228.525;    0.000
1030.650; 4637.500;  242.525;    0.000
1030.807; 4776.500;  214.525;    0.000
1030.964; 4497.500;  207.525;    0.000
1031.121; 4366.500;  236.525;    0.000
1031.277; 4255.500;  206.525;    0.000
1031.434; 4469.500;  249.525;    0.000
1031.591; 4884.500;  253.525;    0.000
1031.747; 4713.500;  240.525;    0.000
1031.904; 4701.500;  212.525;    0.000
1032.060; 4522.500;  185.525;    0.000
1032.217; 4421.500;  201.525;    0.000
1032.373; 4896.500;  207.525;    0.000
1032.530; 5075.500;  226.525;    0.000
1032.686; 5563.500;  226.525;    0.000
1032.843; 5423.500;  203.525;    0.000
1032.999; 5201.500;  233.525;    0.000
1033.155; 5294.500;  232.525;    0.000
1033.312; 5338.500;  239.525;    0.000
1033.468; 6054.500;  207.525;    0.000
1033.624; 6614.500;  238.525;    0.000
1033.780; 6781.500;  255.525;    0.000
1033.937; 6593.500;  188.525;    0.000
1034.093; 6359.500;  244.525;    0.000
1034.249; 6211.500;  182.525;    0.000
1034.405; 6491.500;  251.525;    0.000
1034.561; 6755.500;  250.525;    0.000
1034.717; 7299.500;  208.525;    0.000
1034.873; 7096.500;  210.525;    0.000
1035.029; 7310.500;  245.525;    0.000
1035.185; 7190.500;  230.525;    0.000
1035.341; 6960.500;  209.525;    0.000
1035.497; 7630.500;  244.525;    0.000
1035.653; 7900.500;  229.525;    0.000
1035.809; 8209.500;  275.525;    0.000
1035.964; 8849.500;  203.525;    0.000
1036.120; 7870.500;  215.525;    0.000
1036.276; 8031.500;  228.525;    0.000
1036.432; 7902.500;  183.525;    0.000
1036.587; 7473.500;  214.525;    0.000
1036.743; 8085.500;  240.525;    0.000
1036.899; 8559.500;  202.525;    0.000
1037.054; 8628.500;  182.525;    0.000
1037.210; 9459.500;  228.525;    0.000
1037.365; 9727.500;  239.525;    0.000
1037.521; 9013.500;  230.525;    0.000
1037.676; 8930.500;  217.525;    0.000
1037.832; 8358.500;  235.525;    0.000
1037.987; 8444.500;  210.525;    0.000
1038.143; 8508.500;  206.525;    0.000
1038.298; 9939.500;  177.525;    0.000
1038.453; 9981.500;  215.525;    0.000
1038.609;10677.500;  210.525;    0.000
1038.764;11148.500;  227.525;    0.000
1038.919; 9800.500;  197.525;    0.000
1039.074; 9866.500;  183.525;    0.000
1039.229; 9169.500;  218.525;    0.000
1039.385; 9495.500;  251.525;    0.000
1039.540; 9222.500;  222.525;    0.000
1039.695;10798.500;  215.525;    0.000
1039.850;11351.500;  204.525;    0.000
1040.005;11599.500;  241.525;    0.000
1040.160;12566.500;  180.525;    0.000
1040.315;11577.500;  197.525;    0.000
1040.470;11573.500;  180.525;    0.000
1040.625;10902.500;  196.525;    0.000
1040.780;10428.500;  245.525;    0.000
1040.935;10993.500;  204.525;    0.000
1041.089;11273.500;  213.525;    0.000
1041.244;13253.500;  200.525;    0.000
1041.399;13485.500;  212.525;    0.000
1041.554;14434.500;  239.525;    0.000
1041.708;15793.500;  238.525;    0.000
1041.863;14785.500;  213.525;    0.000
1042.018;14749.500;  236.525;    0.000
1042.172;14683.500;  238.525;    0.000
1042.327;13485.500;  254.525;    0.000
1042.481;13479.500;  197.525;    0.000
1042.636;14761.500;  205.525;    0.000
1042.791;14299.500;  218.525;    0.000
1042.945;16776.500;  261.525;    0.000
1043.099;18611.500;  201.525;    0.000
1043.254;18256.500;  191.525;    0.000
1043.408;18821.500;  279.525;    0.000
1043.563;19888.500;  203.525;    0.000
1043.717;18942.500;  229.525;    0.000
1043.871;17690.500;  213.525;    0.000
1044.025;17332.500;  240.525;    0.000
1044.180;16617.500;  220.525;    0.000
1044.334;16780.500;  268.525;    0.000
1044.488;18035.500;  261.525;    0.000
1044.642;18377.500;  205.525;    0.000
1044.796;20768.500;  240.525;    0.000
1044.950;22635.500;  258.525;    0.000
1045.104;24552.500;  218.525;    0.000
1045.258;24344.500;  213.525;    0.000
1045.412;23959.500;  223.525;    0.000
1045.566;23358.500;  240.525;    0.000
1045.720;22060.500;  235.525;    0.000
1045.874;20782.500;  221.525;    0.000
1046.028;19726.500;  247.525;    0.000
1046.182;19662.500;  200.525;    0.000
1046.336;21075.500;  220.525;    0.000
1046.489;22214.500;  228.525;    0.000
1046.643;22387.500;  249.525;    0.000
1046.797;23093.500;  230.525;    0.000
1046.951;24563.500;  234.525;    0.000
1047.104;24918.500;  262.525;    0.000
1047.258;25903.500;  210.525;    0.000
1047.411;27736.500;  235.525;    0.000
1047.565;26111.500;  237.525;    0.000
1047.719;24846.500;  237.525;    0.000
1047.872;24683.500;  225.525;    0.000
1048.026;24548.500;  237.525;    0.000
1048.179;23880.500;  220.525;    0.000
1048.332;24440.500;  219.525;    0.000
1048.486;23009.500;  195.525;    0.000
1048.639;23272.500;  213.525;    0.000
1048.792;24312.500;  245.525;    0.000
1048.946;27206.500;  234.525;    0.000
1049.099;28528.500;  226.525;    0.000
1049.252;28477.500;  282.525;    0.000
1049.406;27332.500;  255.525;    0.000
1049.559;28638.500;  223.525;    0.000
1049.712;31449.500;  253.525;    0.000
1049.865;34196.500;  271.525;    0.000
1050.018;33033.500;  241.525;    0.000
1050.171;28806.500;  202.525;    0.000
1050.324;27749.500;  250.525;    0.000
1050.477;30077.500;  251.525;    0.000
1050.630;32226.500;  216.525;    0.000
1050.783;32223.500;  205.525;    0.000
1050.936;30949.500;  219.525;    0.000
1051.089;29689.500;  247.525;    0.000
1051.242;30383.500;  238.525;    0.000
1051.394;31987.500;  252.525;    0.000
1051.547;34130.500;  245.525;    0.000
1051.700;33367.500;  206.525;    0.000
1051.853;33661.500;  270.525;    0.000
1052.005;35068.500;  245.525;    0.000
1052.158;39236.500;  290.525;    0.000
1052.311;41427.500;  237.525;    0.000
1052.463;38680.500;  271.525;    0.000
1052.616;34545.500;  255.525;    0.000
1052.768;31502.500;  257.525;    0.000
1052.921;31642.500;  289.525;    0.000
1053.073;33928.500;  287.525;    0.000
1053.226;38452.500;  268.525;    0.000
1053.378;44003.500;  294.525;    0.000
1053.531;44779.500;  255.525;    0.000
1053.683;42597.500;  293.525;    0.000
1053.835;36836.500;  274.525;    0.000
1053.988;28908.500;  282.525;    0.000
1054.140; 5262.500;  291.525;    0.000
1054.292; 1240.500;  292.525;    0.000
1054.444;  987.500;  299.525;    0.000
1054.596;  912.500;  319.525;    0.000
1054.749;  870.500;  295.525;    0.000
1054.901;  783.500;  266.525;    0.000
1055.053;  728.500;  300.525;    0.000
1055.205;  790.500;  290.525;    0.000
1055.357;  690.500;  304.525;    0.000
1055.509;  639.500;  292.525;    0.000
1055.661;  690.500;  339.525;    0.000
1055.813;  660.500;  306.525;    0.000
1055.965;  637.500;  293.525;    0.000
1056.116;  585.500;  300.525;    0.000
1056.268;  654.500;  306.525;    0.000
1056.420;  637.500;  288.525;    0.000

