
Integration time [ms]:   0.300
Averaging Nr. [scans]: 1
Smoothing Nr. [pixels]: 0
Data measured with spectrometer [name]: VIS
Wave   ;Sample   ;Dark     ;Reference
[nm]   ;[counts] ;[counts] ;[counts] 

450.961;  204.950;  204.125;    0.000
451.100;  237.950;  219.125;    0.000
451.239;  191.950;  196.125;    0.000
451.377;  245.950;  252.125;    0.000
451.516;  218.950;  215.125;    0.000
451.655;  219.950;  214.125;    0.000
451.794;  221.950;  241.125;    0.000
451.932;  212.950;  242.125;    0.000
452.071;  209.950;  204.125;    0.000
452.210;  210.950;  243.125;    0.000
452.348;  224.950;  241.125;    0.000
452.487;  239.950;  246.125;    0.000
452.626;  215.950;  235.125;    0.000
452.764;  221.950;  230.125;    0.000
452.903;  222.950;  199.125;    0.000
453.042;  309.950;  178.125;    0.000
453.180; 4340.950;  291.125;    0.000
453.319; 4504.950;  335.125;    0.000
453.458; 4517.950;  245.125;    0.000
453.596; 4522.950;  325.125;    0.000
453.735; 4539.950;  291.125;    0.000
453.873; 4499.950;  295.125;    0.000
454.012; 4617.950;  291.125;    0.000
454.150; 4641.950;  292.125;    0.000
454.289; 4576.950;  328.125;    0.000
454.427; 4800.950;  295.125;    0.000
454.566; 4722.950;  295.125;    0.000
454.704; 4797.950;  301.125;    0.000
454.843; 4893.950;  278.125;    0.000
454.981; 4867.950;  306.125;    0.000
455.120; 4955.950;  237.125;    0.000
455.258; 5094.950;  325.125;    0.000
455.397; 5013.950;  276.125;    0.000
455.535; 5099.950;  269.125;    0.000
455.674; 5024.950;  259.125;    0.000
455.812; 5268.950;  264.125;    0.000
455.951; 5192.950;  286.125;    0.000
456.089; 5199.950;  302.125;    0.000
456.227; 5288.950;  230.125;    0.000
456.366; 5443.950;  303.125;    0.000
456.504; 5353.950;  316.125;    0.000
456.642; 5519.950;  309.125;    0.000
456.781; 5414.950;  299.125;    0.000
456.919; 5567.950;  281.125;    0.000
457.057; 5546.950;  253.125;    0.000
457.196; 5679.950;  268.125;    0.000
457.334; 5782.950;  292.125;    0.000
457.472; 5776.950;  287.125;    0.000
457.610; 5878.950;  300.125;    0.000
457.749; 5988.950;  342.125;    0.000
457.887; 6100.950;  310.125;    0.000
458.025; 6060.950;  310.125;    0.000
458.163; 6359.950;  323.125;    0.000
458.301; 6206.950;  336.125;    0.000
458.440; 6331.950;  297.125;    0.000
458.578; 6445.950;  295.125;    0.000
458.716; 6599.950;  309.125;    0.000
458.854; 6716.950;  335.125;    0.000
458.992; 6658.950;  244.125;    0.000
459.130; 6766.950;  370.125;    0.000
459.269; 6773.950;  313.125;    0.000
459.407; 6910.950;  370.125;    0.000
459.545; 6959.950;  341.125;    0.000
459.683; 7046.950;  336.125;    0.000
459.821; 7048.950;  311.125;    0.000
459.959; 7267.950;  330.125;    0.000
460.097; 7304.950;  355.125;    0.000
460.235; 7472.950;  348.125;    0.000
460.373; 7384.950;  338.125;    0.000
460.511; 7411.950;  361.125;    0.000
460.649; 7452.950;  295.125;    0.000
460.787; 7543.950;  325.125;    0.000
460.925; 7549.950;  266.125;    0.000
461.063; 7587.950;  365.125;    0.000
461.201; 7678.950;  334.125;    0.000
461.339; 7723.950;  341.125;    0.000
461.477; 7798.950;  304.125;    0.000
461.615; 7807.950;  311.125;    0.000
461.753; 7712.950;  342.125;    0.000
461.891; 7938.950;  333.125;    0.000
462.029; 8082.950;  336.125;    0.000
462.166; 8248.950;  272.125;    0.000
462.304; 8156.950;  313.125;    0.000
462.442; 8401.950;  313.125;    0.000
462.580; 8528.950;  328.125;    0.000
462.718; 8546.950;  358.125;    0.000
462.856; 8459.950;  302.125;    0.000
462.993; 8513.950;  360.125;    0.000
463.131; 8435.950;  280.125;    0.000
463.269; 8561.950;  312.125;    0.000
463.407; 8310.950;  263.125;    0.000
463.545; 8166.950;  253.125;    0.000
463.682; 8329.950;  296.125;    0.000
463.820; 8398.950;  308.125;    0.000
463.958; 8771.950;  300.125;    0.000
464.095; 9038.950;  289.125;    0.000
464.233; 9132.950;  340.125;    0.000
464.371; 9087.950;  300.125;    0.000
464.509; 8988.950;  266.125;    0.000
464.646; 8984.950;  294.125;    0.000
464.784; 9058.950;  284.125;    0.000
464.921; 8969.950;  350.125;    0.000
465.059; 8912.950;  256.125;    0.000
465.197; 8517.950;  289.125;    0.000
465.334; 8407.950;  287.125;    0.000
465.472; 8178.950;  322.125;    0.000
465.609; 8321.950;  311.125;    0.000
465.747; 8007.950;  336.125;    0.000
465.885; 8279.950;  308.125;    0.000
466.022; 8256.950;  299.125;    0.000
466.160; 8048.950;  293.125;    0.000
466.297; 8007.950;  317.125;    0.000
466.435; 8150.950;  336.125;    0.000
466.572; 8092.950;  282.125;    0.000
466.710; 8037.950;  299.125;    0.000
466.847; 8153.950;  288.125;    0.000
466.985; 8092.950;  274.125;    0.000
467.122; 7954.950;  302.125;    0.000
467.260; 7967.950;  271.125;    0.000
467.397; 8157.950;  263.125;    0.000
467.534; 8031.950;  320.125;    0.000
467.672; 7981.950;  309.125;    0.000
467.809; 8012.950;  275.125;    0.000
467.947; 8112.950;  319.125;    0.000
468.084; 7997.950;  309.125;    0.000
468.221; 7886.950;  302.125;    0.000
468.359; 7871.950;  286.125;    0.000
468.496; 8043.950;  293.125;    0.000
468.633; 7957.950;  273.125;    0.000
468.771; 7901.950;  296.125;    0.000
468.908; 8024.950;  277.125;    0.000
469.045; 7960.950;  303.125;    0.000
469.183; 8138.950;  314.125;    0.000
469.320; 8065.950;  278.125;    0.000
469.457; 8203.950;  308.125;    0.000
469.594; 8249.950;  272.125;    0.000
469.732; 8343.950;  321.125;    0.000
469.869; 8390.950;  299.125;    0.000
470.006; 8405.950;  267.125;    0.000
470.143; 8462.950;  298.125;    0.000
470.280; 8491.950;  272.125;    0.000
470.417; 8740.950;  314.125;    0.000
470.555; 8684.950;  305.125;    0.000
470.692; 8415.950;  309.125;    0.000
470.829; 8600.950;  311.125;    0.000
470.966; 8586.950;  260.125;    0.000
471.103; 8397.950;  267.125;    0.000
471.240; 8395.950;  290.125;    0.000
471.377; 8418.950;  290.125;    0.000
471.514; 8359.950;  295.125;    0.000
471.651; 8342.950;  300.125;    0.000
471.789; 8287.950;  281.125;    0.000
471.926; 8210.950;  291.125;    0.000
472.063; 8228.950;  305.125;    0.000
472.200; 8090.950;  285.125;    0.000
472.337; 8344.950;  288.125;    0.000
472.474; 8162.950;  276.125;    0.000
472.611; 8058.950;  309.125;    0.000
472.748; 8223.950;  280.125;    0.000
472.884; 8264.950;  300.125;    0.000
473.021; 7985.950;  280.125;    0.000
473.158; 8124.950;  304.125;    0.000
473.295; 8160.950;  308.125;    0.000
473.432; 8160.950;  294.125;    0.000
473.569; 8031.950;  288.125;    0.000
473.706; 8045.950;  254.125;    0.000
473.843; 7917.950;  282.125;    0.000
473.980; 8075.950;  286.125;    0.000
474.117; 8175.950;  257.125;    0.000
474.253; 8078.950;  298.125;    0.000
474.390; 8033.950;  253.125;    0.000
474.527; 8007.950;  271.125;    0.000
474.664; 8076.950;  257.125;    0.000
474.801; 8112.950;  296.125;    0.000
474.937; 8212.950;  263.125;    0.000
475.074; 8283.950;  262.125;    0.000
475.211; 8220.950;  299.125;    0.000
475.348; 8159.950;  308.125;    0.000
475.484; 8211.950;  278.125;    0.000
475.621; 8253.950;  287.125;    0.000
475.758; 8170.950;  231.125;    0.000
475.894; 8275.950;  295.125;    0.000
476.031; 8158.950;  290.125;    0.000
476.168; 8058.950;  287.125;    0.000
476.304; 8169.950;  331.125;    0.000
476.441; 8348.950;  301.125;    0.000
476.578; 8382.950;  263.125;    0.000
476.714; 8276.950;  261.125;    0.000
476.851; 8420.950;  247.125;    0.000
476.987; 8525.950;  297.125;    0.000
477.124; 8427.950;  296.125;    0.000
477.261; 8430.950;  299.125;    0.000
477.397; 8363.950;  292.125;    0.000
477.534; 8529.950;  289.125;    0.000
477.670; 8519.950;  268.125;    0.000
477.807; 8664.950;  234.125;    0.000
477.943; 8630.950;  279.125;    0.000
478.080; 8710.950;  276.125;    0.000
478.216; 8773.950;  248.125;    0.000
478.353; 8838.950;  296.125;    0.000
478.489; 8861.950;  267.125;    0.000
478.626; 8960.950;  243.125;    0.000
478.762; 8924.950;  252.125;    0.000
478.898; 8853.950;  266.125;    0.000
479.035; 9074.950;  290.125;    0.000
479.171; 8945.950;  247.125;    0.000
479.308; 9007.950;  283.125;    0.000
479.444; 9063.950;  244.125;    0.000
479.580; 9013.950;  259.125;    0.000
479.717; 9212.950;  301.125;    0.000
479.853; 9057.950;  257.125;    0.000
479.989; 9106.950;  249.125;    0.000
480.126; 9182.950;  218.125;    0.000
480.262; 9323.950;  275.125;    0.000
480.398; 9163.950;  246.125;    0.000
480.535; 9279.950;  246.125;    0.000
480.671; 9344.950;  272.125;    0.000
480.807; 9214.950;  281.125;    0.000
480.943; 9110.950;  233.125;    0.000
481.080; 9056.950;  303.125;    0.000
481.216; 9128.950;  229.125;    0.000
481.352; 9129.950;  240.125;    0.000
481.488; 9062.950;  284.125;    0.000
481.624; 9000.950;  236.125;    0.000
481.760; 8823.950;  255.125;    0.000
481.897; 9013.950;  206.125;    0.000
482.033; 8947.950;  254.125;    0.000
482.169; 8980.950;  268.125;    0.000
482.305; 8963.950;  214.125;    0.000
482.441; 8828.950;  225.125;    0.000
482.577; 8925.950;  251.125;    0.000
482.713; 8974.950;  221.125;    0.000
482.849; 9115.950;  218.125;    0.000
482.985; 8902.950;  245.125;    0.000
483.121; 8847.950;  224.125;    0.000
483.258; 8935.950;  249.125;    0.000
483.394; 8936.950;  224.125;    0.000
483.530; 8992.950;  247.125;    0.000
483.665; 8978.950;  256.125;    0.000
483.801; 9028.950;  220.125;    0.000
483.937; 8920.950;  200.125;    0.000
484.073; 8913.950;  272.125;    0.000
484.209; 8979.950;  243.125;    0.000
484.345; 9098.950;  274.125;    0.000
484.481; 9091.950;  264.125;    0.000
484.617; 9105.950;  270.125;    0.000
484.753; 9087.950;  244.125;    0.000
484.889; 9330.950;  293.125;    0.000
485.025; 9126.950;  257.125;    0.000
485.161; 9294.950;  264.125;    0.000
485.296; 9111.950;  247.125;    0.000
485.432; 9226.950;  240.125;    0.000
485.568; 8972.950;  240.125;    0.000
485.704; 9236.950;  232.125;    0.000
485.840; 9174.950;  280.125;    0.000
485.975; 9318.950;  253.125;    0.000
486.111; 9180.950;  250.125;    0.000
486.247; 9305.950;  272.125;    0.000
486.383; 9147.950;  258.125;    0.000
486.518; 9282.950;  256.125;    0.000
486.654; 9384.950;  250.125;    0.000
486.790; 9217.950;  259.125;    0.000
486.926; 9213.950;  256.125;    0.000
487.061; 9154.950;  267.125;    0.000
487.197; 9318.950;  224.125;    0.000
487.333; 9195.950;  265.125;    0.000
487.468; 9271.950;  223.125;    0.000
487.604; 9227.950;  298.125;    0.000
487.740; 9164.950;  261.125;    0.000
487.875; 9088.950;  278.125;    0.000
488.011; 9230.950;  292.125;    0.000
488.146; 9120.950;  239.125;    0.000
488.282; 9196.950;  265.125;    0.000
488.417; 9293.950;  286.125;    0.000
488.553; 9331.950;  271.125;    0.000
488.688; 9254.950;  252.125;    0.000
488.824; 9257.950;  239.125;    0.000
488.960; 9343.950;  266.125;    0.000
489.095; 9325.950;  229.125;    0.000
489.230; 9342.950;  247.125;    0.000
489.366; 9608.950;  260.125;    0.000
489.501; 9283.950;  257.125;    0.000
489.637; 9304.950;  233.125;    0.000
489.772; 9339.950;  254.125;    0.000
489.908; 9406.950;  235.125;    0.000
490.043; 9559.950;  266.125;    0.000
490.178; 9558.950;  228.125;    0.000
490.314; 9427.950;  310.125;    0.000
490.449; 9328.950;  251.125;    0.000
490.585; 9308.950;  221.125;    0.000
490.720; 9482.950;  203.125;    0.000
490.855; 9386.950;  266.125;    0.000
490.991; 9356.950;  249.125;    0.000
491.126; 9545.950;  313.125;    0.000
491.261; 9405.950;  284.125;    0.000
491.396; 9318.950;  225.125;    0.000
491.532; 9482.950;  227.125;    0.000
491.667; 9367.950;  210.125;    0.000
491.802; 9541.950;  214.125;    0.000
491.937; 9605.950;  246.125;    0.000
492.073; 9646.950;  250.125;    0.000
492.208; 9538.950;  267.125;    0.000
492.343; 9758.950;  245.125;    0.000
492.478; 9839.950;  271.125;    0.000
492.613; 9711.950;  253.125;    0.000
492.749; 9610.950;  249.125;    0.000
492.884; 9604.950;  217.125;    0.000
493.019; 9622.950;  244.125;    0.000
493.154; 9552.950;  265.125;    0.000
493.289; 9576.950;  266.125;    0.000
493.424; 9742.950;  226.125;    0.000
493.559; 9631.950;  222.125;    0.000
493.694; 9588.950;  218.125;    0.000
493.829; 9615.950;  246.125;    0.000
493.964; 9653.950;  243.125;    0.000
494.099; 9610.950;  269.125;    0.000
494.234; 9654.950;  249.125;    0.000
494.369; 9623.950;  279.125;    0.000
494.504; 9618.950;  261.125;    0.000
494.639; 9687.950;  289.125;    0.000
494.774; 9498.950;  252.125;    0.000
494.909; 9578.950;  250.125;    0.000
495.044; 9704.950;  207.125;    0.000
495.179; 9574.950;  266.125;    0.000
495.314; 9722.950;  228.125;    0.000
495.449; 9620.950;  262.125;    0.000
495.584; 9564.950;  281.125;    0.000
495.719; 9725.950;  251.125;    0.000
495.854; 9690.950;  237.125;    0.000
495.988; 9640.950;  238.125;    0.000
496.123; 9635.950;  255.125;    0.000
496.258; 9813.950;  264.125;    0.000
496.393; 9721.950;  253.125;    0.000
496.528; 9874.950;  244.125;    0.000
496.663; 9937.950;  267.125;    0.000
496.797;10236.950;  271.125;    0.000
496.932;10295.950;  262.125;    0.000
497.067;10355.950;  260.125;    0.000
497.202;10436.950;  264.125;    0.000
497.336;10679.950;  243.125;    0.000
497.471;10657.950;  251.125;    0.000
497.606;10932.950;  219.125;    0.000
497.740;11136.950;  264.125;    0.000
497.875;11477.950;  252.125;    0.000
498.010;11774.950;  241.125;    0.000
498.144;11937.950;  261.125;    0.000
498.279;12153.950;  221.125;    0.000
498.414;12417.950;  246.125;    0.000
498.548;12427.950;  212.125;    0.000
498.683;12522.950;  260.125;    0.000
498.817;12631.950;  244.125;    0.000
498.952;12801.950;  252.125;    0.000
499.087;13039.950;  251.125;    0.000
499.221;13146.950;  282.125;    0.000
499.356;13636.950;  264.125;    0.000
499.490;13952.950;  280.125;    0.000
499.625;14093.950;  256.125;    0.000
499.759;14440.950;  253.125;    0.000
499.894;14956.950;  261.125;    0.000
500.028;15359.950;  304.125;    0.000
500.162;15697.950;  272.125;    0.000
500.297;15989.950;  274.125;    0.000
500.431;16219.950;  320.125;    0.000
500.566;16321.950;  268.125;    0.000
500.700;15954.950;  280.125;    0.000
500.835;15629.950;  288.125;    0.000
500.969;15163.950;  253.125;    0.000
501.103;14656.950;  234.125;    0.000
501.238;14153.950;  302.125;    0.000
501.372;13686.950;  292.125;    0.000
501.506;13407.950;  222.125;    0.000
501.641;12942.950;  274.125;    0.000
501.775;12375.950;  245.125;    0.000
501.909;12175.950;  283.125;    0.000
502.043;12160.950;  252.125;    0.000
502.178;11888.950;  293.125;    0.000
502.312;11540.950;  223.125;    0.000
502.446;11446.950;  292.125;    0.000
502.580;11294.950;  253.125;    0.000
502.715;10977.950;  282.125;    0.000
502.849;10941.950;  258.125;    0.000
502.983;10827.950;  267.125;    0.000
503.117;10556.950;  226.125;    0.000
503.251;10600.950;  260.125;    0.000
503.385;10389.950;  291.125;    0.000
503.520;10329.950;  279.125;    0.000
503.654;10038.950;  229.125;    0.000
503.788; 9947.950;  259.125;    0.000
503.922; 9787.950;  246.125;    0.000
504.056; 9659.950;  269.125;    0.000
504.190; 9857.950;  265.125;    0.000
504.324; 9632.950;  298.125;    0.000
504.458; 9698.950;  235.125;    0.000
504.592; 9478.950;  275.125;    0.000
504.726; 9420.950;  226.125;    0.000
504.860; 9193.950;  298.125;    0.000
504.994; 9147.950;  253.125;    0.000
505.128; 9034.950;  283.125;    0.000
505.262; 8934.950;  255.125;    0.000
505.396; 8759.950;  219.125;    0.000
505.530; 8703.950;  279.125;    0.000
505.664; 8672.950;  306.125;    0.000
505.798; 8510.950;  297.125;    0.000
505.932; 8380.950;  273.125;    0.000
506.066; 8372.950;  271.125;    0.000
506.199; 8168.950;  273.125;    0.000
506.333; 8159.950;  227.125;    0.000
506.467; 8020.950;  302.125;    0.000
506.601; 7975.950;  254.125;    0.000
506.735; 8003.950;  299.125;    0.000
506.869; 7987.950;  278.125;    0.000
507.002; 7960.950;  259.125;    0.000
507.136; 8011.950;  285.125;    0.000
507.270; 7802.950;  255.125;    0.000
507.404; 7852.950;  273.125;    0.000
507.537; 7702.950;  245.125;    0.000
507.671; 7681.950;  251.125;    0.000
507.805; 7558.950;  286.125;    0.000
507.939; 7720.950;  261.125;    0.000
508.072; 7691.950;  298.125;    0.000
508.206; 7558.950;  238.125;    0.000
508.340; 7649.950;  289.125;    0.000
508.473; 7512.950;  255.125;    0.000
508.607; 7459.950;  266.125;    0.000
508.740; 7568.950;  253.125;    0.000
508.874; 7514.950;  233.125;    0.000
509.008; 7325.950;  274.125;    0.000
509.141; 7423.950;  235.125;    0.000
509.275; 7354.950;  225.125;    0.000
509.408; 7421.950;  254.125;    0.000
509.542; 7474.950;  244.125;    0.000
509.675; 7401.950;  263.125;    0.000
509.809; 7294.950;  271.125;    0.000
509.942; 7302.950;  246.125;    0.000
510.076; 7293.950;  221.125;    0.000
510.209; 7252.950;  270.125;    0.000
510.343; 7117.950;  265.125;    0.000
510.476; 7292.950;  291.125;    0.000
510.610; 7238.950;  251.125;    0.000
510.743; 7035.950;  304.125;    0.000
510.877; 7247.950;  259.125;    0.000
511.010; 6951.950;  274.125;    0.000
511.143; 7033.950;  255.125;    0.000
511.277; 7056.950;  267.125;    0.000
511.410; 7026.950;  270.125;    0.000
511.543; 7084.950;  231.125;    0.000
511.677; 6928.950;  275.125;    0.000
511.810; 6979.950;  265.125;    0.000
511.943; 7095.950;  231.125;    0.000
512.077; 7222.950;  225.125;    0.000
512.210; 6977.950;  235.125;    0.000
512.343; 6929.950;  251.125;    0.000
512.476; 6940.950;  260.125;    0.000
512.610; 7090.950;  289.125;    0.000
512.743; 7070.950;  270.125;    0.000
512.876; 7065.950;  289.125;    0.000
513.009; 7073.950;  293.125;    0.000
513.142; 7011.950;  282.125;    0.000
513.276; 7038.950;  244.125;    0.000
513.409; 7016.950;  277.125;    0.000
513.542; 6991.950;  254.125;    0.000
513.675; 6979.950;  258.125;    0.000
513.808; 7026.950;  243.125;    0.000
513.941; 6848.950;  274.125;    0.000
514.074; 6879.950;  296.125;    0.000
514.207; 7022.950;  267.125;    0.000
514.340; 7060.950;  283.125;    0.000
514.474; 7140.950;  255.125;    0.000
514.607; 7209.950;  291.125;    0.000
514.740; 7240.950;  296.125;    0.000
514.873; 7378.950;  275.125;    0.000
515.006; 7435.950;  313.125;    0.000
515.139; 7479.950;  253.125;    0.000
515.272; 7615.950;  263.125;    0.000
515.404; 7695.950;  258.125;    0.000
515.537; 7678.950;  285.125;    0.000
515.670; 7606.950;  286.125;    0.000
515.803; 7672.950;  266.125;    0.000
515.936; 7582.950;  251.125;    0.000
516.069; 7632.950;  231.125;    0.000
516.202; 7850.950;  278.125;    0.000
516.335; 7968.950;  295.125;    0.000
516.468; 8461.950;  239.125;    0.000
516.600;10420.950;  229.125;    0.000
516.733;13931.950;  301.125;    0.000
516.866;13722.950;  287.125;    0.000
516.999;11905.950;  265.125;    0.000
517.132;15313.950;  291.125;    0.000
517.264;22757.949;  262.125;    0.000
517.397;21826.949;  292.125;    0.000
517.530;15498.950;  299.125;    0.000
517.663;12321.950;  268.125;    0.000
517.795;11283.950;  323.125;    0.000
517.928;10683.950;  281.125;    0.000
518.061;11110.950;  242.125;    0.000
518.193;15336.950;  279.125;    0.000
518.326;26709.949;  288.125;    0.000
518.459;28572.949;  251.125;    0.000
518.591;20280.949;  314.125;    0.000
518.724;13978.950;  279.125;    0.000
518.857;12033.950;  245.125;    0.000
518.989;10747.950;  290.125;    0.000
519.122;10059.950;  319.125;    0.000
519.254; 9359.950;  295.125;    0.000
519.387; 8928.950;  271.125;    0.000
519.519; 8599.950;  312.125;    0.000
519.652; 8294.950;  289.125;    0.000
519.784; 8062.950;  311.125;    0.000
519.917; 7840.950;  283.125;    0.000
520.049; 7903.950;  281.125;    0.000
520.182; 7682.950;  242.125;    0.000
520.314; 7518.950;  310.125;    0.000
520.447; 7434.950;  215.125;    0.000
520.579; 7501.950;  277.125;    0.000
520.712; 7216.950;  224.125;    0.000
520.844; 7200.950;  293.125;    0.000
520.976; 7158.950;  281.125;    0.000
521.109; 7178.950;  279.125;    0.000
521.241; 6963.950;  318.125;    0.000
521.373; 7019.950;  242.125;    0.000
521.506; 6877.950;  246.125;    0.000
521.638; 6818.950;  312.125;    0.000
521.770; 6820.950;  257.125;    0.000
521.903; 6718.950;  295.125;    0.000
522.035; 6728.950;  283.125;    0.000
522.167; 6595.950;  281.125;    0.000
522.300; 6498.950;  262.125;    0.000
522.432; 6513.950;  272.125;    0.000
522.564; 6336.950;  277.125;    0.000
522.696; 6435.950;  295.125;    0.000
522.828; 6354.950;  284.125;    0.000
522.961; 6360.950;  295.125;    0.000
523.093; 6317.950;  282.125;    0.000
523.225; 6327.950;  270.125;    0.000
523.357; 6288.950;  285.125;    0.000
523.489; 6294.950;  292.125;    0.000
523.621; 6171.950;  285.125;    0.000
523.753; 6207.950;  273.125;    0.000
523.885; 6146.950;  271.125;    0.000
524.018; 6219.950;  276.125;    0.000
524.150; 6050.950;  320.125;    0.000
524.282; 6084.950;  304.125;    0.000
524.414; 5974.950;  302.125;    0.000
524.546; 6072.950;  305.125;    0.000
524.678; 6010.950;  264.125;    0.000
524.810; 5874.950;  258.125;    0.000
524.942; 5903.950;  252.125;    0.000
525.074; 5938.950;  275.125;    0.000
525.206; 5785.950;  286.125;    0.000
525.338; 5920.950;  280.125;    0.000
525.469; 5902.950;  267.125;    0.000
525.601; 5860.950;  266.125;    0.000
525.733; 5818.950;  283.125;    0.000
525.865; 5813.950;  273.125;    0.000
525.997; 5871.950;  286.125;    0.000
526.129; 5836.950;  249.125;    0.000
526.261; 5749.950;  233.125;    0.000
526.393; 5834.950;  257.125;    0.000
526.524; 5705.950;  184.125;    0.000
526.656; 5746.950;  259.125;    0.000
526.788; 5689.950;  268.125;    0.000
526.920; 5709.950;  262.125;    0.000
527.052; 5560.950;  250.125;    0.000
527.183; 5599.950;  264.125;    0.000
527.315; 5848.950;  301.125;    0.000
527.447; 5703.950;  262.125;    0.000
527.578; 5715.950;  267.125;    0.000
527.710; 5665.950;  299.125;    0.000
527.842; 5634.950;  266.125;    0.000
527.973; 5697.950;  240.125;    0.000
528.105; 5674.950;  275.125;    0.000
528.237; 5650.950;  239.125;    0.000
528.368; 5541.950;  275.125;    0.000
528.500; 5660.950;  271.125;    0.000
528.632; 5619.950;  252.125;    0.000
528.763; 5570.950;  253.125;    0.000
528.895; 5610.950;  259.125;    0.000
529.026; 5507.950;  209.125;    0.000
529.158; 5597.950;  291.125;    0.000
529.289; 5604.950;  280.125;    0.000
529.421; 5600.950;  274.125;    0.000
529.552; 5526.950;  253.125;    0.000
529.684; 5610.950;  310.125;    0.000
529.815; 5585.950;  305.125;    0.000
529.947; 5567.950;  234.125;    0.000
530.078; 5543.950;  259.125;    0.000
530.210; 5500.950;  264.125;    0.000
530.341; 5542.950;  267.125;    0.000
530.472; 5633.950;  232.125;    0.000
530.604; 5556.950;  293.125;    0.000
530.735; 5492.950;  275.125;    0.000
530.867; 5679.950;  280.125;    0.000
530.998; 5690.950;  295.125;    0.000
531.129; 5761.950;  274.125;    0.000
531.260; 5673.950;  272.125;    0.000
531.392; 5595.950;  275.125;    0.000
531.523; 5820.950;  244.125;    0.000
531.654; 5798.950;  289.125;    0.000
531.786; 5743.950;  259.125;    0.000
531.917; 5897.950;  286.125;    0.000
532.048; 5762.950;  293.125;    0.000
532.179; 5819.950;  288.125;    0.000
532.311; 5670.950;  296.125;    0.000
532.442; 5658.950;  277.125;    0.000
532.573; 5711.950;  273.125;    0.000
532.704; 5576.950;  308.125;    0.000
532.835; 5752.950;  308.125;    0.000
532.966; 5608.950;  274.125;    0.000
533.097; 5640.950;  310.125;    0.000
533.229; 5696.950;  294.125;    0.000
533.360; 5459.950;  324.125;    0.000
533.491; 5589.950;  278.125;    0.000
533.622; 5619.950;  319.125;    0.000
533.753; 5555.950;  303.125;    0.000
533.884; 5683.950;  269.125;    0.000
534.015; 5708.950;  266.125;    0.000
534.146; 5603.950;  283.125;    0.000
534.277; 5804.950;  299.125;    0.000
534.408; 5700.950;  265.125;    0.000
534.539; 5842.950;  310.125;    0.000
534.670; 5545.950;  319.125;    0.000
534.801; 5600.950;  281.125;    0.000
534.932; 5565.950;  239.125;    0.000
535.063; 5669.950;  276.125;    0.000
535.194; 5558.950;  361.125;    0.000
535.324; 5361.950;  283.125;    0.000
535.455; 5497.950;  282.125;    0.000
535.586; 5611.950;  331.125;    0.000
535.717; 5443.950;  262.125;    0.000
535.848; 5522.950;  308.125;    0.000
535.979; 5389.950;  273.125;    0.000
536.109; 5465.950;  277.125;    0.000
536.240; 5422.950;  293.125;    0.000
536.371; 5440.950;  295.125;    0.000
536.502; 5378.950;  330.125;    0.000
536.632; 5517.950;  280.125;    0.000
536.763; 5427.950;  332.125;    0.000
536.894; 5470.950;  334.125;    0.000
537.025; 5353.950;  295.125;    0.000
537.155; 5406.950;  321.125;    0.000
537.286; 5409.950;  292.125;    0.000
537.417; 5396.950;  314.125;    0.000
537.547; 5304.950;  287.125;    0.000
537.678; 5393.950;  287.125;    0.000
537.808; 5334.950;  278.125;    0.000
537.939; 5425.950;  304.125;    0.000
538.070; 5403.950;  303.125;    0.000
538.200; 5389.950;  279.125;    0.000
538.331; 5157.950;  321.125;    0.000
538.461; 5324.950;  313.125;    0.000
538.592; 5363.950;  290.125;    0.000
538.722; 5522.950;  285.125;    0.000
538.853; 5335.950;  261.125;    0.000
538.983; 5283.950;  280.125;    0.000
539.114; 5449.950;  310.125;    0.000
539.244; 5356.950;  281.125;    0.000
539.375; 5226.950;  292.125;    0.000
539.505; 5218.950;  286.125;    0.000
539.636; 5230.950;  276.125;    0.000
539.766; 5269.950;  287.125;    0.000
539.896; 5273.950;  292.125;    0.000
540.027; 5340.950;  262.125;    0.000
540.157; 5370.950;  269.125;    0.000
540.287; 5240.950;  282.125;    0.000
540.418; 5367.950;  269.125;    0.000
540.548; 5353.950;  328.125;    0.000
540.678; 5387.950;  271.125;    0.000
540.809; 5424.950;  272.125;    0.000
540.939; 5375.950;  299.125;    0.000
541.069; 5442.950;  266.125;    0.000
541.200; 5401.950;  242.125;    0.000
541.330; 5310.950;  257.125;    0.000
541.460; 5491.950;  270.125;    0.000
541.590; 5538.950;  287.125;    0.000
541.720; 5402.950;  255.125;    0.000
541.851; 5545.950;  273.125;    0.000
541.981; 5554.950;  244.125;    0.000
542.111; 5458.950;  263.125;    0.000
542.241; 5544.950;  271.125;    0.000
542.371; 5602.950;  263.125;    0.000
542.501; 5691.950;  274.125;    0.000
542.631; 5622.950;  288.125;    0.000
542.761; 5818.950;  261.125;    0.000
542.891; 5875.950;  253.125;    0.000
543.021; 5898.950;  249.125;    0.000
543.151; 5836.950;  261.125;    0.000
543.281; 5854.950;  256.125;    0.000
543.411; 5830.950;  290.125;    0.000
543.542; 5726.950;  278.125;    0.000
543.671; 5678.950;  238.125;    0.000
543.801; 5611.950;  256.125;    0.000
543.931; 5692.950;  254.125;    0.000
544.061; 5764.950;  237.125;    0.000
544.191; 5712.950;  245.125;    0.000
544.321; 5840.950;  267.125;    0.000
544.451; 5702.950;  262.125;    0.000
544.581; 5573.950;  221.125;    0.000
544.711; 5815.950;  252.125;    0.000
544.841; 5917.950;  264.125;    0.000
544.970; 5969.950;  315.125;    0.000
545.100; 5988.950;  245.125;    0.000
545.230; 6257.950;  276.125;    0.000
545.360; 6108.950;  278.125;    0.000
545.490; 5955.950;  268.125;    0.000
545.619; 5797.950;  237.125;    0.000
545.749; 5753.950;  228.125;    0.000
545.879; 5633.950;  234.125;    0.000
546.009; 5695.950;  287.125;    0.000
546.138; 5688.950;  222.125;    0.000
546.268; 5653.950;  228.125;    0.000
546.398; 5707.950;  244.125;    0.000
546.527; 5657.950;  233.125;    0.000
546.657; 5552.950;  189.125;    0.000
546.786; 5595.950;  247.125;    0.000
546.916; 5735.950;  244.125;    0.000
547.046; 5586.950;  214.125;    0.000
547.175; 5593.950;  242.125;    0.000
547.305; 5603.950;  252.125;    0.000
547.434; 5712.950;  191.125;    0.000
547.564; 5534.950;  208.125;    0.000
547.693; 5630.950;  213.125;    0.000
547.823; 5605.950;  209.125;    0.000
547.953; 5582.950;  250.125;    0.000
548.082; 5725.950;  231.125;    0.000
548.211; 5712.950;  226.125;    0.000
548.341; 5638.950;  254.125;    0.000
548.470; 5741.950;  266.125;    0.000
548.600; 5588.950;  229.125;    0.000
548.729; 5639.950;  225.125;    0.000
548.859; 5547.950;  185.125;    0.000
548.988; 5592.950;  225.125;    0.000
549.117; 5585.950;  241.125;    0.000
549.247; 5689.950;  236.125;    0.000
549.376; 5624.950;  220.125;    0.000
549.505; 5640.950;  254.125;    0.000
549.635; 5773.950;  268.125;    0.000
549.764; 5675.950;  194.125;    0.000
549.893; 5827.950;  232.125;    0.000
550.023; 5587.950;  222.125;    0.000
550.152; 5745.950;  223.125;    0.000
550.281; 5719.950;  210.125;    0.000
550.410; 5850.950;  197.125;    0.000
550.539; 5788.950;  222.125;    0.000
550.669; 5808.950;  245.125;    0.000
550.798; 5877.950;  265.125;    0.000
550.927; 5742.950;  249.125;    0.000
551.056; 5776.950;  184.125;    0.000
551.185; 5869.950;  247.125;    0.000
551.314; 5797.950;  258.125;    0.000
551.443; 5745.950;  224.125;    0.000
551.573; 5852.950;  204.125;    0.000
551.702; 5787.950;  220.125;    0.000
551.831; 5941.950;  287.125;    0.000
551.960; 5847.950;  259.125;    0.000
552.089; 5843.950;  222.125;    0.000
552.218; 5861.950;  254.125;    0.000
552.347; 5908.950;  260.125;    0.000
552.476; 6057.950;  251.125;    0.000
552.605; 6086.950;  229.125;    0.000
552.734; 6414.950;  261.125;    0.000
552.863; 6627.950;  225.125;    0.000
552.992; 6655.950;  202.125;    0.000
553.121; 6605.950;  193.125;    0.000
553.249; 6312.950;  224.125;    0.000
553.378; 6360.950;  274.125;    0.000
553.507; 6222.950;  248.125;    0.000
553.636; 6122.950;  203.125;    0.000
553.765; 5983.950;  224.125;    0.000
553.894; 6061.950;  246.125;    0.000
554.023; 6001.950;  229.125;    0.000
554.151; 6026.950;  216.125;    0.000
554.280; 5916.950;  223.125;    0.000
554.409; 5860.950;  240.125;    0.000
554.538; 5839.950;  277.125;    0.000
554.666; 5885.950;  244.125;    0.000
554.795; 5834.950;  240.125;    0.000
554.924; 5821.950;  257.125;    0.000
555.052; 5869.950;  266.125;    0.000
555.181; 5762.950;  244.125;    0.000
555.310; 5763.950;  262.125;    0.000
555.439; 5814.950;  260.125;    0.000
555.567; 5695.950;  234.125;    0.000
555.696; 5811.950;  237.125;    0.000
555.824; 5712.950;  232.125;    0.000
555.953; 5790.950;  279.125;    0.000
556.082; 5810.950;  234.125;    0.000
556.210; 5782.950;  235.125;    0.000
556.339; 5690.950;  198.125;    0.000
556.467; 5639.950;  216.125;    0.000
556.596; 5694.950;  273.125;    0.000
556.724; 5722.950;  245.125;    0.000
556.853; 5618.950;  241.125;    0.000
556.981; 5636.950;  219.125;    0.000
557.110; 5660.950;  242.125;    0.000
557.238; 5616.950;  202.125;    0.000
557.367; 5576.950;  254.125;    0.000
557.495; 5532.950;  260.125;    0.000
557.623; 5659.950;  207.125;    0.000
557.752; 5639.950;  219.125;    0.000
557.880; 5489.950;  209.125;    0.000
558.008; 5725.950;  243.125;    0.000
558.137; 5607.950;  244.125;    0.000
558.265; 5526.950;  221.125;    0.000
558.393; 5604.950;  297.125;    0.000
558.522; 5725.950;  232.125;    0.000
558.650; 5647.950;  299.125;    0.000
558.778; 5656.950;  210.125;    0.000
558.906; 5656.950;  240.125;    0.000
559.035; 5747.950;  252.125;    0.000
559.163; 5617.950;  246.125;    0.000
559.291; 5668.950;  213.125;    0.000
559.419; 5589.950;  221.125;    0.000
559.548; 5585.950;  208.125;    0.000
559.676; 5772.950;  254.125;    0.000
559.804; 5727.950;  213.125;    0.000
559.932; 5779.950;  208.125;    0.000
560.060; 5859.950;  276.125;    0.000
560.188; 5713.950;  278.125;    0.000
560.316; 5793.950;  217.125;    0.000
560.444; 5814.950;  254.125;    0.000
560.572; 5970.950;  226.125;    0.000
560.700; 5988.950;  282.125;    0.000
560.828; 6035.950;  211.125;    0.000
560.956; 5965.950;  264.125;    0.000
561.085; 5966.950;  295.125;    0.000
561.212; 5896.950;  229.125;    0.000
561.340; 5947.950;  259.125;    0.000
561.468; 5924.950;  253.125;    0.000
561.596; 6109.950;  240.125;    0.000
561.724; 5964.950;  259.125;    0.000
561.852; 5965.950;  224.125;    0.000
561.980; 6128.950;  251.125;    0.000
562.108; 6045.950;  214.125;    0.000
562.236; 6143.950;  258.125;    0.000
562.364; 6177.950;  237.125;    0.000
562.492; 6173.950;  228.125;    0.000
562.619; 6275.950;  223.125;    0.000
562.747; 6047.950;  263.125;    0.000
562.875; 6278.950;  257.125;    0.000
563.003; 6327.950;  216.125;    0.000
563.130; 6307.950;  190.125;    0.000
563.258; 6416.950;  225.125;    0.000
563.386; 6446.950;  259.125;    0.000
563.514; 6480.950;  264.125;    0.000
563.641; 6608.950;  230.125;    0.000
563.769; 6778.950;  257.125;    0.000
563.897; 6723.950;  210.125;    0.000
564.024; 7038.950;  221.125;    0.000
564.152; 7087.950;  256.125;    0.000
564.280; 7019.950;  225.125;    0.000
564.407; 7108.950;  262.125;    0.000
564.535; 7162.950;  235.125;    0.000
564.662; 7052.950;  238.125;    0.000
564.790; 7232.950;  248.125;    0.000
564.917; 7096.950;  214.125;    0.000
565.045; 7287.950;  253.125;    0.000
565.173; 7220.950;  225.125;    0.000
565.300; 7357.950;  261.125;    0.000
565.428; 7277.950;  218.125;    0.000
565.555; 7439.950;  245.125;    0.000
565.682; 7770.950;  242.125;    0.000
565.810; 7665.950;  228.125;    0.000
565.937; 8085.950;  230.125;    0.000
566.065; 8159.950;  251.125;    0.000
566.192; 8296.950;  196.125;    0.000
566.320; 8502.950;  217.125;    0.000
566.447; 8609.950;  224.125;    0.000
566.574; 8769.950;  221.125;    0.000
566.702; 8910.950;  221.125;    0.000
566.829; 9227.950;  252.125;    0.000
566.956; 9376.950;  214.125;    0.000
567.083; 9197.950;  204.125;    0.000
567.211; 9255.950;  216.125;    0.000
567.338; 9424.950;  228.125;    0.000
567.465; 9430.950;  208.125;    0.000
567.593; 9529.950;  205.125;    0.000
567.720; 9511.950;  194.125;    0.000
567.847; 9522.950;  268.125;    0.000
567.974; 9641.950;  198.125;    0.000
568.101;10208.950;  224.125;    0.000
568.228;11979.950;  236.125;    0.000
568.356;12702.950;  207.125;    0.000
568.483;12182.950;  220.125;    0.000
568.610;11945.950;  181.125;    0.000
568.737;13859.950;  216.125;    0.000
568.864;16292.950;  258.125;    0.000
568.991;15368.950;  203.125;    0.000
569.118;12998.950;  232.125;    0.000
569.245;11671.950;  192.125;    0.000
569.372;10632.950;  226.125;    0.000
569.499;10041.950;  211.125;    0.000
569.626; 9615.950;  247.125;    0.000
569.753; 9216.950;  248.125;    0.000
569.880; 8782.950;  226.125;    0.000
570.007; 8781.950;  215.125;    0.000
570.134; 8305.950;  205.125;    0.000
570.261; 8242.950;  187.125;    0.000
570.388; 8091.950;  258.125;    0.000
570.515; 7998.950;  241.125;    0.000
570.642; 7741.950;  211.125;    0.000
570.768; 7777.950;  228.125;    0.000
570.895; 7678.950;  229.125;    0.000
571.022; 7508.950;  203.125;    0.000
571.149; 7526.950;  206.125;    0.000
571.276; 7327.950;  191.125;    0.000
571.402; 7443.950;  218.125;    0.000
571.529; 7056.950;  192.125;    0.000
571.656; 7099.950;  209.125;    0.000
571.783; 7012.950;  181.125;    0.000
571.909; 7012.950;  251.125;    0.000
572.036; 6942.950;  225.125;    0.000
572.163; 6957.950;  214.125;    0.000
572.289; 6826.950;  252.125;    0.000
572.416; 6605.950;  220.125;    0.000
572.543; 6785.950;  225.125;    0.000
572.669; 6546.950;  226.125;    0.000
572.796; 6727.950;  231.125;    0.000
572.922; 6560.950;  258.125;    0.000
573.049; 6401.950;  202.125;    0.000
573.176; 6527.950;  254.125;    0.000
573.302; 6578.950;  215.125;    0.000
573.429; 6414.950;  251.125;    0.000
573.555; 6427.950;  221.125;    0.000
573.682; 6421.950;  227.125;    0.000
573.808; 6444.950;  259.125;    0.000
573.935; 6478.950;  233.125;    0.000
574.061; 6328.950;  241.125;    0.000
574.188; 6386.950;  238.125;    0.000
574.314; 6335.950;  221.125;    0.000
574.440; 6293.950;  221.125;    0.000
574.567; 6290.950;  216.125;    0.000
574.693; 6217.950;  224.125;    0.000
574.820; 6316.950;  199.125;    0.000
574.946; 6252.950;  248.125;    0.000
575.072; 6295.950;  220.125;    0.000
575.198; 6350.950;  262.125;    0.000
575.325; 6217.950;  232.125;    0.000
575.451; 6289.950;  225.125;    0.000
575.577; 6451.950;  216.125;    0.000
575.704; 6264.950;  248.125;    0.000
575.830; 6230.950;  227.125;    0.000
575.956; 6161.950;  206.125;    0.000
576.082; 6119.950;  222.125;    0.000
576.208; 6214.950;  206.125;    0.000
576.335; 6209.950;  256.125;    0.000
576.461; 6274.950;  247.125;    0.000
576.587; 6231.950;  219.125;    0.000
576.713; 6196.950;  215.125;    0.000
576.839; 6148.950;  225.125;    0.000
576.965; 6287.950;  230.125;    0.000
577.091; 6136.950;  235.125;    0.000
577.217; 6196.950;  235.125;    0.000
577.343; 6121.950;  233.125;    0.000
577.469; 6167.950;  242.125;    0.000
577.596; 6228.950;  241.125;    0.000
577.722; 6135.950;  255.125;    0.000
577.848; 6267.950;  235.125;    0.000
577.974; 6331.950;  210.125;    0.000
578.099; 6148.950;  239.125;    0.000
578.225; 6199.950;  258.125;    0.000
578.351; 6340.950;  209.125;    0.000
578.477; 6228.950;  255.125;    0.000
578.603; 6302.950;  213.125;    0.000
578.729; 6255.950;  221.125;    0.000
578.855; 6218.950;  209.125;    0.000
578.981; 6309.950;  206.125;    0.000
579.107; 6209.950;  221.125;    0.000
579.232; 6356.950;  206.125;    0.000
579.358; 6356.950;  226.125;    0.000
579.484; 6208.950;  244.125;    0.000
579.610; 6267.950;  261.125;    0.000
579.735; 6373.950;  270.125;    0.000
579.861; 6217.950;  255.125;    0.000
579.987; 6425.950;  249.125;    0.000
580.113; 6451.950;  260.125;    0.000
580.238; 6446.950;  206.125;    0.000
580.364; 6453.950;  249.125;    0.000
580.490; 6635.950;  225.125;    0.000
580.615; 6393.950;  266.125;    0.000
580.741; 6458.950;  224.125;    0.000
580.867; 6562.950;  251.125;    0.000
580.992; 6661.950;  270.125;    0.000
581.118; 6746.950;  248.125;    0.000
581.243; 6645.950;  251.125;    0.000
581.369; 6592.950;  192.125;    0.000
581.494; 6802.950;  259.125;    0.000
581.620; 6891.950;  245.125;    0.000
581.745; 6766.950;  232.125;    0.000
581.871; 6715.950;  243.125;    0.000
581.996; 7027.950;  216.125;    0.000
582.122; 6820.950;  263.125;    0.000
582.247; 6944.950;  254.125;    0.000
582.373; 7050.950;  232.125;    0.000
582.498; 7096.950;  275.125;    0.000
582.624; 7080.950;  260.125;    0.000
582.749; 7175.950;  251.125;    0.000
582.874; 7291.950;  245.125;    0.000
583.000; 7318.950;  278.125;    0.000
583.125; 7433.950;  211.125;    0.000
583.250; 7505.950;  246.125;    0.000
583.376; 7630.950;  259.125;    0.000
583.501; 7622.950;  254.125;    0.000
583.626; 7692.950;  209.125;    0.000
583.751; 7689.950;  239.125;    0.000
583.877; 7817.950;  255.125;    0.000
584.002; 8058.950;  263.125;    0.000
584.127; 7996.950;  205.125;    0.000
584.252; 8081.950;  196.125;    0.000
584.377; 8371.950;  249.125;    0.000
584.503; 8339.950;  219.125;    0.000
584.628; 8572.950;  243.125;    0.000
584.753; 8617.950;  250.125;    0.000
584.878; 8735.950;  208.125;    0.000
585.003; 8958.950;  234.125;    0.000
585.128; 9276.950;  207.125;    0.000
585.253; 9413.950;  219.125;    0.000
585.378; 9557.950;  205.125;    0.000
585.503; 9824.950;  256.125;    0.000
585.628; 9974.950;  217.125;    0.000
585.753;10367.950;  213.125;    0.000
585.878;10339.950;  147.125;    0.000
586.003;10791.950;  256.125;    0.000
586.128;11157.950;  214.125;    0.000
586.253;11542.950;  254.125;    0.000
586.378;11840.950;  252.125;    0.000
586.503;12386.950;  219.125;    0.000
586.628;12770.950;  226.125;    0.000
586.753;13403.950;  237.125;    0.000
586.878;14132.950;  185.125;    0.000
587.003;14985.950;  248.125;    0.000
587.127;15720.950;  237.125;    0.000
587.252;16490.949;  221.125;    0.000
587.377;17468.949;  244.125;    0.000
587.502;18879.949;  260.125;    0.000
587.627;20205.949;  232.125;    0.000
587.751;22315.949;  250.125;    0.000
587.876;23988.949;  234.125;    0.000
588.001;26619.949;  248.125;    0.000
588.125;29550.949;  236.125;    0.000
588.250;33809.949;  192.125;    0.000
588.375;39102.949;  265.125;    0.000
588.499;45919.949;  235.125;    0.000
588.624;54762.949;  212.125;    0.000
588.749;64524.949;  214.125;    0.000
588.873;65261.949;  236.125;    0.000
588.998;65261.949;  230.125;    0.000
589.122;65261.949;  231.125;    0.000
589.247;65261.949;  250.125;    0.000
589.372;65261.949;  247.125;    0.000
589.496;65261.949;  230.125;    0.000
589.621;65261.949;  237.125;    0.000
589.745;65261.949;  277.125;    0.000
589.870;65261.949;  283.125;    0.000
589.994;55623.949;  263.125;    0.000
590.118;47292.949;  239.125;    0.000
590.243;40730.949;  218.125;    0.000
590.367;35506.949;  226.125;    0.000
590.492;31426.949;  269.125;    0.000
590.616;28326.949;  205.125;    0.000
590.740;25807.949;  243.125;    0.000
590.865;23624.949;  281.125;    0.000
590.989;21960.949;  233.125;    0.000
591.114;20444.949;  222.125;    0.000
591.238;19272.949;  204.125;    0.000
591.362;18138.949;  283.125;    0.000
591.486;17151.949;  236.125;    0.000
591.611;16345.950;  228.125;    0.000
591.735;15739.950;  249.125;    0.000
591.859;15079.950;  202.125;    0.000
591.983;14508.950;  257.125;    0.000
592.107;14084.950;  230.125;    0.000
592.232;13557.950;  266.125;    0.000
592.356;12904.950;  232.125;    0.000
592.480;12746.950;  245.125;    0.000
592.604;12277.950;  254.125;    0.000
592.728;11849.950;  233.125;    0.000
592.852;11527.950;  213.125;    0.000
592.976;11605.950;  234.125;    0.000
593.100;11176.950;  246.125;    0.000
593.224;10911.950;  305.125;    0.000
593.349;10909.950;  240.125;    0.000
593.473;10672.950;  206.125;    0.000
593.597;10407.950;  243.125;    0.000
593.721;10107.950;  247.125;    0.000
593.844;10086.950;  230.125;    0.000
593.968;10013.950;  226.125;    0.000
594.092; 9775.950;  193.125;    0.000
594.216; 9698.950;  237.125;    0.000
594.340; 9448.950;  235.125;    0.000
594.464; 9244.950;  225.125;    0.000
594.588; 9153.950;  269.125;    0.000
594.712; 8788.950;  242.125;    0.000
594.836; 8806.950;  240.125;    0.000
594.959; 8575.950;  255.125;    0.000
595.083; 8413.950;  258.125;    0.000
595.207; 8195.950;  264.125;    0.000
595.331; 8069.950;  215.125;    0.000
595.455; 8248.950;  234.125;    0.000
595.578; 8044.950;  215.125;    0.000
595.702; 7805.950;  259.125;    0.000
595.826; 7852.950;  232.125;    0.000
595.949; 7621.950;  251.125;    0.000
596.073; 7521.950;  197.125;    0.000
596.197; 7533.950;  239.125;    0.000
596.320; 7381.950;  229.125;    0.000
596.444; 7279.950;  264.125;    0.000
596.568; 7131.950;  207.125;    0.000
596.691; 7203.950;  234.125;    0.000
596.815; 7113.950;  241.125;    0.000
596.938; 6829.950;  244.125;    0.000
597.062; 6988.950;  210.125;    0.000
597.186; 6878.950;  247.125;    0.000
597.309; 6890.950;  215.125;    0.000
597.433; 6781.950;  266.125;    0.000
597.556; 6631.950;  234.125;    0.000
597.680; 6771.950;  261.125;    0.000
597.803; 6664.950;  239.125;    0.000
597.926; 6532.950;  251.125;    0.000
598.050; 6351.950;  227.125;    0.000
598.173; 6444.950;  247.125;    0.000
598.297; 6434.950;  244.125;    0.000
598.420; 6281.950;  243.125;    0.000
598.543; 6333.950;  237.125;    0.000
598.667; 6160.950;  239.125;    0.000
598.790; 6317.950;  217.125;    0.000
598.913; 6168.950;  244.125;    0.000
599.037; 6181.950;  249.125;    0.000
599.160; 5991.950;  222.125;    0.000
599.283; 6067.950;  235.125;    0.000
599.406; 6091.950;  228.125;    0.000
599.530; 6003.950;  234.125;    0.000
599.653; 5995.950;  228.125;    0.000
599.776; 6046.950;  263.125;    0.000
599.899; 6022.950;  197.125;    0.000
600.022; 5834.950;  224.125;    0.000
600.145; 5896.950;  211.125;    0.000
600.269; 6056.950;  246.125;    0.000
600.392; 5856.950;  233.125;    0.000
600.515; 5668.950;  266.125;    0.000
600.638; 5718.950;  246.125;    0.000
600.761; 5789.950;  213.125;    0.000
600.884; 5549.950;  279.125;    0.000
601.007; 5723.950;  268.125;    0.000
601.130; 5695.950;  203.125;    0.000
601.253; 5636.950;  241.125;    0.000
601.376; 5575.950;  248.125;    0.000
601.499; 5713.950;  241.125;    0.000
601.622; 5660.950;  266.125;    0.000
601.745; 5660.950;  237.125;    0.000
601.868; 5591.950;  256.125;    0.000
601.991; 5594.950;  260.125;    0.000
602.113; 5623.950;  246.125;    0.000
602.236; 5509.950;  243.125;    0.000
602.359; 5617.950;  220.125;    0.000
602.482; 5524.950;  236.125;    0.000
602.605; 5444.950;  216.125;    0.000
602.728; 5472.950;  247.125;    0.000
602.850; 5399.950;  255.125;    0.000
602.973; 5547.950;  224.125;    0.000
603.096; 5399.950;  258.125;    0.000
603.219; 5353.950;  222.125;    0.000
603.341; 5471.950;  235.125;    0.000
603.464; 5440.950;  223.125;    0.000
603.587; 5372.950;  250.125;    0.000
603.709; 5284.950;  229.125;    0.000
603.832; 5383.950;  285.125;    0.000
603.955; 5328.950;  225.125;    0.000
604.077; 5245.950;  235.125;    0.000
604.200; 5275.950;  209.125;    0.000
604.323; 5217.950;  240.125;    0.000
604.445; 5250.950;  198.125;    0.000
604.568; 5255.950;  230.125;    0.000
604.690; 5163.950;  225.125;    0.000
604.813; 5170.950;  248.125;    0.000
604.935; 5167.950;  204.125;    0.000
605.058; 5170.950;  191.125;    0.000
605.180; 5162.950;  237.125;    0.000
605.303; 5284.950;  224.125;    0.000
605.425; 5216.950;  244.125;    0.000
605.547; 5278.950;  268.125;    0.000
605.670; 5158.950;  211.125;    0.000
605.792; 5134.950;  266.125;    0.000
605.915; 5055.950;  202.125;    0.000
606.037; 5153.950;  236.125;    0.000
606.159; 5210.950;  234.125;    0.000
606.282; 5156.950;  223.125;    0.000
606.404; 5182.950;  217.125;    0.000
606.526; 5186.950;  221.125;    0.000
606.648; 5097.950;  204.125;    0.000
606.771; 4964.950;  265.125;    0.000
606.893; 5105.950;  211.125;    0.000
607.015; 5036.950;  206.125;    0.000
607.137; 5070.950;  222.125;    0.000
607.260; 4901.950;  228.125;    0.000
607.382; 5123.950;  202.125;    0.000
607.504; 5053.950;  257.125;    0.000
607.626; 5061.950;  249.125;    0.000
607.748; 5104.950;  233.125;    0.000
607.870; 4885.950;  222.125;    0.000
607.992; 4954.950;  227.125;    0.000
608.114; 4983.950;  228.125;    0.000
608.237; 5089.950;  254.125;    0.000
608.359; 4987.950;  216.125;    0.000
608.481; 4879.950;  197.125;    0.000
608.603; 5008.950;  209.125;    0.000
608.725; 4922.950;  220.125;    0.000
608.847; 4993.950;  259.125;    0.000
608.969; 4930.950;  242.125;    0.000
609.090; 4958.950;  218.125;    0.000
609.212; 4789.950;  200.125;    0.000
609.334; 4872.950;  212.125;    0.000
609.456; 4995.950;  231.125;    0.000
609.578; 4714.950;  249.125;    0.000
609.700; 4768.950;  185.125;    0.000
609.822; 4767.950;  200.125;    0.000
609.944; 4973.950;  236.125;    0.000
610.065; 4950.950;  255.125;    0.000
610.187; 4794.950;  208.125;    0.000
610.309; 4893.950;  202.125;    0.000
610.431; 4970.950;  232.125;    0.000
610.552; 4885.950;  232.125;    0.000
610.674; 4962.950;  217.125;    0.000
610.796; 4742.950;  186.125;    0.000
610.918; 4821.950;  211.125;    0.000
611.039; 4888.950;  244.125;    0.000
611.161; 4841.950;  202.125;    0.000
611.282; 4848.950;  212.125;    0.000
611.404; 4812.950;  235.125;    0.000
611.526; 4895.950;  213.125;    0.000
611.647; 4731.950;  248.125;    0.000
611.769; 4837.950;  205.125;    0.000
611.890; 4745.950;  224.125;    0.000
612.012; 4767.950;  189.125;    0.000
612.133; 4720.950;  186.125;    0.000
612.255; 4734.950;  246.125;    0.000
612.377; 4893.950;  230.125;    0.000
612.498; 4729.950;  196.125;    0.000
612.619; 4706.950;  234.125;    0.000
612.741; 4799.950;  221.125;    0.000
612.862; 4760.950;  227.125;    0.000
612.984; 4645.950;  189.125;    0.000
613.105; 4677.950;  232.125;    0.000
613.226; 4574.950;  199.125;    0.000
613.348; 4778.950;  260.125;    0.000
613.469; 4693.950;  217.125;    0.000
613.590; 4641.950;  236.125;    0.000
613.712; 4695.950;  226.125;    0.000
613.833; 4658.950;  231.125;    0.000
613.954; 4704.950;  236.125;    0.000
614.076; 4713.950;  236.125;    0.000
614.197; 4679.950;  228.125;    0.000
614.318; 4602.950;  207.125;    0.000
614.439; 4768.950;  237.125;    0.000
614.560; 4767.950;  202.125;    0.000
614.682; 4669.950;  230.125;    0.000
614.803; 4700.950;  236.125;    0.000
614.924; 4854.950;  257.125;    0.000
615.045; 4791.950;  228.125;    0.000
615.166; 4896.950;  221.125;    0.000
615.287; 5173.950;  199.125;    0.000
615.408; 5891.950;  228.125;    0.000
615.529; 6344.950;  200.125;    0.000
615.650; 5646.950;  224.125;    0.000
615.771; 5363.950;  202.125;    0.000
615.892; 5627.950;  215.125;    0.000
616.013; 6962.950;  246.125;    0.000
616.134; 7765.950;  210.125;    0.000
616.255; 7014.950;  232.125;    0.000
616.376; 5916.950;  241.125;    0.000
616.497; 5602.950;  213.125;    0.000
616.618; 5344.950;  171.125;    0.000
616.739; 5251.950;  221.125;    0.000
616.860; 5108.950;  244.125;    0.000
616.981; 5067.950;  240.125;    0.000
617.102; 4992.950;  234.125;    0.000
617.222; 5045.950;  265.125;    0.000
617.343; 4958.950;  206.125;    0.000
617.464; 4889.950;  246.125;    0.000
617.585; 4784.950;  256.125;    0.000
617.705; 4811.950;  249.125;    0.000
617.826; 4785.950;  218.125;    0.000
617.947; 4886.950;  225.125;    0.000
618.068; 4817.950;  199.125;    0.000
618.188; 4661.950;  202.125;    0.000
618.309; 4750.950;  220.125;    0.000
618.430; 4797.950;  229.125;    0.000
618.550; 4810.950;  252.125;    0.000
618.671; 4673.950;  233.125;    0.000
618.791; 4731.950;  227.125;    0.000
618.912; 4640.950;  236.125;    0.000
619.033; 4655.950;  220.125;    0.000
619.153; 4726.950;  228.125;    0.000
619.274; 4711.950;  208.125;    0.000
619.394; 4518.950;  255.125;    0.000
619.515; 4599.950;  206.125;    0.000
619.635; 4546.950;  204.125;    0.000
619.756; 4626.950;  252.125;    0.000
619.876; 4652.950;  238.125;    0.000
619.996; 4576.950;  249.125;    0.000
620.117; 4624.950;  223.125;    0.000
620.237; 4684.950;  210.125;    0.000
620.358; 4560.950;  264.125;    0.000
620.478; 4553.950;  263.125;    0.000
620.598; 4575.950;  238.125;    0.000
620.719; 4495.950;  225.125;    0.000
620.839; 4505.950;  259.125;    0.000
620.959; 4429.950;  218.125;    0.000
621.079; 4569.950;  253.125;    0.000
621.200; 4470.950;  245.125;    0.000
621.320; 4490.950;  254.125;    0.000
621.440; 4419.950;  233.125;    0.000
621.560; 4419.950;  235.125;    0.000
621.681; 4455.950;  234.125;    0.000
621.801; 4436.950;  240.125;    0.000
621.921; 4434.950;  239.125;    0.000
622.041; 4468.950;  288.125;    0.000
622.161; 4404.950;  229.125;    0.000
622.281; 4456.950;  223.125;    0.000
622.401; 4365.950;  240.125;    0.000
622.521; 4378.950;  267.125;    0.000
622.641; 4471.950;  226.125;    0.000
622.761; 4303.950;  252.125;    0.000
622.882; 4373.950;  207.125;    0.000
623.002; 4337.950;  226.125;    0.000
623.121; 4368.950;  207.125;    0.000
623.241; 4390.950;  215.125;    0.000
623.361; 4302.950;  222.125;    0.000
623.481; 4309.950;  187.125;    0.000
623.601; 4315.950;  283.125;    0.000
623.721; 4335.950;  283.125;    0.000
623.841; 4418.950;  233.125;    0.000
623.961; 4362.950;  215.125;    0.000
624.081; 4327.950;  219.125;    0.000
624.201; 4300.950;  221.125;    0.000
624.320; 4256.950;  215.125;    0.000
624.440; 4350.950;  222.125;    0.000
624.560; 4288.950;  231.125;    0.000
624.680; 4210.950;  225.125;    0.000
624.799; 4205.950;  230.125;    0.000
624.919; 4295.950;  243.125;    0.000
625.039; 4216.950;  203.125;    0.000
625.159; 4271.950;  257.125;    0.000
625.278; 4222.950;  230.125;    0.000
625.398; 4271.950;  195.125;    0.000
625.518; 4174.950;  211.125;    0.000
625.637; 4223.950;  267.125;    0.000
625.757; 4202.950;  228.125;    0.000
625.876; 4182.950;  231.125;    0.000
625.996; 4222.950;  219.125;    0.000
626.115; 4180.950;  235.125;    0.000
626.235; 4136.950;  199.125;    0.000
626.354; 4180.950;  226.125;    0.000
626.474; 4270.950;  225.125;    0.000
626.594; 4080.950;  223.125;    0.000
626.713; 4089.950;  231.125;    0.000
626.832; 4131.950;  287.125;    0.000
626.952; 4055.950;  251.125;    0.000
627.071; 4160.950;  254.125;    0.000
627.191; 4093.950;  193.125;    0.000
627.310; 4215.950;  213.125;    0.000
627.429; 4214.950;  259.125;    0.000
627.549; 4190.950;  243.125;    0.000
627.668; 4099.950;  181.125;    0.000
627.787; 4179.950;  232.125;    0.000
627.907; 4160.950;  222.125;    0.000
628.026; 4058.950;  219.125;    0.000
628.145; 4156.950;  201.125;    0.000
628.264; 4048.950;  198.125;    0.000
628.384; 4160.950;  208.125;    0.000
628.503; 4129.950;  251.125;    0.000
628.622; 4208.950;  195.125;    0.000
628.741; 4131.950;  180.125;    0.000
628.860; 4067.950;  235.125;    0.000
628.980; 4075.950;  222.125;    0.000
629.099; 4139.950;  237.125;    0.000
629.218; 4121.950;  175.125;    0.000
629.337; 4100.950;  194.125;    0.000
629.456; 4072.950;  225.125;    0.000
629.575; 4006.950;  239.125;    0.000
629.694; 4176.950;  230.125;    0.000
629.813; 4027.950;  197.125;    0.000
629.932; 4117.950;  225.125;    0.000
630.051; 4075.950;  238.125;    0.000
630.170; 4038.950;  233.125;    0.000
630.289; 4085.950;  231.125;    0.000
630.408; 4028.950;  204.125;    0.000
630.527; 4007.950;  262.125;    0.000
630.646; 3996.950;  181.125;    0.000
630.764; 4006.950;  218.125;    0.000
630.883; 4081.950;  215.125;    0.000
631.002; 3971.950;  224.125;    0.000
631.121; 4048.950;  209.125;    0.000
631.240; 4189.950;  230.125;    0.000
631.359; 4130.950;  235.125;    0.000
631.477; 4083.950;  223.125;    0.000
631.596; 4118.950;  218.125;    0.000
631.715; 4173.950;  234.125;    0.000
631.834; 4099.950;  215.125;    0.000
631.952; 3982.950;  243.125;    0.000
632.071; 4154.950;  219.125;    0.000
632.190; 4038.950;  235.125;    0.000
632.308; 3925.950;  239.125;    0.000
632.427; 4074.950;  211.125;    0.000
632.546; 3958.950;  233.125;    0.000
632.664; 4042.950;  219.125;    0.000
632.783; 3916.950;  203.125;    0.000
632.901; 3949.950;  221.125;    0.000
633.020; 4046.950;  197.125;    0.000
633.138; 4036.950;  244.125;    0.000
633.257; 3964.950;  205.125;    0.000
633.375; 3879.950;  245.125;    0.000
633.494; 3887.950;  218.125;    0.000
633.612; 3930.950;  222.125;    0.000
633.731; 3947.950;  212.125;    0.000
633.849; 3913.950;  218.125;    0.000
633.968; 3856.950;  236.125;    0.000
634.086; 3894.950;  233.125;    0.000
634.204; 4034.950;  215.125;    0.000
634.323; 4038.950;  230.125;    0.000
634.441; 3921.950;  235.125;    0.000
634.559; 3953.950;  202.125;    0.000
634.678; 3930.950;  218.125;    0.000
634.796; 3824.950;  203.125;    0.000
634.914; 3854.950;  227.125;    0.000
635.032; 3973.950;  279.125;    0.000
635.151; 3869.950;  221.125;    0.000
635.269; 3918.950;  207.125;    0.000
635.387; 3803.950;  195.125;    0.000
635.505; 3886.950;  243.125;    0.000
635.623; 3933.950;  269.125;    0.000
635.742; 3889.950;  232.125;    0.000
635.860; 4004.950;  243.125;    0.000
635.978; 3892.950;  215.125;    0.000
636.096; 3926.950;  225.125;    0.000
636.214; 3875.950;  244.125;    0.000
636.332; 3721.950;  226.125;    0.000
636.450; 3823.950;  227.125;    0.000
636.568; 3891.950;  225.125;    0.000
636.686; 3792.950;  194.125;    0.000
636.804; 3834.950;  234.125;    0.000
636.922; 3747.950;  177.125;    0.000
637.040; 3890.950;  225.125;    0.000
637.158; 3858.950;  194.125;    0.000
637.276; 3821.950;  219.125;    0.000
637.394; 3804.950;  219.125;    0.000
637.512; 3842.950;  210.125;    0.000
637.629; 3866.950;  242.125;    0.000
637.747; 3712.950;  193.125;    0.000
637.865; 3765.950;  219.125;    0.000
637.983; 3839.950;  251.125;    0.000
638.101; 3766.950;  221.125;    0.000
638.218; 3862.950;  193.125;    0.000
638.336; 3875.950;  224.125;    0.000
638.454; 3767.950;  227.125;    0.000
638.572; 3804.950;  245.125;    0.000
638.689; 3846.950;  222.125;    0.000
638.807; 3726.950;  244.125;    0.000
638.925; 3828.950;  238.125;    0.000
639.042; 3780.950;  213.125;    0.000
639.160; 3821.950;  186.125;    0.000
639.278; 3676.950;  203.125;    0.000
639.395; 3860.950;  270.125;    0.000
639.513; 3833.950;  227.125;    0.000
639.630; 3727.950;  200.125;    0.000
639.748; 3733.950;  199.125;    0.000
639.865; 3743.950;  233.125;    0.000
639.983; 3751.950;  181.125;    0.000
640.100; 3825.950;  219.125;    0.000
640.218; 3666.950;  234.125;    0.000
640.335; 3705.950;  233.125;    0.000
640.453; 3718.950;  202.125;    0.000
640.570; 3708.950;  214.125;    0.000
640.688; 3751.950;  215.125;    0.000
640.805; 3790.950;  229.125;    0.000
640.922; 3693.950;  244.125;    0.000
641.040; 3728.950;  233.125;    0.000
641.157; 3787.950;  199.125;    0.000
641.274; 3748.950;  205.125;    0.000
641.391; 3728.950;  244.125;    0.000
641.509; 3665.950;  184.125;    0.000
641.626; 3743.950;  244.125;    0.000
641.743; 3602.950;  221.125;    0.000
641.860; 3809.950;  206.125;    0.000
641.978; 3689.950;  272.125;    0.000
642.095; 3701.950;  218.125;    0.000
642.212; 3670.950;  208.125;    0.000
642.329; 3788.950;  218.125;    0.000
642.446; 3699.950;  197.125;    0.000
642.563; 3725.950;  214.125;    0.000
642.681; 3665.950;  203.125;    0.000
642.798; 3692.950;  236.125;    0.000
642.915; 3707.950;  191.125;    0.000
643.032; 3850.950;  226.125;    0.000
643.149; 3679.950;  231.125;    0.000
643.266; 3735.950;  213.125;    0.000
643.383; 3761.950;  240.125;    0.000
643.500; 3844.950;  185.125;    0.000
643.617; 3678.950;  229.125;    0.000
643.734; 3756.950;  205.125;    0.000
643.850; 3724.950;  222.125;    0.000
643.967; 3769.950;  202.125;    0.000
644.084; 3783.950;  264.125;    0.000
644.201; 3650.950;  214.125;    0.000
644.318; 3707.950;  206.125;    0.000
644.435; 3617.950;  225.125;    0.000
644.552; 3687.950;  203.125;    0.000
644.668; 3746.950;  252.125;    0.000
644.785; 3846.950;  213.125;    0.000
644.902; 3732.950;  233.125;    0.000
645.019; 3739.950;  220.125;    0.000
645.135; 3742.950;  225.125;    0.000
645.252; 3760.950;  218.125;    0.000
645.369; 3722.950;  214.125;    0.000
645.485; 3747.950;  210.125;    0.000
645.602; 3698.950;  198.125;    0.000
645.719; 3778.950;  228.125;    0.000
645.835; 3713.950;  209.125;    0.000
645.952; 3726.950;  213.125;    0.000
646.068; 3778.950;  241.125;    0.000
646.185; 3804.950;  219.125;    0.000
646.302; 3844.950;  246.125;    0.000
646.418; 3801.950;  228.125;    0.000
646.535; 3734.950;  256.125;    0.000
646.651; 3794.950;  222.125;    0.000
646.768; 3799.950;  203.125;    0.000
646.884; 3787.950;  199.125;    0.000
647.000; 3887.950;  194.125;    0.000
647.117; 3884.950;  214.125;    0.000
647.233; 3772.950;  209.125;    0.000
647.350; 3814.950;  235.125;    0.000
647.466; 3838.950;  237.125;    0.000
647.582; 3988.950;  231.125;    0.000
647.699; 3949.950;  219.125;    0.000
647.815; 3881.950;  200.125;    0.000
647.931; 3908.950;  173.125;    0.000
648.047; 4080.950;  184.125;    0.000
648.164; 3919.950;  199.125;    0.000
648.280; 3961.950;  209.125;    0.000
648.396; 3919.950;  220.125;    0.000
648.512; 3953.950;  212.125;    0.000
648.629; 3925.950;  214.125;    0.000
648.745; 3920.950;  197.125;    0.000
648.861; 3807.950;  228.125;    0.000
648.977; 3954.950;  238.125;    0.000
649.093; 3951.950;  208.125;    0.000
649.209; 3911.950;  179.125;    0.000
649.325; 3915.950;  256.125;    0.000
649.441; 3876.950;  224.125;    0.000
649.557; 3960.950;  247.125;    0.000
649.673; 3954.950;  214.125;    0.000
649.789; 3914.950;  213.125;    0.000
649.905; 3800.950;  170.125;    0.000
650.021; 3987.950;  236.125;    0.000
650.137; 3881.950;  229.125;    0.000
650.253; 3998.950;  207.125;    0.000
650.369; 4042.950;  198.125;    0.000
650.485; 3909.950;  225.125;    0.000
650.601; 3984.950;  260.125;    0.000
650.717; 3991.950;  196.125;    0.000
650.833; 4024.950;  219.125;    0.000
650.948; 4014.950;  203.125;    0.000
651.064; 3951.950;  232.125;    0.000
651.180; 3949.950;  252.125;    0.000
651.296; 4014.950;  190.125;    0.000
651.411; 4059.950;  235.125;    0.000
651.527; 4014.950;  227.125;    0.000
651.643; 4094.950;  238.125;    0.000
651.759; 4129.950;  260.125;    0.000
651.874; 4152.950;  217.125;    0.000
651.990; 4090.950;  239.125;    0.000
652.105; 4018.950;  215.125;    0.000
652.221; 4104.950;  237.125;    0.000
652.337; 4079.950;  238.125;    0.000
652.452; 4233.950;  230.125;    0.000
652.568; 4132.950;  201.125;    0.000
652.683; 4222.950;  243.125;    0.000
652.799; 4151.950;  218.125;    0.000
652.914; 4240.950;  189.125;    0.000
653.030; 4341.950;  191.125;    0.000
653.145; 4287.950;  240.125;    0.000
653.261; 4336.950;  225.125;    0.000
653.376; 4444.950;  241.125;    0.000
653.492; 4475.950;  188.125;    0.000
653.607; 4425.950;  219.125;    0.000
653.722; 4472.950;  268.125;    0.000
653.838; 4689.950;  262.125;    0.000
653.953; 4501.950;  188.125;    0.000
654.068; 4618.950;  244.125;    0.000
654.184; 4621.950;  247.125;    0.000
654.299; 4783.950;  228.125;    0.000
654.414; 4799.950;  181.125;    0.000
654.530; 4881.950;  210.125;    0.000
654.645; 4950.950;  240.125;    0.000
654.760; 5153.950;  219.125;    0.000
654.875; 5084.950;  178.125;    0.000
654.990; 5230.950;  222.125;    0.000
655.106; 5377.950;  227.125;    0.000
655.221; 5408.950;  270.125;    0.000
655.336; 5411.950;  199.125;    0.000
655.451; 5701.950;  235.125;    0.000
655.566; 5730.950;  251.125;    0.000
655.681; 6065.950;  253.125;    0.000
655.796; 6321.950;  207.125;    0.000
655.911; 6548.950;  213.125;    0.000
656.026; 6633.950;  247.125;    0.000
656.141; 6932.950;  209.125;    0.000
656.256; 7205.950;  226.125;    0.000
656.371; 7163.950;  201.125;    0.000
656.486; 7205.950;  196.125;    0.000
656.601; 7079.950;  239.125;    0.000
656.716; 6917.950;  234.125;    0.000
656.831; 6719.950;  223.125;    0.000
656.946; 6672.950;  246.125;    0.000
657.060; 6497.950;  230.125;    0.000
657.175; 6240.950;  207.125;    0.000
657.290; 6119.950;  213.125;    0.000
657.405; 6056.950;  319.125;    0.000
657.520; 5853.950;  241.125;    0.000
657.634; 5789.950;  235.125;    0.000
657.749; 5601.950;  275.125;    0.000
657.864; 5524.950;  210.125;    0.000
657.979; 5381.950;  227.125;    0.000
658.093; 5263.950;  206.125;    0.000
658.208; 5311.950;  217.125;    0.000
658.323; 5149.950;  227.125;    0.000
658.437; 5163.950;  217.125;    0.000
658.552; 5125.950;  237.125;    0.000
658.666; 4968.950;  233.125;    0.000
658.781; 5012.950;  248.125;    0.000
658.895; 4875.950;  233.125;    0.000
659.010; 4928.950;  238.125;    0.000
659.125; 4763.950;  206.125;    0.000
659.239; 4619.950;  220.125;    0.000
659.353; 4547.950;  236.125;    0.000
659.468; 4626.950;  238.125;    0.000
659.582; 4581.950;  275.125;    0.000
659.697; 4574.950;  239.125;    0.000
659.811; 4374.950;  232.125;    0.000
659.926; 4444.950;  230.125;    0.000
660.040; 4440.950;  257.125;    0.000
660.154; 4343.950;  221.125;    0.000
660.269; 4284.950;  219.125;    0.000
660.383; 4240.950;  228.125;    0.000
660.497; 4289.950;  243.125;    0.000
660.612; 4223.950;  238.125;    0.000
660.726; 4258.950;  260.125;    0.000
660.840; 4221.950;  239.125;    0.000
660.954; 4221.950;  236.125;    0.000
661.068; 4139.950;  239.125;    0.000
661.183; 4172.950;  245.125;    0.000
661.297; 4110.950;  198.125;    0.000
661.411; 3987.950;  203.125;    0.000
661.525; 4129.950;  244.125;    0.000
661.639; 4058.950;  229.125;    0.000
661.753; 3885.950;  238.125;    0.000
661.867; 3954.950;  237.125;    0.000
661.981; 3872.950;  219.125;    0.000
662.095; 3939.950;  232.125;    0.000
662.209; 3880.950;  236.125;    0.000
662.323; 3769.950;  209.125;    0.000
662.437; 3792.950;  206.125;    0.000
662.551; 3843.950;  217.125;    0.000
662.665; 3628.950;  262.125;    0.000
662.779; 3657.950;  234.125;    0.000
662.893; 3633.950;  222.125;    0.000
663.007; 3651.950;  189.125;    0.000
663.121; 3622.950;  258.125;    0.000
663.235; 3591.950;  191.125;    0.000
663.349; 3613.950;  259.125;    0.000
663.462; 3559.950;  209.125;    0.000
663.576; 3612.950;  244.125;    0.000
663.690; 3568.950;  237.125;    0.000
663.804; 3526.950;  205.125;    0.000
663.917; 3429.950;  207.125;    0.000
664.031; 3468.950;  234.125;    0.000
664.145; 3417.950;  216.125;    0.000
664.258; 3463.950;  202.125;    0.000
664.372; 3382.950;  198.125;    0.000
664.486; 3423.950;  181.125;    0.000
664.599; 3415.950;  229.125;    0.000
664.713; 3359.950;  266.125;    0.000
664.827; 3428.950;  185.125;    0.000
664.940; 3258.950;  225.125;    0.000
665.054; 3374.950;  198.125;    0.000
665.167; 3396.950;  208.125;    0.000
665.281; 3464.950;  231.125;    0.000
665.394; 3383.950;  228.125;    0.000
665.508; 3210.950;  204.125;    0.000
665.621; 3306.950;  263.125;    0.000
665.735; 3343.950;  222.125;    0.000
665.848; 3299.950;  237.125;    0.000
665.961; 3308.950;  180.125;    0.000
666.075; 3314.950;  212.125;    0.000
666.188; 3296.950;  229.125;    0.000
666.301; 3204.950;  247.125;    0.000
666.415; 3212.950;  212.125;    0.000
666.528; 3365.950;  268.125;    0.000
666.641; 3326.950;  210.125;    0.000
666.755; 3219.950;  178.125;    0.000
666.868; 3243.950;  227.125;    0.000
666.981; 3267.950;  250.125;    0.000
667.094; 3177.950;  228.125;    0.000
667.207; 3196.950;  235.125;    0.000
667.321; 3234.950;  171.125;    0.000
667.434; 3116.950;  191.125;    0.000
667.547; 3168.950;  279.125;    0.000
667.660; 3181.950;  210.125;    0.000
667.773; 3243.950;  217.125;    0.000
667.886; 3148.950;  209.125;    0.000
667.999; 3187.950;  239.125;    0.000
668.112; 3163.950;  227.125;    0.000
668.225; 3053.950;  185.125;    0.000
668.338; 3068.950;  222.125;    0.000
668.451; 3215.950;  200.125;    0.000
668.564; 3080.950;  237.125;    0.000
668.677; 3146.950;  207.125;    0.000
668.790; 3021.950;  208.125;    0.000
668.903; 3163.950;  243.125;    0.000
669.016; 3104.950;  190.125;    0.000
669.129; 3043.950;  234.125;    0.000
669.242; 3038.950;  185.125;    0.000
669.354; 3091.950;  224.125;    0.000
669.467; 3000.950;  219.125;    0.000
669.580; 2919.950;  249.125;    0.000
669.693; 3018.950;  187.125;    0.000
669.806; 3004.950;  206.125;    0.000
669.918; 3048.950;  192.125;    0.000
670.031; 3049.950;  235.125;    0.000
670.144; 3078.950;  238.125;    0.000
670.256; 3018.950;  237.125;    0.000
670.369; 2981.950;  237.125;    0.000
670.482; 2999.950;  250.125;    0.000
670.594; 2957.950;  273.125;    0.000
670.707; 2924.950;  223.125;    0.000
670.820; 2982.950;  238.125;    0.000
670.932; 2965.950;  224.125;    0.000
671.045; 2952.950;  219.125;    0.000
671.157; 2979.950;  242.125;    0.000
671.270; 2903.950;  235.125;    0.000
671.382; 2942.950;  213.125;    0.000
671.495; 2911.950;  254.125;    0.000
671.607; 2995.950;  253.125;    0.000
671.720; 2972.950;  169.125;    0.000
671.832; 2914.950;  201.125;    0.000
671.944; 2878.950;  250.125;    0.000
672.057; 2972.950;  187.125;    0.000
672.169; 2928.950;  224.125;    0.000
672.281; 2909.950;  238.125;    0.000
672.394; 2962.950;  250.125;    0.000
672.506; 2870.950;  227.125;    0.000
672.618; 2927.950;  223.125;    0.000
672.731; 2951.950;  210.125;    0.000
672.843; 2897.950;  245.125;    0.000
672.955; 2956.950;  263.125;    0.000
673.067; 3030.950;  239.125;    0.000
673.180; 2884.950;  253.125;    0.000
673.292; 2872.950;  243.125;    0.000
673.404; 3001.950;  226.125;    0.000
673.516; 2933.950;  223.125;    0.000
673.628; 2896.950;  223.125;    0.000
673.740; 2943.950;  216.125;    0.000
673.852; 2867.950;  277.125;    0.000
673.964; 2845.950;  211.125;    0.000
674.076; 2845.950;  241.125;    0.000
674.188; 2799.950;  251.125;    0.000
674.300; 2788.950;  268.125;    0.000
674.412; 2864.950;  260.125;    0.000
674.524; 2873.950;  257.125;    0.000
674.636; 2847.950;  222.125;    0.000
674.748; 2850.950;  227.125;    0.000
674.860; 2867.950;  250.125;    0.000
674.972; 2879.950;  240.125;    0.000
675.084; 2855.950;  262.125;    0.000
675.196; 2888.950;  287.125;    0.000
675.307; 2854.950;  257.125;    0.000
675.419; 2826.950;  231.125;    0.000
675.531; 2888.950;  274.125;    0.000
675.643; 2812.950;  235.125;    0.000
675.755; 2893.950;  275.125;    0.000
675.866; 2882.950;  238.125;    0.000
675.978; 2760.950;  209.125;    0.000
676.090; 2853.950;  239.125;    0.000
676.201; 2803.950;  249.125;    0.000
676.313; 2779.950;  237.125;    0.000
676.425; 2736.950;  263.125;    0.000
676.536; 2751.950;  178.125;    0.000
676.648; 2841.950;  245.125;    0.000
676.759; 2788.950;  244.125;    0.000
676.871; 2692.950;  242.125;    0.000
676.983; 2819.950;  245.125;    0.000
677.094; 2786.950;  209.125;    0.000
677.206; 2863.950;  248.125;    0.000
677.317; 2787.950;  260.125;    0.000
677.429; 2773.950;  237.125;    0.000
677.540; 2732.950;  226.125;    0.000
677.651; 2770.950;  226.125;    0.000
677.763; 2696.950;  194.125;    0.000
677.874; 2720.950;  230.125;    0.000
677.986; 2689.950;  202.125;    0.000
678.097; 2671.950;  229.125;    0.000
678.208; 2678.950;  263.125;    0.000
678.320; 2747.950;  243.125;    0.000
678.431; 2697.950;  229.125;    0.000
678.542; 2753.950;  231.125;    0.000
678.653; 2672.950;  224.125;    0.000
678.765; 2726.950;  255.125;    0.000
678.876; 2720.950;  175.125;    0.000
678.987; 2657.950;  204.125;    0.000
679.098; 2695.950;  227.125;    0.000
679.209; 2645.950;  228.125;    0.000
679.320; 2690.950;  223.125;    0.000
679.432; 2723.950;  219.125;    0.000
679.543; 2651.950;  210.125;    0.000
679.654; 2710.950;  249.125;    0.000
679.765; 2613.950;  222.125;    0.000
679.876; 2670.950;  219.125;    0.000
679.987; 2546.950;  213.125;    0.000
680.098; 2652.950;  237.125;    0.000
680.209; 2640.950;  188.125;    0.000
680.320; 2549.950;  243.125;    0.000
680.431; 2578.950;  227.125;    0.000
680.542; 2614.950;  212.125;    0.000
680.653; 2735.950;  266.125;    0.000
680.763; 2631.950;  198.125;    0.000
680.874; 2579.950;  211.125;    0.000
680.985; 2614.950;  207.125;    0.000
681.096; 2626.950;  244.125;    0.000
681.207; 2522.950;  209.125;    0.000
681.318; 2620.950;  215.125;    0.000
681.428; 2564.950;  199.125;    0.000
681.539; 2568.950;  175.125;    0.000
681.650; 2600.950;  224.125;    0.000
681.760; 2546.950;  216.125;    0.000
681.871; 2569.950;  187.125;    0.000
681.982; 2547.950;  237.125;    0.000
682.093; 2621.950;  213.125;    0.000
682.203; 2639.950;  190.125;    0.000
682.314; 2592.950;  230.125;    0.000
682.424; 2577.950;  223.125;    0.000
682.535; 2580.950;  172.125;    0.000
682.646; 2695.950;  268.125;    0.000
682.756; 2626.950;  249.125;    0.000
682.867; 2595.950;  225.125;    0.000
682.977; 2527.950;  211.125;    0.000
683.088; 2619.950;  238.125;    0.000
683.198; 2568.950;  202.125;    0.000
683.308; 2620.950;  196.125;    0.000
683.419; 2580.950;  230.125;    0.000
683.529; 2540.950;  213.125;    0.000
683.640; 2592.950;  225.125;    0.000
683.750; 2515.950;  203.125;    0.000
683.860; 2519.950;  200.125;    0.000
683.971; 2599.950;  269.125;    0.000
684.081; 2541.950;  204.125;    0.000
684.191; 2547.950;  228.125;    0.000
684.301; 2576.950;  219.125;    0.000
684.412; 2578.950;  222.125;    0.000
684.522; 2470.950;  242.125;    0.000
684.632; 2551.950;  234.125;    0.000
684.742; 2558.950;  240.125;    0.000
684.852; 2573.950;  229.125;    0.000
684.963; 2538.950;  237.125;    0.000
685.073; 2586.950;  205.125;    0.000
685.183; 2638.950;  241.125;    0.000
685.293; 2586.950;  202.125;    0.000
685.403; 2541.950;  232.125;    0.000
685.513; 2608.950;  244.125;    0.000
685.623; 2514.950;  224.125;    0.000
685.733; 2582.950;  236.125;    0.000
685.843; 2662.950;  235.125;    0.000
685.953; 2501.950;  216.125;    0.000
686.063; 2553.950;  214.125;    0.000
686.173; 2538.950;  198.125;    0.000
686.283; 2530.950;  250.125;    0.000
686.393; 2550.950;  227.125;    0.000
686.503; 2539.950;  244.125;    0.000
686.612; 2553.950;  247.125;    0.000
686.722; 2550.950;  265.125;    0.000
686.832; 2566.950;  213.125;    0.000
686.942; 2540.950;  241.125;    0.000
687.052; 2482.950;  238.125;    0.000
687.161; 2537.950;  233.125;    0.000
687.271; 2550.950;  232.125;    0.000
687.381; 2604.950;  220.125;    0.000
687.491; 2617.950;  206.125;    0.000
687.600; 2546.950;  283.125;    0.000
687.710; 2493.950;  212.125;    0.000
687.820; 2574.950;  226.125;    0.000
687.929; 2559.950;  202.125;    0.000
688.039; 2489.950;  225.125;    0.000
688.148; 2530.950;  235.125;    0.000
688.258; 2471.950;  224.125;    0.000
688.367; 2542.950;  239.125;    0.000
688.477; 2538.950;  193.125;    0.000
688.586; 2585.950;  226.125;    0.000
688.696; 2598.950;  185.125;    0.000
688.805; 2526.950;  190.125;    0.000
688.915; 2564.950;  209.125;    0.000
689.024; 2578.950;  214.125;    0.000
689.134; 2441.950;  205.125;    0.000
689.243; 2380.950;  190.125;    0.000
689.352; 2588.950;  233.125;    0.000
689.462; 2441.950;  196.125;    0.000
689.571; 2522.950;  227.125;    0.000
689.680; 2499.950;  206.125;    0.000
689.790; 2467.950;  193.125;    0.000
689.899; 2481.950;  204.125;    0.000
690.008; 2525.950;  228.125;    0.000
690.117; 2476.950;  207.125;    0.000
690.227; 2518.950;  231.125;    0.000
690.336; 2432.950;  222.125;    0.000
690.445; 2425.950;  198.125;    0.000
690.554; 2445.950;  202.125;    0.000
690.663; 2461.950;  217.125;    0.000
690.772; 2546.950;  213.125;    0.000
690.881; 2465.950;  225.125;    0.000
690.990; 2467.950;  217.125;    0.000
691.099; 2557.950;  205.125;    0.000
691.209; 2433.950;  220.125;    0.000
691.318; 2464.950;  216.125;    0.000
691.427; 2433.950;  188.125;    0.000
691.536; 2514.950;  224.125;    0.000
691.644; 2473.950;  212.125;    0.000
691.753; 2399.950;  216.125;    0.000
691.862; 2525.950;  250.125;    0.000
691.971; 2455.950;  210.125;    0.000
692.080; 2506.950;  232.125;    0.000
692.189; 2383.950;  218.125;    0.000
692.298; 2430.950;  220.125;    0.000
692.406; 2447.950;  261.125;    0.000
692.515; 2482.950;  253.125;    0.000
692.624; 2410.950;  224.125;    0.000
692.733; 2504.950;  209.125;    0.000
692.842; 2492.950;  214.125;    0.000
692.950; 2534.950;  206.125;    0.000
693.059; 2396.950;  180.125;    0.000
693.168; 2526.950;  220.125;    0.000
693.276; 2437.950;  196.125;    0.000
693.385; 2495.950;  203.125;    0.000
693.494; 2462.950;  263.125;    0.000
693.602; 2393.950;  222.125;    0.000
693.711; 2490.950;  178.125;    0.000
693.819; 2489.950;  230.125;    0.000
693.928; 2438.950;  187.125;    0.000
694.036; 2452.950;  219.125;    0.000
694.145; 2475.950;  223.125;    0.000
694.253; 2454.950;  241.125;    0.000
694.362; 2375.950;  229.125;    0.000
694.470; 2512.950;  223.125;    0.000
694.579; 2475.950;  195.125;    0.000
694.687; 2568.950;  257.125;    0.000
694.795; 2436.950;  230.125;    0.000
694.904; 2476.950;  196.125;    0.000
695.012; 2409.950;  247.125;    0.000
695.120; 2478.950;  215.125;    0.000
695.229; 2519.950;  244.125;    0.000
695.337; 2537.950;  197.125;    0.000
695.445; 2565.950;  270.125;    0.000
695.553; 2435.950;  241.125;    0.000
695.662; 2474.950;  249.125;    0.000
695.770; 2458.950;  244.125;    0.000
695.878; 2533.950;  236.125;    0.000
695.986; 2541.950;  253.125;    0.000
696.094; 2448.950;  242.125;    0.000
696.202; 2318.950;  174.125;    0.000
696.310; 2482.950;  230.125;    0.000
696.419; 2455.950;  218.125;    0.000
696.527; 2375.950;  226.125;    0.000
696.635; 2477.950;  217.125;    0.000
696.743; 2498.950;  221.125;    0.000
696.851; 2482.950;  259.125;    0.000
696.959; 2460.950;  245.125;    0.000
697.067; 2478.950;  235.125;    0.000
697.174; 2389.950;  238.125;    0.000
697.282; 2362.950;  208.125;    0.000
697.390; 2496.950;  265.125;    0.000
697.498; 2387.950;  202.125;    0.000
697.606; 2362.950;  219.125;    0.000
697.714; 2425.950;  245.125;    0.000
697.822; 2434.950;  222.125;    0.000
697.929; 2457.950;  194.125;    0.000
698.037; 2426.950;  223.125;    0.000
698.145; 2410.950;  213.125;    0.000
698.253; 2427.950;  234.125;    0.000
698.360; 2402.950;  211.125;    0.000
698.468; 2387.950;  241.125;    0.000
698.576; 2426.950;  249.125;    0.000
698.683; 2510.950;  268.125;    0.000
698.791; 2470.950;  223.125;    0.000
698.899; 2460.950;  251.125;    0.000
699.006; 2454.950;  216.125;    0.000
699.114; 2452.950;  256.125;    0.000
699.221; 2448.950;  226.125;    0.000
699.329; 2532.950;  255.125;    0.000
699.436; 2433.950;  213.125;    0.000
699.544; 2390.950;  258.125;    0.000
699.651; 2383.950;  214.125;    0.000
699.759; 2403.950;  229.125;    0.000
699.866; 2423.950;  239.125;    0.000
699.974; 2313.950;  224.125;    0.000
700.081; 2388.950;  227.125;    0.000
700.188; 2452.950;  267.125;    0.000
700.296; 2386.950;  222.125;    0.000
700.403; 2474.950;  225.125;    0.000
700.510; 2469.950;  248.125;    0.000
700.618; 2447.950;  223.125;    0.000
700.725; 2385.950;  243.125;    0.000
700.832; 2436.950;  239.125;    0.000
700.940; 2412.950;  284.125;    0.000
701.047; 2405.950;  216.125;    0.000
701.154; 2424.950;  249.125;    0.000
701.261; 2331.950;  229.125;    0.000
701.368; 2369.950;  247.125;    0.000
701.475; 2327.950;  208.125;    0.000
701.582; 2385.950;  262.125;    0.000
701.690; 2367.950;  224.125;    0.000
701.797; 2444.950;  294.125;    0.000
701.904; 2455.950;  303.125;    0.000
702.011; 2406.950;  278.125;    0.000
702.118; 2439.950;  279.125;    0.000
702.225; 2504.950;  342.125;    0.000
702.332; 2431.950;  281.125;    0.000
702.439; 2450.950;  313.125;    0.000
702.546; 2478.950;  295.125;    0.000
702.652; 2414.950;  293.125;    0.000
702.759; 2435.950;  333.125;    0.000
702.866; 2428.950;  272.125;    0.000
702.973; 2416.950;  310.125;    0.000
703.080; 2466.950;  313.125;    0.000
703.187; 2396.950;  316.125;    0.000
703.294; 2502.950;  328.125;    0.000
703.400; 2233.950;  312.125;    0.000
703.507;  525.950;  349.125;    0.000
703.614;  326.950;  298.125;    0.000
703.720;  297.950;  300.125;    0.000
703.827;  310.950;  346.125;    0.000
703.934;  351.950;  308.125;    0.000
704.040;  311.950;  300.125;    0.000
704.147;  306.950;  317.125;    0.000
704.254;  359.950;  350.125;    0.000
704.360;  304.950;  285.125;    0.000
704.467;  346.950;  334.125;    0.000
704.573;  310.950;  330.125;    0.000
704.680;  340.950;  312.125;    0.000
704.786;  316.950;  305.125;    0.000
704.893;  311.950;  330.125;    0.000
704.999;  336.950;  315.125;    0.000
705.106;  348.950;  327.125;    0.000

