
Integration time [ms]:   1.000
Averaging Nr. [scans]: 1
Smoothing Nr. [pixels]: 0
Data measured with spectrometer [name]: VIS
Wave   ;Sample   ;Dark     ;Reference
[nm]   ;[counts] ;[counts] ;[counts] 

450.961;  199.250;    0.000;    0.000
451.100;  215.250;    0.000;    0.000
451.239;  214.250;    0.000;    0.000
451.377;  254.250;    0.000;    0.000
451.516;  232.250;    0.000;    0.000
451.655;  227.250;    0.000;    0.000
451.794;  221.250;    0.000;    0.000
451.932;  241.250;    0.000;    0.000
452.071;  239.250;    0.000;    0.000
452.210;  238.250;    0.000;    0.000
452.348;  225.250;    0.000;    0.000
452.487;  230.250;    0.000;    0.000
452.626;  224.250;    0.000;    0.000
452.764;  221.250;    0.000;    0.000
452.903;  201.250;    0.000;    0.000
453.042;  270.250;    0.000;    0.000
453.180; 3663.250;    0.000;    0.000
453.319; 3866.250;    0.000;    0.000
453.458; 3866.250;    0.000;    0.000
453.596; 3872.250;    0.000;    0.000
453.735; 3889.250;    0.000;    0.000
453.873; 3933.250;    0.000;    0.000
454.012; 3981.250;    0.000;    0.000
454.150; 4017.250;    0.000;    0.000
454.289; 4020.250;    0.000;    0.000
454.427; 3998.250;    0.000;    0.000
454.566; 4132.250;    0.000;    0.000
454.704; 4118.250;    0.000;    0.000
454.843; 4300.250;    0.000;    0.000
454.981; 4210.250;    0.000;    0.000
455.120; 4415.250;    0.000;    0.000
455.258; 4380.250;    0.000;    0.000
455.397; 4243.250;    0.000;    0.000
455.535; 4370.250;    0.000;    0.000
455.674; 4453.250;    0.000;    0.000
455.812; 4435.250;    0.000;    0.000
455.951; 4476.250;    0.000;    0.000
456.089; 4509.250;    0.000;    0.000
456.227; 4509.250;    0.000;    0.000
456.366; 4600.250;    0.000;    0.000
456.504; 4727.250;    0.000;    0.000
456.642; 4832.250;    0.000;    0.000
456.781; 4612.250;    0.000;    0.000
456.919; 4640.250;    0.000;    0.000
457.057; 4534.250;    0.000;    0.000
457.196; 4683.250;    0.000;    0.000
457.334; 4570.250;    0.000;    0.000
457.472; 4736.250;    0.000;    0.000
457.610; 4562.250;    0.000;    0.000
457.749; 4805.250;    0.000;    0.000
457.887; 4945.250;    0.000;    0.000
458.025; 5141.250;    0.000;    0.000
458.163; 5182.250;    0.000;    0.000
458.301; 5243.250;    0.000;    0.000
458.440; 5166.250;    0.000;    0.000
458.578; 5286.250;    0.000;    0.000
458.716; 5402.250;    0.000;    0.000
458.854; 5343.250;    0.000;    0.000
458.992; 5429.250;    0.000;    0.000
459.130; 5519.250;    0.000;    0.000
459.269; 5581.250;    0.000;    0.000
459.407; 5555.250;    0.000;    0.000
459.545; 5613.250;    0.000;    0.000
459.683; 5634.250;    0.000;    0.000
459.821; 5607.250;    0.000;    0.000
459.959; 5692.250;    0.000;    0.000
460.097; 5765.250;    0.000;    0.000
460.235; 5968.250;    0.000;    0.000
460.373; 5885.250;    0.000;    0.000
460.511; 5953.250;    0.000;    0.000
460.649; 5858.250;    0.000;    0.000
460.787; 6008.250;    0.000;    0.000
460.925; 6070.250;    0.000;    0.000
461.063; 6036.250;    0.000;    0.000
461.201; 6124.250;    0.000;    0.000
461.339; 6113.250;    0.000;    0.000
461.477; 6164.250;    0.000;    0.000
461.615; 6151.250;    0.000;    0.000
461.753; 6246.250;    0.000;    0.000
461.891; 6274.250;    0.000;    0.000
462.029; 6388.250;    0.000;    0.000
462.166; 6450.250;    0.000;    0.000
462.304; 6417.250;    0.000;    0.000
462.442; 6521.250;    0.000;    0.000
462.580; 6685.250;    0.000;    0.000
462.718; 6576.250;    0.000;    0.000
462.856; 6623.250;    0.000;    0.000
462.993; 6594.250;    0.000;    0.000
463.131; 6612.250;    0.000;    0.000
463.269; 6752.250;    0.000;    0.000
463.407; 6582.250;    0.000;    0.000
463.545; 6623.250;    0.000;    0.000
463.682; 6649.250;    0.000;    0.000
463.820; 6806.250;    0.000;    0.000
463.958; 6896.250;    0.000;    0.000
464.095; 6965.250;    0.000;    0.000
464.233; 7039.250;    0.000;    0.000
464.371; 7008.250;    0.000;    0.000
464.509; 6939.250;    0.000;    0.000
464.646; 6968.250;    0.000;    0.000
464.784; 6860.250;    0.000;    0.000
464.921; 6933.250;    0.000;    0.000
465.059; 6884.250;    0.000;    0.000
465.197; 6711.250;    0.000;    0.000
465.334; 6628.250;    0.000;    0.000
465.472; 6486.250;    0.000;    0.000
465.609; 6572.250;    0.000;    0.000
465.747; 6446.250;    0.000;    0.000
465.885; 6477.250;    0.000;    0.000
466.022; 6444.250;    0.000;    0.000
466.160; 6411.250;    0.000;    0.000
466.297; 6472.250;    0.000;    0.000
466.435; 6435.250;    0.000;    0.000
466.572; 6548.250;    0.000;    0.000
466.710; 6438.250;    0.000;    0.000
466.847; 6471.250;    0.000;    0.000
466.985; 6428.250;    0.000;    0.000
467.122; 6247.250;    0.000;    0.000
467.260; 6310.250;    0.000;    0.000
467.397; 6331.250;    0.000;    0.000
467.534; 6413.250;    0.000;    0.000
467.672; 6272.250;    0.000;    0.000
467.809; 6455.250;    0.000;    0.000
467.947; 6357.250;    0.000;    0.000
468.084; 6271.250;    0.000;    0.000
468.221; 6356.250;    0.000;    0.000
468.359; 6262.250;    0.000;    0.000
468.496; 6193.250;    0.000;    0.000
468.633; 6304.250;    0.000;    0.000
468.771; 6333.250;    0.000;    0.000
468.908; 6428.250;    0.000;    0.000
469.045; 6319.250;    0.000;    0.000
469.183; 6306.250;    0.000;    0.000
469.320; 6462.250;    0.000;    0.000
469.457; 6452.250;    0.000;    0.000
469.594; 6340.250;    0.000;    0.000
469.732; 6525.250;    0.000;    0.000
469.869; 6539.250;    0.000;    0.000
470.006; 6683.250;    0.000;    0.000
470.143; 6722.250;    0.000;    0.000
470.280; 6674.250;    0.000;    0.000
470.417; 6780.250;    0.000;    0.000
470.555; 6665.250;    0.000;    0.000
470.692; 6581.250;    0.000;    0.000
470.829; 6783.250;    0.000;    0.000
470.966; 6555.250;    0.000;    0.000
471.103; 6584.250;    0.000;    0.000
471.240; 6564.250;    0.000;    0.000
471.377; 6544.250;    0.000;    0.000
471.514; 6541.250;    0.000;    0.000
471.651; 6655.250;    0.000;    0.000
471.789; 6440.250;    0.000;    0.000
471.926; 6582.250;    0.000;    0.000
472.063; 6556.250;    0.000;    0.000
472.200; 6480.250;    0.000;    0.000
472.337; 6393.250;    0.000;    0.000
472.474; 6544.250;    0.000;    0.000
472.611; 6417.250;    0.000;    0.000
472.748; 6384.250;    0.000;    0.000
472.884; 6396.250;    0.000;    0.000
473.021; 6432.250;    0.000;    0.000
473.158; 6348.250;    0.000;    0.000
473.295; 6470.250;    0.000;    0.000
473.432; 6352.250;    0.000;    0.000
473.569; 6444.250;    0.000;    0.000
473.706; 6336.250;    0.000;    0.000
473.843; 6368.250;    0.000;    0.000
473.980; 6405.250;    0.000;    0.000
474.117; 6342.250;    0.000;    0.000
474.253; 6432.250;    0.000;    0.000
474.390; 6432.250;    0.000;    0.000
474.527; 6442.250;    0.000;    0.000
474.664; 6424.250;    0.000;    0.000
474.801; 6403.250;    0.000;    0.000
474.937; 6368.250;    0.000;    0.000
475.074; 6472.250;    0.000;    0.000
475.211; 6535.250;    0.000;    0.000
475.348; 6604.250;    0.000;    0.000
475.484; 6567.250;    0.000;    0.000
475.621; 6626.250;    0.000;    0.000
475.758; 6590.250;    0.000;    0.000
475.894; 6391.250;    0.000;    0.000
476.031; 6430.250;    0.000;    0.000
476.168; 6383.250;    0.000;    0.000
476.304; 6517.250;    0.000;    0.000
476.441; 6447.250;    0.000;    0.000
476.578; 6427.250;    0.000;    0.000
476.714; 6489.250;    0.000;    0.000
476.851; 6631.250;    0.000;    0.000
476.987; 6518.250;    0.000;    0.000
477.124; 6645.250;    0.000;    0.000
477.261; 6579.250;    0.000;    0.000
477.397; 6586.250;    0.000;    0.000
477.534; 6659.250;    0.000;    0.000
477.670; 6747.250;    0.000;    0.000
477.807; 6700.250;    0.000;    0.000
477.943; 6793.250;    0.000;    0.000
478.080; 6795.250;    0.000;    0.000
478.216; 6799.250;    0.000;    0.000
478.353; 6759.250;    0.000;    0.000
478.489; 6796.250;    0.000;    0.000
478.626; 6918.250;    0.000;    0.000
478.762; 7161.250;    0.000;    0.000
478.898; 7303.250;    0.000;    0.000
479.035; 7175.250;    0.000;    0.000
479.171; 6994.250;    0.000;    0.000
479.308; 6853.250;    0.000;    0.000
479.444; 6966.250;    0.000;    0.000
479.580; 7019.250;    0.000;    0.000
479.717; 6999.250;    0.000;    0.000
479.853; 7023.250;    0.000;    0.000
479.989; 6998.250;    0.000;    0.000
480.126; 7123.250;    0.000;    0.000
480.262; 7115.250;    0.000;    0.000
480.398; 7127.250;    0.000;    0.000
480.535; 7129.250;    0.000;    0.000
480.671; 7035.250;    0.000;    0.000
480.807; 7101.250;    0.000;    0.000
480.943; 7013.250;    0.000;    0.000
481.080; 7135.250;    0.000;    0.000
481.216; 7048.250;    0.000;    0.000
481.352; 7105.250;    0.000;    0.000
481.488; 7012.250;    0.000;    0.000
481.624; 7058.250;    0.000;    0.000
481.760; 6893.250;    0.000;    0.000
481.897; 7032.250;    0.000;    0.000
482.033; 7026.250;    0.000;    0.000
482.169; 7004.250;    0.000;    0.000
482.305; 6909.250;    0.000;    0.000
482.441; 6754.250;    0.000;    0.000
482.577; 7030.250;    0.000;    0.000
482.713; 6897.250;    0.000;    0.000
482.849; 6918.250;    0.000;    0.000
482.985; 6850.250;    0.000;    0.000
483.121; 6955.250;    0.000;    0.000
483.258; 6971.250;    0.000;    0.000
483.394; 6814.250;    0.000;    0.000
483.530; 6901.250;    0.000;    0.000
483.665; 6815.250;    0.000;    0.000
483.801; 6873.250;    0.000;    0.000
483.937; 6883.250;    0.000;    0.000
484.073; 6991.250;    0.000;    0.000
484.209; 6890.250;    0.000;    0.000
484.345; 7007.250;    0.000;    0.000
484.481; 6984.250;    0.000;    0.000
484.617; 6933.250;    0.000;    0.000
484.753; 7067.250;    0.000;    0.000
484.889; 7203.250;    0.000;    0.000
485.025; 7043.250;    0.000;    0.000
485.161; 6994.250;    0.000;    0.000
485.296; 7166.250;    0.000;    0.000
485.432; 6903.250;    0.000;    0.000
485.568; 7061.250;    0.000;    0.000
485.704; 7023.250;    0.000;    0.000
485.840; 7151.250;    0.000;    0.000
485.975; 6995.250;    0.000;    0.000
486.111; 6961.250;    0.000;    0.000
486.247; 7106.250;    0.000;    0.000
486.383; 7119.250;    0.000;    0.000
486.518; 7025.250;    0.000;    0.000
486.654; 7123.250;    0.000;    0.000
486.790; 7024.250;    0.000;    0.000
486.926; 7041.250;    0.000;    0.000
487.061; 7059.250;    0.000;    0.000
487.197; 6992.250;    0.000;    0.000
487.333; 7039.250;    0.000;    0.000
487.468; 7200.250;    0.000;    0.000
487.604; 7052.250;    0.000;    0.000
487.740; 7015.250;    0.000;    0.000
487.875; 7036.250;    0.000;    0.000
488.011; 7077.250;    0.000;    0.000
488.146; 7150.250;    0.000;    0.000
488.282; 7002.250;    0.000;    0.000
488.417; 7075.250;    0.000;    0.000
488.553; 7172.250;    0.000;    0.000
488.688; 7106.250;    0.000;    0.000
488.824; 7035.250;    0.000;    0.000
488.960; 7129.250;    0.000;    0.000
489.095; 7089.250;    0.000;    0.000
489.230; 7090.250;    0.000;    0.000
489.366; 7255.250;    0.000;    0.000
489.501; 7051.250;    0.000;    0.000
489.637; 7110.250;    0.000;    0.000
489.772; 7044.250;    0.000;    0.000
489.908; 7271.250;    0.000;    0.000
490.043; 7215.250;    0.000;    0.000
490.178; 7139.250;    0.000;    0.000
490.314; 7149.250;    0.000;    0.000
490.449; 7180.250;    0.000;    0.000
490.585; 7279.250;    0.000;    0.000
490.720; 7259.250;    0.000;    0.000
490.855; 7195.250;    0.000;    0.000
490.991; 7250.250;    0.000;    0.000
491.126; 7338.250;    0.000;    0.000
491.261; 7081.250;    0.000;    0.000
491.396; 7173.250;    0.000;    0.000
491.532; 7153.250;    0.000;    0.000
491.667; 7315.250;    0.000;    0.000
491.802; 7203.250;    0.000;    0.000
491.937; 7342.250;    0.000;    0.000
492.073; 7416.250;    0.000;    0.000
492.208; 7278.250;    0.000;    0.000
492.343; 7385.250;    0.000;    0.000
492.478; 7457.250;    0.000;    0.000
492.613; 7215.250;    0.000;    0.000
492.749; 7336.250;    0.000;    0.000
492.884; 7367.250;    0.000;    0.000
493.019; 7266.250;    0.000;    0.000
493.154; 7300.250;    0.000;    0.000
493.289; 7305.250;    0.000;    0.000
493.424; 7352.250;    0.000;    0.000
493.559; 7303.250;    0.000;    0.000
493.694; 7341.250;    0.000;    0.000
493.829; 7264.250;    0.000;    0.000
493.964; 7354.250;    0.000;    0.000
494.099; 7298.250;    0.000;    0.000
494.234; 7373.250;    0.000;    0.000
494.369; 7320.250;    0.000;    0.000
494.504; 7244.250;    0.000;    0.000
494.639; 7329.250;    0.000;    0.000
494.774; 7361.250;    0.000;    0.000
494.909; 7248.250;    0.000;    0.000
495.044; 7316.250;    0.000;    0.000
495.179; 7290.250;    0.000;    0.000
495.314; 7356.250;    0.000;    0.000
495.449; 7266.250;    0.000;    0.000
495.584; 7382.250;    0.000;    0.000
495.719; 7442.250;    0.000;    0.000
495.854; 7365.250;    0.000;    0.000
495.988; 7422.250;    0.000;    0.000
496.123; 7547.250;    0.000;    0.000
496.258; 7517.250;    0.000;    0.000
496.393; 7473.250;    0.000;    0.000
496.528; 7500.250;    0.000;    0.000
496.663; 7631.250;    0.000;    0.000
496.797; 7555.250;    0.000;    0.000
496.932; 7626.250;    0.000;    0.000
497.067; 7892.250;    0.000;    0.000
497.202; 7642.250;    0.000;    0.000
497.336; 8009.250;    0.000;    0.000
497.471; 7957.250;    0.000;    0.000
497.606; 8051.250;    0.000;    0.000
497.740; 8302.250;    0.000;    0.000
497.875; 8427.250;    0.000;    0.000
498.010; 8446.250;    0.000;    0.000
498.144; 8484.250;    0.000;    0.000
498.279; 8743.250;    0.000;    0.000
498.414; 8877.250;    0.000;    0.000
498.548; 8823.250;    0.000;    0.000
498.683; 8881.250;    0.000;    0.000
498.817; 8936.250;    0.000;    0.000
498.952; 9163.250;    0.000;    0.000
499.087; 9334.250;    0.000;    0.000
499.221; 9411.250;    0.000;    0.000
499.356; 9688.250;    0.000;    0.000
499.490; 9600.250;    0.000;    0.000
499.625; 9881.250;    0.000;    0.000
499.759;10101.250;    0.000;    0.000
499.894;10241.250;    0.000;    0.000
500.028;10448.250;    0.000;    0.000
500.162;10654.250;    0.000;    0.000
500.297;10620.250;    0.000;    0.000
500.431;10654.250;    0.000;    0.000
500.566;10598.250;    0.000;    0.000
500.700;10424.250;    0.000;    0.000
500.835;10381.250;    0.000;    0.000
500.969;10086.250;    0.000;    0.000
501.103;10005.250;    0.000;    0.000
501.238; 9943.250;    0.000;    0.000
501.372; 9644.250;    0.000;    0.000
501.506; 9488.250;    0.000;    0.000
501.641; 9257.250;    0.000;    0.000
501.775; 9010.250;    0.000;    0.000
501.909; 9007.250;    0.000;    0.000
502.043; 8756.250;    0.000;    0.000
502.178; 8780.250;    0.000;    0.000
502.312; 8596.250;    0.000;    0.000
502.446; 8309.250;    0.000;    0.000
502.580; 8169.250;    0.000;    0.000
502.715; 8162.250;    0.000;    0.000
502.849; 8086.250;    0.000;    0.000
502.983; 8034.250;    0.000;    0.000
503.117; 7924.250;    0.000;    0.000
503.251; 7906.250;    0.000;    0.000
503.385; 7753.250;    0.000;    0.000
503.520; 7695.250;    0.000;    0.000
503.654; 7327.250;    0.000;    0.000
503.788; 7488.250;    0.000;    0.000
503.922; 7331.250;    0.000;    0.000
504.056; 7470.250;    0.000;    0.000
504.190; 7305.250;    0.000;    0.000
504.324; 7405.250;    0.000;    0.000
504.458; 7122.250;    0.000;    0.000
504.592; 7133.250;    0.000;    0.000
504.726; 7017.250;    0.000;    0.000
504.860; 7068.250;    0.000;    0.000
504.994; 6918.250;    0.000;    0.000
505.128; 6925.250;    0.000;    0.000
505.262; 6880.250;    0.000;    0.000
505.396; 6586.250;    0.000;    0.000
505.530; 6666.250;    0.000;    0.000
505.664; 6449.250;    0.000;    0.000
505.798; 6548.250;    0.000;    0.000
505.932; 6372.250;    0.000;    0.000
506.066; 6421.250;    0.000;    0.000
506.199; 6295.250;    0.000;    0.000
506.333; 6224.250;    0.000;    0.000
506.467; 6328.250;    0.000;    0.000
506.601; 6150.250;    0.000;    0.000
506.735; 6154.250;    0.000;    0.000
506.869; 6067.250;    0.000;    0.000
507.002; 6082.250;    0.000;    0.000
507.136; 6138.250;    0.000;    0.000
507.270; 6105.250;    0.000;    0.000
507.404; 6051.250;    0.000;    0.000
507.537; 5983.250;    0.000;    0.000
507.671; 6023.250;    0.000;    0.000
507.805; 5837.250;    0.000;    0.000
507.939; 5888.250;    0.000;    0.000
508.072; 5903.250;    0.000;    0.000
508.206; 5919.250;    0.000;    0.000
508.340; 5775.250;    0.000;    0.000
508.473; 5792.250;    0.000;    0.000
508.607; 5762.250;    0.000;    0.000
508.740; 5733.250;    0.000;    0.000
508.874; 5933.250;    0.000;    0.000
509.008; 5759.250;    0.000;    0.000
509.141; 5860.250;    0.000;    0.000
509.275; 5735.250;    0.000;    0.000
509.408; 5710.250;    0.000;    0.000
509.542; 5698.250;    0.000;    0.000
509.675; 5809.250;    0.000;    0.000
509.809; 5496.250;    0.000;    0.000
509.942; 5703.250;    0.000;    0.000
510.076; 5867.250;    0.000;    0.000
510.209; 5617.250;    0.000;    0.000
510.343; 5538.250;    0.000;    0.000
510.476; 5726.250;    0.000;    0.000
510.610; 5597.250;    0.000;    0.000
510.743; 5557.250;    0.000;    0.000
510.877; 5568.250;    0.000;    0.000
511.010; 5455.250;    0.000;    0.000
511.143; 5457.250;    0.000;    0.000
511.277; 5540.250;    0.000;    0.000
511.410; 5524.250;    0.000;    0.000
511.543; 5442.250;    0.000;    0.000
511.677; 5381.250;    0.000;    0.000
511.810; 5518.250;    0.000;    0.000
511.943; 5506.250;    0.000;    0.000
512.077; 5474.250;    0.000;    0.000
512.210; 5513.250;    0.000;    0.000
512.343; 5458.250;    0.000;    0.000
512.476; 5501.250;    0.000;    0.000
512.610; 5481.250;    0.000;    0.000
512.743; 5413.250;    0.000;    0.000
512.876; 5498.250;    0.000;    0.000
513.009; 5565.250;    0.000;    0.000
513.142; 5414.250;    0.000;    0.000
513.276; 5450.250;    0.000;    0.000
513.409; 5510.250;    0.000;    0.000
513.542; 5423.250;    0.000;    0.000
513.675; 5632.250;    0.000;    0.000
513.808; 5429.250;    0.000;    0.000
513.941; 5469.250;    0.000;    0.000
514.074; 5503.250;    0.000;    0.000
514.207; 5515.250;    0.000;    0.000
514.340; 5568.250;    0.000;    0.000
514.474; 5436.250;    0.000;    0.000
514.607; 5518.250;    0.000;    0.000
514.740; 5509.250;    0.000;    0.000
514.873; 5563.250;    0.000;    0.000
515.006; 5668.250;    0.000;    0.000
515.139; 5736.250;    0.000;    0.000
515.272; 5687.250;    0.000;    0.000
515.404; 5832.250;    0.000;    0.000
515.537; 5755.250;    0.000;    0.000
515.670; 5828.250;    0.000;    0.000
515.803; 5776.250;    0.000;    0.000
515.936; 5735.250;    0.000;    0.000
516.069; 5872.250;    0.000;    0.000
516.202; 5899.250;    0.000;    0.000
516.335; 6040.250;    0.000;    0.000
516.468; 6314.250;    0.000;    0.000
516.600; 7425.250;    0.000;    0.000
516.733; 9068.250;    0.000;    0.000
516.866; 9385.250;    0.000;    0.000
516.999; 8348.250;    0.000;    0.000
517.132;10429.250;    0.000;    0.000
517.264;14342.250;    0.000;    0.000
517.397;14040.250;    0.000;    0.000
517.530;10490.250;    0.000;    0.000
517.663; 9122.250;    0.000;    0.000
517.795; 8272.250;    0.000;    0.000
517.928; 8121.250;    0.000;    0.000
518.061; 8082.250;    0.000;    0.000
518.193;10723.250;    0.000;    0.000
518.326;16895.250;    0.000;    0.000
518.459;18224.250;    0.000;    0.000
518.591;13656.250;    0.000;    0.000
518.724;10523.250;    0.000;    0.000
518.857; 8955.250;    0.000;    0.000
518.989; 8327.250;    0.000;    0.000
519.122; 7620.250;    0.000;    0.000
519.254; 7228.250;    0.000;    0.000
519.387; 6877.250;    0.000;    0.000
519.519; 6625.250;    0.000;    0.000
519.652; 6507.250;    0.000;    0.000
519.784; 6312.250;    0.000;    0.000
519.917; 6050.250;    0.000;    0.000
520.049; 6070.250;    0.000;    0.000
520.182; 5920.250;    0.000;    0.000
520.314; 5803.250;    0.000;    0.000
520.447; 5708.250;    0.000;    0.000
520.579; 5751.250;    0.000;    0.000
520.712; 5703.250;    0.000;    0.000
520.844; 5604.250;    0.000;    0.000
520.976; 5487.250;    0.000;    0.000
521.109; 5528.250;    0.000;    0.000
521.241; 5461.250;    0.000;    0.000
521.373; 5365.250;    0.000;    0.000
521.506; 5376.250;    0.000;    0.000
521.638; 5255.250;    0.000;    0.000
521.770; 5264.250;    0.000;    0.000
521.903; 5252.250;    0.000;    0.000
522.035; 5204.250;    0.000;    0.000
522.167; 5092.250;    0.000;    0.000
522.300; 5061.250;    0.000;    0.000
522.432; 5118.250;    0.000;    0.000
522.564; 5072.250;    0.000;    0.000
522.696; 5094.250;    0.000;    0.000
522.828; 5020.250;    0.000;    0.000
522.961; 4962.250;    0.000;    0.000
523.093; 5027.250;    0.000;    0.000
523.225; 5002.250;    0.000;    0.000
523.357; 4861.250;    0.000;    0.000
523.489; 4984.250;    0.000;    0.000
523.621; 4935.250;    0.000;    0.000
523.753; 4975.250;    0.000;    0.000
523.885; 4919.250;    0.000;    0.000
524.018; 4836.250;    0.000;    0.000
524.150; 4854.250;    0.000;    0.000
524.282; 4801.250;    0.000;    0.000
524.414; 4775.250;    0.000;    0.000
524.546; 4793.250;    0.000;    0.000
524.678; 4746.250;    0.000;    0.000
524.810; 4723.250;    0.000;    0.000
524.942; 4724.250;    0.000;    0.000
525.074; 4603.250;    0.000;    0.000
525.206; 4714.250;    0.000;    0.000
525.338; 4705.250;    0.000;    0.000
525.469; 4563.250;    0.000;    0.000
525.601; 4716.250;    0.000;    0.000
525.733; 4573.250;    0.000;    0.000
525.865; 4693.250;    0.000;    0.000
525.997; 4598.250;    0.000;    0.000
526.129; 4585.250;    0.000;    0.000
526.261; 4648.250;    0.000;    0.000
526.393; 4648.250;    0.000;    0.000
526.524; 4622.250;    0.000;    0.000
526.656; 4601.250;    0.000;    0.000
526.788; 4640.250;    0.000;    0.000
526.920; 4540.250;    0.000;    0.000
527.052; 4430.250;    0.000;    0.000
527.183; 4525.250;    0.000;    0.000
527.315; 4472.250;    0.000;    0.000
527.447; 4544.250;    0.000;    0.000
527.578; 4460.250;    0.000;    0.000
527.710; 4555.250;    0.000;    0.000
527.842; 4450.250;    0.000;    0.000
527.973; 4510.250;    0.000;    0.000
528.105; 4542.250;    0.000;    0.000
528.237; 4594.250;    0.000;    0.000
528.368; 4371.250;    0.000;    0.000
528.500; 4461.250;    0.000;    0.000
528.632; 4435.250;    0.000;    0.000
528.763; 4513.250;    0.000;    0.000
528.895; 4465.250;    0.000;    0.000
529.026; 4459.250;    0.000;    0.000
529.158; 4438.250;    0.000;    0.000
529.289; 4493.250;    0.000;    0.000
529.421; 4532.250;    0.000;    0.000
529.552; 4418.250;    0.000;    0.000
529.684; 4455.250;    0.000;    0.000
529.815; 4325.250;    0.000;    0.000
529.947; 4572.250;    0.000;    0.000
530.078; 4502.250;    0.000;    0.000
530.210; 4391.250;    0.000;    0.000
530.341; 4437.250;    0.000;    0.000
530.472; 4458.250;    0.000;    0.000
530.604; 4476.250;    0.000;    0.000
530.735; 4509.250;    0.000;    0.000
530.867; 4633.250;    0.000;    0.000
530.998; 4458.250;    0.000;    0.000
531.129; 4551.250;    0.000;    0.000
531.260; 4558.250;    0.000;    0.000
531.392; 4584.250;    0.000;    0.000
531.523; 4542.250;    0.000;    0.000
531.654; 4525.250;    0.000;    0.000
531.786; 4527.250;    0.000;    0.000
531.917; 4539.250;    0.000;    0.000
532.048; 4560.250;    0.000;    0.000
532.179; 4623.250;    0.000;    0.000
532.311; 4480.250;    0.000;    0.000
532.442; 4491.250;    0.000;    0.000
532.573; 4585.250;    0.000;    0.000
532.704; 4538.250;    0.000;    0.000
532.835; 4461.250;    0.000;    0.000
532.966; 4498.250;    0.000;    0.000
533.097; 4549.250;    0.000;    0.000
533.229; 4462.250;    0.000;    0.000
533.360; 4503.250;    0.000;    0.000
533.491; 4576.250;    0.000;    0.000
533.622; 4475.250;    0.000;    0.000
533.753; 4420.250;    0.000;    0.000
533.884; 4589.250;    0.000;    0.000
534.015; 4429.250;    0.000;    0.000
534.146; 4552.250;    0.000;    0.000
534.277; 4589.250;    0.000;    0.000
534.408; 4422.250;    0.000;    0.000
534.539; 4568.250;    0.000;    0.000
534.670; 4448.250;    0.000;    0.000
534.801; 4422.250;    0.000;    0.000
534.932; 4394.250;    0.000;    0.000
535.063; 4415.250;    0.000;    0.000
535.194; 4416.250;    0.000;    0.000
535.324; 4420.250;    0.000;    0.000
535.455; 4417.250;    0.000;    0.000
535.586; 4405.250;    0.000;    0.000
535.717; 4381.250;    0.000;    0.000
535.848; 4416.250;    0.000;    0.000
535.979; 4424.250;    0.000;    0.000
536.109; 4428.250;    0.000;    0.000
536.240; 4406.250;    0.000;    0.000
536.371; 4382.250;    0.000;    0.000
536.502; 4362.250;    0.000;    0.000
536.632; 4324.250;    0.000;    0.000
536.763; 4350.250;    0.000;    0.000
536.894; 4405.250;    0.000;    0.000
537.025; 4331.250;    0.000;    0.000
537.155; 4499.250;    0.000;    0.000
537.286; 4240.250;    0.000;    0.000
537.417; 4479.250;    0.000;    0.000
537.547; 4294.250;    0.000;    0.000
537.678; 4363.250;    0.000;    0.000
537.808; 4305.250;    0.000;    0.000
537.939; 4352.250;    0.000;    0.000
538.070; 4353.250;    0.000;    0.000
538.200; 4413.250;    0.000;    0.000
538.331; 4297.250;    0.000;    0.000
538.461; 4402.250;    0.000;    0.000
538.592; 4374.250;    0.000;    0.000
538.722; 4330.250;    0.000;    0.000
538.853; 4306.250;    0.000;    0.000
538.983; 4382.250;    0.000;    0.000
539.114; 4361.250;    0.000;    0.000
539.244; 4413.250;    0.000;    0.000
539.375; 4453.250;    0.000;    0.000
539.505; 4365.250;    0.000;    0.000
539.636; 4427.250;    0.000;    0.000
539.766; 4380.250;    0.000;    0.000
539.896; 4348.250;    0.000;    0.000
540.027; 4306.250;    0.000;    0.000
540.157; 4502.250;    0.000;    0.000
540.287; 4391.250;    0.000;    0.000
540.418; 4354.250;    0.000;    0.000
540.548; 4424.250;    0.000;    0.000
540.678; 4365.250;    0.000;    0.000
540.809; 4469.250;    0.000;    0.000
540.939; 4413.250;    0.000;    0.000
541.069; 4359.250;    0.000;    0.000
541.200; 4358.250;    0.000;    0.000
541.330; 4344.250;    0.000;    0.000
541.460; 4376.250;    0.000;    0.000
541.590; 4360.250;    0.000;    0.000
541.720; 4347.250;    0.000;    0.000
541.851; 4483.250;    0.000;    0.000
541.981; 4412.250;    0.000;    0.000
542.111; 4592.250;    0.000;    0.000
542.241; 4520.250;    0.000;    0.000
542.371; 4539.250;    0.000;    0.000
542.501; 4581.250;    0.000;    0.000
542.631; 4646.250;    0.000;    0.000
542.761; 4598.250;    0.000;    0.000
542.891; 4690.250;    0.000;    0.000
543.021; 4693.250;    0.000;    0.000
543.151; 4648.250;    0.000;    0.000
543.281; 4567.250;    0.000;    0.000
543.411; 4665.250;    0.000;    0.000
543.542; 4649.250;    0.000;    0.000
543.671; 4624.250;    0.000;    0.000
543.801; 4634.250;    0.000;    0.000
543.931; 4597.250;    0.000;    0.000
544.061; 4672.250;    0.000;    0.000
544.191; 4574.250;    0.000;    0.000
544.321; 4636.250;    0.000;    0.000
544.451; 4733.250;    0.000;    0.000
544.581; 4640.250;    0.000;    0.000
544.711; 4700.250;    0.000;    0.000
544.841; 4599.250;    0.000;    0.000
544.970; 4784.250;    0.000;    0.000
545.100; 4796.250;    0.000;    0.000
545.230; 4868.250;    0.000;    0.000
545.360; 4854.250;    0.000;    0.000
545.490; 4713.250;    0.000;    0.000
545.619; 4710.250;    0.000;    0.000
545.749; 4708.250;    0.000;    0.000
545.879; 4548.250;    0.000;    0.000
546.009; 4721.250;    0.000;    0.000
546.138; 4650.250;    0.000;    0.000
546.268; 4615.250;    0.000;    0.000
546.398; 4642.250;    0.000;    0.000
546.527; 4604.250;    0.000;    0.000
546.657; 4576.250;    0.000;    0.000
546.786; 4539.250;    0.000;    0.000
546.916; 4615.250;    0.000;    0.000
547.046; 4603.250;    0.000;    0.000
547.175; 4566.250;    0.000;    0.000
547.305; 4630.250;    0.000;    0.000
547.434; 4629.250;    0.000;    0.000
547.564; 4519.250;    0.000;    0.000
547.693; 4629.250;    0.000;    0.000
547.823; 4687.250;    0.000;    0.000
547.953; 4679.250;    0.000;    0.000
548.082; 4716.250;    0.000;    0.000
548.211; 4517.250;    0.000;    0.000
548.341; 4582.250;    0.000;    0.000
548.470; 4545.250;    0.000;    0.000
548.600; 4597.250;    0.000;    0.000
548.729; 4674.250;    0.000;    0.000
548.859; 4656.250;    0.000;    0.000
548.988; 4617.250;    0.000;    0.000
549.117; 4680.250;    0.000;    0.000
549.247; 4600.250;    0.000;    0.000
549.376; 4645.250;    0.000;    0.000
549.505; 4636.250;    0.000;    0.000
549.635; 4694.250;    0.000;    0.000
549.764; 4644.250;    0.000;    0.000
549.893; 4720.250;    0.000;    0.000
550.023; 4682.250;    0.000;    0.000
550.152; 4526.250;    0.000;    0.000
550.281; 4629.250;    0.000;    0.000
550.410; 4746.250;    0.000;    0.000
550.539; 4796.250;    0.000;    0.000
550.669; 4641.250;    0.000;    0.000
550.798; 4719.250;    0.000;    0.000
550.927; 4778.250;    0.000;    0.000
551.056; 4733.250;    0.000;    0.000
551.185; 4758.250;    0.000;    0.000
551.314; 4702.250;    0.000;    0.000
551.443; 4779.250;    0.000;    0.000
551.573; 4631.250;    0.000;    0.000
551.702; 4710.250;    0.000;    0.000
551.831; 4839.250;    0.000;    0.000
551.960; 4741.250;    0.000;    0.000
552.089; 4811.250;    0.000;    0.000
552.218; 4763.250;    0.000;    0.000
552.347; 4827.250;    0.000;    0.000
552.476; 4865.250;    0.000;    0.000
552.605; 4818.250;    0.000;    0.000
552.734; 4987.250;    0.000;    0.000
552.863; 5043.250;    0.000;    0.000
552.992; 5181.250;    0.000;    0.000
553.121; 5042.250;    0.000;    0.000
553.249; 4975.250;    0.000;    0.000
553.378; 5045.250;    0.000;    0.000
553.507; 4907.250;    0.000;    0.000
553.636; 4834.250;    0.000;    0.000
553.765; 4837.250;    0.000;    0.000
553.894; 4951.250;    0.000;    0.000
554.023; 4870.250;    0.000;    0.000
554.151; 4867.250;    0.000;    0.000
554.280; 4777.250;    0.000;    0.000
554.409; 4770.250;    0.000;    0.000
554.538; 4887.250;    0.000;    0.000
554.666; 4831.250;    0.000;    0.000
554.795; 4753.250;    0.000;    0.000
554.924; 4738.250;    0.000;    0.000
555.052; 4831.250;    0.000;    0.000
555.181; 4857.250;    0.000;    0.000
555.310; 4733.250;    0.000;    0.000
555.439; 4786.250;    0.000;    0.000
555.567; 4855.250;    0.000;    0.000
555.696; 4677.250;    0.000;    0.000
555.824; 4652.250;    0.000;    0.000
555.953; 4926.250;    0.000;    0.000
556.082; 4739.250;    0.000;    0.000
556.210; 4691.250;    0.000;    0.000
556.339; 4770.250;    0.000;    0.000
556.467; 4662.250;    0.000;    0.000
556.596; 4779.250;    0.000;    0.000
556.724; 4643.250;    0.000;    0.000
556.853; 4727.250;    0.000;    0.000
556.981; 4665.250;    0.000;    0.000
557.110; 4681.250;    0.000;    0.000
557.238; 4667.250;    0.000;    0.000
557.367; 4667.250;    0.000;    0.000
557.495; 4653.250;    0.000;    0.000
557.623; 4656.250;    0.000;    0.000
557.752; 4626.250;    0.000;    0.000
557.880; 4807.250;    0.000;    0.000
558.008; 4667.250;    0.000;    0.000
558.137; 4780.250;    0.000;    0.000
558.265; 4726.250;    0.000;    0.000
558.393; 4745.250;    0.000;    0.000
558.522; 4631.250;    0.000;    0.000
558.650; 4697.250;    0.000;    0.000
558.778; 4734.250;    0.000;    0.000
558.906; 4829.250;    0.000;    0.000
559.035; 4736.250;    0.000;    0.000
559.163; 4775.250;    0.000;    0.000
559.291; 4730.250;    0.000;    0.000
559.419; 4711.250;    0.000;    0.000
559.548; 4866.250;    0.000;    0.000
559.676; 4914.250;    0.000;    0.000
559.804; 4845.250;    0.000;    0.000
559.932; 4757.250;    0.000;    0.000
560.060; 4847.250;    0.000;    0.000
560.188; 4829.250;    0.000;    0.000
560.316; 4915.250;    0.000;    0.000
560.444; 4884.250;    0.000;    0.000
560.572; 4914.250;    0.000;    0.000
560.700; 5045.250;    0.000;    0.000
560.828; 4948.250;    0.000;    0.000
560.956; 4997.250;    0.000;    0.000
561.085; 4970.250;    0.000;    0.000
561.212; 4965.250;    0.000;    0.000
561.340; 5016.250;    0.000;    0.000
561.468; 5040.250;    0.000;    0.000
561.596; 5056.250;    0.000;    0.000
561.724; 5185.250;    0.000;    0.000
561.852; 5090.250;    0.000;    0.000
561.980; 4990.250;    0.000;    0.000
562.108; 5060.250;    0.000;    0.000
562.236; 5100.250;    0.000;    0.000
562.364; 5166.250;    0.000;    0.000
562.492; 5243.250;    0.000;    0.000
562.619; 5281.250;    0.000;    0.000
562.747; 5112.250;    0.000;    0.000
562.875; 5326.250;    0.000;    0.000
563.003; 5283.250;    0.000;    0.000
563.130; 5241.250;    0.000;    0.000
563.258; 5340.250;    0.000;    0.000
563.386; 5324.250;    0.000;    0.000
563.514; 5405.250;    0.000;    0.000
563.641; 5407.250;    0.000;    0.000
563.769; 5540.250;    0.000;    0.000
563.897; 5464.250;    0.000;    0.000
564.024; 5606.250;    0.000;    0.000
564.152; 5750.250;    0.000;    0.000
564.280; 5569.250;    0.000;    0.000
564.407; 5722.250;    0.000;    0.000
564.535; 5770.250;    0.000;    0.000
564.662; 5781.250;    0.000;    0.000
564.790; 5857.250;    0.000;    0.000
564.917; 5910.250;    0.000;    0.000
565.045; 5965.250;    0.000;    0.000
565.173; 5735.250;    0.000;    0.000
565.300; 5892.250;    0.000;    0.000
565.428; 6058.250;    0.000;    0.000
565.555; 6053.250;    0.000;    0.000
565.682; 6198.250;    0.000;    0.000
565.810; 6317.250;    0.000;    0.000
565.937; 6306.250;    0.000;    0.000
566.065; 6461.250;    0.000;    0.000
566.192; 6464.250;    0.000;    0.000
566.320; 6611.250;    0.000;    0.000
566.447; 6700.250;    0.000;    0.000
566.574; 6767.250;    0.000;    0.000
566.702; 6782.250;    0.000;    0.000
566.829; 6942.250;    0.000;    0.000
566.956; 7037.250;    0.000;    0.000
567.083; 7006.250;    0.000;    0.000
567.211; 7027.250;    0.000;    0.000
567.338; 6971.250;    0.000;    0.000
567.465; 7179.250;    0.000;    0.000
567.593; 7032.250;    0.000;    0.000
567.720; 7043.250;    0.000;    0.000
567.847; 7167.250;    0.000;    0.000
567.974; 7101.250;    0.000;    0.000
568.101; 7297.250;    0.000;    0.000
568.228; 8076.250;    0.000;    0.000
568.356; 8449.250;    0.000;    0.000
568.483; 8113.250;    0.000;    0.000
568.610; 8116.250;    0.000;    0.000
568.737; 8816.250;    0.000;    0.000
568.864; 9744.250;    0.000;    0.000
568.991; 9438.250;    0.000;    0.000
569.118; 8538.250;    0.000;    0.000
569.245; 8050.250;    0.000;    0.000
569.372; 7656.250;    0.000;    0.000
569.499; 7330.250;    0.000;    0.000
569.626; 7165.250;    0.000;    0.000
569.753; 6953.250;    0.000;    0.000
569.880; 6883.250;    0.000;    0.000
570.007; 6686.250;    0.000;    0.000
570.134; 6685.250;    0.000;    0.000
570.261; 6546.250;    0.000;    0.000
570.388; 6528.250;    0.000;    0.000
570.515; 6395.250;    0.000;    0.000
570.642; 6479.250;    0.000;    0.000
570.768; 6290.250;    0.000;    0.000
570.895; 6189.250;    0.000;    0.000
571.022; 6316.250;    0.000;    0.000
571.149; 6187.250;    0.000;    0.000
571.276; 6099.250;    0.000;    0.000
571.402; 6055.250;    0.000;    0.000
571.529; 5950.250;    0.000;    0.000
571.656; 5990.250;    0.000;    0.000
571.783; 5917.250;    0.000;    0.000
571.909; 6137.250;    0.000;    0.000
572.036; 5993.250;    0.000;    0.000
572.163; 5901.250;    0.000;    0.000
572.289; 5971.250;    0.000;    0.000
572.416; 5856.250;    0.000;    0.000
572.543; 5866.250;    0.000;    0.000
572.669; 5886.250;    0.000;    0.000
572.796; 5832.250;    0.000;    0.000
572.922; 5879.250;    0.000;    0.000
573.049; 5894.250;    0.000;    0.000
573.176; 5741.250;    0.000;    0.000
573.302; 5821.250;    0.000;    0.000
573.429; 5886.250;    0.000;    0.000
573.555; 5817.250;    0.000;    0.000
573.682; 5709.250;    0.000;    0.000
573.808; 5696.250;    0.000;    0.000
573.935; 5690.250;    0.000;    0.000
574.061; 5697.250;    0.000;    0.000
574.188; 5708.250;    0.000;    0.000
574.314; 5682.250;    0.000;    0.000
574.440; 5714.250;    0.000;    0.000
574.567; 5765.250;    0.000;    0.000
574.693; 5636.250;    0.000;    0.000
574.820; 5636.250;    0.000;    0.000
574.946; 5635.250;    0.000;    0.000
575.072; 5701.250;    0.000;    0.000
575.198; 5762.250;    0.000;    0.000
575.325; 5636.250;    0.000;    0.000
575.451; 5742.250;    0.000;    0.000
575.577; 5607.250;    0.000;    0.000
575.704; 5730.250;    0.000;    0.000
575.830; 5735.250;    0.000;    0.000
575.956; 5578.250;    0.000;    0.000
576.082; 5689.250;    0.000;    0.000
576.208; 5647.250;    0.000;    0.000
576.335; 5531.250;    0.000;    0.000
576.461; 5667.250;    0.000;    0.000
576.587; 5589.250;    0.000;    0.000
576.713; 5584.250;    0.000;    0.000
576.839; 5527.250;    0.000;    0.000
576.965; 5659.250;    0.000;    0.000
577.091; 5643.250;    0.000;    0.000
577.217; 5704.250;    0.000;    0.000
577.343; 5554.250;    0.000;    0.000
577.469; 5697.250;    0.000;    0.000
577.596; 5553.250;    0.000;    0.000
577.722; 5629.250;    0.000;    0.000
577.848; 5682.250;    0.000;    0.000
577.974; 5745.250;    0.000;    0.000
578.099; 5584.250;    0.000;    0.000
578.225; 5764.250;    0.000;    0.000
578.351; 5574.250;    0.000;    0.000
578.477; 5749.250;    0.000;    0.000
578.603; 5650.250;    0.000;    0.000
578.729; 5686.250;    0.000;    0.000
578.855; 5712.250;    0.000;    0.000
578.981; 5455.250;    0.000;    0.000
579.107; 5766.250;    0.000;    0.000
579.232; 5709.250;    0.000;    0.000
579.358; 5689.250;    0.000;    0.000
579.484; 5736.250;    0.000;    0.000
579.610; 5843.250;    0.000;    0.000
579.735; 5825.250;    0.000;    0.000
579.861; 5812.250;    0.000;    0.000
579.987; 5668.250;    0.000;    0.000
580.113; 5802.250;    0.000;    0.000
580.238; 5773.250;    0.000;    0.000
580.364; 5850.250;    0.000;    0.000
580.490; 5892.250;    0.000;    0.000
580.615; 5940.250;    0.000;    0.000
580.741; 5843.250;    0.000;    0.000
580.867; 5862.250;    0.000;    0.000
580.992; 5893.250;    0.000;    0.000
581.118; 5904.250;    0.000;    0.000
581.243; 5966.250;    0.000;    0.000
581.369; 5981.250;    0.000;    0.000
581.494; 6059.250;    0.000;    0.000
581.620; 6110.250;    0.000;    0.000
581.745; 6134.250;    0.000;    0.000
581.871; 6159.250;    0.000;    0.000
581.996; 6142.250;    0.000;    0.000
582.122; 6357.250;    0.000;    0.000
582.247; 6337.250;    0.000;    0.000
582.373; 6245.250;    0.000;    0.000
582.498; 6339.250;    0.000;    0.000
582.624; 6383.250;    0.000;    0.000
582.749; 6456.250;    0.000;    0.000
582.874; 6536.250;    0.000;    0.000
583.000; 6582.250;    0.000;    0.000
583.125; 6505.250;    0.000;    0.000
583.250; 6761.250;    0.000;    0.000
583.376; 6530.250;    0.000;    0.000
583.501; 6814.250;    0.000;    0.000
583.626; 6781.250;    0.000;    0.000
583.751; 6882.250;    0.000;    0.000
583.877; 7056.250;    0.000;    0.000
584.002; 7043.250;    0.000;    0.000
584.127; 7079.250;    0.000;    0.000
584.252; 7240.250;    0.000;    0.000
584.377; 7331.250;    0.000;    0.000
584.503; 7388.250;    0.000;    0.000
584.628; 7491.250;    0.000;    0.000
584.753; 7607.250;    0.000;    0.000
584.878; 7652.250;    0.000;    0.000
585.003; 7849.250;    0.000;    0.000
585.128; 8196.250;    0.000;    0.000
585.253; 8805.250;    0.000;    0.000
585.378; 8761.250;    0.000;    0.000
585.503; 8446.250;    0.000;    0.000
585.628; 8492.250;    0.000;    0.000
585.753; 8550.250;    0.000;    0.000
585.878; 8818.250;    0.000;    0.000
586.003; 9094.250;    0.000;    0.000
586.128; 9319.250;    0.000;    0.000
586.253; 9432.250;    0.000;    0.000
586.378; 9599.250;    0.000;    0.000
586.503; 9895.250;    0.000;    0.000
586.628;10317.250;    0.000;    0.000
586.753;10673.250;    0.000;    0.000
586.878;11038.250;    0.000;    0.000
587.003;11459.250;    0.000;    0.000
587.127;11911.250;    0.000;    0.000
587.252;12516.250;    0.000;    0.000
587.377;13192.250;    0.000;    0.000
587.502;13815.250;    0.000;    0.000
587.627;14843.250;    0.000;    0.000
587.751;15793.250;    0.000;    0.000
587.876;17132.250;    0.000;    0.000
588.001;18322.250;    0.000;    0.000
588.125;20371.250;    0.000;    0.000
588.250;22505.250;    0.000;    0.000
588.375;25878.250;    0.000;    0.000
588.499;29432.250;    0.000;    0.000
588.624;35687.250;    0.000;    0.000
588.749;45409.250;    0.000;    0.000
588.873;56502.250;    0.000;    0.000
588.998;65255.250;    0.000;    0.000
589.122;65255.250;    0.000;    0.000
589.247;63171.250;    0.000;    0.000
589.372;56470.250;    0.000;    0.000
589.496;58337.250;    0.000;    0.000
589.621;62458.250;    0.000;    0.000
589.745;60233.250;    0.000;    0.000
589.870;49601.250;    0.000;    0.000
589.994;39825.250;    0.000;    0.000
590.118;33236.250;    0.000;    0.000
590.243;28879.250;    0.000;    0.000
590.367;25720.250;    0.000;    0.000
590.492;22962.250;    0.000;    0.000
590.616;20824.250;    0.000;    0.000
590.740;19498.250;    0.000;    0.000
590.865;18085.250;    0.000;    0.000
590.989;16550.250;    0.000;    0.000
591.114;15723.250;    0.000;    0.000
591.238;14904.250;    0.000;    0.000
591.362;14417.250;    0.000;    0.000
591.486;13424.250;    0.000;    0.000
591.611;13041.250;    0.000;    0.000
591.735;12421.250;    0.000;    0.000
591.859;11848.250;    0.000;    0.000
591.983;11750.250;    0.000;    0.000
592.107;11124.250;    0.000;    0.000
592.232;10900.250;    0.000;    0.000
592.356;10574.250;    0.000;    0.000
592.480;10440.250;    0.000;    0.000
592.604;10163.250;    0.000;    0.000
592.728; 9744.250;    0.000;    0.000
592.852; 9814.250;    0.000;    0.000
592.976; 9445.250;    0.000;    0.000
593.100; 9430.250;    0.000;    0.000
593.224; 9233.250;    0.000;    0.000
593.349; 9108.250;    0.000;    0.000
593.473; 8997.250;    0.000;    0.000
593.597; 8880.250;    0.000;    0.000
593.721; 8613.250;    0.000;    0.000
593.844; 8530.250;    0.000;    0.000
593.968; 8398.250;    0.000;    0.000
594.092; 8276.250;    0.000;    0.000
594.216; 8280.250;    0.000;    0.000
594.340; 8130.250;    0.000;    0.000
594.464; 8091.250;    0.000;    0.000
594.588; 7947.250;    0.000;    0.000
594.712; 7820.250;    0.000;    0.000
594.836; 7850.250;    0.000;    0.000
594.959; 7567.250;    0.000;    0.000
595.083; 7479.250;    0.000;    0.000
595.207; 7491.250;    0.000;    0.000
595.331; 7348.250;    0.000;    0.000
595.455; 7101.250;    0.000;    0.000
595.578; 7141.250;    0.000;    0.000
595.702; 7053.250;    0.000;    0.000
595.826; 6973.250;    0.000;    0.000
595.949; 6964.250;    0.000;    0.000
596.073; 6878.250;    0.000;    0.000
596.197; 6888.250;    0.000;    0.000
596.320; 6694.250;    0.000;    0.000
596.444; 6766.250;    0.000;    0.000
596.568; 6756.250;    0.000;    0.000
596.691; 6521.250;    0.000;    0.000
596.815; 6598.250;    0.000;    0.000
596.938; 6545.250;    0.000;    0.000
597.062; 6523.250;    0.000;    0.000
597.186; 6408.250;    0.000;    0.000
597.309; 6436.250;    0.000;    0.000
597.433; 6345.250;    0.000;    0.000
597.556; 6322.250;    0.000;    0.000
597.680; 6271.250;    0.000;    0.000
597.803; 6268.250;    0.000;    0.000
597.926; 6294.250;    0.000;    0.000
598.050; 6156.250;    0.000;    0.000
598.173; 6157.250;    0.000;    0.000
598.297; 6081.250;    0.000;    0.000
598.420; 6038.250;    0.000;    0.000
598.543; 6083.250;    0.000;    0.000
598.667; 5970.250;    0.000;    0.000
598.790; 5988.250;    0.000;    0.000
598.913; 6046.250;    0.000;    0.000
599.037; 5981.250;    0.000;    0.000
599.160; 5935.250;    0.000;    0.000
599.283; 5907.250;    0.000;    0.000
599.406; 5856.250;    0.000;    0.000
599.530; 5847.250;    0.000;    0.000
599.653; 5806.250;    0.000;    0.000
599.776; 5777.250;    0.000;    0.000
599.899; 5825.250;    0.000;    0.000
600.022; 5814.250;    0.000;    0.000
600.145; 5801.250;    0.000;    0.000
600.269; 5829.250;    0.000;    0.000
600.392; 5712.250;    0.000;    0.000
600.515; 5782.250;    0.000;    0.000
600.638; 5639.250;    0.000;    0.000
600.761; 5780.250;    0.000;    0.000
600.884; 5538.250;    0.000;    0.000
601.007; 5772.250;    0.000;    0.000
601.130; 5597.250;    0.000;    0.000
601.253; 5745.250;    0.000;    0.000
601.376; 5644.250;    0.000;    0.000
601.499; 5537.250;    0.000;    0.000
601.622; 5594.250;    0.000;    0.000
601.745; 5492.250;    0.000;    0.000
601.868; 5620.250;    0.000;    0.000
601.991; 5490.250;    0.000;    0.000
602.113; 5618.250;    0.000;    0.000
602.236; 5655.250;    0.000;    0.000
602.359; 5574.250;    0.000;    0.000
602.482; 5534.250;    0.000;    0.000
602.605; 5365.250;    0.000;    0.000
602.728; 5435.250;    0.000;    0.000
602.850; 5415.250;    0.000;    0.000
602.973; 5287.250;    0.000;    0.000
603.096; 5397.250;    0.000;    0.000
603.219; 5388.250;    0.000;    0.000
603.341; 5321.250;    0.000;    0.000
603.464; 5327.250;    0.000;    0.000
603.587; 5327.250;    0.000;    0.000
603.709; 5244.250;    0.000;    0.000
603.832; 5342.250;    0.000;    0.000
603.955; 5352.250;    0.000;    0.000
604.077; 5319.250;    0.000;    0.000
604.200; 5151.250;    0.000;    0.000
604.323; 5132.250;    0.000;    0.000
604.445; 5187.250;    0.000;    0.000
604.568; 5158.250;    0.000;    0.000
604.690; 5207.250;    0.000;    0.000
604.813; 5189.250;    0.000;    0.000
604.935; 5148.250;    0.000;    0.000
605.058; 5071.250;    0.000;    0.000
605.180; 5115.250;    0.000;    0.000
605.303; 5205.250;    0.000;    0.000
605.425; 5158.250;    0.000;    0.000
605.547; 5166.250;    0.000;    0.000
605.670; 5125.250;    0.000;    0.000
605.792; 5193.250;    0.000;    0.000
605.915; 5148.250;    0.000;    0.000
606.037; 5029.250;    0.000;    0.000
606.159; 5117.250;    0.000;    0.000
606.282; 5048.250;    0.000;    0.000
606.404; 5038.250;    0.000;    0.000
606.526; 4990.250;    0.000;    0.000
606.648; 4948.250;    0.000;    0.000
606.771; 4996.250;    0.000;    0.000
606.893; 4950.250;    0.000;    0.000
607.015; 4995.250;    0.000;    0.000
607.137; 4963.250;    0.000;    0.000
607.260; 4962.250;    0.000;    0.000
607.382; 4980.250;    0.000;    0.000
607.504; 5073.250;    0.000;    0.000
607.626; 4909.250;    0.000;    0.000
607.748; 5083.250;    0.000;    0.000
607.870; 5021.250;    0.000;    0.000
607.992; 5062.250;    0.000;    0.000
608.114; 5066.250;    0.000;    0.000
608.237; 5138.250;    0.000;    0.000
608.359; 5091.250;    0.000;    0.000
608.481; 5024.250;    0.000;    0.000
608.603; 4949.250;    0.000;    0.000
608.725; 4943.250;    0.000;    0.000
608.847; 5079.250;    0.000;    0.000
608.969; 4939.250;    0.000;    0.000
609.090; 5024.250;    0.000;    0.000
609.212; 4900.250;    0.000;    0.000
609.334; 4967.250;    0.000;    0.000
609.456; 4961.250;    0.000;    0.000
609.578; 4951.250;    0.000;    0.000
609.700; 4900.250;    0.000;    0.000
609.822; 4912.250;    0.000;    0.000
609.944; 4951.250;    0.000;    0.000
610.065; 5048.250;    0.000;    0.000
610.187; 5081.250;    0.000;    0.000
610.309; 4856.250;    0.000;    0.000
610.431; 5004.250;    0.000;    0.000
610.552; 4955.250;    0.000;    0.000
610.674; 4892.250;    0.000;    0.000
610.796; 4894.250;    0.000;    0.000
610.918; 4900.250;    0.000;    0.000
611.039; 4898.250;    0.000;    0.000
611.161; 4845.250;    0.000;    0.000
611.282; 4932.250;    0.000;    0.000
611.404; 4915.250;    0.000;    0.000
611.526; 4900.250;    0.000;    0.000
611.647; 5017.250;    0.000;    0.000
611.769; 4924.250;    0.000;    0.000
611.890; 4816.250;    0.000;    0.000
612.012; 4899.250;    0.000;    0.000
612.133; 4954.250;    0.000;    0.000
612.255; 4928.250;    0.000;    0.000
612.377; 4888.250;    0.000;    0.000
612.498; 4946.250;    0.000;    0.000
612.619; 4935.250;    0.000;    0.000
612.741; 4779.250;    0.000;    0.000
612.862; 4786.250;    0.000;    0.000
612.984; 4900.250;    0.000;    0.000
613.105; 4835.250;    0.000;    0.000
613.226; 4805.250;    0.000;    0.000
613.348; 4991.250;    0.000;    0.000
613.469; 5037.250;    0.000;    0.000
613.590; 4868.250;    0.000;    0.000
613.712; 4909.250;    0.000;    0.000
613.833; 5104.250;    0.000;    0.000
613.954; 5071.250;    0.000;    0.000
614.076; 5062.250;    0.000;    0.000
614.197; 5074.250;    0.000;    0.000
614.318; 5026.250;    0.000;    0.000
614.439; 5008.250;    0.000;    0.000
614.560; 5051.250;    0.000;    0.000
614.682; 5057.250;    0.000;    0.000
614.803; 5089.250;    0.000;    0.000
614.924; 5143.250;    0.000;    0.000
615.045; 5064.250;    0.000;    0.000
615.166; 5167.250;    0.000;    0.000
615.287; 5132.250;    0.000;    0.000
615.408; 5464.250;    0.000;    0.000
615.529; 5555.250;    0.000;    0.000
615.650; 5388.250;    0.000;    0.000
615.771; 5307.250;    0.000;    0.000
615.892; 5200.250;    0.000;    0.000
616.013; 5756.250;    0.000;    0.000
616.134; 6265.250;    0.000;    0.000
616.255; 5806.250;    0.000;    0.000
616.376; 5481.250;    0.000;    0.000
616.497; 5146.250;    0.000;    0.000
616.618; 5088.250;    0.000;    0.000
616.739; 5092.250;    0.000;    0.000
616.860; 4945.250;    0.000;    0.000
616.981; 4990.250;    0.000;    0.000
617.102; 4889.250;    0.000;    0.000
617.222; 4930.250;    0.000;    0.000
617.343; 4908.250;    0.000;    0.000
617.464; 5006.250;    0.000;    0.000
617.585; 4867.250;    0.000;    0.000
617.705; 4850.250;    0.000;    0.000
617.826; 4813.250;    0.000;    0.000
617.947; 4700.250;    0.000;    0.000
618.068; 4643.250;    0.000;    0.000
618.188; 4711.250;    0.000;    0.000
618.309; 4675.250;    0.000;    0.000
618.430; 4748.250;    0.000;    0.000
618.550; 4756.250;    0.000;    0.000
618.671; 4627.250;    0.000;    0.000
618.791; 4593.250;    0.000;    0.000
618.912; 4613.250;    0.000;    0.000
619.033; 4574.250;    0.000;    0.000
619.153; 4612.250;    0.000;    0.000
619.274; 4593.250;    0.000;    0.000
619.394; 4626.250;    0.000;    0.000
619.515; 4680.250;    0.000;    0.000
619.635; 4485.250;    0.000;    0.000
619.756; 4546.250;    0.000;    0.000
619.876; 4560.250;    0.000;    0.000
619.996; 4617.250;    0.000;    0.000
620.117; 4540.250;    0.000;    0.000
620.237; 4622.250;    0.000;    0.000
620.358; 4653.250;    0.000;    0.000
620.478; 4448.250;    0.000;    0.000
620.598; 4604.250;    0.000;    0.000
620.719; 4598.250;    0.000;    0.000
620.839; 4649.250;    0.000;    0.000
620.959; 4536.250;    0.000;    0.000
621.079; 4612.250;    0.000;    0.000
621.200; 4504.250;    0.000;    0.000
621.320; 4559.250;    0.000;    0.000
621.440; 4534.250;    0.000;    0.000
621.560; 4470.250;    0.000;    0.000
621.681; 4546.250;    0.000;    0.000
621.801; 4582.250;    0.000;    0.000
621.921; 4611.250;    0.000;    0.000
622.041; 4555.250;    0.000;    0.000
622.161; 4603.250;    0.000;    0.000
622.281; 4647.250;    0.000;    0.000
622.401; 4687.250;    0.000;    0.000
622.521; 4743.250;    0.000;    0.000
622.641; 4579.250;    0.000;    0.000
622.761; 4673.250;    0.000;    0.000
622.882; 4673.250;    0.000;    0.000
623.002; 4711.250;    0.000;    0.000
623.121; 4659.250;    0.000;    0.000
623.241; 4565.250;    0.000;    0.000
623.361; 4512.250;    0.000;    0.000
623.481; 4614.250;    0.000;    0.000
623.601; 4579.250;    0.000;    0.000
623.721; 4629.250;    0.000;    0.000
623.841; 4666.250;    0.000;    0.000
623.961; 4672.250;    0.000;    0.000
624.081; 4541.250;    0.000;    0.000
624.201; 4605.250;    0.000;    0.000
624.320; 4502.250;    0.000;    0.000
624.440; 4519.250;    0.000;    0.000
624.560; 4530.250;    0.000;    0.000
624.680; 4622.250;    0.000;    0.000
624.799; 4318.250;    0.000;    0.000
624.919; 4531.250;    0.000;    0.000
625.039; 4451.250;    0.000;    0.000
625.159; 4411.250;    0.000;    0.000
625.278; 4391.250;    0.000;    0.000
625.398; 4397.250;    0.000;    0.000
625.518; 4285.250;    0.000;    0.000
625.637; 4443.250;    0.000;    0.000
625.757; 4429.250;    0.000;    0.000
625.876; 4419.250;    0.000;    0.000
625.996; 4476.250;    0.000;    0.000
626.115; 4314.250;    0.000;    0.000
626.235; 4409.250;    0.000;    0.000
626.354; 4486.250;    0.000;    0.000
626.474; 4459.250;    0.000;    0.000
626.594; 4416.250;    0.000;    0.000
626.713; 4327.250;    0.000;    0.000
626.832; 4488.250;    0.000;    0.000
626.952; 4277.250;    0.000;    0.000
627.071; 4417.250;    0.000;    0.000
627.191; 4444.250;    0.000;    0.000
627.310; 4387.250;    0.000;    0.000
627.429; 4402.250;    0.000;    0.000
627.549; 4390.250;    0.000;    0.000
627.668; 4370.250;    0.000;    0.000
627.787; 4362.250;    0.000;    0.000
627.907; 4319.250;    0.000;    0.000
628.026; 4257.250;    0.000;    0.000
628.145; 4297.250;    0.000;    0.000
628.264; 4367.250;    0.000;    0.000
628.384; 4143.250;    0.000;    0.000
628.503; 4269.250;    0.000;    0.000
628.622; 4224.250;    0.000;    0.000
628.741; 4276.250;    0.000;    0.000
628.860; 4253.250;    0.000;    0.000
628.980; 4373.250;    0.000;    0.000
629.099; 4358.250;    0.000;    0.000
629.218; 4258.250;    0.000;    0.000
629.337; 4242.250;    0.000;    0.000
629.456; 4176.250;    0.000;    0.000
629.575; 4242.250;    0.000;    0.000
629.694; 4125.250;    0.000;    0.000
629.813; 4231.250;    0.000;    0.000
629.932; 4217.250;    0.000;    0.000
630.051; 4260.250;    0.000;    0.000
630.170; 4093.250;    0.000;    0.000
630.289; 4170.250;    0.000;    0.000
630.408; 4163.250;    0.000;    0.000
630.527; 4126.250;    0.000;    0.000
630.646; 4172.250;    0.000;    0.000
630.764; 4292.250;    0.000;    0.000
630.883; 4251.250;    0.000;    0.000
631.002; 4173.250;    0.000;    0.000
631.121; 4231.250;    0.000;    0.000
631.240; 4132.250;    0.000;    0.000
631.359; 4212.250;    0.000;    0.000
631.477; 4187.250;    0.000;    0.000
631.596; 4210.250;    0.000;    0.000
631.715; 4253.250;    0.000;    0.000
631.834; 4132.250;    0.000;    0.000
631.952; 4228.250;    0.000;    0.000
632.071; 4081.250;    0.000;    0.000
632.190; 4195.250;    0.000;    0.000
632.308; 4160.250;    0.000;    0.000
632.427; 4148.250;    0.000;    0.000
632.546; 4072.250;    0.000;    0.000
632.664; 4154.250;    0.000;    0.000
632.783; 4125.250;    0.000;    0.000
632.901; 4152.250;    0.000;    0.000
633.020; 4012.250;    0.000;    0.000
633.138; 4064.250;    0.000;    0.000
633.257; 4073.250;    0.000;    0.000
633.375; 4188.250;    0.000;    0.000
633.494; 4046.250;    0.000;    0.000
633.612; 4142.250;    0.000;    0.000
633.731; 4072.250;    0.000;    0.000
633.849; 4120.250;    0.000;    0.000
633.968; 4194.250;    0.000;    0.000
634.086; 4175.250;    0.000;    0.000
634.204; 4069.250;    0.000;    0.000
634.323; 4134.250;    0.000;    0.000
634.441; 4160.250;    0.000;    0.000
634.559; 4157.250;    0.000;    0.000
634.678; 4091.250;    0.000;    0.000
634.796; 4144.250;    0.000;    0.000
634.914; 4127.250;    0.000;    0.000
635.032; 4162.250;    0.000;    0.000
635.151; 4008.250;    0.000;    0.000
635.269; 3973.250;    0.000;    0.000
635.387; 3958.250;    0.000;    0.000
635.505; 3939.250;    0.000;    0.000
635.623; 4105.250;    0.000;    0.000
635.742; 3954.250;    0.000;    0.000
635.860; 4022.250;    0.000;    0.000
635.978; 4079.250;    0.000;    0.000
636.096; 3997.250;    0.000;    0.000
636.214; 4004.250;    0.000;    0.000
636.332; 3935.250;    0.000;    0.000
636.450; 4081.250;    0.000;    0.000
636.568; 4035.250;    0.000;    0.000
636.686; 4060.250;    0.000;    0.000
636.804; 4018.250;    0.000;    0.000
636.922; 3943.250;    0.000;    0.000
637.040; 3980.250;    0.000;    0.000
637.158; 3967.250;    0.000;    0.000
637.276; 4046.250;    0.000;    0.000
637.394; 3975.250;    0.000;    0.000
637.512; 3953.250;    0.000;    0.000
637.629; 4066.250;    0.000;    0.000
637.747; 3999.250;    0.000;    0.000
637.865; 3993.250;    0.000;    0.000
637.983; 3955.250;    0.000;    0.000
638.101; 3916.250;    0.000;    0.000
638.218; 3955.250;    0.000;    0.000
638.336; 3939.250;    0.000;    0.000
638.454; 3994.250;    0.000;    0.000
638.572; 3977.250;    0.000;    0.000
638.689; 3984.250;    0.000;    0.000
638.807; 3933.250;    0.000;    0.000
638.925; 3959.250;    0.000;    0.000
639.042; 3975.250;    0.000;    0.000
639.160; 4024.250;    0.000;    0.000
639.278; 3800.250;    0.000;    0.000
639.395; 3928.250;    0.000;    0.000
639.513; 3895.250;    0.000;    0.000
639.630; 3991.250;    0.000;    0.000
639.748; 3914.250;    0.000;    0.000
639.865; 3878.250;    0.000;    0.000
639.983; 4008.250;    0.000;    0.000
640.100; 3969.250;    0.000;    0.000
640.218; 3967.250;    0.000;    0.000
640.335; 3995.250;    0.000;    0.000
640.453; 3931.250;    0.000;    0.000
640.570; 3974.250;    0.000;    0.000
640.688; 3972.250;    0.000;    0.000
640.805; 4017.250;    0.000;    0.000
640.922; 3895.250;    0.000;    0.000
641.040; 3957.250;    0.000;    0.000
641.157; 3913.250;    0.000;    0.000
641.274; 3908.250;    0.000;    0.000
641.391; 3920.250;    0.000;    0.000
641.509; 3869.250;    0.000;    0.000
641.626; 3940.250;    0.000;    0.000
641.743; 3942.250;    0.000;    0.000
641.860; 3880.250;    0.000;    0.000
641.978; 3836.250;    0.000;    0.000
642.095; 3924.250;    0.000;    0.000
642.212; 3852.250;    0.000;    0.000
642.329; 3821.250;    0.000;    0.000
642.446; 3842.250;    0.000;    0.000
642.563; 3960.250;    0.000;    0.000
642.681; 3892.250;    0.000;    0.000
642.798; 3854.250;    0.000;    0.000
642.915; 3876.250;    0.000;    0.000
643.032; 3945.250;    0.000;    0.000
643.149; 3930.250;    0.000;    0.000
643.266; 3980.250;    0.000;    0.000
643.383; 3925.250;    0.000;    0.000
643.500; 3994.250;    0.000;    0.000
643.617; 3850.250;    0.000;    0.000
643.734; 3963.250;    0.000;    0.000
643.850; 3908.250;    0.000;    0.000
643.967; 4034.250;    0.000;    0.000
644.084; 3971.250;    0.000;    0.000
644.201; 4007.250;    0.000;    0.000
644.318; 3965.250;    0.000;    0.000
644.435; 3982.250;    0.000;    0.000
644.552; 4039.250;    0.000;    0.000
644.668; 4013.250;    0.000;    0.000
644.785; 3999.250;    0.000;    0.000
644.902; 3934.250;    0.000;    0.000
645.019; 3921.250;    0.000;    0.000
645.135; 3999.250;    0.000;    0.000
645.252; 4122.250;    0.000;    0.000
645.369; 4047.250;    0.000;    0.000
645.485; 3983.250;    0.000;    0.000
645.602; 3998.250;    0.000;    0.000
645.719; 4091.250;    0.000;    0.000
645.835; 4051.250;    0.000;    0.000
645.952; 4023.250;    0.000;    0.000
646.068; 4079.250;    0.000;    0.000
646.185; 4141.250;    0.000;    0.000
646.302; 4165.250;    0.000;    0.000
646.418; 4145.250;    0.000;    0.000
646.535; 4043.250;    0.000;    0.000
646.651; 4007.250;    0.000;    0.000
646.768; 4108.250;    0.000;    0.000
646.884; 4048.250;    0.000;    0.000
647.000; 4018.250;    0.000;    0.000
647.117; 4143.250;    0.000;    0.000
647.233; 4151.250;    0.000;    0.000
647.350; 4058.250;    0.000;    0.000
647.466; 4094.250;    0.000;    0.000
647.582; 4119.250;    0.000;    0.000
647.699; 4095.250;    0.000;    0.000
647.815; 4099.250;    0.000;    0.000
647.931; 4165.250;    0.000;    0.000
648.047; 4027.250;    0.000;    0.000
648.164; 4151.250;    0.000;    0.000
648.280; 4075.250;    0.000;    0.000
648.396; 4131.250;    0.000;    0.000
648.512; 4166.250;    0.000;    0.000
648.629; 4123.250;    0.000;    0.000
648.745; 4133.250;    0.000;    0.000
648.861; 4141.250;    0.000;    0.000
648.977; 4201.250;    0.000;    0.000
649.093; 4153.250;    0.000;    0.000
649.209; 4265.250;    0.000;    0.000
649.325; 4310.250;    0.000;    0.000
649.441; 4220.250;    0.000;    0.000
649.557; 4286.250;    0.000;    0.000
649.673; 4188.250;    0.000;    0.000
649.789; 4344.250;    0.000;    0.000
649.905; 4343.250;    0.000;    0.000
650.021; 4306.250;    0.000;    0.000
650.137; 4203.250;    0.000;    0.000
650.253; 4286.250;    0.000;    0.000
650.369; 4302.250;    0.000;    0.000
650.485; 4285.250;    0.000;    0.000
650.601; 4383.250;    0.000;    0.000
650.717; 4251.250;    0.000;    0.000
650.833; 4373.250;    0.000;    0.000
650.948; 4331.250;    0.000;    0.000
651.064; 4314.250;    0.000;    0.000
651.180; 4319.250;    0.000;    0.000
651.296; 4397.250;    0.000;    0.000
651.411; 4312.250;    0.000;    0.000
651.527; 4397.250;    0.000;    0.000
651.643; 4343.250;    0.000;    0.000
651.759; 4627.250;    0.000;    0.000
651.874; 4444.250;    0.000;    0.000
651.990; 4550.250;    0.000;    0.000
652.105; 4452.250;    0.000;    0.000
652.221; 4437.250;    0.000;    0.000
652.337; 4507.250;    0.000;    0.000
652.452; 4386.250;    0.000;    0.000
652.568; 4517.250;    0.000;    0.000
652.683; 4592.250;    0.000;    0.000
652.799; 4634.250;    0.000;    0.000
652.914; 4607.250;    0.000;    0.000
653.030; 4749.250;    0.000;    0.000
653.145; 4706.250;    0.000;    0.000
653.261; 4798.250;    0.000;    0.000
653.376; 4755.250;    0.000;    0.000
653.492; 4779.250;    0.000;    0.000
653.607; 4782.250;    0.000;    0.000
653.722; 4917.250;    0.000;    0.000
653.838; 4865.250;    0.000;    0.000
653.953; 4949.250;    0.000;    0.000
654.068; 4997.250;    0.000;    0.000
654.184; 5065.250;    0.000;    0.000
654.299; 5188.250;    0.000;    0.000
654.414; 5206.250;    0.000;    0.000
654.530; 5078.250;    0.000;    0.000
654.645; 5320.250;    0.000;    0.000
654.760; 5390.250;    0.000;    0.000
654.875; 5478.250;    0.000;    0.000
654.990; 5505.250;    0.000;    0.000
655.106; 5635.250;    0.000;    0.000
655.221; 5668.250;    0.000;    0.000
655.336; 5843.250;    0.000;    0.000
655.451; 5929.250;    0.000;    0.000
655.566; 5970.250;    0.000;    0.000
655.681; 6227.250;    0.000;    0.000
655.796; 6322.250;    0.000;    0.000
655.911; 6521.250;    0.000;    0.000
656.026; 6622.250;    0.000;    0.000
656.141; 6763.250;    0.000;    0.000
656.256; 6957.250;    0.000;    0.000
656.371; 6989.250;    0.000;    0.000
656.486; 6972.250;    0.000;    0.000
656.601; 7011.250;    0.000;    0.000
656.716; 6931.250;    0.000;    0.000
656.831; 6846.250;    0.000;    0.000
656.946; 6664.250;    0.000;    0.000
657.060; 6600.250;    0.000;    0.000
657.175; 6379.250;    0.000;    0.000
657.290; 6463.250;    0.000;    0.000
657.405; 6295.250;    0.000;    0.000
657.520; 6162.250;    0.000;    0.000
657.634; 6166.250;    0.000;    0.000
657.749; 6041.250;    0.000;    0.000
657.864; 5957.250;    0.000;    0.000
657.979; 5869.250;    0.000;    0.000
658.093; 5789.250;    0.000;    0.000
658.208; 5719.250;    0.000;    0.000
658.323; 5568.250;    0.000;    0.000
658.437; 5468.250;    0.000;    0.000
658.552; 5638.250;    0.000;    0.000
658.666; 5470.250;    0.000;    0.000
658.781; 5323.250;    0.000;    0.000
658.895; 5368.250;    0.000;    0.000
659.010; 5252.250;    0.000;    0.000
659.125; 5177.250;    0.000;    0.000
659.239; 5069.250;    0.000;    0.000
659.353; 5153.250;    0.000;    0.000
659.468; 4952.250;    0.000;    0.000
659.582; 5072.250;    0.000;    0.000
659.697; 5050.250;    0.000;    0.000
659.811; 4960.250;    0.000;    0.000
659.926; 4940.250;    0.000;    0.000
660.040; 4882.250;    0.000;    0.000
660.154; 4814.250;    0.000;    0.000
660.269; 4829.250;    0.000;    0.000
660.383; 4732.250;    0.000;    0.000
660.497; 4804.250;    0.000;    0.000
660.612; 4731.250;    0.000;    0.000
660.726; 4745.250;    0.000;    0.000
660.840; 4610.250;    0.000;    0.000
660.954; 4618.250;    0.000;    0.000
661.068; 4578.250;    0.000;    0.000
661.183; 4541.250;    0.000;    0.000
661.297; 4528.250;    0.000;    0.000
661.411; 4525.250;    0.000;    0.000
661.525; 4553.250;    0.000;    0.000
661.639; 4449.250;    0.000;    0.000
661.753; 4366.250;    0.000;    0.000
661.867; 4338.250;    0.000;    0.000
661.981; 4418.250;    0.000;    0.000
662.095; 4370.250;    0.000;    0.000
662.209; 4304.250;    0.000;    0.000
662.323; 4355.250;    0.000;    0.000
662.437; 4267.250;    0.000;    0.000
662.551; 4223.250;    0.000;    0.000
662.665; 4237.250;    0.000;    0.000
662.779; 4142.250;    0.000;    0.000
662.893; 4253.250;    0.000;    0.000
663.007; 4181.250;    0.000;    0.000
663.121; 4177.250;    0.000;    0.000
663.235; 4102.250;    0.000;    0.000
663.349; 4145.250;    0.000;    0.000
663.462; 4122.250;    0.000;    0.000
663.576; 4176.250;    0.000;    0.000
663.690; 3988.250;    0.000;    0.000
663.804; 3993.250;    0.000;    0.000
663.917; 3884.250;    0.000;    0.000
664.031; 3983.250;    0.000;    0.000
664.145; 3966.250;    0.000;    0.000
664.258; 3968.250;    0.000;    0.000
664.372; 3868.250;    0.000;    0.000
664.486; 3896.250;    0.000;    0.000
664.599; 3907.250;    0.000;    0.000
664.713; 3965.250;    0.000;    0.000
664.827; 3894.250;    0.000;    0.000
664.940; 3890.250;    0.000;    0.000
665.054; 3832.250;    0.000;    0.000
665.167; 3761.250;    0.000;    0.000
665.281; 3830.250;    0.000;    0.000
665.394; 3809.250;    0.000;    0.000
665.508; 3835.250;    0.000;    0.000
665.621; 3756.250;    0.000;    0.000
665.735; 3808.250;    0.000;    0.000
665.848; 3927.250;    0.000;    0.000
665.961; 3844.250;    0.000;    0.000
666.075; 3745.250;    0.000;    0.000
666.188; 3854.250;    0.000;    0.000
666.301; 3756.250;    0.000;    0.000
666.415; 3663.250;    0.000;    0.000
666.528; 3852.250;    0.000;    0.000
666.641; 3768.250;    0.000;    0.000
666.755; 3707.250;    0.000;    0.000
666.868; 3736.250;    0.000;    0.000
666.981; 3697.250;    0.000;    0.000
667.094; 3696.250;    0.000;    0.000
667.207; 3574.250;    0.000;    0.000
667.321; 3533.250;    0.000;    0.000
667.434; 3566.250;    0.000;    0.000
667.547; 3718.250;    0.000;    0.000
667.660; 3556.250;    0.000;    0.000
667.773; 3607.250;    0.000;    0.000
667.886; 3554.250;    0.000;    0.000
667.999; 3585.250;    0.000;    0.000
668.112; 3561.250;    0.000;    0.000
668.225; 3510.250;    0.000;    0.000
668.338; 3519.250;    0.000;    0.000
668.451; 3551.250;    0.000;    0.000
668.564; 3574.250;    0.000;    0.000
668.677; 3442.250;    0.000;    0.000
668.790; 3419.250;    0.000;    0.000
668.903; 3577.250;    0.000;    0.000
669.016; 3489.250;    0.000;    0.000
669.129; 3527.250;    0.000;    0.000
669.242; 3371.250;    0.000;    0.000
669.354; 3475.250;    0.000;    0.000
669.467; 3418.250;    0.000;    0.000
669.580; 3460.250;    0.000;    0.000
669.693; 3409.250;    0.000;    0.000
669.806; 3371.250;    0.000;    0.000
669.918; 3417.250;    0.000;    0.000
670.031; 3411.250;    0.000;    0.000
670.144; 3438.250;    0.000;    0.000
670.256; 3354.250;    0.000;    0.000
670.369; 3415.250;    0.000;    0.000
670.482; 3462.250;    0.000;    0.000
670.594; 3417.250;    0.000;    0.000
670.707; 3359.250;    0.000;    0.000
670.820; 3425.250;    0.000;    0.000
670.932; 3453.250;    0.000;    0.000
671.045; 3423.250;    0.000;    0.000
671.157; 3386.250;    0.000;    0.000
671.270; 3407.250;    0.000;    0.000
671.382; 3388.250;    0.000;    0.000
671.495; 3352.250;    0.000;    0.000
671.607; 3415.250;    0.000;    0.000
671.720; 3349.250;    0.000;    0.000
671.832; 3321.250;    0.000;    0.000
671.944; 3310.250;    0.000;    0.000
672.057; 3332.250;    0.000;    0.000
672.169; 3321.250;    0.000;    0.000
672.281; 3354.250;    0.000;    0.000
672.394; 3282.250;    0.000;    0.000
672.506; 3313.250;    0.000;    0.000
672.618; 3366.250;    0.000;    0.000
672.731; 3344.250;    0.000;    0.000
672.843; 3359.250;    0.000;    0.000
672.955; 3279.250;    0.000;    0.000
673.067; 3244.250;    0.000;    0.000
673.180; 3311.250;    0.000;    0.000
673.292; 3292.250;    0.000;    0.000
673.404; 3287.250;    0.000;    0.000
673.516; 3207.250;    0.000;    0.000
673.628; 3384.250;    0.000;    0.000
673.740; 3249.250;    0.000;    0.000
673.852; 3276.250;    0.000;    0.000
673.964; 3333.250;    0.000;    0.000
674.076; 3255.250;    0.000;    0.000
674.188; 3234.250;    0.000;    0.000
674.300; 3170.250;    0.000;    0.000
674.412; 3282.250;    0.000;    0.000
674.524; 3230.250;    0.000;    0.000
674.636; 3291.250;    0.000;    0.000
674.748; 3263.250;    0.000;    0.000
674.860; 3169.250;    0.000;    0.000
674.972; 3183.250;    0.000;    0.000
675.084; 3191.250;    0.000;    0.000
675.196; 3265.250;    0.000;    0.000
675.307; 3285.250;    0.000;    0.000
675.419; 3186.250;    0.000;    0.000
675.531; 3223.250;    0.000;    0.000
675.643; 3247.250;    0.000;    0.000
675.755; 3180.250;    0.000;    0.000
675.866; 3136.250;    0.000;    0.000
675.978; 3179.250;    0.000;    0.000
676.090; 3219.250;    0.000;    0.000
676.201; 3165.250;    0.000;    0.000
676.313; 3160.250;    0.000;    0.000
676.425; 3134.250;    0.000;    0.000
676.536; 3153.250;    0.000;    0.000
676.648; 3149.250;    0.000;    0.000
676.759; 3184.250;    0.000;    0.000
676.871; 3158.250;    0.000;    0.000
676.983; 3099.250;    0.000;    0.000
677.094; 3166.250;    0.000;    0.000
677.206; 3102.250;    0.000;    0.000
677.317; 3220.250;    0.000;    0.000
677.429; 3083.250;    0.000;    0.000
677.540; 3091.250;    0.000;    0.000
677.651; 3119.250;    0.000;    0.000
677.763; 3125.250;    0.000;    0.000
677.874; 3090.250;    0.000;    0.000
677.986; 3101.250;    0.000;    0.000
678.097; 3077.250;    0.000;    0.000
678.208; 3177.250;    0.000;    0.000
678.320; 3100.250;    0.000;    0.000
678.431; 3147.250;    0.000;    0.000
678.542; 3088.250;    0.000;    0.000
678.653; 3066.250;    0.000;    0.000
678.765; 3052.250;    0.000;    0.000
678.876; 3002.250;    0.000;    0.000
678.987; 2995.250;    0.000;    0.000
679.098; 3030.250;    0.000;    0.000
679.209; 3037.250;    0.000;    0.000
679.320; 3128.250;    0.000;    0.000
679.432; 3065.250;    0.000;    0.000
679.543; 2913.250;    0.000;    0.000
679.654; 2983.250;    0.000;    0.000
679.765; 3020.250;    0.000;    0.000
679.876; 2998.250;    0.000;    0.000
679.987; 3066.250;    0.000;    0.000
680.098; 3016.250;    0.000;    0.000
680.209; 2989.250;    0.000;    0.000
680.320; 2978.250;    0.000;    0.000
680.431; 3025.250;    0.000;    0.000
680.542; 3059.250;    0.000;    0.000
680.653; 3116.250;    0.000;    0.000
680.763; 3022.250;    0.000;    0.000
680.874; 3021.250;    0.000;    0.000
680.985; 3038.250;    0.000;    0.000
681.096; 3061.250;    0.000;    0.000
681.207; 3020.250;    0.000;    0.000
681.318; 2997.250;    0.000;    0.000
681.428; 2934.250;    0.000;    0.000
681.539; 2981.250;    0.000;    0.000
681.650; 3004.250;    0.000;    0.000
681.760; 2964.250;    0.000;    0.000
681.871; 3076.250;    0.000;    0.000
681.982; 3055.250;    0.000;    0.000
682.093; 3024.250;    0.000;    0.000
682.203; 3030.250;    0.000;    0.000
682.314; 2964.250;    0.000;    0.000
682.424; 2954.250;    0.000;    0.000
682.535; 3071.250;    0.000;    0.000
682.646; 3000.250;    0.000;    0.000
682.756; 2987.250;    0.000;    0.000
682.867; 3022.250;    0.000;    0.000
682.977; 2977.250;    0.000;    0.000
683.088; 2989.250;    0.000;    0.000
683.198; 2904.250;    0.000;    0.000
683.308; 2913.250;    0.000;    0.000
683.419; 2981.250;    0.000;    0.000
683.529; 2976.250;    0.000;    0.000
683.640; 2938.250;    0.000;    0.000
683.750; 2920.250;    0.000;    0.000
683.860; 2908.250;    0.000;    0.000
683.971; 2970.250;    0.000;    0.000
684.081; 2942.250;    0.000;    0.000
684.191; 3029.250;    0.000;    0.000
684.301; 2946.250;    0.000;    0.000
684.412; 2988.250;    0.000;    0.000
684.522; 3003.250;    0.000;    0.000
684.632; 2969.250;    0.000;    0.000
684.742; 3020.250;    0.000;    0.000
684.852; 2933.250;    0.000;    0.000
684.963; 2906.250;    0.000;    0.000
685.073; 2903.250;    0.000;    0.000
685.183; 3014.250;    0.000;    0.000
685.293; 2954.250;    0.000;    0.000
685.403; 2898.250;    0.000;    0.000
685.513; 2909.250;    0.000;    0.000
685.623; 2969.250;    0.000;    0.000
685.733; 2991.250;    0.000;    0.000
685.843; 2947.250;    0.000;    0.000
685.953; 3027.250;    0.000;    0.000
686.063; 2916.250;    0.000;    0.000
686.173; 2934.250;    0.000;    0.000
686.283; 2943.250;    0.000;    0.000
686.393; 3015.250;    0.000;    0.000
686.503; 3049.250;    0.000;    0.000
686.612; 2898.250;    0.000;    0.000
686.722; 3019.250;    0.000;    0.000
686.832; 3065.250;    0.000;    0.000
686.942; 2977.250;    0.000;    0.000
687.052; 2912.250;    0.000;    0.000
687.161; 2935.250;    0.000;    0.000
687.271; 2873.250;    0.000;    0.000
687.381; 2952.250;    0.000;    0.000
687.491; 2976.250;    0.000;    0.000
687.600; 2900.250;    0.000;    0.000
687.710; 2859.250;    0.000;    0.000
687.820; 2886.250;    0.000;    0.000
687.929; 2960.250;    0.000;    0.000
688.039; 2928.250;    0.000;    0.000
688.148; 2946.250;    0.000;    0.000
688.258; 2909.250;    0.000;    0.000
688.367; 2921.250;    0.000;    0.000
688.477; 2864.250;    0.000;    0.000
688.586; 2922.250;    0.000;    0.000
688.696; 2879.250;    0.000;    0.000
688.805; 2908.250;    0.000;    0.000
688.915; 2888.250;    0.000;    0.000
689.024; 2970.250;    0.000;    0.000
689.134; 2955.250;    0.000;    0.000
689.243; 2903.250;    0.000;    0.000
689.352; 2884.250;    0.000;    0.000
689.462; 2828.250;    0.000;    0.000
689.571; 2909.250;    0.000;    0.000
689.680; 2899.250;    0.000;    0.000
689.790; 2963.250;    0.000;    0.000
689.899; 2952.250;    0.000;    0.000
690.008; 2942.250;    0.000;    0.000
690.117; 2912.250;    0.000;    0.000
690.227; 2977.250;    0.000;    0.000
690.336; 2927.250;    0.000;    0.000
690.445; 2840.250;    0.000;    0.000
690.554; 2871.250;    0.000;    0.000
690.663; 2922.250;    0.000;    0.000
690.772; 2902.250;    0.000;    0.000
690.881; 2881.250;    0.000;    0.000
690.990; 2868.250;    0.000;    0.000
691.099; 2929.250;    0.000;    0.000
691.209; 2919.250;    0.000;    0.000
691.318; 2833.250;    0.000;    0.000
691.427; 2902.250;    0.000;    0.000
691.536; 2956.250;    0.000;    0.000
691.644; 2912.250;    0.000;    0.000
691.753; 2873.250;    0.000;    0.000
691.862; 2932.250;    0.000;    0.000
691.971; 2917.250;    0.000;    0.000
692.080; 2860.250;    0.000;    0.000
692.189; 2896.250;    0.000;    0.000
692.298; 2858.250;    0.000;    0.000
692.406; 2934.250;    0.000;    0.000
692.515; 2920.250;    0.000;    0.000
692.624; 2878.250;    0.000;    0.000
692.733; 2958.250;    0.000;    0.000
692.842; 2859.250;    0.000;    0.000
692.950; 2929.250;    0.000;    0.000
693.059; 2902.250;    0.000;    0.000
693.168; 2945.250;    0.000;    0.000
693.276; 2853.250;    0.000;    0.000
693.385; 2953.250;    0.000;    0.000
693.494; 2924.250;    0.000;    0.000
693.602; 2901.250;    0.000;    0.000
693.711; 2930.250;    0.000;    0.000
693.819; 2920.250;    0.000;    0.000
693.928; 2900.250;    0.000;    0.000
694.036; 2926.250;    0.000;    0.000
694.145; 2888.250;    0.000;    0.000
694.253; 2887.250;    0.000;    0.000
694.362; 2958.250;    0.000;    0.000
694.470; 2890.250;    0.000;    0.000
694.579; 2915.250;    0.000;    0.000
694.687; 2852.250;    0.000;    0.000
694.795; 2837.250;    0.000;    0.000
694.904; 2899.250;    0.000;    0.000
695.012; 2951.250;    0.000;    0.000
695.120; 2855.250;    0.000;    0.000
695.229; 2908.250;    0.000;    0.000
695.337; 2940.250;    0.000;    0.000
695.445; 2887.250;    0.000;    0.000
695.553; 2881.250;    0.000;    0.000
695.662; 2887.250;    0.000;    0.000
695.770; 2904.250;    0.000;    0.000
695.878; 2950.250;    0.000;    0.000
695.986; 2803.250;    0.000;    0.000
696.094; 2936.250;    0.000;    0.000
696.202; 2923.250;    0.000;    0.000
696.310; 2962.250;    0.000;    0.000
696.419; 2855.250;    0.000;    0.000
696.527; 2935.250;    0.000;    0.000
696.635; 2880.250;    0.000;    0.000
696.743; 2867.250;    0.000;    0.000
696.851; 2929.250;    0.000;    0.000
696.959; 2899.250;    0.000;    0.000
697.067; 2933.250;    0.000;    0.000
697.174; 2904.250;    0.000;    0.000
697.282; 2891.250;    0.000;    0.000
697.390; 2908.250;    0.000;    0.000
697.498; 2873.250;    0.000;    0.000
697.606; 2856.250;    0.000;    0.000
697.714; 2932.250;    0.000;    0.000
697.822; 2959.250;    0.000;    0.000
697.929; 2870.250;    0.000;    0.000
698.037; 2892.250;    0.000;    0.000
698.145; 2868.250;    0.000;    0.000
698.253; 2832.250;    0.000;    0.000
698.360; 2903.250;    0.000;    0.000
698.468; 2799.250;    0.000;    0.000
698.576; 2890.250;    0.000;    0.000
698.683; 3038.250;    0.000;    0.000
698.791; 2888.250;    0.000;    0.000
698.899; 2859.250;    0.000;    0.000
699.006; 2897.250;    0.000;    0.000
699.114; 2847.250;    0.000;    0.000
699.221; 2929.250;    0.000;    0.000
699.329; 2888.250;    0.000;    0.000
699.436; 2921.250;    0.000;    0.000
699.544; 2838.250;    0.000;    0.000
699.651; 2963.250;    0.000;    0.000
699.759; 2946.250;    0.000;    0.000
699.866; 2942.250;    0.000;    0.000
699.974; 2804.250;    0.000;    0.000
700.081; 2875.250;    0.000;    0.000
700.188; 2877.250;    0.000;    0.000
700.296; 2913.250;    0.000;    0.000
700.403; 2915.250;    0.000;    0.000
700.510; 2840.250;    0.000;    0.000
700.618; 2913.250;    0.000;    0.000
700.725; 2884.250;    0.000;    0.000
700.832; 2876.250;    0.000;    0.000
700.940; 2973.250;    0.000;    0.000
701.047; 2874.250;    0.000;    0.000
701.154; 2856.250;    0.000;    0.000
701.261; 2934.250;    0.000;    0.000
701.368; 2904.250;    0.000;    0.000
701.475; 2928.250;    0.000;    0.000
701.582; 2961.250;    0.000;    0.000
701.690; 2854.250;    0.000;    0.000
701.797; 2901.250;    0.000;    0.000
701.904; 3004.250;    0.000;    0.000
702.011; 2920.250;    0.000;    0.000
702.118; 2952.250;    0.000;    0.000
702.225; 2899.250;    0.000;    0.000
702.332; 2896.250;    0.000;    0.000
702.439; 2846.250;    0.000;    0.000
702.546; 2968.250;    0.000;    0.000
702.652; 2890.250;    0.000;    0.000
702.759; 2923.250;    0.000;    0.000
702.866; 2810.250;    0.000;    0.000
702.973; 2887.250;    0.000;    0.000
703.080; 2872.250;    0.000;    0.000
703.187; 2979.250;    0.000;    0.000
703.294; 3015.250;    0.000;    0.000
703.400; 2761.250;    0.000;    0.000
703.507;  619.250;    0.000;    0.000
703.614;  344.250;    0.000;    0.000
703.720;  349.250;    0.000;    0.000
703.827;  351.250;    0.000;    0.000
703.934;  344.250;    0.000;    0.000
704.040;  313.250;    0.000;    0.000
704.147;  334.250;    0.000;    0.000
704.254;  354.250;    0.000;    0.000
704.360;  333.250;    0.000;    0.000
704.467;  322.250;    0.000;    0.000
704.573;  360.250;    0.000;    0.000
704.680;  311.250;    0.000;    0.000
704.786;  297.250;    0.000;    0.000
704.893;  352.250;    0.000;    0.000
704.999;  285.250;    0.000;    0.000
705.106;  362.250;    0.000;    0.000

