
Integration time [ms]:   1.000
Averaging Nr. [scans]: 1
Smoothing Nr. [pixels]: 0
Data measured with spectrometer [name]: VIS
Wave   ;Sample   ;Dark     ;Reference
[nm]   ;[counts] ;[counts] ;[counts] 

450.961;  207.325;    0.000;    0.000
451.100;  204.325;    0.000;    0.000
451.239;  236.325;    0.000;    0.000
451.377;  238.325;    0.000;    0.000
451.516;  208.325;    0.000;    0.000
451.655;  224.325;    0.000;    0.000
451.794;  225.325;    0.000;    0.000
451.932;  189.325;    0.000;    0.000
452.071;  204.325;    0.000;    0.000
452.210;  223.325;    0.000;    0.000
452.348;  215.325;    0.000;    0.000
452.487;  231.325;    0.000;    0.000
452.626;  205.325;    0.000;    0.000
452.764;  243.325;    0.000;    0.000
452.903;  208.325;    0.000;    0.000
453.042;  302.325;    0.000;    0.000
453.180; 4446.325;    0.000;    0.000
453.319; 4525.325;    0.000;    0.000
453.458; 4492.325;    0.000;    0.000
453.596; 4489.325;    0.000;    0.000
453.735; 4606.325;    0.000;    0.000
453.873; 4604.325;    0.000;    0.000
454.012; 4641.325;    0.000;    0.000
454.150; 4671.325;    0.000;    0.000
454.289; 4739.325;    0.000;    0.000
454.427; 4748.325;    0.000;    0.000
454.566; 4817.325;    0.000;    0.000
454.704; 4885.325;    0.000;    0.000
454.843; 4966.325;    0.000;    0.000
454.981; 4944.325;    0.000;    0.000
455.120; 4969.325;    0.000;    0.000
455.258; 5059.325;    0.000;    0.000
455.397; 5151.325;    0.000;    0.000
455.535; 5046.325;    0.000;    0.000
455.674; 5147.325;    0.000;    0.000
455.812; 5213.325;    0.000;    0.000
455.951; 5238.325;    0.000;    0.000
456.089; 5374.325;    0.000;    0.000
456.227; 5300.325;    0.000;    0.000
456.366; 5340.325;    0.000;    0.000
456.504; 5423.325;    0.000;    0.000
456.642; 5526.325;    0.000;    0.000
456.781; 5350.325;    0.000;    0.000
456.919; 5429.325;    0.000;    0.000
457.057; 5185.325;    0.000;    0.000
457.196; 5388.325;    0.000;    0.000
457.334; 5406.325;    0.000;    0.000
457.472; 5388.325;    0.000;    0.000
457.610; 5571.325;    0.000;    0.000
457.749; 5515.325;    0.000;    0.000
457.887; 5807.325;    0.000;    0.000
458.025; 5860.325;    0.000;    0.000
458.163; 6029.325;    0.000;    0.000
458.301; 6088.325;    0.000;    0.000
458.440; 6058.325;    0.000;    0.000
458.578; 6186.325;    0.000;    0.000
458.716; 6137.325;    0.000;    0.000
458.854; 6347.325;    0.000;    0.000
458.992; 6221.325;    0.000;    0.000
459.130; 6464.325;    0.000;    0.000
459.269; 6320.325;    0.000;    0.000
459.407; 6575.325;    0.000;    0.000
459.545; 6256.325;    0.000;    0.000
459.683; 6591.325;    0.000;    0.000
459.821; 6615.325;    0.000;    0.000
459.959; 6615.325;    0.000;    0.000
460.097; 6770.325;    0.000;    0.000
460.235; 6775.325;    0.000;    0.000
460.373; 6974.325;    0.000;    0.000
460.511; 6884.325;    0.000;    0.000
460.649; 7014.325;    0.000;    0.000
460.787; 6904.325;    0.000;    0.000
460.925; 6934.325;    0.000;    0.000
461.063; 7126.325;    0.000;    0.000
461.201; 6795.325;    0.000;    0.000
461.339; 7046.325;    0.000;    0.000
461.477; 7019.325;    0.000;    0.000
461.615; 7238.325;    0.000;    0.000
461.753; 7164.325;    0.000;    0.000
461.891; 7268.325;    0.000;    0.000
462.029; 7410.325;    0.000;    0.000
462.166; 7400.325;    0.000;    0.000
462.304; 7458.325;    0.000;    0.000
462.442; 7547.325;    0.000;    0.000
462.580; 7753.325;    0.000;    0.000
462.718; 7714.325;    0.000;    0.000
462.856; 7701.325;    0.000;    0.000
462.993; 7538.325;    0.000;    0.000
463.131; 7620.325;    0.000;    0.000
463.269; 7693.325;    0.000;    0.000
463.407; 7748.325;    0.000;    0.000
463.545; 7639.325;    0.000;    0.000
463.682; 7676.325;    0.000;    0.000
463.820; 7695.325;    0.000;    0.000
463.958; 7895.325;    0.000;    0.000
464.095; 8057.325;    0.000;    0.000
464.233; 8034.325;    0.000;    0.000
464.371; 7989.325;    0.000;    0.000
464.509; 7924.325;    0.000;    0.000
464.646; 7916.325;    0.000;    0.000
464.784; 7959.325;    0.000;    0.000
464.921; 7930.325;    0.000;    0.000
465.059; 7869.325;    0.000;    0.000
465.197; 7821.325;    0.000;    0.000
465.334; 7651.325;    0.000;    0.000
465.472; 7608.325;    0.000;    0.000
465.609; 7732.325;    0.000;    0.000
465.747; 7541.325;    0.000;    0.000
465.885; 7511.325;    0.000;    0.000
466.022; 7602.325;    0.000;    0.000
466.160; 7491.325;    0.000;    0.000
466.297; 7465.325;    0.000;    0.000
466.435; 7563.325;    0.000;    0.000
466.572; 7530.325;    0.000;    0.000
466.710; 7480.325;    0.000;    0.000
466.847; 7602.325;    0.000;    0.000
466.985; 7385.325;    0.000;    0.000
467.122; 7428.325;    0.000;    0.000
467.260; 7388.325;    0.000;    0.000
467.397; 7455.325;    0.000;    0.000
467.534; 7384.325;    0.000;    0.000
467.672; 7327.325;    0.000;    0.000
467.809; 7459.325;    0.000;    0.000
467.947; 7455.325;    0.000;    0.000
468.084; 7516.325;    0.000;    0.000
468.221; 7511.325;    0.000;    0.000
468.359; 7348.325;    0.000;    0.000
468.496; 7424.325;    0.000;    0.000
468.633; 7280.325;    0.000;    0.000
468.771; 7431.325;    0.000;    0.000
468.908; 7438.325;    0.000;    0.000
469.045; 7535.325;    0.000;    0.000
469.183; 7291.325;    0.000;    0.000
469.320; 7503.325;    0.000;    0.000
469.457; 7476.325;    0.000;    0.000
469.594; 7580.325;    0.000;    0.000
469.732; 7688.325;    0.000;    0.000
469.869; 7604.325;    0.000;    0.000
470.006; 7706.325;    0.000;    0.000
470.143; 7677.325;    0.000;    0.000
470.280; 7779.325;    0.000;    0.000
470.417; 7807.325;    0.000;    0.000
470.555; 7821.325;    0.000;    0.000
470.692; 7610.325;    0.000;    0.000
470.829; 7769.325;    0.000;    0.000
470.966; 7802.325;    0.000;    0.000
471.103; 7758.325;    0.000;    0.000
471.240; 7769.325;    0.000;    0.000
471.377; 7790.325;    0.000;    0.000
471.514; 7793.325;    0.000;    0.000
471.651; 7594.325;    0.000;    0.000
471.789; 7542.325;    0.000;    0.000
471.926; 7639.325;    0.000;    0.000
472.063; 7602.325;    0.000;    0.000
472.200; 7581.325;    0.000;    0.000
472.337; 7536.325;    0.000;    0.000
472.474; 7482.325;    0.000;    0.000
472.611; 7522.325;    0.000;    0.000
472.748; 7538.325;    0.000;    0.000
472.884; 7529.325;    0.000;    0.000
473.021; 7491.325;    0.000;    0.000
473.158; 7552.325;    0.000;    0.000
473.295; 7538.325;    0.000;    0.000
473.432; 7432.325;    0.000;    0.000
473.569; 7533.325;    0.000;    0.000
473.706; 7424.325;    0.000;    0.000
473.843; 7567.325;    0.000;    0.000
473.980; 7510.325;    0.000;    0.000
474.117; 7437.325;    0.000;    0.000
474.253; 7377.325;    0.000;    0.000
474.390; 7489.325;    0.000;    0.000
474.527; 7518.325;    0.000;    0.000
474.664; 7418.325;    0.000;    0.000
474.801; 7561.325;    0.000;    0.000
474.937; 7535.325;    0.000;    0.000
475.074; 7581.325;    0.000;    0.000
475.211; 7598.325;    0.000;    0.000
475.348; 7710.325;    0.000;    0.000
475.484; 7485.325;    0.000;    0.000
475.621; 7646.325;    0.000;    0.000
475.758; 7671.325;    0.000;    0.000
475.894; 7658.325;    0.000;    0.000
476.031; 7632.325;    0.000;    0.000
476.168; 7547.325;    0.000;    0.000
476.304; 7582.325;    0.000;    0.000
476.441; 7786.325;    0.000;    0.000
476.578; 7536.325;    0.000;    0.000
476.714; 7519.325;    0.000;    0.000
476.851; 7730.325;    0.000;    0.000
476.987; 7906.325;    0.000;    0.000
477.124; 7816.325;    0.000;    0.000
477.261; 7851.325;    0.000;    0.000
477.397; 7726.325;    0.000;    0.000
477.534; 7954.325;    0.000;    0.000
477.670; 7834.325;    0.000;    0.000
477.807; 7873.325;    0.000;    0.000
477.943; 8056.325;    0.000;    0.000
478.080; 8002.325;    0.000;    0.000
478.216; 8062.325;    0.000;    0.000
478.353; 8064.325;    0.000;    0.000
478.489; 8189.325;    0.000;    0.000
478.626; 8129.325;    0.000;    0.000
478.762; 8304.325;    0.000;    0.000
478.898; 8330.325;    0.000;    0.000
479.035; 8247.325;    0.000;    0.000
479.171; 8229.325;    0.000;    0.000
479.308; 8089.325;    0.000;    0.000
479.444; 8135.325;    0.000;    0.000
479.580; 8146.325;    0.000;    0.000
479.717; 8192.325;    0.000;    0.000
479.853; 8181.325;    0.000;    0.000
479.989; 8251.325;    0.000;    0.000
480.126; 8414.325;    0.000;    0.000
480.262; 8352.325;    0.000;    0.000
480.398; 8301.325;    0.000;    0.000
480.535; 8283.325;    0.000;    0.000
480.671; 8344.325;    0.000;    0.000
480.807; 8242.325;    0.000;    0.000
480.943; 8239.325;    0.000;    0.000
481.080; 8229.325;    0.000;    0.000
481.216; 8294.325;    0.000;    0.000
481.352; 8193.325;    0.000;    0.000
481.488; 8318.325;    0.000;    0.000
481.624; 8250.325;    0.000;    0.000
481.760; 8205.325;    0.000;    0.000
481.897; 8086.325;    0.000;    0.000
482.033; 7975.325;    0.000;    0.000
482.169; 8196.325;    0.000;    0.000
482.305; 8178.325;    0.000;    0.000
482.441; 8169.325;    0.000;    0.000
482.577; 8194.325;    0.000;    0.000
482.713; 8212.325;    0.000;    0.000
482.849; 8071.325;    0.000;    0.000
482.985; 8024.325;    0.000;    0.000
483.121; 8195.325;    0.000;    0.000
483.258; 8144.325;    0.000;    0.000
483.394; 8063.325;    0.000;    0.000
483.530; 8040.325;    0.000;    0.000
483.665; 8157.325;    0.000;    0.000
483.801; 8050.325;    0.000;    0.000
483.937; 8113.325;    0.000;    0.000
484.073; 8104.325;    0.000;    0.000
484.209; 8245.325;    0.000;    0.000
484.345; 8279.325;    0.000;    0.000
484.481; 8218.325;    0.000;    0.000
484.617; 8229.325;    0.000;    0.000
484.753; 8181.325;    0.000;    0.000
484.889; 8173.325;    0.000;    0.000
485.025; 8168.325;    0.000;    0.000
485.161; 8176.325;    0.000;    0.000
485.296; 8261.325;    0.000;    0.000
485.432; 8311.325;    0.000;    0.000
485.568; 8323.325;    0.000;    0.000
485.704; 8119.325;    0.000;    0.000
485.840; 8143.325;    0.000;    0.000
485.975; 8211.325;    0.000;    0.000
486.111; 8318.325;    0.000;    0.000
486.247; 8262.325;    0.000;    0.000
486.383; 8230.325;    0.000;    0.000
486.518; 8266.325;    0.000;    0.000
486.654; 8276.325;    0.000;    0.000
486.790; 8012.325;    0.000;    0.000
486.926; 8180.325;    0.000;    0.000
487.061; 8312.325;    0.000;    0.000
487.197; 8330.325;    0.000;    0.000
487.333; 8315.325;    0.000;    0.000
487.468; 8291.325;    0.000;    0.000
487.604; 8233.325;    0.000;    0.000
487.740; 8299.325;    0.000;    0.000
487.875; 8354.325;    0.000;    0.000
488.011; 8364.325;    0.000;    0.000
488.146; 8232.325;    0.000;    0.000
488.282; 8301.325;    0.000;    0.000
488.417; 8246.325;    0.000;    0.000
488.553; 8322.325;    0.000;    0.000
488.688; 8291.325;    0.000;    0.000
488.824; 8377.325;    0.000;    0.000
488.960; 8417.325;    0.000;    0.000
489.095; 8412.325;    0.000;    0.000
489.230; 8356.325;    0.000;    0.000
489.366; 8300.325;    0.000;    0.000
489.501; 8289.325;    0.000;    0.000
489.637; 8491.325;    0.000;    0.000
489.772; 8503.325;    0.000;    0.000
489.908; 8483.325;    0.000;    0.000
490.043; 8389.325;    0.000;    0.000
490.178; 8507.325;    0.000;    0.000
490.314; 8342.325;    0.000;    0.000
490.449; 8454.325;    0.000;    0.000
490.585; 8494.325;    0.000;    0.000
490.720; 8361.325;    0.000;    0.000
490.855; 8240.325;    0.000;    0.000
490.991; 8540.325;    0.000;    0.000
491.126; 8546.325;    0.000;    0.000
491.261; 8406.325;    0.000;    0.000
491.396; 8439.325;    0.000;    0.000
491.532; 8471.325;    0.000;    0.000
491.667; 8527.325;    0.000;    0.000
491.802; 8450.325;    0.000;    0.000
491.937; 8566.325;    0.000;    0.000
492.073; 8582.325;    0.000;    0.000
492.208; 8568.325;    0.000;    0.000
492.343; 8716.325;    0.000;    0.000
492.478; 8864.325;    0.000;    0.000
492.613; 8582.325;    0.000;    0.000
492.749; 8614.325;    0.000;    0.000
492.884; 8547.325;    0.000;    0.000
493.019; 8611.325;    0.000;    0.000
493.154; 8529.325;    0.000;    0.000
493.289; 8488.325;    0.000;    0.000
493.424; 8490.325;    0.000;    0.000
493.559; 8588.325;    0.000;    0.000
493.694; 8518.325;    0.000;    0.000
493.829; 8539.325;    0.000;    0.000
493.964; 8763.325;    0.000;    0.000
494.099; 8570.325;    0.000;    0.000
494.234; 8499.325;    0.000;    0.000
494.369; 8682.325;    0.000;    0.000
494.504; 8536.325;    0.000;    0.000
494.639; 8536.325;    0.000;    0.000
494.774; 8620.325;    0.000;    0.000
494.909; 8528.325;    0.000;    0.000
495.044; 8512.325;    0.000;    0.000
495.179; 8495.325;    0.000;    0.000
495.314; 8631.325;    0.000;    0.000
495.449; 8555.325;    0.000;    0.000
495.584; 8711.325;    0.000;    0.000
495.719; 8639.325;    0.000;    0.000
495.854; 8810.325;    0.000;    0.000
495.988; 8700.325;    0.000;    0.000
496.123; 8738.325;    0.000;    0.000
496.258; 8766.325;    0.000;    0.000
496.393; 8776.325;    0.000;    0.000
496.528; 8868.325;    0.000;    0.000
496.663; 8871.325;    0.000;    0.000
496.797; 8916.325;    0.000;    0.000
496.932; 8982.325;    0.000;    0.000
497.067; 9173.325;    0.000;    0.000
497.202; 9141.325;    0.000;    0.000
497.336; 9292.325;    0.000;    0.000
497.471; 9395.325;    0.000;    0.000
497.606; 9570.325;    0.000;    0.000
497.740; 9619.325;    0.000;    0.000
497.875; 9909.325;    0.000;    0.000
498.010;10041.325;    0.000;    0.000
498.144;10122.325;    0.000;    0.000
498.279;10402.325;    0.000;    0.000
498.414;10486.325;    0.000;    0.000
498.548;10377.325;    0.000;    0.000
498.683;10285.325;    0.000;    0.000
498.817;10508.325;    0.000;    0.000
498.952;10714.325;    0.000;    0.000
499.087;10732.325;    0.000;    0.000
499.221;10949.325;    0.000;    0.000
499.356;10877.325;    0.000;    0.000
499.490;11319.325;    0.000;    0.000
499.625;11200.325;    0.000;    0.000
499.759;11657.325;    0.000;    0.000
499.894;11695.325;    0.000;    0.000
500.028;11751.325;    0.000;    0.000
500.162;12140.325;    0.000;    0.000
500.297;12155.325;    0.000;    0.000
500.431;12095.325;    0.000;    0.000
500.566;12238.325;    0.000;    0.000
500.700;11934.325;    0.000;    0.000
500.835;11751.325;    0.000;    0.000
500.969;11718.325;    0.000;    0.000
501.103;11668.325;    0.000;    0.000
501.238;11418.325;    0.000;    0.000
501.372;11174.325;    0.000;    0.000
501.506;10966.325;    0.000;    0.000
501.641;10726.325;    0.000;    0.000
501.775;10603.325;    0.000;    0.000
501.909;10274.325;    0.000;    0.000
502.043;10004.325;    0.000;    0.000
502.178;10012.325;    0.000;    0.000
502.312;10026.325;    0.000;    0.000
502.446; 9742.325;    0.000;    0.000
502.580; 9380.325;    0.000;    0.000
502.715; 9697.325;    0.000;    0.000
502.849; 9289.325;    0.000;    0.000
502.983; 9414.325;    0.000;    0.000
503.117; 9276.325;    0.000;    0.000
503.251; 9293.325;    0.000;    0.000
503.385; 9129.325;    0.000;    0.000
503.520; 9039.325;    0.000;    0.000
503.654; 8752.325;    0.000;    0.000
503.788; 8753.325;    0.000;    0.000
503.922; 8789.325;    0.000;    0.000
504.056; 8663.325;    0.000;    0.000
504.190; 8428.325;    0.000;    0.000
504.324; 8549.325;    0.000;    0.000
504.458; 8303.325;    0.000;    0.000
504.592; 8281.325;    0.000;    0.000
504.726; 8148.325;    0.000;    0.000
504.860; 8129.325;    0.000;    0.000
504.994; 8227.325;    0.000;    0.000
505.128; 8114.325;    0.000;    0.000
505.262; 8005.325;    0.000;    0.000
505.396; 7755.325;    0.000;    0.000
505.530; 7765.325;    0.000;    0.000
505.664; 7610.325;    0.000;    0.000
505.798; 7678.325;    0.000;    0.000
505.932; 7599.325;    0.000;    0.000
506.066; 7432.325;    0.000;    0.000
506.199; 7501.325;    0.000;    0.000
506.333; 7478.325;    0.000;    0.000
506.467; 7342.325;    0.000;    0.000
506.601; 7372.325;    0.000;    0.000
506.735; 7225.325;    0.000;    0.000
506.869; 7079.325;    0.000;    0.000
507.002; 7162.325;    0.000;    0.000
507.136; 7224.325;    0.000;    0.000
507.270; 7061.325;    0.000;    0.000
507.404; 7025.325;    0.000;    0.000
507.537; 7008.325;    0.000;    0.000
507.671; 6984.325;    0.000;    0.000
507.805; 7055.325;    0.000;    0.000
507.939; 6947.325;    0.000;    0.000
508.072; 7187.325;    0.000;    0.000
508.206; 6981.325;    0.000;    0.000
508.340; 7021.325;    0.000;    0.000
508.473; 6742.325;    0.000;    0.000
508.607; 6850.325;    0.000;    0.000
508.740; 6772.325;    0.000;    0.000
508.874; 6883.325;    0.000;    0.000
509.008; 6759.325;    0.000;    0.000
509.141; 6678.325;    0.000;    0.000
509.275; 6848.325;    0.000;    0.000
509.408; 6731.325;    0.000;    0.000
509.542; 6708.325;    0.000;    0.000
509.675; 6818.325;    0.000;    0.000
509.809; 6672.325;    0.000;    0.000
509.942; 6723.325;    0.000;    0.000
510.076; 6644.325;    0.000;    0.000
510.209; 6635.325;    0.000;    0.000
510.343; 6642.325;    0.000;    0.000
510.476; 6605.325;    0.000;    0.000
510.610; 6724.325;    0.000;    0.000
510.743; 6615.325;    0.000;    0.000
510.877; 6586.325;    0.000;    0.000
511.010; 6598.325;    0.000;    0.000
511.143; 6555.325;    0.000;    0.000
511.277; 6499.325;    0.000;    0.000
511.410; 6444.325;    0.000;    0.000
511.543; 6514.325;    0.000;    0.000
511.677; 6412.325;    0.000;    0.000
511.810; 6408.325;    0.000;    0.000
511.943; 6452.325;    0.000;    0.000
512.077; 6439.325;    0.000;    0.000
512.210; 6382.325;    0.000;    0.000
512.343; 6325.325;    0.000;    0.000
512.476; 6439.325;    0.000;    0.000
512.610; 6515.325;    0.000;    0.000
512.743; 6446.325;    0.000;    0.000
512.876; 6530.325;    0.000;    0.000
513.009; 6427.325;    0.000;    0.000
513.142; 6522.325;    0.000;    0.000
513.276; 6364.325;    0.000;    0.000
513.409; 6356.325;    0.000;    0.000
513.542; 6462.325;    0.000;    0.000
513.675; 6484.325;    0.000;    0.000
513.808; 6366.325;    0.000;    0.000
513.941; 6383.325;    0.000;    0.000
514.074; 6477.325;    0.000;    0.000
514.207; 6452.325;    0.000;    0.000
514.340; 6411.325;    0.000;    0.000
514.474; 6448.325;    0.000;    0.000
514.607; 6634.325;    0.000;    0.000
514.740; 6525.325;    0.000;    0.000
514.873; 6547.325;    0.000;    0.000
515.006; 6610.325;    0.000;    0.000
515.139; 6759.325;    0.000;    0.000
515.272; 6612.325;    0.000;    0.000
515.404; 6805.325;    0.000;    0.000
515.537; 6840.325;    0.000;    0.000
515.670; 6830.325;    0.000;    0.000
515.803; 6888.325;    0.000;    0.000
515.936; 6921.325;    0.000;    0.000
516.069; 6849.325;    0.000;    0.000
516.202; 6979.325;    0.000;    0.000
516.335; 7114.325;    0.000;    0.000
516.468; 7509.325;    0.000;    0.000
516.600; 8701.325;    0.000;    0.000
516.733;10551.325;    0.000;    0.000
516.866;10616.325;    0.000;    0.000
516.999; 9892.325;    0.000;    0.000
517.132;11831.325;    0.000;    0.000
517.264;16545.324;    0.000;    0.000
517.397;16352.325;    0.000;    0.000
517.530;12331.325;    0.000;    0.000
517.663;10563.325;    0.000;    0.000
517.795; 9742.325;    0.000;    0.000
517.928; 9337.325;    0.000;    0.000
518.061; 9587.325;    0.000;    0.000
518.193;12486.325;    0.000;    0.000
518.326;19350.324;    0.000;    0.000
518.459;21142.324;    0.000;    0.000
518.591;15751.325;    0.000;    0.000
518.724;12136.325;    0.000;    0.000
518.857;10440.325;    0.000;    0.000
518.989; 9566.325;    0.000;    0.000
519.122; 8934.325;    0.000;    0.000
519.254; 8638.325;    0.000;    0.000
519.387; 7989.325;    0.000;    0.000
519.519; 7735.325;    0.000;    0.000
519.652; 7760.325;    0.000;    0.000
519.784; 7240.325;    0.000;    0.000
519.917; 7260.325;    0.000;    0.000
520.049; 7057.325;    0.000;    0.000
520.182; 6896.325;    0.000;    0.000
520.314; 6881.325;    0.000;    0.000
520.447; 6829.325;    0.000;    0.000
520.579; 6623.325;    0.000;    0.000
520.712; 6639.325;    0.000;    0.000
520.844; 6831.325;    0.000;    0.000
520.976; 6413.325;    0.000;    0.000
521.109; 6441.325;    0.000;    0.000
521.241; 6334.325;    0.000;    0.000
521.373; 6252.325;    0.000;    0.000
521.506; 6316.325;    0.000;    0.000
521.638; 6219.325;    0.000;    0.000
521.770; 6203.325;    0.000;    0.000
521.903; 6092.325;    0.000;    0.000
522.035; 6095.325;    0.000;    0.000
522.167; 6163.325;    0.000;    0.000
522.300; 5990.325;    0.000;    0.000
522.432; 5956.325;    0.000;    0.000
522.564; 5991.325;    0.000;    0.000
522.696; 6004.325;    0.000;    0.000
522.828; 5886.325;    0.000;    0.000
522.961; 5992.325;    0.000;    0.000
523.093; 5893.325;    0.000;    0.000
523.225; 5860.325;    0.000;    0.000
523.357; 5893.325;    0.000;    0.000
523.489; 6006.325;    0.000;    0.000
523.621; 5799.325;    0.000;    0.000
523.753; 5827.325;    0.000;    0.000
523.885; 5763.325;    0.000;    0.000
524.018; 5715.325;    0.000;    0.000
524.150; 5732.325;    0.000;    0.000
524.282; 5680.325;    0.000;    0.000
524.414; 5628.325;    0.000;    0.000
524.546; 5720.325;    0.000;    0.000
524.678; 5678.325;    0.000;    0.000
524.810; 5605.325;    0.000;    0.000
524.942; 5521.325;    0.000;    0.000
525.074; 5505.325;    0.000;    0.000
525.206; 5451.325;    0.000;    0.000
525.338; 5370.325;    0.000;    0.000
525.469; 5345.325;    0.000;    0.000
525.601; 5575.325;    0.000;    0.000
525.733; 5523.325;    0.000;    0.000
525.865; 5426.325;    0.000;    0.000
525.997; 5504.325;    0.000;    0.000
526.129; 5395.325;    0.000;    0.000
526.261; 5320.325;    0.000;    0.000
526.393; 5502.325;    0.000;    0.000
526.524; 5270.325;    0.000;    0.000
526.656; 5423.325;    0.000;    0.000
526.788; 5380.325;    0.000;    0.000
526.920; 5349.325;    0.000;    0.000
527.052; 5486.325;    0.000;    0.000
527.183; 5242.325;    0.000;    0.000
527.315; 5394.325;    0.000;    0.000
527.447; 5397.325;    0.000;    0.000
527.578; 5371.325;    0.000;    0.000
527.710; 5408.325;    0.000;    0.000
527.842; 5308.325;    0.000;    0.000
527.973; 5358.325;    0.000;    0.000
528.105; 5411.325;    0.000;    0.000
528.237; 5346.325;    0.000;    0.000
528.368; 5297.325;    0.000;    0.000
528.500; 5281.325;    0.000;    0.000
528.632; 5336.325;    0.000;    0.000
528.763; 5378.325;    0.000;    0.000
528.895; 5278.325;    0.000;    0.000
529.026; 5205.325;    0.000;    0.000
529.158; 5195.325;    0.000;    0.000
529.289; 5219.325;    0.000;    0.000
529.421; 5308.325;    0.000;    0.000
529.552; 5282.325;    0.000;    0.000
529.684; 5263.325;    0.000;    0.000
529.815; 5430.325;    0.000;    0.000
529.947; 5204.325;    0.000;    0.000
530.078; 5271.325;    0.000;    0.000
530.210; 5282.325;    0.000;    0.000
530.341; 5178.325;    0.000;    0.000
530.472; 5172.325;    0.000;    0.000
530.604; 5315.325;    0.000;    0.000
530.735; 5296.325;    0.000;    0.000
530.867; 5276.325;    0.000;    0.000
530.998; 5422.325;    0.000;    0.000
531.129; 5315.325;    0.000;    0.000
531.260; 5374.325;    0.000;    0.000
531.392; 5323.325;    0.000;    0.000
531.523; 5339.325;    0.000;    0.000
531.654; 5402.325;    0.000;    0.000
531.786; 5510.325;    0.000;    0.000
531.917; 5456.325;    0.000;    0.000
532.048; 5384.325;    0.000;    0.000
532.179; 5296.325;    0.000;    0.000
532.311; 5300.325;    0.000;    0.000
532.442; 5440.325;    0.000;    0.000
532.573; 5445.325;    0.000;    0.000
532.704; 5415.325;    0.000;    0.000
532.835; 5343.325;    0.000;    0.000
532.966; 5325.325;    0.000;    0.000
533.097; 5249.325;    0.000;    0.000
533.229; 5267.325;    0.000;    0.000
533.360; 5222.325;    0.000;    0.000
533.491; 5272.325;    0.000;    0.000
533.622; 5355.325;    0.000;    0.000
533.753; 5317.325;    0.000;    0.000
533.884; 5204.325;    0.000;    0.000
534.015; 5382.325;    0.000;    0.000
534.146; 5259.325;    0.000;    0.000
534.277; 5388.325;    0.000;    0.000
534.408; 5201.325;    0.000;    0.000
534.539; 5285.325;    0.000;    0.000
534.670; 5216.325;    0.000;    0.000
534.801; 5282.325;    0.000;    0.000
534.932; 5287.325;    0.000;    0.000
535.063; 5299.325;    0.000;    0.000
535.194; 5281.325;    0.000;    0.000
535.324; 5205.325;    0.000;    0.000
535.455; 5244.325;    0.000;    0.000
535.586; 5274.325;    0.000;    0.000
535.717; 5194.325;    0.000;    0.000
535.848; 5385.325;    0.000;    0.000
535.979; 5303.325;    0.000;    0.000
536.109; 5193.325;    0.000;    0.000
536.240; 5118.325;    0.000;    0.000
536.371; 5284.325;    0.000;    0.000
536.502; 5205.325;    0.000;    0.000
536.632; 5182.325;    0.000;    0.000
536.763; 5121.325;    0.000;    0.000
536.894; 5176.325;    0.000;    0.000
537.025; 5007.325;    0.000;    0.000
537.155; 5097.325;    0.000;    0.000
537.286; 5162.325;    0.000;    0.000
537.417; 5263.325;    0.000;    0.000
537.547; 5249.325;    0.000;    0.000
537.678; 5038.325;    0.000;    0.000
537.808; 5183.325;    0.000;    0.000
537.939; 5066.325;    0.000;    0.000
538.070; 5126.325;    0.000;    0.000
538.200; 5191.325;    0.000;    0.000
538.331; 5146.325;    0.000;    0.000
538.461; 5238.325;    0.000;    0.000
538.592; 5118.325;    0.000;    0.000
538.722; 5188.325;    0.000;    0.000
538.853; 5004.325;    0.000;    0.000
538.983; 5062.325;    0.000;    0.000
539.114; 5102.325;    0.000;    0.000
539.244; 5162.325;    0.000;    0.000
539.375; 5165.325;    0.000;    0.000
539.505; 5189.325;    0.000;    0.000
539.636; 5012.325;    0.000;    0.000
539.766; 5200.325;    0.000;    0.000
539.896; 5148.325;    0.000;    0.000
540.027; 5209.325;    0.000;    0.000
540.157; 5115.325;    0.000;    0.000
540.287; 5149.325;    0.000;    0.000
540.418; 5193.325;    0.000;    0.000
540.548; 5133.325;    0.000;    0.000
540.678; 5193.325;    0.000;    0.000
540.809; 5118.325;    0.000;    0.000
540.939; 5249.325;    0.000;    0.000
541.069; 5253.325;    0.000;    0.000
541.200; 5125.325;    0.000;    0.000
541.330; 5225.325;    0.000;    0.000
541.460; 5312.325;    0.000;    0.000
541.590; 5363.325;    0.000;    0.000
541.720; 5203.325;    0.000;    0.000
541.851; 5225.325;    0.000;    0.000
541.981; 5215.325;    0.000;    0.000
542.111; 5419.325;    0.000;    0.000
542.241; 5418.325;    0.000;    0.000
542.371; 5430.325;    0.000;    0.000
542.501; 5487.325;    0.000;    0.000
542.631; 5512.325;    0.000;    0.000
542.761; 5540.325;    0.000;    0.000
542.891; 5476.325;    0.000;    0.000
543.021; 5518.325;    0.000;    0.000
543.151; 5556.325;    0.000;    0.000
543.281; 5517.325;    0.000;    0.000
543.411; 5371.325;    0.000;    0.000
543.542; 5385.325;    0.000;    0.000
543.671; 5458.325;    0.000;    0.000
543.801; 5489.325;    0.000;    0.000
543.931; 5449.325;    0.000;    0.000
544.061; 5398.325;    0.000;    0.000
544.191; 5425.325;    0.000;    0.000
544.321; 5568.325;    0.000;    0.000
544.451; 5491.325;    0.000;    0.000
544.581; 5575.325;    0.000;    0.000
544.711; 5680.325;    0.000;    0.000
544.841; 5545.325;    0.000;    0.000
544.970; 5629.325;    0.000;    0.000
545.100; 5594.325;    0.000;    0.000
545.230; 5684.325;    0.000;    0.000
545.360; 5633.325;    0.000;    0.000
545.490; 5587.325;    0.000;    0.000
545.619; 5547.325;    0.000;    0.000
545.749; 5530.325;    0.000;    0.000
545.879; 5511.325;    0.000;    0.000
546.009; 5593.325;    0.000;    0.000
546.138; 5412.325;    0.000;    0.000
546.268; 5516.325;    0.000;    0.000
546.398; 5580.325;    0.000;    0.000
546.527; 5462.325;    0.000;    0.000
546.657; 5467.325;    0.000;    0.000
546.786; 5437.325;    0.000;    0.000
546.916; 5333.325;    0.000;    0.000
547.046; 5477.325;    0.000;    0.000
547.175; 5436.325;    0.000;    0.000
547.305; 5444.325;    0.000;    0.000
547.434; 5471.325;    0.000;    0.000
547.564; 5377.325;    0.000;    0.000
547.693; 5431.325;    0.000;    0.000
547.823; 5367.325;    0.000;    0.000
547.953; 5431.325;    0.000;    0.000
548.082; 5388.325;    0.000;    0.000
548.211; 5357.325;    0.000;    0.000
548.341; 5352.325;    0.000;    0.000
548.470; 5386.325;    0.000;    0.000
548.600; 5474.325;    0.000;    0.000
548.729; 5437.325;    0.000;    0.000
548.859; 5303.325;    0.000;    0.000
548.988; 5419.325;    0.000;    0.000
549.117; 5418.325;    0.000;    0.000
549.247; 5396.325;    0.000;    0.000
549.376; 5399.325;    0.000;    0.000
549.505; 5550.325;    0.000;    0.000
549.635; 5452.325;    0.000;    0.000
549.764; 5442.325;    0.000;    0.000
549.893; 5535.325;    0.000;    0.000
550.023; 5580.325;    0.000;    0.000
550.152; 5544.325;    0.000;    0.000
550.281; 5487.325;    0.000;    0.000
550.410; 5664.325;    0.000;    0.000
550.539; 5634.325;    0.000;    0.000
550.669; 5629.325;    0.000;    0.000
550.798; 5643.325;    0.000;    0.000
550.927; 5654.325;    0.000;    0.000
551.056; 5551.325;    0.000;    0.000
551.185; 5490.325;    0.000;    0.000
551.314; 5587.325;    0.000;    0.000
551.443; 5666.325;    0.000;    0.000
551.573; 5716.325;    0.000;    0.000
551.702; 5592.325;    0.000;    0.000
551.831; 5660.325;    0.000;    0.000
551.960; 5582.325;    0.000;    0.000
552.089; 5610.325;    0.000;    0.000
552.218; 5653.325;    0.000;    0.000
552.347; 5701.325;    0.000;    0.000
552.476; 5629.325;    0.000;    0.000
552.605; 5848.325;    0.000;    0.000
552.734; 5856.325;    0.000;    0.000
552.863; 6001.325;    0.000;    0.000
552.992; 6103.325;    0.000;    0.000
553.121; 5893.325;    0.000;    0.000
553.249; 5953.325;    0.000;    0.000
553.378; 5723.325;    0.000;    0.000
553.507; 5771.325;    0.000;    0.000
553.636; 5726.325;    0.000;    0.000
553.765; 5709.325;    0.000;    0.000
553.894; 5851.325;    0.000;    0.000
554.023; 5900.325;    0.000;    0.000
554.151; 5860.325;    0.000;    0.000
554.280; 5724.325;    0.000;    0.000
554.409; 5691.325;    0.000;    0.000
554.538; 5686.325;    0.000;    0.000
554.666; 5787.325;    0.000;    0.000
554.795; 5591.325;    0.000;    0.000
554.924; 5719.325;    0.000;    0.000
555.052; 5772.325;    0.000;    0.000
555.181; 5762.325;    0.000;    0.000
555.310; 5678.325;    0.000;    0.000
555.439; 5732.325;    0.000;    0.000
555.567; 5652.325;    0.000;    0.000
555.696; 5693.325;    0.000;    0.000
555.824; 5646.325;    0.000;    0.000
555.953; 5560.325;    0.000;    0.000
556.082; 5661.325;    0.000;    0.000
556.210; 5593.325;    0.000;    0.000
556.339; 5591.325;    0.000;    0.000
556.467; 5594.325;    0.000;    0.000
556.596; 5635.325;    0.000;    0.000
556.724; 5661.325;    0.000;    0.000
556.853; 5583.325;    0.000;    0.000
556.981; 5608.325;    0.000;    0.000
557.110; 5510.325;    0.000;    0.000
557.238; 5542.325;    0.000;    0.000
557.367; 5627.325;    0.000;    0.000
557.495; 5638.325;    0.000;    0.000
557.623; 5517.325;    0.000;    0.000
557.752; 5528.325;    0.000;    0.000
557.880; 5554.325;    0.000;    0.000
558.008; 5580.325;    0.000;    0.000
558.137; 5656.325;    0.000;    0.000
558.265; 5537.325;    0.000;    0.000
558.393; 5731.325;    0.000;    0.000
558.522; 5530.325;    0.000;    0.000
558.650; 5751.325;    0.000;    0.000
558.778; 5565.325;    0.000;    0.000
558.906; 5649.325;    0.000;    0.000
559.035; 5670.325;    0.000;    0.000
559.163; 5670.325;    0.000;    0.000
559.291; 5570.325;    0.000;    0.000
559.419; 5771.325;    0.000;    0.000
559.548; 5659.325;    0.000;    0.000
559.676; 5708.325;    0.000;    0.000
559.804; 5774.325;    0.000;    0.000
559.932; 5814.325;    0.000;    0.000
560.060; 5772.325;    0.000;    0.000
560.188; 5762.325;    0.000;    0.000
560.316; 5845.325;    0.000;    0.000
560.444; 5702.325;    0.000;    0.000
560.572; 5886.325;    0.000;    0.000
560.700; 5837.325;    0.000;    0.000
560.828; 5788.325;    0.000;    0.000
560.956; 6021.325;    0.000;    0.000
561.085; 6018.325;    0.000;    0.000
561.212; 5862.325;    0.000;    0.000
561.340; 6011.325;    0.000;    0.000
561.468; 5855.325;    0.000;    0.000
561.596; 6035.325;    0.000;    0.000
561.724; 5970.325;    0.000;    0.000
561.852; 6064.325;    0.000;    0.000
561.980; 5994.325;    0.000;    0.000
562.108; 6094.325;    0.000;    0.000
562.236; 6024.325;    0.000;    0.000
562.364; 6100.325;    0.000;    0.000
562.492; 6187.325;    0.000;    0.000
562.619; 6080.325;    0.000;    0.000
562.747; 6244.325;    0.000;    0.000
562.875; 6309.325;    0.000;    0.000
563.003; 6201.325;    0.000;    0.000
563.130; 6414.325;    0.000;    0.000
563.258; 6487.325;    0.000;    0.000
563.386; 6385.325;    0.000;    0.000
563.514; 6405.325;    0.000;    0.000
563.641; 6667.325;    0.000;    0.000
563.769; 6502.325;    0.000;    0.000
563.897; 6710.325;    0.000;    0.000
564.024; 6711.325;    0.000;    0.000
564.152; 6943.325;    0.000;    0.000
564.280; 6900.325;    0.000;    0.000
564.407; 6796.325;    0.000;    0.000
564.535; 6864.325;    0.000;    0.000
564.662; 6954.325;    0.000;    0.000
564.790; 7084.325;    0.000;    0.000
564.917; 7021.325;    0.000;    0.000
565.045; 7121.325;    0.000;    0.000
565.173; 6967.325;    0.000;    0.000
565.300; 7204.325;    0.000;    0.000
565.428; 7109.325;    0.000;    0.000
565.555; 7241.325;    0.000;    0.000
565.682; 7403.325;    0.000;    0.000
565.810; 7444.325;    0.000;    0.000
565.937; 7523.325;    0.000;    0.000
566.065; 7647.325;    0.000;    0.000
566.192; 7797.325;    0.000;    0.000
566.320; 7922.325;    0.000;    0.000
566.447; 7857.325;    0.000;    0.000
566.574; 7978.325;    0.000;    0.000
566.702; 8230.325;    0.000;    0.000
566.829; 8089.325;    0.000;    0.000
566.956; 8404.325;    0.000;    0.000
567.083; 8431.325;    0.000;    0.000
567.211; 8338.325;    0.000;    0.000
567.338; 8250.325;    0.000;    0.000
567.465; 8427.325;    0.000;    0.000
567.593; 8329.325;    0.000;    0.000
567.720; 8472.325;    0.000;    0.000
567.847; 8530.325;    0.000;    0.000
567.974; 8506.325;    0.000;    0.000
568.101; 8824.325;    0.000;    0.000
568.228; 9933.325;    0.000;    0.000
568.356;10291.325;    0.000;    0.000
568.483;10070.325;    0.000;    0.000
568.610; 9976.325;    0.000;    0.000
568.737;10911.325;    0.000;    0.000
568.864;12361.325;    0.000;    0.000
568.991;11752.325;    0.000;    0.000
569.118;10624.325;    0.000;    0.000
569.245; 9875.325;    0.000;    0.000
569.372; 9554.325;    0.000;    0.000
569.499; 9029.325;    0.000;    0.000
569.626; 8969.325;    0.000;    0.000
569.753; 8447.325;    0.000;    0.000
569.880; 8348.325;    0.000;    0.000
570.007; 8286.325;    0.000;    0.000
570.134; 8239.325;    0.000;    0.000
570.261; 8093.325;    0.000;    0.000
570.388; 7974.325;    0.000;    0.000
570.515; 8015.325;    0.000;    0.000
570.642; 7740.325;    0.000;    0.000
570.768; 7730.325;    0.000;    0.000
570.895; 7685.325;    0.000;    0.000
571.022; 7598.325;    0.000;    0.000
571.149; 7504.325;    0.000;    0.000
571.276; 7447.325;    0.000;    0.000
571.402; 7364.325;    0.000;    0.000
571.529; 7509.325;    0.000;    0.000
571.656; 7270.325;    0.000;    0.000
571.783; 7233.325;    0.000;    0.000
571.909; 7298.325;    0.000;    0.000
572.036; 7199.325;    0.000;    0.000
572.163; 7243.325;    0.000;    0.000
572.289; 7116.325;    0.000;    0.000
572.416; 7075.325;    0.000;    0.000
572.543; 7248.325;    0.000;    0.000
572.669; 7044.325;    0.000;    0.000
572.796; 7050.325;    0.000;    0.000
572.922; 6981.325;    0.000;    0.000
573.049; 6940.325;    0.000;    0.000
573.176; 7013.325;    0.000;    0.000
573.302; 6785.325;    0.000;    0.000
573.429; 7060.325;    0.000;    0.000
573.555; 6913.325;    0.000;    0.000
573.682; 6935.325;    0.000;    0.000
573.808; 6919.325;    0.000;    0.000
573.935; 6823.325;    0.000;    0.000
574.061; 6867.325;    0.000;    0.000
574.188; 7075.325;    0.000;    0.000
574.314; 6964.325;    0.000;    0.000
574.440; 6840.325;    0.000;    0.000
574.567; 6864.325;    0.000;    0.000
574.693; 6886.325;    0.000;    0.000
574.820; 6816.325;    0.000;    0.000
574.946; 6859.325;    0.000;    0.000
575.072; 6915.325;    0.000;    0.000
575.198; 6941.325;    0.000;    0.000
575.325; 6826.325;    0.000;    0.000
575.451; 6937.325;    0.000;    0.000
575.577; 6924.325;    0.000;    0.000
575.704; 6872.325;    0.000;    0.000
575.830; 6757.325;    0.000;    0.000
575.956; 6662.325;    0.000;    0.000
576.082; 6761.325;    0.000;    0.000
576.208; 6761.325;    0.000;    0.000
576.335; 6593.325;    0.000;    0.000
576.461; 6767.325;    0.000;    0.000
576.587; 6818.325;    0.000;    0.000
576.713; 6667.325;    0.000;    0.000
576.839; 6889.325;    0.000;    0.000
576.965; 6813.325;    0.000;    0.000
577.091; 6574.325;    0.000;    0.000
577.217; 6930.325;    0.000;    0.000
577.343; 6874.325;    0.000;    0.000
577.469; 6903.325;    0.000;    0.000
577.596; 6821.325;    0.000;    0.000
577.722; 6762.325;    0.000;    0.000
577.848; 6876.325;    0.000;    0.000
577.974; 6732.325;    0.000;    0.000
578.099; 6860.325;    0.000;    0.000
578.225; 6947.325;    0.000;    0.000
578.351; 7028.325;    0.000;    0.000
578.477; 6959.325;    0.000;    0.000
578.603; 6977.325;    0.000;    0.000
578.729; 6999.325;    0.000;    0.000
578.855; 6944.325;    0.000;    0.000
578.981; 6829.325;    0.000;    0.000
579.107; 7002.325;    0.000;    0.000
579.232; 6879.325;    0.000;    0.000
579.358; 6954.325;    0.000;    0.000
579.484; 6827.325;    0.000;    0.000
579.610; 6899.325;    0.000;    0.000
579.735; 7070.325;    0.000;    0.000
579.861; 7076.325;    0.000;    0.000
579.987; 7118.325;    0.000;    0.000
580.113; 7014.325;    0.000;    0.000
580.238; 7156.325;    0.000;    0.000
580.364; 7166.325;    0.000;    0.000
580.490; 7189.325;    0.000;    0.000
580.615; 7166.325;    0.000;    0.000
580.741; 7148.325;    0.000;    0.000
580.867; 7355.325;    0.000;    0.000
580.992; 7202.325;    0.000;    0.000
581.118; 7269.325;    0.000;    0.000
581.243; 7230.325;    0.000;    0.000
581.369; 7323.325;    0.000;    0.000
581.494; 7270.325;    0.000;    0.000
581.620; 7458.325;    0.000;    0.000
581.745; 7557.325;    0.000;    0.000
581.871; 7668.325;    0.000;    0.000
581.996; 7702.325;    0.000;    0.000
582.122; 7742.325;    0.000;    0.000
582.247; 7724.325;    0.000;    0.000
582.373; 7705.325;    0.000;    0.000
582.498; 7865.325;    0.000;    0.000
582.624; 7838.325;    0.000;    0.000
582.749; 7944.325;    0.000;    0.000
582.874; 8121.325;    0.000;    0.000
583.000; 8105.325;    0.000;    0.000
583.125; 8037.325;    0.000;    0.000
583.250; 8406.325;    0.000;    0.000
583.376; 8359.325;    0.000;    0.000
583.501; 8407.325;    0.000;    0.000
583.626; 8463.325;    0.000;    0.000
583.751; 8625.325;    0.000;    0.000
583.877; 8584.325;    0.000;    0.000
584.002; 8816.325;    0.000;    0.000
584.127; 9004.325;    0.000;    0.000
584.252; 8938.325;    0.000;    0.000
584.377; 9157.325;    0.000;    0.000
584.503; 9207.325;    0.000;    0.000
584.628; 9411.325;    0.000;    0.000
584.753; 9513.325;    0.000;    0.000
584.878; 9698.325;    0.000;    0.000
585.003; 9709.325;    0.000;    0.000
585.128;10170.325;    0.000;    0.000
585.253;10902.325;    0.000;    0.000
585.378;10703.325;    0.000;    0.000
585.503;10636.325;    0.000;    0.000
585.628;10541.325;    0.000;    0.000
585.753;11046.325;    0.000;    0.000
585.878;11140.325;    0.000;    0.000
586.003;11458.325;    0.000;    0.000
586.128;11787.325;    0.000;    0.000
586.253;12139.325;    0.000;    0.000
586.378;12256.325;    0.000;    0.000
586.503;12735.325;    0.000;    0.000
586.628;12998.325;    0.000;    0.000
586.753;13478.325;    0.000;    0.000
586.878;13884.325;    0.000;    0.000
587.003;14647.325;    0.000;    0.000
587.127;15600.325;    0.000;    0.000
587.252;16258.325;    0.000;    0.000
587.377;16888.324;    0.000;    0.000
587.502;18005.324;    0.000;    0.000
587.627;19128.324;    0.000;    0.000
587.751;20435.324;    0.000;    0.000
587.876;22082.324;    0.000;    0.000
588.001;23609.324;    0.000;    0.000
588.125;25955.324;    0.000;    0.000
588.250;28999.324;    0.000;    0.000
588.375;32642.324;    0.000;    0.000
588.499;37020.324;    0.000;    0.000
588.624;44537.324;    0.000;    0.000
588.749;54658.324;    0.000;    0.000
588.873;64608.324;    0.000;    0.000
588.998;65257.324;    0.000;    0.000
589.122;65257.324;    0.000;    0.000
589.247;65257.324;    0.000;    0.000
589.372;65257.324;    0.000;    0.000
589.496;65257.324;    0.000;    0.000
589.621;65257.324;    0.000;    0.000
589.745;65257.324;    0.000;    0.000
589.870;58647.324;    0.000;    0.000
589.994;48079.324;    0.000;    0.000
590.118;41298.324;    0.000;    0.000
590.243;36312.324;    0.000;    0.000
590.367;32231.324;    0.000;    0.000
590.492;29122.324;    0.000;    0.000
590.616;26718.324;    0.000;    0.000
590.740;24336.324;    0.000;    0.000
590.865;22577.324;    0.000;    0.000
590.989;21344.324;    0.000;    0.000
591.114;20010.324;    0.000;    0.000
591.238;19258.324;    0.000;    0.000
591.362;18087.324;    0.000;    0.000
591.486;17377.324;    0.000;    0.000
591.611;16537.324;    0.000;    0.000
591.735;15858.325;    0.000;    0.000
591.859;15252.325;    0.000;    0.000
591.983;14976.325;    0.000;    0.000
592.107;14239.325;    0.000;    0.000
592.232;13889.325;    0.000;    0.000
592.356;13494.325;    0.000;    0.000
592.480;13133.325;    0.000;    0.000
592.604;12781.325;    0.000;    0.000
592.728;12496.325;    0.000;    0.000
592.852;12243.325;    0.000;    0.000
592.976;12090.325;    0.000;    0.000
593.100;11781.325;    0.000;    0.000
593.224;11393.325;    0.000;    0.000
593.349;11315.325;    0.000;    0.000
593.473;10930.325;    0.000;    0.000
593.597;10950.325;    0.000;    0.000
593.721;10855.325;    0.000;    0.000
593.844;10763.325;    0.000;    0.000
593.968;10494.325;    0.000;    0.000
594.092;10206.325;    0.000;    0.000
594.216;10130.325;    0.000;    0.000
594.340;10086.325;    0.000;    0.000
594.464;10044.325;    0.000;    0.000
594.588; 9792.325;    0.000;    0.000
594.712; 9604.325;    0.000;    0.000
594.836; 9588.325;    0.000;    0.000
594.959; 9376.325;    0.000;    0.000
595.083; 9331.325;    0.000;    0.000
595.207; 9019.325;    0.000;    0.000
595.331; 9033.325;    0.000;    0.000
595.455; 8919.325;    0.000;    0.000
595.578; 8879.325;    0.000;    0.000
595.702; 8610.325;    0.000;    0.000
595.826; 8492.325;    0.000;    0.000
595.949; 8643.325;    0.000;    0.000
596.073; 8524.325;    0.000;    0.000
596.197; 8342.325;    0.000;    0.000
596.320; 8430.325;    0.000;    0.000
596.444; 8217.325;    0.000;    0.000
596.568; 7892.325;    0.000;    0.000
596.691; 7853.325;    0.000;    0.000
596.815; 7992.325;    0.000;    0.000
596.938; 7984.325;    0.000;    0.000
597.062; 7865.325;    0.000;    0.000
597.186; 7779.325;    0.000;    0.000
597.309; 7787.325;    0.000;    0.000
597.433; 7507.325;    0.000;    0.000
597.556; 7685.325;    0.000;    0.000
597.680; 7809.325;    0.000;    0.000
597.803; 7554.325;    0.000;    0.000
597.926; 7582.325;    0.000;    0.000
598.050; 7636.325;    0.000;    0.000
598.173; 7553.325;    0.000;    0.000
598.297; 7317.325;    0.000;    0.000
598.420; 7402.325;    0.000;    0.000
598.543; 7442.325;    0.000;    0.000
598.667; 7353.325;    0.000;    0.000
598.790; 7375.325;    0.000;    0.000
598.913; 7135.325;    0.000;    0.000
599.037; 7260.325;    0.000;    0.000
599.160; 7220.325;    0.000;    0.000
599.283; 7167.325;    0.000;    0.000
599.406; 7094.325;    0.000;    0.000
599.530; 7048.325;    0.000;    0.000
599.653; 6945.325;    0.000;    0.000
599.776; 7029.325;    0.000;    0.000
599.899; 7042.325;    0.000;    0.000
600.022; 6866.325;    0.000;    0.000
600.145; 6911.325;    0.000;    0.000
600.269; 6899.325;    0.000;    0.000
600.392; 6683.325;    0.000;    0.000
600.515; 6868.325;    0.000;    0.000
600.638; 6950.325;    0.000;    0.000
600.761; 6856.325;    0.000;    0.000
600.884; 6874.325;    0.000;    0.000
601.007; 6826.325;    0.000;    0.000
601.130; 6687.325;    0.000;    0.000
601.253; 6706.325;    0.000;    0.000
601.376; 6521.325;    0.000;    0.000
601.499; 6572.325;    0.000;    0.000
601.622; 6684.325;    0.000;    0.000
601.745; 6540.325;    0.000;    0.000
601.868; 6554.325;    0.000;    0.000
601.991; 6545.325;    0.000;    0.000
602.113; 6575.325;    0.000;    0.000
602.236; 6513.325;    0.000;    0.000
602.359; 6431.325;    0.000;    0.000
602.482; 6474.325;    0.000;    0.000
602.605; 6595.325;    0.000;    0.000
602.728; 6390.325;    0.000;    0.000
602.850; 6319.325;    0.000;    0.000
602.973; 6412.325;    0.000;    0.000
603.096; 6384.325;    0.000;    0.000
603.219; 6274.325;    0.000;    0.000
603.341; 6344.325;    0.000;    0.000
603.464; 6370.325;    0.000;    0.000
603.587; 6431.325;    0.000;    0.000
603.709; 6313.325;    0.000;    0.000
603.832; 6218.325;    0.000;    0.000
603.955; 6213.325;    0.000;    0.000
604.077; 6046.325;    0.000;    0.000
604.200; 6254.325;    0.000;    0.000
604.323; 6103.325;    0.000;    0.000
604.445; 6164.325;    0.000;    0.000
604.568; 6095.325;    0.000;    0.000
604.690; 6108.325;    0.000;    0.000
604.813; 6134.325;    0.000;    0.000
604.935; 6086.325;    0.000;    0.000
605.058; 6071.325;    0.000;    0.000
605.180; 6044.325;    0.000;    0.000
605.303; 6091.325;    0.000;    0.000
605.425; 6192.325;    0.000;    0.000
605.547; 6028.325;    0.000;    0.000
605.670; 6018.325;    0.000;    0.000
605.792; 6027.325;    0.000;    0.000
605.915; 6112.325;    0.000;    0.000
606.037; 6109.325;    0.000;    0.000
606.159; 5875.325;    0.000;    0.000
606.282; 5956.325;    0.000;    0.000
606.404; 5924.325;    0.000;    0.000
606.526; 5929.325;    0.000;    0.000
606.648; 5975.325;    0.000;    0.000
606.771; 5854.325;    0.000;    0.000
606.893; 5881.325;    0.000;    0.000
607.015; 5975.325;    0.000;    0.000
607.137; 5919.325;    0.000;    0.000
607.260; 5848.325;    0.000;    0.000
607.382; 5962.325;    0.000;    0.000
607.504; 5907.325;    0.000;    0.000
607.626; 5908.325;    0.000;    0.000
607.748; 5906.325;    0.000;    0.000
607.870; 5803.325;    0.000;    0.000
607.992; 5868.325;    0.000;    0.000
608.114; 5926.325;    0.000;    0.000
608.237; 5925.325;    0.000;    0.000
608.359; 5800.325;    0.000;    0.000
608.481; 5798.325;    0.000;    0.000
608.603; 5693.325;    0.000;    0.000
608.725; 5926.325;    0.000;    0.000
608.847; 5729.325;    0.000;    0.000
608.969; 5885.325;    0.000;    0.000
609.090; 5864.325;    0.000;    0.000
609.212; 5887.325;    0.000;    0.000
609.334; 5886.325;    0.000;    0.000
609.456; 5811.325;    0.000;    0.000
609.578; 5753.325;    0.000;    0.000
609.700; 5669.325;    0.000;    0.000
609.822; 5692.325;    0.000;    0.000
609.944; 5908.325;    0.000;    0.000
610.065; 5728.325;    0.000;    0.000
610.187; 5733.325;    0.000;    0.000
610.309; 5689.325;    0.000;    0.000
610.431; 5817.325;    0.000;    0.000
610.552; 5857.325;    0.000;    0.000
610.674; 5653.325;    0.000;    0.000
610.796; 5597.325;    0.000;    0.000
610.918; 5587.325;    0.000;    0.000
611.039; 5609.325;    0.000;    0.000
611.161; 5733.325;    0.000;    0.000
611.282; 5681.325;    0.000;    0.000
611.404; 5695.325;    0.000;    0.000
611.526; 5646.325;    0.000;    0.000
611.647; 5733.325;    0.000;    0.000
611.769; 5683.325;    0.000;    0.000
611.890; 5623.325;    0.000;    0.000
612.012; 5718.325;    0.000;    0.000
612.133; 5706.325;    0.000;    0.000
612.255; 5639.325;    0.000;    0.000
612.377; 5630.325;    0.000;    0.000
612.498; 5674.325;    0.000;    0.000
612.619; 5800.325;    0.000;    0.000
612.741; 5744.325;    0.000;    0.000
612.862; 5696.325;    0.000;    0.000
612.984; 5632.325;    0.000;    0.000
613.105; 5568.325;    0.000;    0.000
613.226; 5669.325;    0.000;    0.000
613.348; 5629.325;    0.000;    0.000
613.469; 5681.325;    0.000;    0.000
613.590; 5563.325;    0.000;    0.000
613.712; 5705.325;    0.000;    0.000
613.833; 5565.325;    0.000;    0.000
613.954; 5683.325;    0.000;    0.000
614.076; 5663.325;    0.000;    0.000
614.197; 5606.325;    0.000;    0.000
614.318; 5641.325;    0.000;    0.000
614.439; 5757.325;    0.000;    0.000
614.560; 5632.325;    0.000;    0.000
614.682; 5818.325;    0.000;    0.000
614.803; 5624.325;    0.000;    0.000
614.924; 5517.325;    0.000;    0.000
615.045; 5729.325;    0.000;    0.000
615.166; 5609.325;    0.000;    0.000
615.287; 5854.325;    0.000;    0.000
615.408; 6407.325;    0.000;    0.000
615.529; 6527.325;    0.000;    0.000
615.650; 6249.325;    0.000;    0.000
615.771; 6017.325;    0.000;    0.000
615.892; 6100.325;    0.000;    0.000
616.013; 6796.325;    0.000;    0.000
616.134; 7340.325;    0.000;    0.000
616.255; 7223.325;    0.000;    0.000
616.376; 6469.325;    0.000;    0.000
616.497; 6113.325;    0.000;    0.000
616.618; 5997.325;    0.000;    0.000
616.739; 5895.325;    0.000;    0.000
616.860; 5754.325;    0.000;    0.000
616.981; 5843.325;    0.000;    0.000
617.102; 5823.325;    0.000;    0.000
617.222; 5675.325;    0.000;    0.000
617.343; 5718.325;    0.000;    0.000
617.464; 5576.325;    0.000;    0.000
617.585; 5616.325;    0.000;    0.000
617.705; 5510.325;    0.000;    0.000
617.826; 5544.325;    0.000;    0.000
617.947; 5614.325;    0.000;    0.000
618.068; 5439.325;    0.000;    0.000
618.188; 5347.325;    0.000;    0.000
618.309; 5454.325;    0.000;    0.000
618.430; 5419.325;    0.000;    0.000
618.550; 5338.325;    0.000;    0.000
618.671; 5420.325;    0.000;    0.000
618.791; 5340.325;    0.000;    0.000
618.912; 5290.325;    0.000;    0.000
619.033; 5292.325;    0.000;    0.000
619.153; 5292.325;    0.000;    0.000
619.274; 5159.325;    0.000;    0.000
619.394; 5399.325;    0.000;    0.000
619.515; 5254.325;    0.000;    0.000
619.635; 5235.325;    0.000;    0.000
619.756; 5293.325;    0.000;    0.000
619.876; 5148.325;    0.000;    0.000
619.996; 5300.325;    0.000;    0.000
620.117; 5190.325;    0.000;    0.000
620.237; 5218.325;    0.000;    0.000
620.358; 5309.325;    0.000;    0.000
620.478; 5193.325;    0.000;    0.000
620.598; 5227.325;    0.000;    0.000
620.719; 5248.325;    0.000;    0.000
620.839; 5162.325;    0.000;    0.000
620.959; 5081.325;    0.000;    0.000
621.079; 5085.325;    0.000;    0.000
621.200; 5172.325;    0.000;    0.000
621.320; 5199.325;    0.000;    0.000
621.440; 5118.325;    0.000;    0.000
621.560; 5273.325;    0.000;    0.000
621.681; 5261.325;    0.000;    0.000
621.801; 5213.325;    0.000;    0.000
621.921; 5192.325;    0.000;    0.000
622.041; 5302.325;    0.000;    0.000
622.161; 5347.325;    0.000;    0.000
622.281; 5141.325;    0.000;    0.000
622.401; 5259.325;    0.000;    0.000
622.521; 5231.325;    0.000;    0.000
622.641; 5218.325;    0.000;    0.000
622.761; 5290.325;    0.000;    0.000
622.882; 5287.325;    0.000;    0.000
623.002; 5216.325;    0.000;    0.000
623.121; 5146.325;    0.000;    0.000
623.241; 5192.325;    0.000;    0.000
623.361; 5076.325;    0.000;    0.000
623.481; 5070.325;    0.000;    0.000
623.601; 5215.325;    0.000;    0.000
623.721; 5180.325;    0.000;    0.000
623.841; 5307.325;    0.000;    0.000
623.961; 5275.325;    0.000;    0.000
624.081; 5062.325;    0.000;    0.000
624.201; 5144.325;    0.000;    0.000
624.320; 5211.325;    0.000;    0.000
624.440; 5230.325;    0.000;    0.000
624.560; 5172.325;    0.000;    0.000
624.680; 5150.325;    0.000;    0.000
624.799; 5063.325;    0.000;    0.000
624.919; 5096.325;    0.000;    0.000
625.039; 5032.325;    0.000;    0.000
625.159; 5057.325;    0.000;    0.000
625.278; 5058.325;    0.000;    0.000
625.398; 5120.325;    0.000;    0.000
625.518; 5069.325;    0.000;    0.000
625.637; 4943.325;    0.000;    0.000
625.757; 4949.325;    0.000;    0.000
625.876; 4914.325;    0.000;    0.000
625.996; 5001.325;    0.000;    0.000
626.115; 5173.325;    0.000;    0.000
626.235; 5050.325;    0.000;    0.000
626.354; 5109.325;    0.000;    0.000
626.474; 4976.325;    0.000;    0.000
626.594; 5025.325;    0.000;    0.000
626.713; 4923.325;    0.000;    0.000
626.832; 5010.325;    0.000;    0.000
626.952; 4937.325;    0.000;    0.000
627.071; 4957.325;    0.000;    0.000
627.191; 4913.325;    0.000;    0.000
627.310; 5028.325;    0.000;    0.000
627.429; 5024.325;    0.000;    0.000
627.549; 4985.325;    0.000;    0.000
627.668; 4967.325;    0.000;    0.000
627.787; 4899.325;    0.000;    0.000
627.907; 4931.325;    0.000;    0.000
628.026; 4801.325;    0.000;    0.000
628.145; 4761.325;    0.000;    0.000
628.264; 4780.325;    0.000;    0.000
628.384; 4960.325;    0.000;    0.000
628.503; 4806.325;    0.000;    0.000
628.622; 4895.325;    0.000;    0.000
628.741; 4893.325;    0.000;    0.000
628.860; 4833.325;    0.000;    0.000
628.980; 4841.325;    0.000;    0.000
629.099; 4888.325;    0.000;    0.000
629.218; 4742.325;    0.000;    0.000
629.337; 4935.325;    0.000;    0.000
629.456; 4911.325;    0.000;    0.000
629.575; 4729.325;    0.000;    0.000
629.694; 4803.325;    0.000;    0.000
629.813; 4934.325;    0.000;    0.000
629.932; 4864.325;    0.000;    0.000
630.051; 4808.325;    0.000;    0.000
630.170; 4793.325;    0.000;    0.000
630.289; 4782.325;    0.000;    0.000
630.408; 4750.325;    0.000;    0.000
630.527; 4839.325;    0.000;    0.000
630.646; 4767.325;    0.000;    0.000
630.764; 4887.325;    0.000;    0.000
630.883; 4774.325;    0.000;    0.000
631.002; 4788.325;    0.000;    0.000
631.121; 4698.325;    0.000;    0.000
631.240; 4674.325;    0.000;    0.000
631.359; 4860.325;    0.000;    0.000
631.477; 4726.325;    0.000;    0.000
631.596; 4627.325;    0.000;    0.000
631.715; 4820.325;    0.000;    0.000
631.834; 4722.325;    0.000;    0.000
631.952; 4747.325;    0.000;    0.000
632.071; 4674.325;    0.000;    0.000
632.190; 4638.325;    0.000;    0.000
632.308; 4717.325;    0.000;    0.000
632.427; 4652.325;    0.000;    0.000
632.546; 4784.325;    0.000;    0.000
632.664; 4682.325;    0.000;    0.000
632.783; 4670.325;    0.000;    0.000
632.901; 4659.325;    0.000;    0.000
633.020; 4687.325;    0.000;    0.000
633.138; 4715.325;    0.000;    0.000
633.257; 4660.325;    0.000;    0.000
633.375; 4664.325;    0.000;    0.000
633.494; 4660.325;    0.000;    0.000
633.612; 4678.325;    0.000;    0.000
633.731; 4704.325;    0.000;    0.000
633.849; 4753.325;    0.000;    0.000
633.968; 4625.325;    0.000;    0.000
634.086; 4653.325;    0.000;    0.000
634.204; 4660.325;    0.000;    0.000
634.323; 4669.325;    0.000;    0.000
634.441; 4649.325;    0.000;    0.000
634.559; 4693.325;    0.000;    0.000
634.678; 4667.325;    0.000;    0.000
634.796; 4541.325;    0.000;    0.000
634.914; 4535.325;    0.000;    0.000
635.032; 4707.325;    0.000;    0.000
635.151; 4423.325;    0.000;    0.000
635.269; 4542.325;    0.000;    0.000
635.387; 4575.325;    0.000;    0.000
635.505; 4506.325;    0.000;    0.000
635.623; 4472.325;    0.000;    0.000
635.742; 4524.325;    0.000;    0.000
635.860; 4530.325;    0.000;    0.000
635.978; 4470.325;    0.000;    0.000
636.096; 4478.325;    0.000;    0.000
636.214; 4623.325;    0.000;    0.000
636.332; 4621.325;    0.000;    0.000
636.450; 4564.325;    0.000;    0.000
636.568; 4554.325;    0.000;    0.000
636.686; 4504.325;    0.000;    0.000
636.804; 4508.325;    0.000;    0.000
636.922; 4617.325;    0.000;    0.000
637.040; 4561.325;    0.000;    0.000
637.158; 4496.325;    0.000;    0.000
637.276; 4503.325;    0.000;    0.000
637.394; 4545.325;    0.000;    0.000
637.512; 4383.325;    0.000;    0.000
637.629; 4601.325;    0.000;    0.000
637.747; 4463.325;    0.000;    0.000
637.865; 4504.325;    0.000;    0.000
637.983; 4421.325;    0.000;    0.000
638.101; 4448.325;    0.000;    0.000
638.218; 4407.325;    0.000;    0.000
638.336; 4514.325;    0.000;    0.000
638.454; 4345.325;    0.000;    0.000
638.572; 4415.325;    0.000;    0.000
638.689; 4467.325;    0.000;    0.000
638.807; 4400.325;    0.000;    0.000
638.925; 4442.325;    0.000;    0.000
639.042; 4423.325;    0.000;    0.000
639.160; 4380.325;    0.000;    0.000
639.278; 4348.325;    0.000;    0.000
639.395; 4457.325;    0.000;    0.000
639.513; 4434.325;    0.000;    0.000
639.630; 4340.325;    0.000;    0.000
639.748; 4429.325;    0.000;    0.000
639.865; 4443.325;    0.000;    0.000
639.983; 4365.325;    0.000;    0.000
640.100; 4502.325;    0.000;    0.000
640.218; 4387.325;    0.000;    0.000
640.335; 4423.325;    0.000;    0.000
640.453; 4306.325;    0.000;    0.000
640.570; 4481.325;    0.000;    0.000
640.688; 4406.325;    0.000;    0.000
640.805; 4338.325;    0.000;    0.000
640.922; 4382.325;    0.000;    0.000
641.040; 4392.325;    0.000;    0.000
641.157; 4409.325;    0.000;    0.000
641.274; 4412.325;    0.000;    0.000
641.391; 4408.325;    0.000;    0.000
641.509; 4284.325;    0.000;    0.000
641.626; 4417.325;    0.000;    0.000
641.743; 4333.325;    0.000;    0.000
641.860; 4379.325;    0.000;    0.000
641.978; 4399.325;    0.000;    0.000
642.095; 4375.325;    0.000;    0.000
642.212; 4353.325;    0.000;    0.000
642.329; 4305.325;    0.000;    0.000
642.446; 4284.325;    0.000;    0.000
642.563; 4364.325;    0.000;    0.000
642.681; 4370.325;    0.000;    0.000
642.798; 4277.325;    0.000;    0.000
642.915; 4275.325;    0.000;    0.000
643.032; 4461.325;    0.000;    0.000
643.149; 4275.325;    0.000;    0.000
643.266; 4388.325;    0.000;    0.000
643.383; 4329.325;    0.000;    0.000
643.500; 4310.325;    0.000;    0.000
643.617; 4379.325;    0.000;    0.000
643.734; 4298.325;    0.000;    0.000
643.850; 4407.325;    0.000;    0.000
643.967; 4285.325;    0.000;    0.000
644.084; 4416.325;    0.000;    0.000
644.201; 4368.325;    0.000;    0.000
644.318; 4352.325;    0.000;    0.000
644.435; 4306.325;    0.000;    0.000
644.552; 4375.325;    0.000;    0.000
644.668; 4519.325;    0.000;    0.000
644.785; 4427.325;    0.000;    0.000
644.902; 4331.325;    0.000;    0.000
645.019; 4378.325;    0.000;    0.000
645.135; 4324.325;    0.000;    0.000
645.252; 4386.325;    0.000;    0.000
645.369; 4376.325;    0.000;    0.000
645.485; 4474.325;    0.000;    0.000
645.602; 4534.325;    0.000;    0.000
645.719; 4439.325;    0.000;    0.000
645.835; 4386.325;    0.000;    0.000
645.952; 4469.325;    0.000;    0.000
646.068; 4500.325;    0.000;    0.000
646.185; 4438.325;    0.000;    0.000
646.302; 4530.325;    0.000;    0.000
646.418; 4436.325;    0.000;    0.000
646.535; 4387.325;    0.000;    0.000
646.651; 4427.325;    0.000;    0.000
646.768; 4582.325;    0.000;    0.000
646.884; 4464.325;    0.000;    0.000
647.000; 4503.325;    0.000;    0.000
647.117; 4546.325;    0.000;    0.000
647.233; 4630.325;    0.000;    0.000
647.350; 4600.325;    0.000;    0.000
647.466; 4521.325;    0.000;    0.000
647.582; 4580.325;    0.000;    0.000
647.699; 4666.325;    0.000;    0.000
647.815; 4476.325;    0.000;    0.000
647.931; 4535.325;    0.000;    0.000
648.047; 4659.325;    0.000;    0.000
648.164; 4577.325;    0.000;    0.000
648.280; 4526.325;    0.000;    0.000
648.396; 4629.325;    0.000;    0.000
648.512; 4474.325;    0.000;    0.000
648.629; 4562.325;    0.000;    0.000
648.745; 4537.325;    0.000;    0.000
648.861; 4602.325;    0.000;    0.000
648.977; 4493.325;    0.000;    0.000
649.093; 4564.325;    0.000;    0.000
649.209; 4632.325;    0.000;    0.000
649.325; 4623.325;    0.000;    0.000
649.441; 4650.325;    0.000;    0.000
649.557; 4705.325;    0.000;    0.000
649.673; 4665.325;    0.000;    0.000
649.789; 4627.325;    0.000;    0.000
649.905; 4594.325;    0.000;    0.000
650.021; 4694.325;    0.000;    0.000
650.137; 4695.325;    0.000;    0.000
650.253; 4651.325;    0.000;    0.000
650.369; 4632.325;    0.000;    0.000
650.485; 4638.325;    0.000;    0.000
650.601; 4648.325;    0.000;    0.000
650.717; 4628.325;    0.000;    0.000
650.833; 4692.325;    0.000;    0.000
650.948; 4771.325;    0.000;    0.000
651.064; 4722.325;    0.000;    0.000
651.180; 4809.325;    0.000;    0.000
651.296; 4829.325;    0.000;    0.000
651.411; 4701.325;    0.000;    0.000
651.527; 4698.325;    0.000;    0.000
651.643; 4752.325;    0.000;    0.000
651.759; 4799.325;    0.000;    0.000
651.874; 4719.325;    0.000;    0.000
651.990; 4855.325;    0.000;    0.000
652.105; 4684.325;    0.000;    0.000
652.221; 4871.325;    0.000;    0.000
652.337; 4884.325;    0.000;    0.000
652.452; 4890.325;    0.000;    0.000
652.568; 4862.325;    0.000;    0.000
652.683; 4937.325;    0.000;    0.000
652.799; 4888.325;    0.000;    0.000
652.914; 5011.325;    0.000;    0.000
653.030; 4944.325;    0.000;    0.000
653.145; 4870.325;    0.000;    0.000
653.261; 5113.325;    0.000;    0.000
653.376; 4987.325;    0.000;    0.000
653.492; 5018.325;    0.000;    0.000
653.607; 5103.325;    0.000;    0.000
653.722; 5128.325;    0.000;    0.000
653.838; 5251.325;    0.000;    0.000
653.953; 5106.325;    0.000;    0.000
654.068; 5230.325;    0.000;    0.000
654.184; 5236.325;    0.000;    0.000
654.299; 5343.325;    0.000;    0.000
654.414; 5448.325;    0.000;    0.000
654.530; 5518.325;    0.000;    0.000
654.645; 5414.325;    0.000;    0.000
654.760; 5733.325;    0.000;    0.000
654.875; 5634.325;    0.000;    0.000
654.990; 5755.325;    0.000;    0.000
655.106; 5808.325;    0.000;    0.000
655.221; 5856.325;    0.000;    0.000
655.336; 6095.325;    0.000;    0.000
655.451; 6112.325;    0.000;    0.000
655.566; 6184.325;    0.000;    0.000
655.681; 6279.325;    0.000;    0.000
655.796; 6467.325;    0.000;    0.000
655.911; 6574.325;    0.000;    0.000
656.026; 6801.325;    0.000;    0.000
656.141; 6895.325;    0.000;    0.000
656.256; 6986.325;    0.000;    0.000
656.371; 7024.325;    0.000;    0.000
656.486; 7156.325;    0.000;    0.000
656.601; 7107.325;    0.000;    0.000
656.716; 7106.325;    0.000;    0.000
656.831; 6944.325;    0.000;    0.000
656.946; 6703.325;    0.000;    0.000
657.060; 6683.325;    0.000;    0.000
657.175; 6572.325;    0.000;    0.000
657.290; 6520.325;    0.000;    0.000
657.405; 6513.325;    0.000;    0.000
657.520; 6328.325;    0.000;    0.000
657.634; 6288.325;    0.000;    0.000
657.749; 6059.325;    0.000;    0.000
657.864; 6133.325;    0.000;    0.000
657.979; 5945.325;    0.000;    0.000
658.093; 5961.325;    0.000;    0.000
658.208; 6029.325;    0.000;    0.000
658.323; 5786.325;    0.000;    0.000
658.437; 5791.325;    0.000;    0.000
658.552; 5863.325;    0.000;    0.000
658.666; 5677.325;    0.000;    0.000
658.781; 5697.325;    0.000;    0.000
658.895; 5552.325;    0.000;    0.000
659.010; 5562.325;    0.000;    0.000
659.125; 5548.325;    0.000;    0.000
659.239; 5455.325;    0.000;    0.000
659.353; 5365.325;    0.000;    0.000
659.468; 5205.325;    0.000;    0.000
659.582; 5408.325;    0.000;    0.000
659.697; 5297.325;    0.000;    0.000
659.811; 5174.325;    0.000;    0.000
659.926; 5183.325;    0.000;    0.000
660.040; 5125.325;    0.000;    0.000
660.154; 5205.325;    0.000;    0.000
660.269; 4951.325;    0.000;    0.000
660.383; 5000.325;    0.000;    0.000
660.497; 5124.325;    0.000;    0.000
660.612; 4987.325;    0.000;    0.000
660.726; 4969.325;    0.000;    0.000
660.840; 4958.325;    0.000;    0.000
660.954; 4923.325;    0.000;    0.000
661.068; 4859.325;    0.000;    0.000
661.183; 4934.325;    0.000;    0.000
661.297; 4687.325;    0.000;    0.000
661.411; 4770.325;    0.000;    0.000
661.525; 4718.325;    0.000;    0.000
661.639; 4784.325;    0.000;    0.000
661.753; 4718.325;    0.000;    0.000
661.867; 4686.325;    0.000;    0.000
661.981; 4680.325;    0.000;    0.000
662.095; 4666.325;    0.000;    0.000
662.209; 4657.325;    0.000;    0.000
662.323; 4566.325;    0.000;    0.000
662.437; 4634.325;    0.000;    0.000
662.551; 4497.325;    0.000;    0.000
662.665; 4522.325;    0.000;    0.000
662.779; 4445.325;    0.000;    0.000
662.893; 4524.325;    0.000;    0.000
663.007; 4420.325;    0.000;    0.000
663.121; 4525.325;    0.000;    0.000
663.235; 4516.325;    0.000;    0.000
663.349; 4327.325;    0.000;    0.000
663.462; 4393.325;    0.000;    0.000
663.576; 4315.325;    0.000;    0.000
663.690; 4365.325;    0.000;    0.000
663.804; 4237.325;    0.000;    0.000
663.917; 4324.325;    0.000;    0.000
664.031; 4253.325;    0.000;    0.000
664.145; 4286.325;    0.000;    0.000
664.258; 4225.325;    0.000;    0.000
664.372; 4237.325;    0.000;    0.000
664.486; 4289.325;    0.000;    0.000
664.599; 4281.325;    0.000;    0.000
664.713; 4294.325;    0.000;    0.000
664.827; 4163.325;    0.000;    0.000
664.940; 4221.325;    0.000;    0.000
665.054; 4157.325;    0.000;    0.000
665.167; 4093.325;    0.000;    0.000
665.281; 4254.325;    0.000;    0.000
665.394; 4116.325;    0.000;    0.000
665.508; 4163.325;    0.000;    0.000
665.621; 4053.325;    0.000;    0.000
665.735; 4061.325;    0.000;    0.000
665.848; 4130.325;    0.000;    0.000
665.961; 4061.325;    0.000;    0.000
666.075; 3994.325;    0.000;    0.000
666.188; 4155.325;    0.000;    0.000
666.301; 4021.325;    0.000;    0.000
666.415; 3926.325;    0.000;    0.000
666.528; 4049.325;    0.000;    0.000
666.641; 3958.325;    0.000;    0.000
666.755; 4012.325;    0.000;    0.000
666.868; 4037.325;    0.000;    0.000
666.981; 4078.325;    0.000;    0.000
667.094; 4033.325;    0.000;    0.000
667.207; 4006.325;    0.000;    0.000
667.321; 4003.325;    0.000;    0.000
667.434; 3941.325;    0.000;    0.000
667.547; 3926.325;    0.000;    0.000
667.660; 3931.325;    0.000;    0.000
667.773; 3946.325;    0.000;    0.000
667.886; 3976.325;    0.000;    0.000
667.999; 3995.325;    0.000;    0.000
668.112; 3978.325;    0.000;    0.000
668.225; 3896.325;    0.000;    0.000
668.338; 3792.325;    0.000;    0.000
668.451; 3901.325;    0.000;    0.000
668.564; 3954.325;    0.000;    0.000
668.677; 3888.325;    0.000;    0.000
668.790; 3797.325;    0.000;    0.000
668.903; 3889.325;    0.000;    0.000
669.016; 3775.325;    0.000;    0.000
669.129; 3910.325;    0.000;    0.000
669.242; 3723.325;    0.000;    0.000
669.354; 3853.325;    0.000;    0.000
669.467; 3801.325;    0.000;    0.000
669.580; 3712.325;    0.000;    0.000
669.693; 3794.325;    0.000;    0.000
669.806; 3768.325;    0.000;    0.000
669.918; 3669.325;    0.000;    0.000
670.031; 3769.325;    0.000;    0.000
670.144; 3705.325;    0.000;    0.000
670.256; 3770.325;    0.000;    0.000
670.369; 3839.325;    0.000;    0.000
670.482; 3677.325;    0.000;    0.000
670.594; 3761.325;    0.000;    0.000
670.707; 3769.325;    0.000;    0.000
670.820; 3738.325;    0.000;    0.000
670.932; 3606.325;    0.000;    0.000
671.045; 3791.325;    0.000;    0.000
671.157; 3749.325;    0.000;    0.000
671.270; 3717.325;    0.000;    0.000
671.382; 3778.325;    0.000;    0.000
671.495; 3734.325;    0.000;    0.000
671.607; 3658.325;    0.000;    0.000
671.720; 3595.325;    0.000;    0.000
671.832; 3623.325;    0.000;    0.000
671.944; 3654.325;    0.000;    0.000
672.057; 3658.325;    0.000;    0.000
672.169; 3674.325;    0.000;    0.000
672.281; 3592.325;    0.000;    0.000
672.394; 3680.325;    0.000;    0.000
672.506; 3658.325;    0.000;    0.000
672.618; 3576.325;    0.000;    0.000
672.731; 3650.325;    0.000;    0.000
672.843; 3611.325;    0.000;    0.000
672.955; 3689.325;    0.000;    0.000
673.067; 3734.325;    0.000;    0.000
673.180; 3631.325;    0.000;    0.000
673.292; 3606.325;    0.000;    0.000
673.404; 3574.325;    0.000;    0.000
673.516; 3503.325;    0.000;    0.000
673.628; 3514.325;    0.000;    0.000
673.740; 3534.325;    0.000;    0.000
673.852; 3604.325;    0.000;    0.000
673.964; 3562.325;    0.000;    0.000
674.076; 3534.325;    0.000;    0.000
674.188; 3608.325;    0.000;    0.000
674.300; 3648.325;    0.000;    0.000
674.412; 3557.325;    0.000;    0.000
674.524; 3544.325;    0.000;    0.000
674.636; 3460.325;    0.000;    0.000
674.748; 3571.325;    0.000;    0.000
674.860; 3539.325;    0.000;    0.000
674.972; 3629.325;    0.000;    0.000
675.084; 3509.325;    0.000;    0.000
675.196; 3551.325;    0.000;    0.000
675.307; 3576.325;    0.000;    0.000
675.419; 3592.325;    0.000;    0.000
675.531; 3613.325;    0.000;    0.000
675.643; 3557.325;    0.000;    0.000
675.755; 3610.325;    0.000;    0.000
675.866; 3581.325;    0.000;    0.000
675.978; 3409.325;    0.000;    0.000
676.090; 3473.325;    0.000;    0.000
676.201; 3637.325;    0.000;    0.000
676.313; 3558.325;    0.000;    0.000
676.425; 3421.325;    0.000;    0.000
676.536; 3597.325;    0.000;    0.000
676.648; 3557.325;    0.000;    0.000
676.759; 3515.325;    0.000;    0.000
676.871; 3502.325;    0.000;    0.000
676.983; 3385.325;    0.000;    0.000
677.094; 3457.325;    0.000;    0.000
677.206; 3583.325;    0.000;    0.000
677.317; 3434.325;    0.000;    0.000
677.429; 3452.325;    0.000;    0.000
677.540; 3487.325;    0.000;    0.000
677.651; 3469.325;    0.000;    0.000
677.763; 3388.325;    0.000;    0.000
677.874; 3436.325;    0.000;    0.000
677.986; 3363.325;    0.000;    0.000
678.097; 3400.325;    0.000;    0.000
678.208; 3483.325;    0.000;    0.000
678.320; 3433.325;    0.000;    0.000
678.431; 3401.325;    0.000;    0.000
678.542; 3410.325;    0.000;    0.000
678.653; 3433.325;    0.000;    0.000
678.765; 3462.325;    0.000;    0.000
678.876; 3373.325;    0.000;    0.000
678.987; 3377.325;    0.000;    0.000
679.098; 3314.325;    0.000;    0.000
679.209; 3371.325;    0.000;    0.000
679.320; 3426.325;    0.000;    0.000
679.432; 3333.325;    0.000;    0.000
679.543; 3351.325;    0.000;    0.000
679.654; 3332.325;    0.000;    0.000
679.765; 3370.325;    0.000;    0.000
679.876; 3460.325;    0.000;    0.000
679.987; 3341.325;    0.000;    0.000
680.098; 3390.325;    0.000;    0.000
680.209; 3389.325;    0.000;    0.000
680.320; 3274.325;    0.000;    0.000
680.431; 3335.325;    0.000;    0.000
680.542; 3313.325;    0.000;    0.000
680.653; 3406.325;    0.000;    0.000
680.763; 3335.325;    0.000;    0.000
680.874; 3368.325;    0.000;    0.000
680.985; 3300.325;    0.000;    0.000
681.096; 3429.325;    0.000;    0.000
681.207; 3290.325;    0.000;    0.000
681.318; 3246.325;    0.000;    0.000
681.428; 3333.325;    0.000;    0.000
681.539; 3249.325;    0.000;    0.000
681.650; 3319.325;    0.000;    0.000
681.760; 3310.325;    0.000;    0.000
681.871; 3306.325;    0.000;    0.000
681.982; 3325.325;    0.000;    0.000
682.093; 3315.325;    0.000;    0.000
682.203; 3354.325;    0.000;    0.000
682.314; 3374.325;    0.000;    0.000
682.424; 3368.325;    0.000;    0.000
682.535; 3357.325;    0.000;    0.000
682.646; 3300.325;    0.000;    0.000
682.756; 3354.325;    0.000;    0.000
682.867; 3320.325;    0.000;    0.000
682.977; 3265.325;    0.000;    0.000
683.088; 3337.325;    0.000;    0.000
683.198; 3305.325;    0.000;    0.000
683.308; 3340.325;    0.000;    0.000
683.419; 3247.325;    0.000;    0.000
683.529; 3391.325;    0.000;    0.000
683.640; 3203.325;    0.000;    0.000
683.750; 3251.325;    0.000;    0.000
683.860; 3269.325;    0.000;    0.000
683.971; 3358.325;    0.000;    0.000
684.081; 3252.325;    0.000;    0.000
684.191; 3322.325;    0.000;    0.000
684.301; 3370.325;    0.000;    0.000
684.412; 3323.325;    0.000;    0.000
684.522; 3252.325;    0.000;    0.000
684.632; 3321.325;    0.000;    0.000
684.742; 3194.325;    0.000;    0.000
684.852; 3382.325;    0.000;    0.000
684.963; 3262.325;    0.000;    0.000
685.073; 3259.325;    0.000;    0.000
685.183; 3331.325;    0.000;    0.000
685.293; 3284.325;    0.000;    0.000
685.403; 3220.325;    0.000;    0.000
685.513; 3342.325;    0.000;    0.000
685.623; 3264.325;    0.000;    0.000
685.733; 3384.325;    0.000;    0.000
685.843; 3315.325;    0.000;    0.000
685.953; 3295.325;    0.000;    0.000
686.063; 3294.325;    0.000;    0.000
686.173; 3297.325;    0.000;    0.000
686.283; 3227.325;    0.000;    0.000
686.393; 3296.325;    0.000;    0.000
686.503; 3270.325;    0.000;    0.000
686.612; 3286.325;    0.000;    0.000
686.722; 3385.325;    0.000;    0.000
686.832; 3302.325;    0.000;    0.000
686.942; 3259.325;    0.000;    0.000
687.052; 3350.325;    0.000;    0.000
687.161; 3344.325;    0.000;    0.000
687.271; 3163.325;    0.000;    0.000
687.381; 3258.325;    0.000;    0.000
687.491; 3276.325;    0.000;    0.000
687.600; 3256.325;    0.000;    0.000
687.710; 3303.325;    0.000;    0.000
687.820; 3226.325;    0.000;    0.000
687.929; 3260.325;    0.000;    0.000
688.039; 3217.325;    0.000;    0.000
688.148; 3329.325;    0.000;    0.000
688.258; 3228.325;    0.000;    0.000
688.367; 3374.325;    0.000;    0.000
688.477; 3183.325;    0.000;    0.000
688.586; 3231.325;    0.000;    0.000
688.696; 3285.325;    0.000;    0.000
688.805; 3215.325;    0.000;    0.000
688.915; 3230.325;    0.000;    0.000
689.024; 3228.325;    0.000;    0.000
689.134; 3296.325;    0.000;    0.000
689.243; 3181.325;    0.000;    0.000
689.352; 3248.325;    0.000;    0.000
689.462; 3222.325;    0.000;    0.000
689.571; 3243.325;    0.000;    0.000
689.680; 3301.325;    0.000;    0.000
689.790; 3201.325;    0.000;    0.000
689.899; 3241.325;    0.000;    0.000
690.008; 3174.325;    0.000;    0.000
690.117; 3184.325;    0.000;    0.000
690.227; 3319.325;    0.000;    0.000
690.336; 3153.325;    0.000;    0.000
690.445; 3179.325;    0.000;    0.000
690.554; 3202.325;    0.000;    0.000
690.663; 3217.325;    0.000;    0.000
690.772; 3214.325;    0.000;    0.000
690.881; 3279.325;    0.000;    0.000
690.990; 3182.325;    0.000;    0.000
691.099; 3170.325;    0.000;    0.000
691.209; 3273.325;    0.000;    0.000
691.318; 3092.325;    0.000;    0.000
691.427; 3180.325;    0.000;    0.000
691.536; 3186.325;    0.000;    0.000
691.644; 3170.325;    0.000;    0.000
691.753; 3197.325;    0.000;    0.000
691.862; 3287.325;    0.000;    0.000
691.971; 3227.325;    0.000;    0.000
692.080; 3228.325;    0.000;    0.000
692.189; 3142.325;    0.000;    0.000
692.298; 3283.325;    0.000;    0.000
692.406; 3206.325;    0.000;    0.000
692.515; 3172.325;    0.000;    0.000
692.624; 3203.325;    0.000;    0.000
692.733; 3242.325;    0.000;    0.000
692.842; 3174.325;    0.000;    0.000
692.950; 3148.325;    0.000;    0.000
693.059; 3229.325;    0.000;    0.000
693.168; 3232.325;    0.000;    0.000
693.276; 3264.325;    0.000;    0.000
693.385; 3298.325;    0.000;    0.000
693.494; 3249.325;    0.000;    0.000
693.602; 3279.325;    0.000;    0.000
693.711; 3255.325;    0.000;    0.000
693.819; 3215.325;    0.000;    0.000
693.928; 3226.325;    0.000;    0.000
694.036; 3203.325;    0.000;    0.000
694.145; 3260.325;    0.000;    0.000
694.253; 3228.325;    0.000;    0.000
694.362; 3220.325;    0.000;    0.000
694.470; 3344.325;    0.000;    0.000
694.579; 3300.325;    0.000;    0.000
694.687; 3281.325;    0.000;    0.000
694.795; 3207.325;    0.000;    0.000
694.904; 3203.325;    0.000;    0.000
695.012; 3341.325;    0.000;    0.000
695.120; 3261.325;    0.000;    0.000
695.229; 3375.325;    0.000;    0.000
695.337; 3282.325;    0.000;    0.000
695.445; 3250.325;    0.000;    0.000
695.553; 3215.325;    0.000;    0.000
695.662; 3201.325;    0.000;    0.000
695.770; 3266.325;    0.000;    0.000
695.878; 3208.325;    0.000;    0.000
695.986; 3330.325;    0.000;    0.000
696.094; 3220.325;    0.000;    0.000
696.202; 3271.325;    0.000;    0.000
696.310; 3228.325;    0.000;    0.000
696.419; 3217.325;    0.000;    0.000
696.527; 3218.325;    0.000;    0.000
696.635; 3295.325;    0.000;    0.000
696.743; 3230.325;    0.000;    0.000
696.851; 3197.325;    0.000;    0.000
696.959; 3253.325;    0.000;    0.000
697.067; 3208.325;    0.000;    0.000
697.174; 3266.325;    0.000;    0.000
697.282; 3178.325;    0.000;    0.000
697.390; 3261.325;    0.000;    0.000
697.498; 3207.325;    0.000;    0.000
697.606; 3265.325;    0.000;    0.000
697.714; 3182.325;    0.000;    0.000
697.822; 3202.325;    0.000;    0.000
697.929; 3261.325;    0.000;    0.000
698.037; 3214.325;    0.000;    0.000
698.145; 3253.325;    0.000;    0.000
698.253; 3218.325;    0.000;    0.000
698.360; 3350.325;    0.000;    0.000
698.468; 3203.325;    0.000;    0.000
698.576; 3258.325;    0.000;    0.000
698.683; 3279.325;    0.000;    0.000
698.791; 3204.325;    0.000;    0.000
698.899; 3328.325;    0.000;    0.000
699.006; 3278.325;    0.000;    0.000
699.114; 3238.325;    0.000;    0.000
699.221; 3230.325;    0.000;    0.000
699.329; 3331.325;    0.000;    0.000
699.436; 3303.325;    0.000;    0.000
699.544; 3226.325;    0.000;    0.000
699.651; 3182.325;    0.000;    0.000
699.759; 3224.325;    0.000;    0.000
699.866; 3160.325;    0.000;    0.000
699.974; 3266.325;    0.000;    0.000
700.081; 3258.325;    0.000;    0.000
700.188; 3332.325;    0.000;    0.000
700.296; 3233.325;    0.000;    0.000
700.403; 3413.325;    0.000;    0.000
700.510; 3242.325;    0.000;    0.000
700.618; 3378.325;    0.000;    0.000
700.725; 3237.325;    0.000;    0.000
700.832; 3239.325;    0.000;    0.000
700.940; 3253.325;    0.000;    0.000
701.047; 3268.325;    0.000;    0.000
701.154; 3218.325;    0.000;    0.000
701.261; 3143.325;    0.000;    0.000
701.368; 3264.325;    0.000;    0.000
701.475; 3267.325;    0.000;    0.000
701.582; 3175.325;    0.000;    0.000
701.690; 3284.325;    0.000;    0.000
701.797; 3276.325;    0.000;    0.000
701.904; 3333.325;    0.000;    0.000
702.011; 3280.325;    0.000;    0.000
702.118; 3154.325;    0.000;    0.000
702.225; 3323.325;    0.000;    0.000
702.332; 3273.325;    0.000;    0.000
702.439; 3147.325;    0.000;    0.000
702.546; 3317.325;    0.000;    0.000
702.652; 3126.325;    0.000;    0.000
702.759; 3314.325;    0.000;    0.000
702.866; 3143.325;    0.000;    0.000
702.973; 3258.325;    0.000;    0.000
703.080; 3305.325;    0.000;    0.000
703.187; 3316.325;    0.000;    0.000
703.294; 3246.325;    0.000;    0.000
703.400; 3032.325;    0.000;    0.000
703.507;  688.325;    0.000;    0.000
703.614;  343.325;    0.000;    0.000
703.720;  345.325;    0.000;    0.000
703.827;  328.325;    0.000;    0.000
703.934;  329.325;    0.000;    0.000
704.040;  313.325;    0.000;    0.000
704.147;  326.325;    0.000;    0.000
704.254;  371.325;    0.000;    0.000
704.360;  321.325;    0.000;    0.000
704.467;  359.325;    0.000;    0.000
704.573;  347.325;    0.000;    0.000
704.680;  332.325;    0.000;    0.000
704.786;  336.325;    0.000;    0.000
704.893;  323.325;    0.000;    0.000
704.999;  326.325;    0.000;    0.000
705.106;  348.325;    0.000;    0.000

