
Integration time [ms]:   1.000
Averaging Nr. [scans]: 1
Smoothing Nr. [pixels]: 0
Data measured with spectrometer [name]: UV1
Wave   ;Sample   ;Dark     ;Reference
[nm]   ;[counts] ;[counts] ;[counts] 

236.381;  139.425;    0.000;    0.000
236.451;  184.425;    0.000;    0.000
236.520;  186.425;    0.000;    0.000
236.590;  184.425;    0.000;    0.000
236.660;  174.425;    0.000;    0.000
236.730;  169.425;    0.000;    0.000
236.799;  192.425;    0.000;    0.000
236.869;  209.425;    0.000;    0.000
236.939;  170.425;    0.000;    0.000
237.009;  173.425;    0.000;    0.000
237.078;  186.425;    0.000;    0.000
237.148;  174.425;    0.000;    0.000
237.218;  198.425;    0.000;    0.000
237.287;  175.425;    0.000;    0.000
237.357;  188.425;    0.000;    0.000
237.427;  203.425;    0.000;    0.000
237.496;  381.425;    0.000;    0.000
237.566;  355.425;    0.000;    0.000
237.636;  385.425;    0.000;    0.000
237.705;  408.425;    0.000;    0.000
237.775;  361.425;    0.000;    0.000
237.845;  382.425;    0.000;    0.000
237.914;  353.425;    0.000;    0.000
237.984;  422.425;    0.000;    0.000
238.054;  384.425;    0.000;    0.000
238.123;  388.425;    0.000;    0.000
238.193;  377.425;    0.000;    0.000
238.263;  404.425;    0.000;    0.000
238.332;  391.425;    0.000;    0.000
238.402;  412.425;    0.000;    0.000
238.471;  364.425;    0.000;    0.000
238.541;  422.425;    0.000;    0.000
238.611;  364.425;    0.000;    0.000
238.680;  367.425;    0.000;    0.000
238.750;  404.425;    0.000;    0.000
238.819;  386.425;    0.000;    0.000
238.889;  361.425;    0.000;    0.000
238.958;  362.425;    0.000;    0.000
239.028;  393.425;    0.000;    0.000
239.097;  388.425;    0.000;    0.000
239.167;  389.425;    0.000;    0.000
239.237;  426.425;    0.000;    0.000
239.306;  369.425;    0.000;    0.000
239.376;  416.425;    0.000;    0.000
239.445;  410.425;    0.000;    0.000
239.515;  388.425;    0.000;    0.000
239.584;  365.425;    0.000;    0.000
239.654;  362.425;    0.000;    0.000
239.723;  408.425;    0.000;    0.000
239.793;  367.425;    0.000;    0.000
239.862;  400.425;    0.000;    0.000
239.932;  390.425;    0.000;    0.000
240.001;  367.425;    0.000;    0.000
240.070;  370.425;    0.000;    0.000
240.140;  379.425;    0.000;    0.000
240.209;  360.425;    0.000;    0.000
240.279;  361.425;    0.000;    0.000
240.348;  377.425;    0.000;    0.000
240.418;  393.425;    0.000;    0.000
240.487;  369.425;    0.000;    0.000
240.556;  376.425;    0.000;    0.000
240.626;  374.425;    0.000;    0.000
240.695;  396.425;    0.000;    0.000
240.765;  404.425;    0.000;    0.000
240.834;  346.425;    0.000;    0.000
240.903;  398.425;    0.000;    0.000
240.973;  391.425;    0.000;    0.000
241.042;  358.425;    0.000;    0.000
241.112;  414.425;    0.000;    0.000
241.181;  363.425;    0.000;    0.000
241.250;  343.425;    0.000;    0.000
241.320;  377.425;    0.000;    0.000
241.389;  333.425;    0.000;    0.000
241.458;  425.425;    0.000;    0.000
241.528;  387.425;    0.000;    0.000
241.597;  373.425;    0.000;    0.000
241.666;  378.425;    0.000;    0.000
241.736;  424.425;    0.000;    0.000
241.805;  404.425;    0.000;    0.000
241.874;  369.425;    0.000;    0.000
241.943;  386.425;    0.000;    0.000
242.013;  379.425;    0.000;    0.000
242.082;  346.425;    0.000;    0.000
242.151;  368.425;    0.000;    0.000
242.221;  398.425;    0.000;    0.000
242.290;  403.425;    0.000;    0.000
242.359;  351.425;    0.000;    0.000
242.428;  405.425;    0.000;    0.000
242.498;  332.425;    0.000;    0.000
242.567;  375.425;    0.000;    0.000
242.636;  343.425;    0.000;    0.000
242.705;  415.425;    0.000;    0.000
242.774;  354.425;    0.000;    0.000
242.844;  404.425;    0.000;    0.000
242.913;  397.425;    0.000;    0.000
242.982;  389.425;    0.000;    0.000
243.051;  353.425;    0.000;    0.000
243.120;  331.425;    0.000;    0.000
243.190;  356.425;    0.000;    0.000
243.259;  352.425;    0.000;    0.000
243.328;  366.425;    0.000;    0.000
243.397;  400.425;    0.000;    0.000
243.466;  401.425;    0.000;    0.000
243.535;  356.425;    0.000;    0.000
243.605;  384.425;    0.000;    0.000
243.674;  401.425;    0.000;    0.000
243.743;  406.425;    0.000;    0.000
243.812;  330.425;    0.000;    0.000
243.881;  400.425;    0.000;    0.000
243.950;  332.425;    0.000;    0.000
244.019;  408.425;    0.000;    0.000
244.088;  415.425;    0.000;    0.000
244.158;  381.425;    0.000;    0.000
244.227;  368.425;    0.000;    0.000
244.296;  370.425;    0.000;    0.000
244.365;  356.425;    0.000;    0.000
244.434;  373.425;    0.000;    0.000
244.503;  424.425;    0.000;    0.000
244.572;  354.425;    0.000;    0.000
244.641;  373.425;    0.000;    0.000
244.710;  374.425;    0.000;    0.000
244.779;  382.425;    0.000;    0.000
244.848;  374.425;    0.000;    0.000
244.917;  375.425;    0.000;    0.000
244.986;  370.425;    0.000;    0.000
245.055;  373.425;    0.000;    0.000
245.124;  367.425;    0.000;    0.000
245.193;  383.425;    0.000;    0.000
245.262;  377.425;    0.000;    0.000
245.331;  373.425;    0.000;    0.000
245.400;  390.425;    0.000;    0.000
245.469;  397.425;    0.000;    0.000
245.538;  377.425;    0.000;    0.000
245.607;  424.425;    0.000;    0.000
245.676;  394.425;    0.000;    0.000
245.745;  383.425;    0.000;    0.000
245.814;  378.425;    0.000;    0.000
245.883;  386.425;    0.000;    0.000
245.952;  378.425;    0.000;    0.000
246.021;  405.425;    0.000;    0.000
246.090;  405.425;    0.000;    0.000
246.159;  395.425;    0.000;    0.000
246.227;  385.425;    0.000;    0.000
246.296;  443.425;    0.000;    0.000
246.365;  436.425;    0.000;    0.000
246.434;  418.425;    0.000;    0.000
246.503;  355.425;    0.000;    0.000
246.572;  408.425;    0.000;    0.000
246.641;  427.425;    0.000;    0.000
246.710;  438.425;    0.000;    0.000
246.779;  383.425;    0.000;    0.000
246.847;  445.425;    0.000;    0.000
246.916;  406.425;    0.000;    0.000
246.985;  383.425;    0.000;    0.000
247.054;  355.425;    0.000;    0.000
247.123;  365.425;    0.000;    0.000
247.192;  408.425;    0.000;    0.000
247.260;  433.425;    0.000;    0.000
247.329;  393.425;    0.000;    0.000
247.398;  391.425;    0.000;    0.000
247.467;  350.425;    0.000;    0.000
247.536;  384.425;    0.000;    0.000
247.604;  404.425;    0.000;    0.000
247.673;  434.425;    0.000;    0.000
247.742;  411.425;    0.000;    0.000
247.811;  393.425;    0.000;    0.000
247.879;  372.425;    0.000;    0.000
247.948;  412.425;    0.000;    0.000
248.017;  391.425;    0.000;    0.000
248.086;  407.425;    0.000;    0.000
248.154;  374.425;    0.000;    0.000
248.223;  378.425;    0.000;    0.000
248.292;  400.425;    0.000;    0.000
248.361;  405.425;    0.000;    0.000
248.429;  379.425;    0.000;    0.000
248.498;  375.425;    0.000;    0.000
248.567;  373.425;    0.000;    0.000
248.635;  384.425;    0.000;    0.000
248.704;  384.425;    0.000;    0.000
248.773;  433.425;    0.000;    0.000
248.841;  439.425;    0.000;    0.000
248.910;  404.425;    0.000;    0.000
248.979;  396.425;    0.000;    0.000
249.047;  382.425;    0.000;    0.000
249.116;  416.425;    0.000;    0.000
249.185;  455.425;    0.000;    0.000
249.253;  344.425;    0.000;    0.000
249.322;  386.425;    0.000;    0.000
249.390;  349.425;    0.000;    0.000
249.459;  360.425;    0.000;    0.000
249.528;  369.425;    0.000;    0.000
249.596;  396.425;    0.000;    0.000
249.665;  337.425;    0.000;    0.000
249.733;  394.425;    0.000;    0.000
249.802;  396.425;    0.000;    0.000
249.871;  348.425;    0.000;    0.000
249.939;  386.425;    0.000;    0.000
250.008;  368.425;    0.000;    0.000
250.076;  359.425;    0.000;    0.000
250.145;  380.425;    0.000;    0.000
250.213;  372.425;    0.000;    0.000
250.282;  363.425;    0.000;    0.000
250.350;  352.425;    0.000;    0.000
250.419;  359.425;    0.000;    0.000
250.487;  378.425;    0.000;    0.000
250.556;  362.425;    0.000;    0.000
250.624;  347.425;    0.000;    0.000
250.693;  344.425;    0.000;    0.000
250.761;  357.425;    0.000;    0.000
250.830;  389.425;    0.000;    0.000
250.898;  373.425;    0.000;    0.000
250.967;  335.425;    0.000;    0.000
251.035;  304.425;    0.000;    0.000
251.104;  346.425;    0.000;    0.000
251.172;  314.425;    0.000;    0.000
251.241;  340.425;    0.000;    0.000
251.309;  351.425;    0.000;    0.000
251.378;  354.425;    0.000;    0.000
251.446;  295.425;    0.000;    0.000
251.514;  359.425;    0.000;    0.000
251.583;  364.425;    0.000;    0.000
251.651;  321.425;    0.000;    0.000
251.720;  351.425;    0.000;    0.000
251.788;  359.425;    0.000;    0.000
251.856;  307.425;    0.000;    0.000
251.925;  308.425;    0.000;    0.000
251.993;  342.425;    0.000;    0.000
252.062;  329.425;    0.000;    0.000
252.130;  327.425;    0.000;    0.000
252.198;  361.425;    0.000;    0.000
252.267;  300.425;    0.000;    0.000
252.335;  321.425;    0.000;    0.000
252.403;  294.425;    0.000;    0.000
252.472;  309.425;    0.000;    0.000
252.540;  290.425;    0.000;    0.000
252.608;  312.425;    0.000;    0.000
252.677;  330.425;    0.000;    0.000
252.745;  343.425;    0.000;    0.000
252.813;  314.425;    0.000;    0.000
252.881;  259.425;    0.000;    0.000
252.950;  308.425;    0.000;    0.000
253.018;  315.425;    0.000;    0.000
253.086;  329.425;    0.000;    0.000
253.155;  325.425;    0.000;    0.000
253.223;  275.425;    0.000;    0.000
253.291;  336.425;    0.000;    0.000
253.359;  333.425;    0.000;    0.000
253.428;  312.425;    0.000;    0.000
253.496;  302.425;    0.000;    0.000
253.564;  261.425;    0.000;    0.000
253.632;  268.425;    0.000;    0.000
253.700;  324.425;    0.000;    0.000
253.769;  294.425;    0.000;    0.000
253.837;  297.425;    0.000;    0.000
253.905;  312.425;    0.000;    0.000
253.973;  286.425;    0.000;    0.000
254.041;  276.425;    0.000;    0.000
254.110;  321.425;    0.000;    0.000
254.178;  264.425;    0.000;    0.000
254.246;  286.425;    0.000;    0.000
254.314;  297.425;    0.000;    0.000
254.382;  290.425;    0.000;    0.000
254.450;  288.425;    0.000;    0.000
254.518;  290.425;    0.000;    0.000
254.587;  257.425;    0.000;    0.000
254.655;  258.425;    0.000;    0.000
254.723;  283.425;    0.000;    0.000
254.791;  314.425;    0.000;    0.000
254.859;  303.425;    0.000;    0.000
254.927;  300.425;    0.000;    0.000
254.995;  313.425;    0.000;    0.000
255.063;  307.425;    0.000;    0.000
255.131;  279.425;    0.000;    0.000
255.199;  293.425;    0.000;    0.000
255.267;  288.425;    0.000;    0.000
255.336;  294.425;    0.000;    0.000
255.404;  279.425;    0.000;    0.000
255.472;  315.425;    0.000;    0.000
255.540;  298.425;    0.000;    0.000
255.608;  302.425;    0.000;    0.000
255.676;  281.425;    0.000;    0.000
255.744;  305.425;    0.000;    0.000
255.812;  303.425;    0.000;    0.000
255.880;  329.425;    0.000;    0.000
255.948;  301.425;    0.000;    0.000
256.016;  336.425;    0.000;    0.000
256.084;  280.425;    0.000;    0.000
256.152;  297.425;    0.000;    0.000
256.220;  282.425;    0.000;    0.000
256.288;  300.425;    0.000;    0.000
256.356;  270.425;    0.000;    0.000
256.424;  272.425;    0.000;    0.000
256.491;  296.425;    0.000;    0.000
256.559;  287.425;    0.000;    0.000
256.627;  332.425;    0.000;    0.000
256.695;  279.425;    0.000;    0.000
256.763;  324.425;    0.000;    0.000
256.831;  290.425;    0.000;    0.000
256.899;  253.425;    0.000;    0.000
256.967;  268.425;    0.000;    0.000
257.035;  307.425;    0.000;    0.000
257.103;  350.425;    0.000;    0.000
257.171;  241.425;    0.000;    0.000
257.238;  284.425;    0.000;    0.000
257.306;  294.425;    0.000;    0.000
257.374;  311.425;    0.000;    0.000
257.442;  279.425;    0.000;    0.000
257.510;  288.425;    0.000;    0.000
257.578;  262.425;    0.000;    0.000
257.646;  327.425;    0.000;    0.000
257.713;  297.425;    0.000;    0.000
257.781;  323.425;    0.000;    0.000
257.849;  320.425;    0.000;    0.000
257.917;  293.425;    0.000;    0.000
257.985;  279.425;    0.000;    0.000
258.052;  262.425;    0.000;    0.000
258.120;  299.425;    0.000;    0.000
258.188;  288.425;    0.000;    0.000
258.256;  308.425;    0.000;    0.000
258.324;  341.425;    0.000;    0.000
258.391;  293.425;    0.000;    0.000
258.459;  355.425;    0.000;    0.000
258.527;  290.425;    0.000;    0.000
258.595;  348.425;    0.000;    0.000
258.662;  322.425;    0.000;    0.000
258.730;  344.425;    0.000;    0.000
258.798;  299.425;    0.000;    0.000
258.865;  305.425;    0.000;    0.000
258.933;  300.425;    0.000;    0.000
259.001;  349.425;    0.000;    0.000
259.069;  310.425;    0.000;    0.000
259.136;  331.425;    0.000;    0.000
259.204;  330.425;    0.000;    0.000
259.272;  346.425;    0.000;    0.000
259.339;  316.425;    0.000;    0.000
259.407;  347.425;    0.000;    0.000
259.475;  311.425;    0.000;    0.000
259.542;  345.425;    0.000;    0.000
259.610;  325.425;    0.000;    0.000
259.677;  332.425;    0.000;    0.000
259.745;  297.425;    0.000;    0.000
259.813;  373.425;    0.000;    0.000
259.880;  398.425;    0.000;    0.000
259.948;  352.425;    0.000;    0.000
260.016;  344.425;    0.000;    0.000
260.083;  366.425;    0.000;    0.000
260.151;  330.425;    0.000;    0.000
260.218;  357.425;    0.000;    0.000
260.286;  364.425;    0.000;    0.000
260.353;  364.425;    0.000;    0.000
260.421;  331.425;    0.000;    0.000
260.489;  369.425;    0.000;    0.000
260.556;  348.425;    0.000;    0.000
260.624;  368.425;    0.000;    0.000
260.691;  368.425;    0.000;    0.000
260.759;  359.425;    0.000;    0.000
260.826;  348.425;    0.000;    0.000
260.894;  390.425;    0.000;    0.000
260.961;  394.425;    0.000;    0.000
261.029;  366.425;    0.000;    0.000
261.096;  405.425;    0.000;    0.000
261.164;  404.425;    0.000;    0.000
261.231;  423.425;    0.000;    0.000
261.299;  407.425;    0.000;    0.000
261.366;  389.425;    0.000;    0.000
261.434;  378.425;    0.000;    0.000
261.501;  382.425;    0.000;    0.000
261.568;  403.425;    0.000;    0.000
261.636;  413.425;    0.000;    0.000
261.703;  450.425;    0.000;    0.000
261.771;  393.425;    0.000;    0.000
261.838;  429.425;    0.000;    0.000
261.906;  401.425;    0.000;    0.000
261.973;  426.425;    0.000;    0.000
262.040;  443.425;    0.000;    0.000
262.108;  392.425;    0.000;    0.000
262.175;  390.425;    0.000;    0.000
262.243;  416.425;    0.000;    0.000
262.310;  407.425;    0.000;    0.000
262.377;  405.425;    0.000;    0.000
262.445;  470.425;    0.000;    0.000
262.512;  397.425;    0.000;    0.000
262.579;  460.425;    0.000;    0.000
262.647;  441.425;    0.000;    0.000
262.714;  466.425;    0.000;    0.000
262.781;  449.425;    0.000;    0.000
262.849;  418.425;    0.000;    0.000
262.916;  450.425;    0.000;    0.000
262.983;  442.425;    0.000;    0.000
263.051;  421.425;    0.000;    0.000
263.118;  468.425;    0.000;    0.000
263.185;  471.425;    0.000;    0.000
263.252;  465.425;    0.000;    0.000
263.320;  467.425;    0.000;    0.000
263.387;  492.425;    0.000;    0.000
263.454;  440.425;    0.000;    0.000
263.522;  445.425;    0.000;    0.000
263.589;  502.425;    0.000;    0.000
263.656;  483.425;    0.000;    0.000
263.723;  488.425;    0.000;    0.000
263.790;  456.425;    0.000;    0.000
263.858;  516.425;    0.000;    0.000
263.925;  509.425;    0.000;    0.000
263.992;  485.425;    0.000;    0.000
264.059;  538.425;    0.000;    0.000
264.126;  528.425;    0.000;    0.000
264.194;  516.425;    0.000;    0.000
264.261;  550.425;    0.000;    0.000
264.328;  492.425;    0.000;    0.000
264.395;  531.425;    0.000;    0.000
264.462;  556.425;    0.000;    0.000
264.529;  536.425;    0.000;    0.000
264.597;  517.425;    0.000;    0.000
264.664;  542.425;    0.000;    0.000
264.731;  515.425;    0.000;    0.000
264.798;  504.425;    0.000;    0.000
264.865;  524.425;    0.000;    0.000
264.932;  498.425;    0.000;    0.000
264.999;  505.425;    0.000;    0.000
265.066;  525.425;    0.000;    0.000
265.133;  560.425;    0.000;    0.000
265.201;  566.425;    0.000;    0.000
265.268;  541.425;    0.000;    0.000
265.335;  568.425;    0.000;    0.000
265.402;  502.425;    0.000;    0.000
265.469;  522.425;    0.000;    0.000
265.536;  561.425;    0.000;    0.000
265.603;  602.425;    0.000;    0.000
265.670;  570.425;    0.000;    0.000
265.737;  567.425;    0.000;    0.000
265.804;  503.425;    0.000;    0.000
265.871;  560.425;    0.000;    0.000
265.938;  585.425;    0.000;    0.000
266.005;  595.425;    0.000;    0.000
266.072;  593.425;    0.000;    0.000
266.139;  561.425;    0.000;    0.000
266.206;  556.425;    0.000;    0.000
266.273;  582.425;    0.000;    0.000
266.340;  589.425;    0.000;    0.000
266.407;  626.425;    0.000;    0.000
266.474;  574.425;    0.000;    0.000
266.541;  542.425;    0.000;    0.000
266.608;  597.425;    0.000;    0.000
266.675;  596.425;    0.000;    0.000
266.742;  619.425;    0.000;    0.000
266.808;  631.425;    0.000;    0.000
266.875;  587.425;    0.000;    0.000
266.942;  620.425;    0.000;    0.000
267.009;  594.425;    0.000;    0.000
267.076;  603.425;    0.000;    0.000
267.143;  583.425;    0.000;    0.000
267.210;  597.425;    0.000;    0.000
267.277;  618.425;    0.000;    0.000
267.344;  629.425;    0.000;    0.000
267.410;  633.425;    0.000;    0.000
267.477;  623.425;    0.000;    0.000
267.544;  598.425;    0.000;    0.000
267.611;  567.425;    0.000;    0.000
267.678;  596.425;    0.000;    0.000
267.745;  676.425;    0.000;    0.000
267.811;  659.425;    0.000;    0.000
267.878;  617.425;    0.000;    0.000
267.945;  631.425;    0.000;    0.000
268.012;  612.425;    0.000;    0.000
268.079;  620.425;    0.000;    0.000
268.145;  621.425;    0.000;    0.000
268.212;  590.425;    0.000;    0.000
268.279;  617.425;    0.000;    0.000
268.346;  612.425;    0.000;    0.000
268.412;  636.425;    0.000;    0.000
268.479;  630.425;    0.000;    0.000
268.546;  623.425;    0.000;    0.000
268.613;  628.425;    0.000;    0.000
268.679;  656.425;    0.000;    0.000
268.746;  662.425;    0.000;    0.000
268.813;  637.425;    0.000;    0.000
268.879;  631.425;    0.000;    0.000
268.946;  614.425;    0.000;    0.000
269.013;  652.425;    0.000;    0.000
269.079;  637.425;    0.000;    0.000
269.146;  580.425;    0.000;    0.000
269.213;  657.425;    0.000;    0.000
269.280;  615.425;    0.000;    0.000
269.346;  698.425;    0.000;    0.000
269.413;  624.425;    0.000;    0.000
269.479;  648.425;    0.000;    0.000
269.546;  602.425;    0.000;    0.000
269.613;  621.425;    0.000;    0.000
269.679;  601.425;    0.000;    0.000
269.746;  586.425;    0.000;    0.000
269.813;  630.425;    0.000;    0.000
269.879;  629.425;    0.000;    0.000
269.946;  608.425;    0.000;    0.000
270.012;  616.425;    0.000;    0.000
270.079;  663.425;    0.000;    0.000
270.145;  633.425;    0.000;    0.000
270.212;  642.425;    0.000;    0.000
270.279;  658.425;    0.000;    0.000
270.345;  640.425;    0.000;    0.000
270.412;  623.425;    0.000;    0.000
270.478;  674.425;    0.000;    0.000
270.545;  625.425;    0.000;    0.000
270.611;  645.425;    0.000;    0.000
270.678;  642.425;    0.000;    0.000
270.744;  625.425;    0.000;    0.000
270.811;  625.425;    0.000;    0.000
270.877;  606.425;    0.000;    0.000
270.944;  604.425;    0.000;    0.000
271.010;  615.425;    0.000;    0.000
271.077;  622.425;    0.000;    0.000
271.143;  630.425;    0.000;    0.000
271.210;  615.425;    0.000;    0.000
271.276;  580.425;    0.000;    0.000
271.342;  667.425;    0.000;    0.000
271.409;  617.425;    0.000;    0.000
271.475;  589.425;    0.000;    0.000
271.542;  625.425;    0.000;    0.000
271.608;  618.425;    0.000;    0.000
271.675;  597.425;    0.000;    0.000
271.741;  706.425;    0.000;    0.000
271.807;  582.425;    0.000;    0.000
271.874;  638.425;    0.000;    0.000
271.940;  667.425;    0.000;    0.000
272.007;  666.425;    0.000;    0.000
272.073;  637.425;    0.000;    0.000
272.139;  647.425;    0.000;    0.000
272.206;  615.425;    0.000;    0.000
272.272;  671.425;    0.000;    0.000
272.338;  655.425;    0.000;    0.000
272.405;  622.425;    0.000;    0.000
272.471;  625.425;    0.000;    0.000
272.537;  699.425;    0.000;    0.000
272.604;  657.425;    0.000;    0.000
272.670;  655.425;    0.000;    0.000
272.736;  625.425;    0.000;    0.000
272.802;  686.425;    0.000;    0.000
272.869;  633.425;    0.000;    0.000
272.935;  678.425;    0.000;    0.000
273.001;  645.425;    0.000;    0.000
273.068;  664.425;    0.000;    0.000
273.134;  695.425;    0.000;    0.000
273.200;  648.425;    0.000;    0.000
273.266;  659.425;    0.000;    0.000
273.333;  684.425;    0.000;    0.000
273.399;  646.425;    0.000;    0.000
273.465;  683.425;    0.000;    0.000
273.531;  676.425;    0.000;    0.000
273.597;  675.425;    0.000;    0.000
273.664;  678.425;    0.000;    0.000
273.730;  697.425;    0.000;    0.000
273.796;  655.425;    0.000;    0.000
273.862;  630.425;    0.000;    0.000
273.928;  637.425;    0.000;    0.000
273.995;  675.425;    0.000;    0.000
274.061;  724.425;    0.000;    0.000
274.127;  669.425;    0.000;    0.000
274.193;  669.425;    0.000;    0.000
274.259;  684.425;    0.000;    0.000
274.325;  665.425;    0.000;    0.000
274.391;  656.425;    0.000;    0.000
274.457;  696.425;    0.000;    0.000
274.524;  714.425;    0.000;    0.000
274.590;  722.425;    0.000;    0.000
274.656;  686.425;    0.000;    0.000
274.722;  712.425;    0.000;    0.000
274.788;  680.425;    0.000;    0.000
274.854;  749.425;    0.000;    0.000
274.920;  639.425;    0.000;    0.000
274.986;  739.425;    0.000;    0.000
275.052;  666.425;    0.000;    0.000
275.118;  650.425;    0.000;    0.000
275.184;  726.425;    0.000;    0.000
275.250;  743.425;    0.000;    0.000
275.316;  727.425;    0.000;    0.000
275.382;  727.425;    0.000;    0.000
275.448;  719.425;    0.000;    0.000
275.514;  705.425;    0.000;    0.000
275.580;  763.425;    0.000;    0.000
275.646;  721.425;    0.000;    0.000
275.712;  723.425;    0.000;    0.000
275.778;  775.425;    0.000;    0.000
275.844;  730.425;    0.000;    0.000
275.910;  771.425;    0.000;    0.000
275.976;  792.425;    0.000;    0.000
276.042;  713.425;    0.000;    0.000
276.108;  777.425;    0.000;    0.000
276.174;  849.425;    0.000;    0.000
276.240;  781.425;    0.000;    0.000
276.306;  784.425;    0.000;    0.000
276.372;  788.425;    0.000;    0.000
276.437;  804.425;    0.000;    0.000
276.503;  804.425;    0.000;    0.000
276.569;  866.425;    0.000;    0.000
276.635;  826.425;    0.000;    0.000
276.701;  834.425;    0.000;    0.000
276.767;  874.425;    0.000;    0.000
276.833;  866.425;    0.000;    0.000
276.899;  891.425;    0.000;    0.000
276.964;  925.425;    0.000;    0.000
277.030; 1015.425;    0.000;    0.000
277.096; 1005.425;    0.000;    0.000
277.162; 1005.425;    0.000;    0.000
277.228; 1023.425;    0.000;    0.000
277.293; 1036.425;    0.000;    0.000
277.359; 1107.425;    0.000;    0.000
277.425; 1148.425;    0.000;    0.000
277.491; 1160.425;    0.000;    0.000
277.557; 1269.425;    0.000;    0.000
277.622; 1650.425;    0.000;    0.000
277.688; 1863.425;    0.000;    0.000
277.754; 1770.425;    0.000;    0.000
277.820; 1958.425;    0.000;    0.000
277.885; 2182.425;    0.000;    0.000
277.951; 2819.425;    0.000;    0.000
278.017; 2857.425;    0.000;    0.000
278.083; 2309.425;    0.000;    0.000
278.148; 2145.425;    0.000;    0.000
278.214; 2139.425;    0.000;    0.000
278.280; 2339.425;    0.000;    0.000
278.345; 2150.425;    0.000;    0.000
278.411; 2028.425;    0.000;    0.000
278.477; 1922.425;    0.000;    0.000
278.542; 2021.425;    0.000;    0.000
278.608; 2187.425;    0.000;    0.000
278.674; 2319.425;    0.000;    0.000
278.739; 2594.425;    0.000;    0.000
278.805; 2885.425;    0.000;    0.000
278.871; 3316.425;    0.000;    0.000
278.936; 3895.425;    0.000;    0.000
279.002; 5169.425;    0.000;    0.000
279.067; 6973.425;    0.000;    0.000
279.133; 7704.425;    0.000;    0.000
279.199; 7308.425;    0.000;    0.000
279.264; 7195.425;    0.000;    0.000
279.330; 8122.425;    0.000;    0.000
279.395; 9802.425;    0.000;    0.000
279.461;12592.425;    0.000;    0.000
279.527;13700.425;    0.000;    0.000
279.592;13877.425;    0.000;    0.000
279.658;12597.425;    0.000;    0.000
279.723;11409.425;    0.000;    0.000
279.789;11760.425;    0.000;    0.000
279.854;11432.425;    0.000;    0.000
279.920; 9722.425;    0.000;    0.000
279.985; 8672.425;    0.000;    0.000
280.051; 8500.425;    0.000;    0.000
280.116; 9338.425;    0.000;    0.000
280.182;11568.425;    0.000;    0.000
280.247;13333.425;    0.000;    0.000
280.313;13144.425;    0.000;    0.000
280.378;10446.425;    0.000;    0.000
280.444; 7659.425;    0.000;    0.000
280.509; 6046.425;    0.000;    0.000
280.574; 5024.425;    0.000;    0.000
280.640; 4274.425;    0.000;    0.000
280.705; 3881.425;    0.000;    0.000
280.771; 3437.425;    0.000;    0.000
280.836; 3141.425;    0.000;    0.000
280.902; 2956.425;    0.000;    0.000
280.967; 2745.425;    0.000;    0.000
281.032; 2536.425;    0.000;    0.000
281.098; 2446.425;    0.000;    0.000
281.163; 2406.425;    0.000;    0.000
281.229; 2270.425;    0.000;    0.000
281.294; 2126.425;    0.000;    0.000
281.359; 2024.425;    0.000;    0.000
281.425; 2063.425;    0.000;    0.000
281.490; 1855.425;    0.000;    0.000
281.555; 1887.425;    0.000;    0.000
281.621; 1767.425;    0.000;    0.000
281.686; 1690.425;    0.000;    0.000
281.751; 1689.425;    0.000;    0.000
281.816; 1593.425;    0.000;    0.000
281.882; 1565.425;    0.000;    0.000
281.947; 1517.425;    0.000;    0.000
282.012; 1477.425;    0.000;    0.000
282.078; 1438.425;    0.000;    0.000
282.143; 1484.425;    0.000;    0.000
282.208; 1394.425;    0.000;    0.000
282.273; 1384.425;    0.000;    0.000
282.339; 1358.425;    0.000;    0.000
282.404; 1379.425;    0.000;    0.000
282.469; 1302.425;    0.000;    0.000
282.534; 1281.425;    0.000;    0.000
282.600; 1248.425;    0.000;    0.000
282.665; 1321.425;    0.000;    0.000
282.730; 1247.425;    0.000;    0.000
282.795; 1285.425;    0.000;    0.000
282.860; 1266.425;    0.000;    0.000
282.926; 1234.425;    0.000;    0.000
282.991; 1204.425;    0.000;    0.000
283.056; 1147.425;    0.000;    0.000
283.121; 1214.425;    0.000;    0.000
283.186; 1137.425;    0.000;    0.000
283.251; 1233.425;    0.000;    0.000
283.316; 1204.425;    0.000;    0.000
283.382; 1211.425;    0.000;    0.000
283.447; 1179.425;    0.000;    0.000
283.512; 1116.425;    0.000;    0.000
283.577; 1190.425;    0.000;    0.000
283.642; 1140.425;    0.000;    0.000
283.707; 1053.425;    0.000;    0.000
283.772; 1121.425;    0.000;    0.000
283.837; 1142.425;    0.000;    0.000
283.902; 1121.425;    0.000;    0.000
283.967; 1120.425;    0.000;    0.000
284.032; 1132.425;    0.000;    0.000
284.097; 1188.425;    0.000;    0.000
284.163; 1117.425;    0.000;    0.000
284.228; 1162.425;    0.000;    0.000
284.293; 1156.425;    0.000;    0.000
284.358; 1162.425;    0.000;    0.000
284.423; 1170.425;    0.000;    0.000
284.488; 1198.425;    0.000;    0.000
284.553; 1203.425;    0.000;    0.000
284.618; 1250.425;    0.000;    0.000
284.683; 1241.425;    0.000;    0.000
284.748; 1361.425;    0.000;    0.000
284.812; 1441.425;    0.000;    0.000
284.877; 1537.425;    0.000;    0.000
284.942; 1703.425;    0.000;    0.000
285.007; 2054.425;    0.000;    0.000
285.072; 2572.425;    0.000;    0.000
285.137; 3650.425;    0.000;    0.000
285.202; 5304.425;    0.000;    0.000
285.267; 5665.425;    0.000;    0.000
285.332; 4239.425;    0.000;    0.000
285.397; 2982.425;    0.000;    0.000
285.462; 2321.425;    0.000;    0.000
285.527; 1978.425;    0.000;    0.000
285.591; 1822.425;    0.000;    0.000
285.656; 1593.425;    0.000;    0.000
285.721; 1471.425;    0.000;    0.000
285.786; 1384.425;    0.000;    0.000
285.851; 1359.425;    0.000;    0.000
285.916; 1353.425;    0.000;    0.000
285.981; 1202.425;    0.000;    0.000
286.045; 1207.425;    0.000;    0.000
286.110; 1172.425;    0.000;    0.000
286.175; 1153.425;    0.000;    0.000
286.240; 1176.425;    0.000;    0.000
286.305; 1175.425;    0.000;    0.000
286.369; 1113.425;    0.000;    0.000
286.434; 1156.425;    0.000;    0.000
286.499; 1106.425;    0.000;    0.000
286.564; 1106.425;    0.000;    0.000
286.628; 1089.425;    0.000;    0.000
286.693; 1054.425;    0.000;    0.000
286.758; 1106.425;    0.000;    0.000
286.823; 1097.425;    0.000;    0.000
286.887; 1055.425;    0.000;    0.000
286.952;  990.425;    0.000;    0.000
287.017; 1071.425;    0.000;    0.000
287.082; 1087.425;    0.000;    0.000
287.146; 1066.425;    0.000;    0.000
287.211; 1069.425;    0.000;    0.000
287.276; 1009.425;    0.000;    0.000
287.340; 1033.425;    0.000;    0.000
287.405; 1033.425;    0.000;    0.000
287.470;  959.425;    0.000;    0.000
287.534; 1050.425;    0.000;    0.000
287.599; 1016.425;    0.000;    0.000
287.663; 1032.425;    0.000;    0.000
287.728; 1056.425;    0.000;    0.000
287.793; 1051.425;    0.000;    0.000
287.857; 1031.425;    0.000;    0.000
287.922;  974.425;    0.000;    0.000
287.987; 1076.425;    0.000;    0.000
288.051; 1034.425;    0.000;    0.000
288.116;  987.425;    0.000;    0.000
288.180;  991.425;    0.000;    0.000
288.245; 1059.425;    0.000;    0.000
288.309; 1022.425;    0.000;    0.000
288.374; 1075.425;    0.000;    0.000
288.439; 1045.425;    0.000;    0.000
288.503; 1039.425;    0.000;    0.000
288.568; 1019.425;    0.000;    0.000
288.632; 1061.425;    0.000;    0.000
288.697; 1025.425;    0.000;    0.000
288.761; 1052.425;    0.000;    0.000
288.826;  987.425;    0.000;    0.000
288.890; 1013.425;    0.000;    0.000
288.955;  976.425;    0.000;    0.000
289.019; 1062.425;    0.000;    0.000
289.084;  980.425;    0.000;    0.000
289.148; 1029.425;    0.000;    0.000
289.212; 1060.425;    0.000;    0.000
289.277; 1024.425;    0.000;    0.000
289.341;  977.425;    0.000;    0.000
289.406;  928.425;    0.000;    0.000
289.470;  990.425;    0.000;    0.000
289.535; 1006.425;    0.000;    0.000
289.599;  960.425;    0.000;    0.000
289.663; 1038.425;    0.000;    0.000
289.728; 1002.425;    0.000;    0.000
289.792;  999.425;    0.000;    0.000
289.857; 1033.425;    0.000;    0.000
289.921; 1002.425;    0.000;    0.000
289.985; 1019.425;    0.000;    0.000
290.050;  979.425;    0.000;    0.000
290.114;  985.425;    0.000;    0.000
290.178; 1004.425;    0.000;    0.000
290.243;  997.425;    0.000;    0.000
290.307; 1047.425;    0.000;    0.000
290.371; 1015.425;    0.000;    0.000
290.436; 1014.425;    0.000;    0.000
290.500; 1098.425;    0.000;    0.000
290.564; 1070.425;    0.000;    0.000
290.629; 1045.425;    0.000;    0.000
290.693; 1063.425;    0.000;    0.000
290.757; 1027.425;    0.000;    0.000
290.821; 1039.425;    0.000;    0.000
290.886; 1033.425;    0.000;    0.000
290.950; 1060.425;    0.000;    0.000
291.014; 1075.425;    0.000;    0.000
291.078; 1023.425;    0.000;    0.000
291.143; 1035.425;    0.000;    0.000
291.207; 1096.425;    0.000;    0.000
291.271; 1076.425;    0.000;    0.000
291.335; 1063.425;    0.000;    0.000
291.399; 1083.425;    0.000;    0.000
291.464; 1189.425;    0.000;    0.000
291.528; 1256.425;    0.000;    0.000
291.592; 1228.425;    0.000;    0.000
291.656; 1149.425;    0.000;    0.000
291.720; 1105.425;    0.000;    0.000
291.784; 1136.425;    0.000;    0.000
291.849; 1208.425;    0.000;    0.000
291.913; 1138.425;    0.000;    0.000
291.977; 1162.425;    0.000;    0.000
292.041; 1156.425;    0.000;    0.000
292.105; 1186.425;    0.000;    0.000
292.169; 1162.425;    0.000;    0.000
292.233; 1209.425;    0.000;    0.000
292.297; 1185.425;    0.000;    0.000
292.361; 1156.425;    0.000;    0.000
292.425; 1183.425;    0.000;    0.000
292.490; 1333.425;    0.000;    0.000
292.554; 1332.425;    0.000;    0.000
292.618; 1368.425;    0.000;    0.000
292.682; 1400.425;    0.000;    0.000
292.746; 1515.425;    0.000;    0.000
292.810; 1888.425;    0.000;    0.000
292.874; 2334.425;    0.000;    0.000
292.938; 2484.425;    0.000;    0.000
293.002; 2340.425;    0.000;    0.000
293.066; 2235.425;    0.000;    0.000
293.130; 2074.425;    0.000;    0.000
293.194; 1995.425;    0.000;    0.000
293.258; 1994.425;    0.000;    0.000
293.322; 1940.425;    0.000;    0.000
293.386; 2017.425;    0.000;    0.000
293.450; 1947.425;    0.000;    0.000
293.514; 2215.425;    0.000;    0.000
293.577; 2503.425;    0.000;    0.000
293.641; 3326.425;    0.000;    0.000
293.705; 3940.425;    0.000;    0.000
293.769; 3673.425;    0.000;    0.000
293.833; 3389.425;    0.000;    0.000
293.897; 3063.425;    0.000;    0.000
293.961; 2823.425;    0.000;    0.000
294.025; 2552.425;    0.000;    0.000
294.089; 2474.425;    0.000;    0.000
294.152; 2324.425;    0.000;    0.000
294.216; 2095.425;    0.000;    0.000
294.280; 2097.425;    0.000;    0.000
294.344; 1800.425;    0.000;    0.000
294.408; 1791.425;    0.000;    0.000
294.472; 1702.425;    0.000;    0.000
294.536; 1725.425;    0.000;    0.000
294.599; 1620.425;    0.000;    0.000
294.663; 1574.425;    0.000;    0.000
294.727; 1657.425;    0.000;    0.000
294.791; 1557.425;    0.000;    0.000
294.855; 1494.425;    0.000;    0.000
294.918; 1508.425;    0.000;    0.000
294.982; 1417.425;    0.000;    0.000
295.046; 1446.425;    0.000;    0.000
295.110; 1448.425;    0.000;    0.000
295.173; 1325.425;    0.000;    0.000
295.237; 1376.425;    0.000;    0.000
295.301; 1360.425;    0.000;    0.000
295.364; 1377.425;    0.000;    0.000
295.428; 1402.425;    0.000;    0.000
295.492; 1402.425;    0.000;    0.000
295.556; 1380.425;    0.000;    0.000
295.619; 1300.425;    0.000;    0.000
295.683; 1308.425;    0.000;    0.000
295.747; 1271.425;    0.000;    0.000
295.810; 1299.425;    0.000;    0.000
295.874; 1280.425;    0.000;    0.000
295.938; 1258.425;    0.000;    0.000
296.001; 1268.425;    0.000;    0.000
296.065; 1179.425;    0.000;    0.000
296.128; 1295.425;    0.000;    0.000
296.192; 1310.425;    0.000;    0.000
296.256; 1203.425;    0.000;    0.000
296.319; 1206.425;    0.000;    0.000
296.383; 1215.425;    0.000;    0.000
296.447; 1275.425;    0.000;    0.000
296.510; 1243.425;    0.000;    0.000
296.574; 1247.425;    0.000;    0.000
296.637; 1185.425;    0.000;    0.000
296.701; 1223.425;    0.000;    0.000
296.764; 1183.425;    0.000;    0.000
296.828; 1273.425;    0.000;    0.000
296.891; 1205.425;    0.000;    0.000
296.955; 1258.425;    0.000;    0.000
297.018; 1213.425;    0.000;    0.000
297.082; 1269.425;    0.000;    0.000
297.145; 1176.425;    0.000;    0.000
297.209; 1224.425;    0.000;    0.000
297.272; 1223.425;    0.000;    0.000
297.336; 1170.425;    0.000;    0.000
297.399; 1228.425;    0.000;    0.000
297.463; 1264.425;    0.000;    0.000
297.526; 1198.425;    0.000;    0.000
297.590; 1205.425;    0.000;    0.000
297.653; 1147.425;    0.000;    0.000
297.717; 1214.425;    0.000;    0.000
297.780; 1178.425;    0.000;    0.000
297.843; 1151.425;    0.000;    0.000
297.907; 1194.425;    0.000;    0.000
297.970; 1171.425;    0.000;    0.000
298.034; 1201.425;    0.000;    0.000
298.097; 1163.425;    0.000;    0.000
298.160; 1151.425;    0.000;    0.000
298.224; 1167.425;    0.000;    0.000
298.287; 1141.425;    0.000;    0.000
298.350; 1238.425;    0.000;    0.000
298.414; 1163.425;    0.000;    0.000
298.477; 1119.425;    0.000;    0.000
298.540; 1201.425;    0.000;    0.000
298.604; 1186.425;    0.000;    0.000
298.667; 1177.425;    0.000;    0.000
298.730; 1189.425;    0.000;    0.000
298.794; 1139.425;    0.000;    0.000
298.857; 1172.425;    0.000;    0.000
298.920; 1195.425;    0.000;    0.000
298.984; 1226.425;    0.000;    0.000
299.047; 1136.425;    0.000;    0.000
299.110; 1211.425;    0.000;    0.000
299.173; 1148.425;    0.000;    0.000
299.237; 1155.425;    0.000;    0.000
299.300; 1187.425;    0.000;    0.000
299.363; 1118.425;    0.000;    0.000
299.426; 1153.425;    0.000;    0.000
299.489; 1118.425;    0.000;    0.000
299.553; 1167.425;    0.000;    0.000
299.616; 1153.425;    0.000;    0.000
299.679; 1113.425;    0.000;    0.000
299.742; 1154.425;    0.000;    0.000
299.805; 1131.425;    0.000;    0.000
299.868; 1153.425;    0.000;    0.000
299.932; 1132.425;    0.000;    0.000
299.995; 1110.425;    0.000;    0.000
300.058; 1101.425;    0.000;    0.000
300.121; 1095.425;    0.000;    0.000
300.184; 1094.425;    0.000;    0.000
300.247; 1110.425;    0.000;    0.000
300.310; 1153.425;    0.000;    0.000
300.374; 1114.425;    0.000;    0.000
300.437; 1075.425;    0.000;    0.000
300.500; 1127.425;    0.000;    0.000
300.563; 1109.425;    0.000;    0.000
300.626; 1124.425;    0.000;    0.000
300.689; 1163.425;    0.000;    0.000
300.752; 1137.425;    0.000;    0.000
300.815; 1177.425;    0.000;    0.000
300.878; 1166.425;    0.000;    0.000
300.941; 1134.425;    0.000;    0.000
301.004; 1123.425;    0.000;    0.000
301.067; 1152.425;    0.000;    0.000
301.130; 1134.425;    0.000;    0.000
301.193; 1153.425;    0.000;    0.000
301.256; 1103.425;    0.000;    0.000
301.319; 1177.425;    0.000;    0.000
301.382; 1166.425;    0.000;    0.000
301.445; 1195.425;    0.000;    0.000
301.508; 1172.425;    0.000;    0.000
301.571; 1147.425;    0.000;    0.000
301.634; 1120.425;    0.000;    0.000
301.697; 1161.425;    0.000;    0.000
301.760; 1151.425;    0.000;    0.000
301.823; 1146.425;    0.000;    0.000
301.885; 1121.425;    0.000;    0.000
301.948; 1128.425;    0.000;    0.000
302.011; 1184.425;    0.000;    0.000
302.074; 1211.425;    0.000;    0.000
302.137; 1183.425;    0.000;    0.000
302.200; 1130.425;    0.000;    0.000
302.263; 1158.425;    0.000;    0.000
302.326; 1204.425;    0.000;    0.000
302.388; 1205.425;    0.000;    0.000
302.451; 1129.425;    0.000;    0.000
302.514; 1139.425;    0.000;    0.000
302.577; 1153.425;    0.000;    0.000
302.640; 1144.425;    0.000;    0.000
302.703; 1160.425;    0.000;    0.000
302.765; 1176.425;    0.000;    0.000
302.828; 1207.425;    0.000;    0.000
302.891; 1146.425;    0.000;    0.000
302.954; 1198.425;    0.000;    0.000
303.016; 1176.425;    0.000;    0.000
303.079; 1174.425;    0.000;    0.000
303.142; 1195.425;    0.000;    0.000
303.205; 1237.425;    0.000;    0.000
303.267; 1195.425;    0.000;    0.000
303.330; 1180.425;    0.000;    0.000
303.393; 1157.425;    0.000;    0.000
303.456; 1233.425;    0.000;    0.000
303.518; 1232.425;    0.000;    0.000
303.581; 1221.425;    0.000;    0.000
303.644; 1154.425;    0.000;    0.000
303.706; 1168.425;    0.000;    0.000
303.769; 1248.425;    0.000;    0.000
303.832; 1184.425;    0.000;    0.000
303.894; 1208.425;    0.000;    0.000
303.957; 1183.425;    0.000;    0.000
304.020; 1166.425;    0.000;    0.000
304.082; 1228.425;    0.000;    0.000
304.145; 1282.425;    0.000;    0.000
304.207; 1228.425;    0.000;    0.000
304.270; 1253.425;    0.000;    0.000
304.333; 1241.425;    0.000;    0.000
304.395; 1204.425;    0.000;    0.000
304.458; 1219.425;    0.000;    0.000
304.520; 1270.425;    0.000;    0.000
304.583; 1234.425;    0.000;    0.000
304.646; 1282.425;    0.000;    0.000
304.708; 1244.425;    0.000;    0.000
304.771; 1283.425;    0.000;    0.000
304.833; 1313.425;    0.000;    0.000
304.896; 1287.425;    0.000;    0.000
304.958; 1223.425;    0.000;    0.000
305.021; 1268.425;    0.000;    0.000
305.083; 1271.425;    0.000;    0.000
305.146; 1334.425;    0.000;    0.000
305.208; 1289.425;    0.000;    0.000
305.271; 1267.425;    0.000;    0.000
305.333; 1344.425;    0.000;    0.000
305.396; 1357.425;    0.000;    0.000
305.458; 1267.425;    0.000;    0.000
305.520; 1294.425;    0.000;    0.000
305.583; 1301.425;    0.000;    0.000
305.645; 1326.425;    0.000;    0.000
305.708; 1308.425;    0.000;    0.000
305.770; 1335.425;    0.000;    0.000
305.833; 1289.425;    0.000;    0.000
305.895; 1284.425;    0.000;    0.000
305.957; 1309.425;    0.000;    0.000
306.020; 1270.425;    0.000;    0.000
306.082; 1221.425;    0.000;    0.000
306.144; 1310.425;    0.000;    0.000
306.207; 1328.425;    0.000;    0.000
306.269; 1352.425;    0.000;    0.000
306.331; 1287.425;    0.000;    0.000
306.394; 1250.425;    0.000;    0.000
306.456; 1279.425;    0.000;    0.000
306.518; 1430.425;    0.000;    0.000
306.581; 1334.425;    0.000;    0.000
306.643; 1363.425;    0.000;    0.000
306.705; 1329.425;    0.000;    0.000
306.768; 1331.425;    0.000;    0.000
306.830; 1367.425;    0.000;    0.000
306.892; 1377.425;    0.000;    0.000
306.954; 1375.425;    0.000;    0.000
307.017; 1362.425;    0.000;    0.000
307.079; 1405.425;    0.000;    0.000
307.141; 1413.425;    0.000;    0.000
307.203; 1392.425;    0.000;    0.000
307.266; 1439.425;    0.000;    0.000
307.328; 1381.425;    0.000;    0.000
307.390; 1444.425;    0.000;    0.000
307.452; 1466.425;    0.000;    0.000
307.514; 1464.425;    0.000;    0.000
307.577; 1457.425;    0.000;    0.000
307.639; 1454.425;    0.000;    0.000
307.701; 1478.425;    0.000;    0.000
307.763; 1489.425;    0.000;    0.000
307.825; 1520.425;    0.000;    0.000
307.887; 1478.425;    0.000;    0.000
307.949; 1503.425;    0.000;    0.000
308.012; 1483.425;    0.000;    0.000
308.074; 1504.425;    0.000;    0.000
308.136; 1498.425;    0.000;    0.000
308.198; 1455.425;    0.000;    0.000
308.260; 1511.425;    0.000;    0.000
308.322; 1523.425;    0.000;    0.000
308.384; 1574.425;    0.000;    0.000
308.446; 1507.425;    0.000;    0.000
308.508; 1541.425;    0.000;    0.000
308.570; 1605.425;    0.000;    0.000
308.632; 1617.425;    0.000;    0.000
308.694; 1607.425;    0.000;    0.000
308.756; 1543.425;    0.000;    0.000
308.818; 1630.425;    0.000;    0.000
308.880; 1538.425;    0.000;    0.000
308.942; 1610.425;    0.000;    0.000
309.004; 1651.425;    0.000;    0.000
309.066; 1713.425;    0.000;    0.000
309.128; 1651.425;    0.000;    0.000
309.190; 1641.425;    0.000;    0.000
309.252; 1775.425;    0.000;    0.000
309.314; 1677.425;    0.000;    0.000
309.376; 1736.425;    0.000;    0.000
309.438; 1741.425;    0.000;    0.000
309.500; 1682.425;    0.000;    0.000
309.562; 1727.425;    0.000;    0.000
309.624; 1776.425;    0.000;    0.000
309.686; 1802.425;    0.000;    0.000
309.747; 1874.425;    0.000;    0.000
309.809; 1771.425;    0.000;    0.000
309.871; 1757.425;    0.000;    0.000
309.933; 1684.425;    0.000;    0.000
309.995; 1669.425;    0.000;    0.000
310.057; 1641.425;    0.000;    0.000
310.119; 1657.425;    0.000;    0.000
310.180; 1672.425;    0.000;    0.000
310.242; 1602.425;    0.000;    0.000
310.304; 1682.425;    0.000;    0.000
310.366; 1662.425;    0.000;    0.000
310.428; 1568.425;    0.000;    0.000
310.489; 1562.425;    0.000;    0.000
310.551; 1617.425;    0.000;    0.000
310.613; 1613.425;    0.000;    0.000
310.675; 1597.425;    0.000;    0.000
310.737; 1594.425;    0.000;    0.000
310.798; 1605.425;    0.000;    0.000
310.860; 1644.425;    0.000;    0.000
310.922; 1640.425;    0.000;    0.000
310.983; 1602.425;    0.000;    0.000
311.045; 1503.425;    0.000;    0.000
311.107; 1610.425;    0.000;    0.000
311.169; 1600.425;    0.000;    0.000
311.230; 1548.425;    0.000;    0.000
311.292; 1589.425;    0.000;    0.000
311.354; 1569.425;    0.000;    0.000
311.415; 1615.425;    0.000;    0.000
311.477; 1586.425;    0.000;    0.000
311.539; 1630.425;    0.000;    0.000
311.600; 1636.425;    0.000;    0.000
311.662; 1684.425;    0.000;    0.000
311.724; 1525.425;    0.000;    0.000
311.785; 1609.425;    0.000;    0.000
311.847; 1571.425;    0.000;    0.000
311.908; 1568.425;    0.000;    0.000
311.970; 1614.425;    0.000;    0.000
312.032; 1588.425;    0.000;    0.000
312.093; 1544.425;    0.000;    0.000
312.155; 1679.425;    0.000;    0.000
312.216; 1582.425;    0.000;    0.000
312.278; 1577.425;    0.000;    0.000
312.339; 1556.425;    0.000;    0.000
312.401; 1668.425;    0.000;    0.000
312.462; 1629.425;    0.000;    0.000
312.524; 1641.425;    0.000;    0.000
312.585; 1596.425;    0.000;    0.000
312.647; 1580.425;    0.000;    0.000
312.708; 1610.425;    0.000;    0.000
312.770; 1612.425;    0.000;    0.000
312.831; 1624.425;    0.000;    0.000
312.893; 1624.425;    0.000;    0.000
312.954; 1632.425;    0.000;    0.000
313.016; 1669.425;    0.000;    0.000
313.077; 1624.425;    0.000;    0.000
313.139; 1682.425;    0.000;    0.000
313.200; 1600.425;    0.000;    0.000
313.261; 1710.425;    0.000;    0.000
313.323; 1724.425;    0.000;    0.000
313.384; 1592.425;    0.000;    0.000
313.446; 1619.425;    0.000;    0.000
313.507; 1630.425;    0.000;    0.000
313.568; 1709.425;    0.000;    0.000
313.630; 1682.425;    0.000;    0.000
313.691; 1664.425;    0.000;    0.000
313.752; 1709.425;    0.000;    0.000
313.814; 1687.425;    0.000;    0.000
313.875; 1618.425;    0.000;    0.000
313.936; 1651.425;    0.000;    0.000
313.998; 1670.425;    0.000;    0.000
314.059; 1616.425;    0.000;    0.000
314.120; 1627.425;    0.000;    0.000
314.182; 1607.425;    0.000;    0.000
314.243; 1653.425;    0.000;    0.000
314.304; 1695.425;    0.000;    0.000
314.365; 1598.425;    0.000;    0.000
314.427; 1639.425;    0.000;    0.000
314.488; 1649.425;    0.000;    0.000
314.549; 1666.425;    0.000;    0.000
314.610; 1669.425;    0.000;    0.000
314.672; 1689.425;    0.000;    0.000
314.733; 1607.425;    0.000;    0.000
314.794; 1630.425;    0.000;    0.000
314.855; 1705.425;    0.000;    0.000
314.917; 1702.425;    0.000;    0.000
314.978; 1666.425;    0.000;    0.000
315.039; 1697.425;    0.000;    0.000
315.100; 1759.425;    0.000;    0.000
315.161; 1710.425;    0.000;    0.000
315.222; 1717.425;    0.000;    0.000
315.283; 1617.425;    0.000;    0.000
315.345; 1666.425;    0.000;    0.000
315.406; 1665.425;    0.000;    0.000
315.467; 1675.425;    0.000;    0.000
315.528; 1726.425;    0.000;    0.000
315.589; 1710.425;    0.000;    0.000
315.650; 1643.425;    0.000;    0.000
315.711; 1690.425;    0.000;    0.000
315.772; 1581.425;    0.000;    0.000
315.833; 1669.425;    0.000;    0.000
315.894; 1675.425;    0.000;    0.000
315.955; 1761.425;    0.000;    0.000
316.016; 1687.425;    0.000;    0.000
316.078; 1710.425;    0.000;    0.000
316.139; 1760.425;    0.000;    0.000
316.200; 1675.425;    0.000;    0.000
316.261; 1682.425;    0.000;    0.000
316.322; 1687.425;    0.000;    0.000
316.383; 1607.425;    0.000;    0.000
316.444; 1738.425;    0.000;    0.000
316.504; 1679.425;    0.000;    0.000
316.565; 1751.425;    0.000;    0.000
316.626; 1697.425;    0.000;    0.000
316.687; 1707.425;    0.000;    0.000
316.748; 1763.425;    0.000;    0.000
316.809; 1717.425;    0.000;    0.000
316.870; 1635.425;    0.000;    0.000
316.931; 1768.425;    0.000;    0.000
316.992; 1779.425;    0.000;    0.000
317.053; 1715.425;    0.000;    0.000
317.114; 1764.425;    0.000;    0.000
317.175; 1781.425;    0.000;    0.000
317.235; 1814.425;    0.000;    0.000
317.296; 1807.425;    0.000;    0.000
317.357; 1741.425;    0.000;    0.000
317.418; 1766.425;    0.000;    0.000
317.479; 1742.425;    0.000;    0.000
317.540; 1747.425;    0.000;    0.000
317.601; 1743.425;    0.000;    0.000
317.661; 1744.425;    0.000;    0.000
317.722; 1683.425;    0.000;    0.000
317.783; 1663.425;    0.000;    0.000
317.844; 1771.425;    0.000;    0.000
317.904; 1759.425;    0.000;    0.000
317.965; 1716.425;    0.000;    0.000
318.026; 1743.425;    0.000;    0.000
318.087; 1715.425;    0.000;    0.000
318.148; 1755.425;    0.000;    0.000
318.208; 1731.425;    0.000;    0.000
318.269; 1680.425;    0.000;    0.000
318.330; 1701.425;    0.000;    0.000
318.390; 1819.425;    0.000;    0.000
318.451; 1783.425;    0.000;    0.000
318.512; 1789.425;    0.000;    0.000
318.572; 1790.425;    0.000;    0.000
318.633; 1836.425;    0.000;    0.000
318.694; 1767.425;    0.000;    0.000
318.754; 1791.425;    0.000;    0.000
318.815; 1858.425;    0.000;    0.000
318.876; 1685.425;    0.000;    0.000
318.936; 1754.425;    0.000;    0.000
318.997; 1769.425;    0.000;    0.000
319.058; 1711.425;    0.000;    0.000
319.118; 1791.425;    0.000;    0.000
319.179; 1724.425;    0.000;    0.000
319.239; 1779.425;    0.000;    0.000
319.300; 1760.425;    0.000;    0.000
319.361; 1767.425;    0.000;    0.000
319.421; 1799.425;    0.000;    0.000
319.482; 1680.425;    0.000;    0.000
319.542; 1727.425;    0.000;    0.000
319.603; 1700.425;    0.000;    0.000
319.663; 1605.425;    0.000;    0.000
319.724; 1695.425;    0.000;    0.000
319.784; 1720.425;    0.000;    0.000
319.845; 1715.425;    0.000;    0.000
319.905; 1750.425;    0.000;    0.000
319.966; 1764.425;    0.000;    0.000
320.026; 1793.425;    0.000;    0.000
320.087; 1778.425;    0.000;    0.000
320.147; 1829.425;    0.000;    0.000
320.208; 1801.425;    0.000;    0.000
320.268; 1806.425;    0.000;    0.000
320.329; 1864.425;    0.000;    0.000
320.389; 1813.425;    0.000;    0.000
320.449; 1822.425;    0.000;    0.000
320.510; 1766.425;    0.000;    0.000
320.570; 1811.425;    0.000;    0.000
320.631; 1796.425;    0.000;    0.000
320.691; 1780.425;    0.000;    0.000
320.751; 1779.425;    0.000;    0.000
320.812; 1835.425;    0.000;    0.000
320.872; 1887.425;    0.000;    0.000
320.932; 1832.425;    0.000;    0.000
320.993; 1758.425;    0.000;    0.000
321.053; 1839.425;    0.000;    0.000
321.113; 1807.425;    0.000;    0.000
321.174; 1781.425;    0.000;    0.000
321.234; 1822.425;    0.000;    0.000
321.294; 1723.425;    0.000;    0.000
321.355; 1817.425;    0.000;    0.000
321.415; 1807.425;    0.000;    0.000
321.475; 1742.425;    0.000;    0.000
321.535; 1907.425;    0.000;    0.000
321.596; 1747.425;    0.000;    0.000
321.656; 1826.425;    0.000;    0.000
321.716; 1903.425;    0.000;    0.000
321.776; 1839.425;    0.000;    0.000
321.837; 1845.425;    0.000;    0.000
321.897; 1809.425;    0.000;    0.000
321.957; 1853.425;    0.000;    0.000
322.017; 1765.425;    0.000;    0.000
322.077; 1959.425;    0.000;    0.000
322.138; 1920.425;    0.000;    0.000
322.198; 1896.425;    0.000;    0.000
322.258; 1916.425;    0.000;    0.000
322.318; 1858.425;    0.000;    0.000
322.378; 1959.425;    0.000;    0.000
322.438; 1868.425;    0.000;    0.000
322.499; 1900.425;    0.000;    0.000
322.559; 1922.425;    0.000;    0.000
322.619; 1899.425;    0.000;    0.000
322.679; 1839.425;    0.000;    0.000
322.739; 1882.425;    0.000;    0.000
322.799; 1946.425;    0.000;    0.000
322.859; 1901.425;    0.000;    0.000
322.919; 1791.425;    0.000;    0.000
322.979; 1839.425;    0.000;    0.000
323.039; 1919.425;    0.000;    0.000
323.099; 1827.425;    0.000;    0.000
323.159; 1856.425;    0.000;    0.000
323.219; 1841.425;    0.000;    0.000
323.279; 1849.425;    0.000;    0.000
323.339; 1859.425;    0.000;    0.000
323.399; 1889.425;    0.000;    0.000
323.459; 1898.425;    0.000;    0.000
323.519; 1990.425;    0.000;    0.000
323.579; 1916.425;    0.000;    0.000
323.639; 1949.425;    0.000;    0.000
323.699; 1876.425;    0.000;    0.000
323.759; 1931.425;    0.000;    0.000
323.819; 2009.425;    0.000;    0.000
323.879; 1974.425;    0.000;    0.000
323.939; 1884.425;    0.000;    0.000
323.999; 1936.425;    0.000;    0.000
324.059; 1939.425;    0.000;    0.000
324.119; 1950.425;    0.000;    0.000
324.178; 1845.425;    0.000;    0.000
324.238; 1942.425;    0.000;    0.000
324.298; 1834.425;    0.000;    0.000
324.358; 1853.425;    0.000;    0.000
324.418; 1859.425;    0.000;    0.000
324.478; 1904.425;    0.000;    0.000
324.538; 1861.425;    0.000;    0.000
324.597; 1877.425;    0.000;    0.000
324.657; 1888.425;    0.000;    0.000
324.717; 1867.425;    0.000;    0.000
324.777; 1880.425;    0.000;    0.000
324.837; 1874.425;    0.000;    0.000
324.896; 1886.425;    0.000;    0.000
324.956; 1872.425;    0.000;    0.000
325.016; 1909.425;    0.000;    0.000
325.076; 1856.425;    0.000;    0.000
325.135; 1879.425;    0.000;    0.000
325.195; 1937.425;    0.000;    0.000
325.255; 1840.425;    0.000;    0.000
325.315; 1974.425;    0.000;    0.000
325.374; 1942.425;    0.000;    0.000
325.434; 1929.425;    0.000;    0.000
325.494; 1898.425;    0.000;    0.000
325.553; 1942.425;    0.000;    0.000
325.613; 1943.425;    0.000;    0.000
325.673; 1895.425;    0.000;    0.000
325.732; 1834.425;    0.000;    0.000
325.792; 1805.425;    0.000;    0.000
325.852; 1859.425;    0.000;    0.000
325.911; 1857.425;    0.000;    0.000
325.971; 1919.425;    0.000;    0.000
326.031; 1853.425;    0.000;    0.000
326.090; 1842.425;    0.000;    0.000
326.150; 1789.425;    0.000;    0.000
326.209; 1906.425;    0.000;    0.000
326.269; 1859.425;    0.000;    0.000
326.328; 1944.425;    0.000;    0.000
326.388; 1921.425;    0.000;    0.000
326.448; 1992.425;    0.000;    0.000
326.507; 1959.425;    0.000;    0.000
326.567; 1843.425;    0.000;    0.000
326.626; 1934.425;    0.000;    0.000
326.686; 1848.425;    0.000;    0.000
326.745; 1886.425;    0.000;    0.000
326.805; 1855.425;    0.000;    0.000
326.864; 1871.425;    0.000;    0.000
326.924; 1905.425;    0.000;    0.000
326.983; 1866.425;    0.000;    0.000
327.043; 1863.425;    0.000;    0.000
327.102; 1985.425;    0.000;    0.000
327.161; 1911.425;    0.000;    0.000
327.221; 1932.425;    0.000;    0.000
327.280; 1961.425;    0.000;    0.000
327.340; 1941.425;    0.000;    0.000
327.399; 1932.425;    0.000;    0.000
327.459; 1925.425;    0.000;    0.000
327.518; 1800.425;    0.000;    0.000
327.577; 1878.425;    0.000;    0.000
327.637; 1894.425;    0.000;    0.000
327.696; 1832.425;    0.000;    0.000
327.755; 1856.425;    0.000;    0.000
327.815; 1952.425;    0.000;    0.000
327.874; 1825.425;    0.000;    0.000
327.933; 1933.425;    0.000;    0.000
327.993; 1916.425;    0.000;    0.000
328.052; 1930.425;    0.000;    0.000
328.111; 1886.425;    0.000;    0.000
328.171; 1872.425;    0.000;    0.000
328.230; 1956.425;    0.000;    0.000
328.289; 1922.425;    0.000;    0.000
328.349; 2059.425;    0.000;    0.000
328.408; 1995.425;    0.000;    0.000
328.467; 1946.425;    0.000;    0.000
328.526; 2092.425;    0.000;    0.000
328.586; 2007.425;    0.000;    0.000
328.645; 1981.425;    0.000;    0.000
328.704; 1971.425;    0.000;    0.000
328.763; 1931.425;    0.000;    0.000
328.822; 2006.425;    0.000;    0.000
328.882; 2069.425;    0.000;    0.000
328.941; 1960.425;    0.000;    0.000
329.000; 1995.425;    0.000;    0.000
329.059; 1925.425;    0.000;    0.000
329.118; 1965.425;    0.000;    0.000
329.177; 2002.425;    0.000;    0.000
329.237; 2066.425;    0.000;    0.000
329.296; 1983.425;    0.000;    0.000
329.355; 1996.425;    0.000;    0.000
329.414; 2008.425;    0.000;    0.000
329.473; 1967.425;    0.000;    0.000
329.532; 2005.425;    0.000;    0.000
329.591; 1987.425;    0.000;    0.000
329.650; 2084.425;    0.000;    0.000
329.709; 2144.425;    0.000;    0.000
329.768; 2179.425;    0.000;    0.000
329.827; 2256.425;    0.000;    0.000
329.886; 2287.425;    0.000;    0.000
329.945; 2272.425;    0.000;    0.000
330.004; 2324.425;    0.000;    0.000
330.063; 2239.425;    0.000;    0.000
330.122; 2296.425;    0.000;    0.000
330.181; 2517.425;    0.000;    0.000
330.240; 2552.425;    0.000;    0.000
330.299; 2478.425;    0.000;    0.000
330.358; 2319.425;    0.000;    0.000
330.417; 2206.425;    0.000;    0.000
330.476; 2174.425;    0.000;    0.000
330.535; 2200.425;    0.000;    0.000
330.594; 2189.425;    0.000;    0.000
330.653; 1965.425;    0.000;    0.000
330.712; 2009.425;    0.000;    0.000
330.771; 1983.425;    0.000;    0.000
330.830; 1998.425;    0.000;    0.000
330.889; 2004.425;    0.000;    0.000
330.948; 1960.425;    0.000;    0.000
331.006; 2094.425;    0.000;    0.000
331.065; 2039.425;    0.000;    0.000
331.124; 2039.425;    0.000;    0.000
331.183; 2028.425;    0.000;    0.000
331.242; 1980.425;    0.000;    0.000
331.301; 2023.425;    0.000;    0.000
331.359; 1979.425;    0.000;    0.000
331.418; 2015.425;    0.000;    0.000
331.477; 2038.425;    0.000;    0.000
331.536; 1980.425;    0.000;    0.000
331.595; 1913.425;    0.000;    0.000
331.653; 1801.425;    0.000;    0.000
331.712; 1937.425;    0.000;    0.000
331.771; 1951.425;    0.000;    0.000
331.830; 1984.425;    0.000;    0.000
331.888; 1976.425;    0.000;    0.000
331.947; 1976.425;    0.000;    0.000
332.006; 1950.425;    0.000;    0.000
332.065; 1937.425;    0.000;    0.000
332.123; 1944.425;    0.000;    0.000
332.182; 1950.425;    0.000;    0.000
332.241; 1992.425;    0.000;    0.000
332.299; 2019.425;    0.000;    0.000
332.358; 2056.425;    0.000;    0.000
332.417; 2108.425;    0.000;    0.000
332.475; 2137.425;    0.000;    0.000
332.534; 2064.425;    0.000;    0.000
332.592; 2063.425;    0.000;    0.000
332.651; 2032.425;    0.000;    0.000
332.710; 2020.425;    0.000;    0.000
332.768; 2026.425;    0.000;    0.000
332.827; 1920.425;    0.000;    0.000
332.885; 1957.425;    0.000;    0.000
332.944; 1924.425;    0.000;    0.000
333.003; 1914.425;    0.000;    0.000
333.061; 2081.425;    0.000;    0.000
333.120; 2054.425;    0.000;    0.000
333.178; 2102.425;    0.000;    0.000
333.237; 2172.425;    0.000;    0.000
333.295; 2185.425;    0.000;    0.000
333.354; 2098.425;    0.000;    0.000
333.412; 2075.425;    0.000;    0.000
333.471; 2119.425;    0.000;    0.000
333.529; 2138.425;    0.000;    0.000
333.588; 2204.425;    0.000;    0.000
333.646; 2225.425;    0.000;    0.000
333.705; 2259.425;    0.000;    0.000
333.763; 2173.425;    0.000;    0.000
333.822; 2259.425;    0.000;    0.000
333.880; 2180.425;    0.000;    0.000
333.938; 2174.425;    0.000;    0.000
333.997; 2267.425;    0.000;    0.000
334.055; 2274.425;    0.000;    0.000
334.114; 2299.425;    0.000;    0.000
334.172; 2142.425;    0.000;    0.000
334.230; 2237.425;    0.000;    0.000
334.289; 2253.425;    0.000;    0.000
334.347; 2259.425;    0.000;    0.000
334.405; 2197.425;    0.000;    0.000
334.464; 2243.425;    0.000;    0.000
334.522; 2166.425;    0.000;    0.000
334.580; 2152.425;    0.000;    0.000
334.639; 2251.425;    0.000;    0.000
334.697; 2104.425;    0.000;    0.000
334.755; 2129.425;    0.000;    0.000
334.814; 2231.425;    0.000;    0.000
334.872; 2128.425;    0.000;    0.000
334.930; 2085.425;    0.000;    0.000
334.988; 2122.425;    0.000;    0.000
335.047; 2130.425;    0.000;    0.000
335.105; 2129.425;    0.000;    0.000
335.163; 2112.425;    0.000;    0.000
335.221; 2180.425;    0.000;    0.000
335.280; 2195.425;    0.000;    0.000
335.338; 2189.425;    0.000;    0.000
335.396; 2218.425;    0.000;    0.000
335.454; 2118.425;    0.000;    0.000
335.512; 2232.425;    0.000;    0.000
335.570; 2149.425;    0.000;    0.000
335.629; 2286.425;    0.000;    0.000
335.687; 2287.425;    0.000;    0.000
335.745; 2373.425;    0.000;    0.000
335.803; 2398.425;    0.000;    0.000
335.861; 2382.425;    0.000;    0.000
335.919; 2367.425;    0.000;    0.000
335.977; 2309.425;    0.000;    0.000
336.035; 2246.425;    0.000;    0.000
336.094; 2291.425;    0.000;    0.000
336.152; 2367.425;    0.000;    0.000
336.210; 2339.425;    0.000;    0.000
336.268; 2306.425;    0.000;    0.000
336.326; 2397.425;    0.000;    0.000
336.384; 2451.425;    0.000;    0.000
336.442; 2325.425;    0.000;    0.000
336.500; 2373.425;    0.000;    0.000
336.558; 2305.425;    0.000;    0.000
336.616; 2330.425;    0.000;    0.000
336.674; 2341.425;    0.000;    0.000
336.732; 2370.425;    0.000;    0.000
336.790; 2306.425;    0.000;    0.000
336.848; 2320.425;    0.000;    0.000
336.906; 2279.425;    0.000;    0.000
336.964; 2308.425;    0.000;    0.000
337.022; 2331.425;    0.000;    0.000
337.080; 2287.425;    0.000;    0.000
337.138; 2306.425;    0.000;    0.000
337.195; 2345.425;    0.000;    0.000
337.253; 2292.425;    0.000;    0.000
337.311; 2303.425;    0.000;    0.000
337.369; 2183.425;    0.000;    0.000
337.427; 2193.425;    0.000;    0.000
337.485; 2218.425;    0.000;    0.000
337.543; 2142.425;    0.000;    0.000
337.601; 2237.425;    0.000;    0.000
337.658; 2259.425;    0.000;    0.000
337.716; 2204.425;    0.000;    0.000
337.774; 2219.425;    0.000;    0.000
337.832; 2265.425;    0.000;    0.000
337.890; 2096.425;    0.000;    0.000
337.947; 2183.425;    0.000;    0.000
338.005; 2112.425;    0.000;    0.000
338.063; 2091.425;    0.000;    0.000
338.121; 2206.425;    0.000;    0.000
338.178; 2266.425;    0.000;    0.000
338.236; 2373.425;    0.000;    0.000
338.294; 2396.425;    0.000;    0.000
338.352; 2315.425;    0.000;    0.000
338.409; 2245.425;    0.000;    0.000
338.467; 2185.425;    0.000;    0.000
338.525; 2108.425;    0.000;    0.000
338.583; 2202.425;    0.000;    0.000
338.640; 2137.425;    0.000;    0.000
338.698; 2138.425;    0.000;    0.000
338.756; 2294.425;    0.000;    0.000
338.813; 2418.425;    0.000;    0.000
338.871; 2431.425;    0.000;    0.000
338.928; 2362.425;    0.000;    0.000
338.986; 2381.425;    0.000;    0.000
339.044; 2297.425;    0.000;    0.000
339.101; 2233.425;    0.000;    0.000
339.159; 2219.425;    0.000;    0.000
339.216; 2263.425;    0.000;    0.000
339.274; 2246.425;    0.000;    0.000
339.332; 2304.425;    0.000;    0.000
339.389; 2310.425;    0.000;    0.000
339.447; 2289.425;    0.000;    0.000
339.504; 2189.425;    0.000;    0.000
339.562; 2145.425;    0.000;    0.000
339.619; 2146.425;    0.000;    0.000
339.677; 2219.425;    0.000;    0.000
339.734; 2226.425;    0.000;    0.000
339.792; 2256.425;    0.000;    0.000
339.849; 2224.425;    0.000;    0.000
339.907; 2283.425;    0.000;    0.000
339.964; 2293.425;    0.000;    0.000
340.022; 2263.425;    0.000;    0.000
340.079; 2308.425;    0.000;    0.000
340.137; 2214.425;    0.000;    0.000
340.194; 2343.425;    0.000;    0.000
340.252; 2308.425;    0.000;    0.000
340.309; 2237.425;    0.000;    0.000
340.366; 2296.425;    0.000;    0.000
340.424; 2349.425;    0.000;    0.000
340.481; 2321.425;    0.000;    0.000
340.538; 2196.425;    0.000;    0.000
340.596; 2244.425;    0.000;    0.000
340.653; 2294.425;    0.000;    0.000
340.711; 2400.425;    0.000;    0.000
340.768; 2386.425;    0.000;    0.000
340.825; 2348.425;    0.000;    0.000
340.883; 2444.425;    0.000;    0.000
340.940; 2385.425;    0.000;    0.000
340.997; 2296.425;    0.000;    0.000
341.054; 2445.425;    0.000;    0.000
341.112; 2428.425;    0.000;    0.000
341.169; 2450.425;    0.000;    0.000
341.226; 2354.425;    0.000;    0.000
341.284; 2444.425;    0.000;    0.000
341.341; 2436.425;    0.000;    0.000
341.398; 2416.425;    0.000;    0.000
341.455; 2443.425;    0.000;    0.000
341.512; 2307.425;    0.000;    0.000
341.570; 2308.425;    0.000;    0.000
341.627; 2340.425;    0.000;    0.000
341.684; 2262.425;    0.000;    0.000
341.741; 2463.425;    0.000;    0.000
341.798; 2311.425;    0.000;    0.000
341.856; 2290.425;    0.000;    0.000
341.913; 2360.425;    0.000;    0.000
341.970; 2347.425;    0.000;    0.000
342.027; 2397.425;    0.000;    0.000
342.084; 2461.425;    0.000;    0.000
342.141; 2443.425;    0.000;    0.000
342.198; 2524.425;    0.000;    0.000
342.255; 2463.425;    0.000;    0.000
342.313; 2414.425;    0.000;    0.000
342.370; 2350.425;    0.000;    0.000
342.427; 2273.425;    0.000;    0.000
342.484; 2192.425;    0.000;    0.000
342.541; 2163.425;    0.000;    0.000
342.598; 2273.425;    0.000;    0.000
342.655; 2269.425;    0.000;    0.000
342.712; 2264.425;    0.000;    0.000
342.769; 2268.425;    0.000;    0.000
342.826; 2371.425;    0.000;    0.000
342.883; 2288.425;    0.000;    0.000
342.940; 2230.425;    0.000;    0.000
342.997; 2336.425;    0.000;    0.000
343.054; 2240.425;    0.000;    0.000
343.111; 2251.425;    0.000;    0.000
343.168; 2280.425;    0.000;    0.000
343.225; 2263.425;    0.000;    0.000
343.282; 2356.425;    0.000;    0.000
343.339; 2254.425;    0.000;    0.000
343.395; 2259.425;    0.000;    0.000
343.452; 2366.425;    0.000;    0.000
343.509; 2241.425;    0.000;    0.000
343.566; 2346.425;    0.000;    0.000
343.623; 2365.425;    0.000;    0.000
343.680; 2301.425;    0.000;    0.000
343.737; 2345.425;    0.000;    0.000
343.794; 2318.425;    0.000;    0.000
343.850; 2227.425;    0.000;    0.000
343.907; 2342.425;    0.000;    0.000
343.964; 2360.425;    0.000;    0.000
344.021; 2370.425;    0.000;    0.000
344.078; 2265.425;    0.000;    0.000
344.134; 2363.425;    0.000;    0.000
344.191; 2345.425;    0.000;    0.000
344.248; 2320.425;    0.000;    0.000
344.305; 2431.425;    0.000;    0.000
344.361; 2398.425;    0.000;    0.000
344.418; 2379.425;    0.000;    0.000
344.475; 2264.425;    0.000;    0.000
344.532; 2308.425;    0.000;    0.000
344.588; 2397.425;    0.000;    0.000
344.645; 2299.425;    0.000;    0.000
344.702; 2413.425;    0.000;    0.000
344.758; 2384.425;    0.000;    0.000
344.815; 2378.425;    0.000;    0.000
344.872; 2240.425;    0.000;    0.000
344.928; 2335.425;    0.000;    0.000
344.985; 2376.425;    0.000;    0.000
345.042; 2428.425;    0.000;    0.000
345.098; 2409.425;    0.000;    0.000
345.155; 2452.425;    0.000;    0.000
345.212; 2317.425;    0.000;    0.000
345.268; 2342.425;    0.000;    0.000
345.325; 2368.425;    0.000;    0.000
345.381; 2404.425;    0.000;    0.000
345.438; 2424.425;    0.000;    0.000
345.495; 2486.425;    0.000;    0.000
345.551; 2387.425;    0.000;    0.000
345.608; 2340.425;    0.000;    0.000
345.664; 2416.425;    0.000;    0.000
345.721; 2284.425;    0.000;    0.000
345.777; 2345.425;    0.000;    0.000
345.834; 2305.425;    0.000;    0.000
345.890; 2268.425;    0.000;    0.000
345.947; 2346.425;    0.000;    0.000
346.003; 2282.425;    0.000;    0.000
346.060; 2382.425;    0.000;    0.000
346.116; 2378.425;    0.000;    0.000
346.173; 2340.425;    0.000;    0.000
346.229; 2409.425;    0.000;    0.000
346.285; 2279.425;    0.000;    0.000
346.342; 2281.425;    0.000;    0.000
346.398; 2279.425;    0.000;    0.000
346.455; 2370.425;    0.000;    0.000
346.511; 2524.425;    0.000;    0.000
346.567; 2451.425;    0.000;    0.000
346.624; 2546.425;    0.000;    0.000
346.680; 2413.425;    0.000;    0.000
346.737; 2601.425;    0.000;    0.000
346.793; 2452.425;    0.000;    0.000
346.849; 2563.425;    0.000;    0.000
346.906; 2517.425;    0.000;    0.000
346.962; 2608.425;    0.000;    0.000
347.018; 2534.425;    0.000;    0.000
347.074; 2514.425;    0.000;    0.000
347.131; 2507.425;    0.000;    0.000
347.187; 2588.425;    0.000;    0.000
347.243; 2536.425;    0.000;    0.000
347.300; 2501.425;    0.000;    0.000
347.356; 2451.425;    0.000;    0.000
347.412; 2461.425;    0.000;    0.000
347.468; 2356.425;    0.000;    0.000
347.524; 2330.425;    0.000;    0.000
347.581; 2274.425;    0.000;    0.000
347.637; 2325.425;    0.000;    0.000
347.693; 2474.425;    0.000;    0.000
347.749; 2314.425;    0.000;    0.000
347.805; 2283.425;    0.000;    0.000
347.862; 2347.425;    0.000;    0.000
347.918; 2338.425;    0.000;    0.000
347.974; 2369.425;    0.000;    0.000
348.030; 2329.425;    0.000;    0.000
348.086; 2241.425;    0.000;    0.000
348.142; 2315.425;    0.000;    0.000
348.198; 2291.425;    0.000;    0.000
348.254; 2294.425;    0.000;    0.000
348.311; 2264.425;    0.000;    0.000
348.367; 2292.425;    0.000;    0.000
348.423; 2273.425;    0.000;    0.000
348.479; 2317.425;    0.000;    0.000
348.535; 2253.425;    0.000;    0.000
348.591; 2296.425;    0.000;    0.000
348.647; 2330.425;    0.000;    0.000
348.703; 2346.425;    0.000;    0.000
348.759; 2286.425;    0.000;    0.000
348.815; 2336.425;    0.000;    0.000
348.871; 2270.425;    0.000;    0.000
348.927; 2363.425;    0.000;    0.000
348.983; 2375.425;    0.000;    0.000
349.039; 2333.425;    0.000;    0.000
349.095; 2406.425;    0.000;    0.000
349.151; 2379.425;    0.000;    0.000
349.207; 2253.425;    0.000;    0.000
349.263; 2369.425;    0.000;    0.000
349.319; 2336.425;    0.000;    0.000
349.374; 2377.425;    0.000;    0.000
349.430; 2361.425;    0.000;    0.000
349.486; 2512.425;    0.000;    0.000
349.542; 2476.425;    0.000;    0.000
349.598; 2480.425;    0.000;    0.000
349.654; 2440.425;    0.000;    0.000
349.710; 2390.425;    0.000;    0.000
349.766; 2358.425;    0.000;    0.000
349.821; 2354.425;    0.000;    0.000
349.877; 2416.425;    0.000;    0.000
349.933; 2332.425;    0.000;    0.000
349.989; 2481.425;    0.000;    0.000
350.045; 2377.425;    0.000;    0.000
350.100; 2307.425;    0.000;    0.000
350.156; 2422.425;    0.000;    0.000
350.212; 2364.425;    0.000;    0.000
350.268; 2400.425;    0.000;    0.000
350.323; 2406.425;    0.000;    0.000
350.379; 2339.425;    0.000;    0.000
350.435; 2399.425;    0.000;    0.000
350.491; 2292.425;    0.000;    0.000
350.546; 2340.425;    0.000;    0.000
350.602; 2219.425;    0.000;    0.000
350.658; 2383.425;    0.000;    0.000
350.713; 2347.425;    0.000;    0.000
350.769; 2342.425;    0.000;    0.000
350.825; 2346.425;    0.000;    0.000
350.880; 2295.425;    0.000;    0.000
350.936; 2357.425;    0.000;    0.000
350.992; 2305.425;    0.000;    0.000
351.047; 2385.425;    0.000;    0.000
351.103; 2365.425;    0.000;    0.000
351.158; 2393.425;    0.000;    0.000
351.214; 2312.425;    0.000;    0.000
351.270; 2310.425;    0.000;    0.000
351.325; 2332.425;    0.000;    0.000
351.381; 2300.425;    0.000;    0.000
351.436; 2330.425;    0.000;    0.000
351.492; 2428.425;    0.000;    0.000
351.547; 2431.425;    0.000;    0.000
351.603; 2468.425;    0.000;    0.000
351.658; 2520.425;    0.000;    0.000
351.714; 2369.425;    0.000;    0.000
351.769; 2424.425;    0.000;    0.000
351.825; 2403.425;    0.000;    0.000
351.880; 2564.425;    0.000;    0.000
351.936; 2532.425;    0.000;    0.000
351.991; 2458.425;    0.000;    0.000
352.047; 2450.425;    0.000;    0.000
352.102; 2447.425;    0.000;    0.000
352.158; 2360.425;    0.000;    0.000
352.213; 2456.425;    0.000;    0.000
352.268; 2369.425;    0.000;    0.000
352.324; 2395.425;    0.000;    0.000
352.379; 2411.425;    0.000;    0.000
352.434; 2490.425;    0.000;    0.000
352.490; 2500.425;    0.000;    0.000
352.545; 2426.425;    0.000;    0.000
352.601; 2335.425;    0.000;    0.000
352.656; 2347.425;    0.000;    0.000
352.711; 2327.425;    0.000;    0.000
352.767; 2408.425;    0.000;    0.000
352.822; 2261.425;    0.000;    0.000
352.877; 2283.425;    0.000;    0.000
352.932; 2301.425;    0.000;    0.000
352.988; 2271.425;    0.000;    0.000
353.043; 2316.425;    0.000;    0.000
353.098; 2310.425;    0.000;    0.000
353.153; 2335.425;    0.000;    0.000
353.209; 2346.425;    0.000;    0.000
353.264; 2221.425;    0.000;    0.000
353.319; 2312.425;    0.000;    0.000
353.374; 2269.425;    0.000;    0.000
353.430; 2293.425;    0.000;    0.000
353.485; 2265.425;    0.000;    0.000
353.540; 2248.425;    0.000;    0.000
353.595; 2292.425;    0.000;    0.000
353.650; 2276.425;    0.000;    0.000
353.705; 2212.425;    0.000;    0.000
353.761; 2174.425;    0.000;    0.000
353.816; 2126.425;    0.000;    0.000
353.871; 2248.425;    0.000;    0.000
353.926; 2250.425;    0.000;    0.000
353.981; 2168.425;    0.000;    0.000
354.036; 2137.425;    0.000;    0.000
354.091; 2231.425;    0.000;    0.000
354.146; 2186.425;    0.000;    0.000
354.201; 2281.425;    0.000;    0.000
354.256; 2232.425;    0.000;    0.000
354.311; 2284.425;    0.000;    0.000
354.367; 2247.425;    0.000;    0.000
354.422; 2281.425;    0.000;    0.000
354.477; 2272.425;    0.000;    0.000
354.532; 2292.425;    0.000;    0.000
354.587; 2264.425;    0.000;    0.000
354.642; 2331.425;    0.000;    0.000
354.697; 2358.425;    0.000;    0.000
354.751; 2442.425;    0.000;    0.000
354.806; 2370.425;    0.000;    0.000
354.861; 2422.425;    0.000;    0.000
354.916; 2271.425;    0.000;    0.000
354.971; 2241.425;    0.000;    0.000
355.026; 2285.425;    0.000;    0.000
355.081; 2215.425;    0.000;    0.000
355.136; 2167.425;    0.000;    0.000
355.191; 2197.425;    0.000;    0.000
355.246; 2238.425;    0.000;    0.000
355.301; 2258.425;    0.000;    0.000
355.355; 2289.425;    0.000;    0.000
355.410; 2319.425;    0.000;    0.000
355.465; 2264.425;    0.000;    0.000
355.520; 2289.425;    0.000;    0.000
355.575; 2301.425;    0.000;    0.000
355.630; 2282.425;    0.000;    0.000
355.684; 2223.425;    0.000;    0.000
355.739; 2264.425;    0.000;    0.000
355.794; 2226.425;    0.000;    0.000
355.849; 2280.425;    0.000;    0.000
355.904; 2293.425;    0.000;    0.000
355.958; 2209.425;    0.000;    0.000
356.013; 2198.425;    0.000;    0.000
356.068; 2195.425;    0.000;    0.000
356.123; 2238.425;    0.000;    0.000
356.177; 2312.425;    0.000;    0.000
356.232; 2312.425;    0.000;    0.000
356.287; 2379.425;    0.000;    0.000
356.341; 2377.425;    0.000;    0.000
356.396; 2275.425;    0.000;    0.000
356.451; 2346.425;    0.000;    0.000
356.505; 2222.425;    0.000;    0.000
356.560; 2323.425;    0.000;    0.000
356.615; 2270.425;    0.000;    0.000
356.669; 2353.425;    0.000;    0.000
356.724; 2315.425;    0.000;    0.000
356.778; 2277.425;    0.000;    0.000
356.833; 2289.425;    0.000;    0.000
356.888; 2289.425;    0.000;    0.000
356.942; 2226.425;    0.000;    0.000
356.997; 2311.425;    0.000;    0.000
357.051; 2208.425;    0.000;    0.000
357.106; 2226.425;    0.000;    0.000
357.160; 2188.425;    0.000;    0.000
357.215; 2165.425;    0.000;    0.000
357.269; 2209.425;    0.000;    0.000
357.324; 2248.425;    0.000;    0.000
357.378; 2257.425;    0.000;    0.000
357.433; 2136.425;    0.000;    0.000
357.487; 2226.425;    0.000;    0.000
357.542; 2130.425;    0.000;    0.000
357.596; 2168.425;    0.000;    0.000
357.651; 2238.425;    0.000;    0.000
357.705; 2188.425;    0.000;    0.000
357.760; 2143.425;    0.000;    0.000
357.814; 2103.425;    0.000;    0.000
357.868; 2228.425;    0.000;    0.000
357.923; 2203.425;    0.000;    0.000
357.977; 2220.425;    0.000;    0.000
358.032; 2267.425;    0.000;    0.000
358.086; 2253.425;    0.000;    0.000
358.140; 2160.425;    0.000;    0.000
358.195; 2189.425;    0.000;    0.000
358.249; 2158.425;    0.000;    0.000
358.303; 2155.425;    0.000;    0.000
358.358; 2112.425;    0.000;    0.000
358.412; 2118.425;    0.000;    0.000
358.466; 2120.425;    0.000;    0.000
358.521; 2139.425;    0.000;    0.000
358.575; 2131.425;    0.000;    0.000
358.629; 2110.425;    0.000;    0.000
358.683; 2197.425;    0.000;    0.000
358.738; 2068.425;    0.000;    0.000
358.792; 2091.425;    0.000;    0.000
358.846; 2147.425;    0.000;    0.000
358.900; 2069.425;    0.000;    0.000
358.954; 2128.425;    0.000;    0.000
359.009; 2178.425;    0.000;    0.000
359.063; 2115.425;    0.000;    0.000
359.117; 2143.425;    0.000;    0.000
359.171; 2120.425;    0.000;    0.000
359.225; 2188.425;    0.000;    0.000
359.280; 2105.425;    0.000;    0.000
359.334; 2215.425;    0.000;    0.000
359.388; 2269.425;    0.000;    0.000
359.442; 2084.425;    0.000;    0.000
359.496; 2092.425;    0.000;    0.000
359.550; 2106.425;    0.000;    0.000
359.604; 2135.425;    0.000;    0.000
359.658; 2084.425;    0.000;    0.000
359.712; 2092.425;    0.000;    0.000
359.766; 2138.425;    0.000;    0.000
359.820; 2133.425;    0.000;    0.000
359.875; 2121.425;    0.000;    0.000
359.929; 2140.425;    0.000;    0.000
359.983; 2090.425;    0.000;    0.000
360.037; 2105.425;    0.000;    0.000
360.091; 2130.425;    0.000;    0.000
360.145; 2132.425;    0.000;    0.000
360.199; 2046.425;    0.000;    0.000
360.253; 2121.425;    0.000;    0.000
360.306; 2040.425;    0.000;    0.000
360.360; 2129.425;    0.000;    0.000
360.414; 2140.425;    0.000;    0.000
360.468; 2109.425;    0.000;    0.000
360.522; 2136.425;    0.000;    0.000
360.576; 2142.425;    0.000;    0.000
360.630; 2158.425;    0.000;    0.000
360.684; 2116.425;    0.000;    0.000
360.738; 2068.425;    0.000;    0.000
360.792; 2160.425;    0.000;    0.000
360.846; 2115.425;    0.000;    0.000
360.899; 2097.425;    0.000;    0.000
360.953; 2090.425;    0.000;    0.000
361.007; 2074.425;    0.000;    0.000
361.061; 2106.425;    0.000;    0.000
361.115; 2201.425;    0.000;    0.000
361.168; 2148.425;    0.000;    0.000
361.222; 2115.425;    0.000;    0.000
361.276; 2113.425;    0.000;    0.000
361.330; 2057.425;    0.000;    0.000
361.384; 2100.425;    0.000;    0.000
361.437; 2112.425;    0.000;    0.000
361.491; 2111.425;    0.000;    0.000
361.545; 2100.425;    0.000;    0.000
361.599; 2034.425;    0.000;    0.000
361.652; 2106.425;    0.000;    0.000
361.706; 2050.425;    0.000;    0.000
361.760; 2053.425;    0.000;    0.000
361.813; 2092.425;    0.000;    0.000
361.867; 2155.425;    0.000;    0.000
361.921; 2049.425;    0.000;    0.000
361.974; 2021.425;    0.000;    0.000
362.028; 2112.425;    0.000;    0.000
362.082; 2074.425;    0.000;    0.000
362.135; 1977.425;    0.000;    0.000
362.189; 2094.425;    0.000;    0.000
362.242; 2040.425;    0.000;    0.000
362.296; 2128.425;    0.000;    0.000
362.350; 2029.425;    0.000;    0.000
362.403; 2010.425;    0.000;    0.000
362.457; 1999.425;    0.000;    0.000
362.510; 2030.425;    0.000;    0.000
362.564; 2096.425;    0.000;    0.000
362.617; 1986.425;    0.000;    0.000
362.671; 1965.425;    0.000;    0.000
362.724; 2003.425;    0.000;    0.000
362.778; 1981.425;    0.000;    0.000
362.831; 2026.425;    0.000;    0.000
362.885; 2005.425;    0.000;    0.000
362.938; 1932.425;    0.000;    0.000
362.992;  417.425;    0.000;    0.000
363.045;  326.425;    0.000;    0.000
363.099;  323.425;    0.000;    0.000
363.152;  290.425;    0.000;    0.000
363.205;  292.425;    0.000;    0.000
363.259;  324.425;    0.000;    0.000
363.312;  323.425;    0.000;    0.000
363.366;  329.425;    0.000;    0.000
363.419;  309.425;    0.000;    0.000
363.472;  302.425;    0.000;    0.000
363.526;  292.425;    0.000;    0.000
363.579;  297.425;    0.000;    0.000
363.632;  320.425;    0.000;    0.000
363.686;  288.425;    0.000;    0.000
363.739;  273.425;    0.000;    0.000
363.792;  270.425;    0.000;    0.000

