
Integration time [ms]:   1.000
Averaging Nr. [scans]: 1
Smoothing Nr. [pixels]: 0
Data measured with spectrometer [name]: NIR
Wave   ;Sample   ;Dark     ;Reference
[nm]   ;[counts] ;[counts] ;[counts] 

691.496;   40.925;    0.000;    0.000
691.696;   69.925;    0.000;    0.000
691.896;   32.925;    0.000;    0.000
692.096;   65.925;    0.000;    0.000
692.296;   15.925;    0.000;    0.000
692.496;   77.925;    0.000;    0.000
692.695;   16.925;    0.000;    0.000
692.895;   77.925;    0.000;    0.000
693.095;   14.925;    0.000;    0.000
693.295;   37.925;    0.000;    0.000
693.495;   70.925;    0.000;    0.000
693.695;   17.925;    0.000;    0.000
693.894;   80.925;    0.000;    0.000
694.094;   52.925;    0.000;    0.000
694.294;   14.925;    0.000;    0.000
694.494;  188.925;    0.000;    0.000
694.693; 1648.925;    0.000;    0.000
694.893; 1737.925;    0.000;    0.000
695.093; 1769.925;    0.000;    0.000
695.293; 1810.925;    0.000;    0.000
695.492; 1767.925;    0.000;    0.000
695.692; 1773.925;    0.000;    0.000
695.891; 1860.925;    0.000;    0.000
696.091; 1876.925;    0.000;    0.000
696.291; 1818.925;    0.000;    0.000
696.490; 1823.925;    0.000;    0.000
696.690; 1868.925;    0.000;    0.000
696.889; 1899.925;    0.000;    0.000
697.089; 1843.925;    0.000;    0.000
697.288; 1856.925;    0.000;    0.000
697.488; 1829.925;    0.000;    0.000
697.687; 1875.925;    0.000;    0.000
697.887; 1833.925;    0.000;    0.000
698.086; 1869.925;    0.000;    0.000
698.286; 1815.925;    0.000;    0.000
698.485; 1852.925;    0.000;    0.000
698.684; 1873.925;    0.000;    0.000
698.884; 1942.925;    0.000;    0.000
699.083; 1882.925;    0.000;    0.000
699.282; 1917.925;    0.000;    0.000
699.482; 1943.925;    0.000;    0.000
699.681; 1880.925;    0.000;    0.000
699.880; 1976.925;    0.000;    0.000
700.080; 1886.925;    0.000;    0.000
700.279; 1876.925;    0.000;    0.000
700.478; 1933.925;    0.000;    0.000
700.677; 1853.925;    0.000;    0.000
700.877; 1917.925;    0.000;    0.000
701.076; 1938.925;    0.000;    0.000
701.275; 1887.925;    0.000;    0.000
701.474; 1958.925;    0.000;    0.000
701.673; 1886.925;    0.000;    0.000
701.872; 1920.925;    0.000;    0.000
702.071; 1938.925;    0.000;    0.000
702.271; 1951.925;    0.000;    0.000
702.470; 2062.925;    0.000;    0.000
702.669; 1954.925;    0.000;    0.000
702.868; 1919.925;    0.000;    0.000
703.067; 2062.925;    0.000;    0.000
703.266; 1999.925;    0.000;    0.000
703.465; 1968.925;    0.000;    0.000
703.664; 1902.925;    0.000;    0.000
703.863; 2015.925;    0.000;    0.000
704.062; 1876.925;    0.000;    0.000
704.260; 2091.925;    0.000;    0.000
704.459; 2019.925;    0.000;    0.000
704.658; 2058.925;    0.000;    0.000
704.857; 2011.925;    0.000;    0.000
705.056; 2013.925;    0.000;    0.000
705.255; 1967.925;    0.000;    0.000
705.454; 2009.925;    0.000;    0.000
705.652; 2088.925;    0.000;    0.000
705.851; 2037.925;    0.000;    0.000
706.050; 2122.925;    0.000;    0.000
706.249; 2037.925;    0.000;    0.000
706.447; 2110.925;    0.000;    0.000
706.646; 2003.925;    0.000;    0.000
706.845; 2136.925;    0.000;    0.000
707.043; 2094.925;    0.000;    0.000
707.242; 2014.925;    0.000;    0.000
707.441; 2154.925;    0.000;    0.000
707.639; 2135.925;    0.000;    0.000
707.838; 2153.925;    0.000;    0.000
708.037; 2078.925;    0.000;    0.000
708.235; 2126.925;    0.000;    0.000
708.434; 2134.925;    0.000;    0.000
708.632; 2119.925;    0.000;    0.000
708.831; 2198.925;    0.000;    0.000
709.029; 2060.925;    0.000;    0.000
709.228; 2162.925;    0.000;    0.000
709.426; 2136.925;    0.000;    0.000
709.625; 2167.925;    0.000;    0.000
709.823; 2144.925;    0.000;    0.000
710.022; 2163.925;    0.000;    0.000
710.220; 2176.925;    0.000;    0.000
710.418; 2157.925;    0.000;    0.000
710.617; 2119.925;    0.000;    0.000
710.815; 2145.925;    0.000;    0.000
711.013; 2191.925;    0.000;    0.000
711.212; 2255.925;    0.000;    0.000
711.410; 2242.925;    0.000;    0.000
711.608; 2223.925;    0.000;    0.000
711.807; 2268.925;    0.000;    0.000
712.005; 2191.925;    0.000;    0.000
712.203; 2245.925;    0.000;    0.000
712.401; 2230.925;    0.000;    0.000
712.599; 2291.925;    0.000;    0.000
712.798; 2301.925;    0.000;    0.000
712.996; 2183.925;    0.000;    0.000
713.194; 2286.925;    0.000;    0.000
713.392; 2220.925;    0.000;    0.000
713.590; 2339.925;    0.000;    0.000
713.788; 2316.925;    0.000;    0.000
713.986; 2353.925;    0.000;    0.000
714.184; 2352.925;    0.000;    0.000
714.382; 2361.925;    0.000;    0.000
714.580; 2357.925;    0.000;    0.000
714.778; 2467.925;    0.000;    0.000
714.976; 2478.925;    0.000;    0.000
715.174; 2499.925;    0.000;    0.000
715.372; 2544.925;    0.000;    0.000
715.570; 2566.925;    0.000;    0.000
715.768; 2661.925;    0.000;    0.000
715.966; 2638.925;    0.000;    0.000
716.164; 2773.925;    0.000;    0.000
716.362; 2687.925;    0.000;    0.000
716.560; 2608.925;    0.000;    0.000
716.758; 2636.925;    0.000;    0.000
716.955; 2614.925;    0.000;    0.000
717.153; 2530.925;    0.000;    0.000
717.351; 2567.925;    0.000;    0.000
717.549; 2599.925;    0.000;    0.000
717.746; 2555.925;    0.000;    0.000
717.944; 2546.925;    0.000;    0.000
718.142; 2596.925;    0.000;    0.000
718.340; 2531.925;    0.000;    0.000
718.537; 2425.925;    0.000;    0.000
718.735; 2543.925;    0.000;    0.000
718.933; 2474.925;    0.000;    0.000
719.130; 2613.925;    0.000;    0.000
719.328; 2573.925;    0.000;    0.000
719.525; 2532.925;    0.000;    0.000
719.723; 2609.925;    0.000;    0.000
719.920; 2514.925;    0.000;    0.000
720.118; 2584.925;    0.000;    0.000
720.316; 2656.925;    0.000;    0.000
720.513; 2545.925;    0.000;    0.000
720.711; 2500.925;    0.000;    0.000
720.908; 2632.925;    0.000;    0.000
721.105; 2631.925;    0.000;    0.000
721.303; 2675.925;    0.000;    0.000
721.500; 2588.925;    0.000;    0.000
721.698; 2549.925;    0.000;    0.000
721.895; 2631.925;    0.000;    0.000
722.092; 2531.925;    0.000;    0.000
722.290; 2611.925;    0.000;    0.000
722.487; 2581.925;    0.000;    0.000
722.684; 2574.925;    0.000;    0.000
722.882; 2577.925;    0.000;    0.000
723.079; 2549.925;    0.000;    0.000
723.276; 2595.925;    0.000;    0.000
723.473; 2542.925;    0.000;    0.000
723.671; 2552.925;    0.000;    0.000
723.868; 2560.925;    0.000;    0.000
724.065; 2718.925;    0.000;    0.000
724.262; 2629.925;    0.000;    0.000
724.459; 2538.925;    0.000;    0.000
724.656; 2587.925;    0.000;    0.000
724.854; 2649.925;    0.000;    0.000
725.051; 2610.925;    0.000;    0.000
725.248; 2598.925;    0.000;    0.000
725.445; 2700.925;    0.000;    0.000
725.642; 2701.925;    0.000;    0.000
725.839; 2706.925;    0.000;    0.000
726.036; 2616.925;    0.000;    0.000
726.233; 2738.925;    0.000;    0.000
726.430; 2697.925;    0.000;    0.000
726.627; 2668.925;    0.000;    0.000
726.824; 2720.925;    0.000;    0.000
727.021; 2727.925;    0.000;    0.000
727.218; 2724.925;    0.000;    0.000
727.414; 2670.925;    0.000;    0.000
727.611; 2627.925;    0.000;    0.000
727.808; 2653.925;    0.000;    0.000
728.005; 2755.925;    0.000;    0.000
728.202; 2817.925;    0.000;    0.000
728.399; 2810.925;    0.000;    0.000
728.595; 2675.925;    0.000;    0.000
728.792; 2700.925;    0.000;    0.000
728.989; 2739.925;    0.000;    0.000
729.186; 2782.925;    0.000;    0.000
729.382; 2738.925;    0.000;    0.000
729.579; 2831.925;    0.000;    0.000
729.776; 2779.925;    0.000;    0.000
729.972; 2861.925;    0.000;    0.000
730.169; 2898.925;    0.000;    0.000
730.366; 2826.925;    0.000;    0.000
730.562; 2857.925;    0.000;    0.000
730.759; 2809.925;    0.000;    0.000
730.955; 2802.925;    0.000;    0.000
731.152; 2796.925;    0.000;    0.000
731.348; 2704.925;    0.000;    0.000
731.545; 2854.925;    0.000;    0.000
731.741; 2804.925;    0.000;    0.000
731.938; 2870.925;    0.000;    0.000
732.134; 2811.925;    0.000;    0.000
732.331; 2811.925;    0.000;    0.000
732.527; 2900.925;    0.000;    0.000
732.724; 2949.925;    0.000;    0.000
732.920; 2882.925;    0.000;    0.000
733.116; 2879.925;    0.000;    0.000
733.313; 3039.925;    0.000;    0.000
733.509; 2971.925;    0.000;    0.000
733.705; 2832.925;    0.000;    0.000
733.902; 2882.925;    0.000;    0.000
734.098; 2871.925;    0.000;    0.000
734.294; 2933.925;    0.000;    0.000
734.490; 3031.925;    0.000;    0.000
734.687; 2895.925;    0.000;    0.000
734.883; 2970.925;    0.000;    0.000
735.079; 2897.925;    0.000;    0.000
735.275; 2986.925;    0.000;    0.000
735.471; 2959.925;    0.000;    0.000
735.667; 3023.925;    0.000;    0.000
735.863; 2902.925;    0.000;    0.000
736.060; 3070.925;    0.000;    0.000
736.256; 3104.925;    0.000;    0.000
736.452; 3131.925;    0.000;    0.000
736.648; 3101.925;    0.000;    0.000
736.844; 3064.925;    0.000;    0.000
737.040; 3028.925;    0.000;    0.000
737.236; 3147.925;    0.000;    0.000
737.432; 3069.925;    0.000;    0.000
737.628; 3064.925;    0.000;    0.000
737.824; 3091.925;    0.000;    0.000
738.019; 3173.925;    0.000;    0.000
738.215; 3171.925;    0.000;    0.000
738.411; 3150.925;    0.000;    0.000
738.607; 3139.925;    0.000;    0.000
738.803; 3167.925;    0.000;    0.000
738.999; 3234.925;    0.000;    0.000
739.195; 3145.925;    0.000;    0.000
739.390; 3212.925;    0.000;    0.000
739.586; 3243.925;    0.000;    0.000
739.782; 3227.925;    0.000;    0.000
739.978; 3264.925;    0.000;    0.000
740.173; 3186.925;    0.000;    0.000
740.369; 3267.925;    0.000;    0.000
740.565; 3349.925;    0.000;    0.000
740.760; 3399.925;    0.000;    0.000
740.956; 3269.925;    0.000;    0.000
741.152; 3478.925;    0.000;    0.000
741.347; 3417.925;    0.000;    0.000
741.543; 3416.925;    0.000;    0.000
741.738; 3615.925;    0.000;    0.000
741.934; 3642.925;    0.000;    0.000
742.129; 3842.925;    0.000;    0.000
742.325; 4122.925;    0.000;    0.000
742.520; 4213.925;    0.000;    0.000
742.716; 4191.925;    0.000;    0.000
742.911; 4088.925;    0.000;    0.000
743.107; 4026.925;    0.000;    0.000
743.302; 3966.925;    0.000;    0.000
743.498; 4176.925;    0.000;    0.000
743.693; 4069.925;    0.000;    0.000
743.888; 4223.925;    0.000;    0.000
744.084; 4640.925;    0.000;    0.000
744.279; 5270.925;    0.000;    0.000
744.474; 5367.925;    0.000;    0.000
744.670; 4978.925;    0.000;    0.000
744.865; 4647.925;    0.000;    0.000
745.060; 4531.925;    0.000;    0.000
745.255; 4416.925;    0.000;    0.000
745.451; 4329.925;    0.000;    0.000
745.646; 4320.925;    0.000;    0.000
745.841; 4355.925;    0.000;    0.000
746.036; 4431.925;    0.000;    0.000
746.231; 4493.925;    0.000;    0.000
746.426; 4668.925;    0.000;    0.000
746.622; 5319.925;    0.000;    0.000
746.817; 6365.925;    0.000;    0.000
747.012; 6703.925;    0.000;    0.000
747.207; 6324.925;    0.000;    0.000
747.402; 5777.925;    0.000;    0.000
747.597; 5455.925;    0.000;    0.000
747.792; 5266.925;    0.000;    0.000
747.987; 5129.925;    0.000;    0.000
748.182; 4991.925;    0.000;    0.000
748.377; 4878.925;    0.000;    0.000
748.572; 4697.925;    0.000;    0.000
748.767; 4534.925;    0.000;    0.000
748.961; 4520.925;    0.000;    0.000
749.156; 4583.925;    0.000;    0.000
749.351; 4386.925;    0.000;    0.000
749.546; 4304.925;    0.000;    0.000
749.741; 4204.925;    0.000;    0.000
749.936; 4297.925;    0.000;    0.000
750.130; 4181.925;    0.000;    0.000
750.325; 4140.925;    0.000;    0.000
750.520; 4215.925;    0.000;    0.000
750.715; 4161.925;    0.000;    0.000
750.909; 4090.925;    0.000;    0.000
751.104; 4118.925;    0.000;    0.000
751.299; 4105.925;    0.000;    0.000
751.493; 4021.925;    0.000;    0.000
751.688; 4090.925;    0.000;    0.000
751.882; 4078.925;    0.000;    0.000
752.077; 3964.925;    0.000;    0.000
752.272; 4078.925;    0.000;    0.000
752.466; 4002.925;    0.000;    0.000
752.661; 3910.925;    0.000;    0.000
752.855; 3922.925;    0.000;    0.000
753.050; 4027.925;    0.000;    0.000
753.244; 4024.925;    0.000;    0.000
753.439; 4012.925;    0.000;    0.000
753.633; 3910.925;    0.000;    0.000
753.828; 4022.925;    0.000;    0.000
754.022; 3909.925;    0.000;    0.000
754.216; 3873.925;    0.000;    0.000
754.411; 3975.925;    0.000;    0.000
754.605; 3862.925;    0.000;    0.000
754.799; 3848.925;    0.000;    0.000
754.994; 3978.925;    0.000;    0.000
755.188; 3936.925;    0.000;    0.000
755.382; 3955.925;    0.000;    0.000
755.576; 3902.925;    0.000;    0.000
755.771; 3877.925;    0.000;    0.000
755.965; 3882.925;    0.000;    0.000
756.159; 3793.925;    0.000;    0.000
756.353; 3943.925;    0.000;    0.000
756.547; 3878.925;    0.000;    0.000
756.742; 3878.925;    0.000;    0.000
756.936; 3888.925;    0.000;    0.000
757.130; 3838.925;    0.000;    0.000
757.324; 3963.925;    0.000;    0.000
757.518; 3848.925;    0.000;    0.000
757.712; 3952.925;    0.000;    0.000
757.906; 3883.925;    0.000;    0.000
758.100; 4012.925;    0.000;    0.000
758.294; 4019.925;    0.000;    0.000
758.488; 3921.925;    0.000;    0.000
758.682; 3911.925;    0.000;    0.000
758.876; 3941.925;    0.000;    0.000
759.070; 3927.925;    0.000;    0.000
759.264; 3919.925;    0.000;    0.000
759.458; 3916.925;    0.000;    0.000
759.651; 3905.925;    0.000;    0.000
759.845; 3994.925;    0.000;    0.000
760.039; 3875.925;    0.000;    0.000
760.233; 3899.925;    0.000;    0.000
760.427; 4005.925;    0.000;    0.000
760.620; 3912.925;    0.000;    0.000
760.814; 3858.925;    0.000;    0.000
761.008; 4009.925;    0.000;    0.000
761.202; 3965.925;    0.000;    0.000
761.395; 4018.925;    0.000;    0.000
761.589; 3919.925;    0.000;    0.000
761.783; 4018.925;    0.000;    0.000
761.976; 4012.925;    0.000;    0.000
762.170; 4086.925;    0.000;    0.000
762.363; 4090.925;    0.000;    0.000
762.557; 4033.925;    0.000;    0.000
762.750; 4108.925;    0.000;    0.000
762.944; 4129.925;    0.000;    0.000
763.138; 4052.925;    0.000;    0.000
763.331; 4052.925;    0.000;    0.000
763.524; 4074.925;    0.000;    0.000
763.718; 4131.925;    0.000;    0.000
763.911; 4132.925;    0.000;    0.000
764.105; 4139.925;    0.000;    0.000
764.298; 4081.925;    0.000;    0.000
764.492; 4052.925;    0.000;    0.000
764.685; 4129.925;    0.000;    0.000
764.878; 4245.925;    0.000;    0.000
765.072; 4175.925;    0.000;    0.000
765.265; 4274.925;    0.000;    0.000
765.458; 4219.925;    0.000;    0.000
765.651; 4302.925;    0.000;    0.000
765.845; 4352.925;    0.000;    0.000
766.038; 4665.925;    0.000;    0.000
766.231; 6436.925;    0.000;    0.000
766.424; 9827.925;    0.000;    0.000
766.617; 9258.925;    0.000;    0.000
766.811; 5587.925;    0.000;    0.000
767.004; 4588.925;    0.000;    0.000
767.197; 4549.925;    0.000;    0.000
767.390; 4383.925;    0.000;    0.000
767.583; 4390.925;    0.000;    0.000
767.776; 4273.925;    0.000;    0.000
767.969; 4365.925;    0.000;    0.000
768.162; 4422.925;    0.000;    0.000
768.355; 4391.925;    0.000;    0.000
768.548; 4428.925;    0.000;    0.000
768.741; 4478.925;    0.000;    0.000
768.934; 4428.925;    0.000;    0.000
769.127; 4490.925;    0.000;    0.000
769.320; 4637.925;    0.000;    0.000
769.513; 5021.925;    0.000;    0.000
769.706; 7112.925;    0.000;    0.000
769.898; 8815.925;    0.000;    0.000
770.091; 7048.925;    0.000;    0.000
770.284; 4872.925;    0.000;    0.000
770.477; 4700.925;    0.000;    0.000
770.670; 4733.925;    0.000;    0.000
770.862; 4613.925;    0.000;    0.000
771.055; 4789.925;    0.000;    0.000
771.248; 4849.925;    0.000;    0.000
771.441; 4713.925;    0.000;    0.000
771.633; 4802.925;    0.000;    0.000
771.826; 4936.925;    0.000;    0.000
772.018; 4970.925;    0.000;    0.000
772.211; 4956.925;    0.000;    0.000
772.404; 5098.925;    0.000;    0.000
772.596; 5016.925;    0.000;    0.000
772.789; 4959.925;    0.000;    0.000
772.981; 5094.925;    0.000;    0.000
773.174; 5241.925;    0.000;    0.000
773.366; 5344.925;    0.000;    0.000
773.559; 5253.925;    0.000;    0.000
773.751; 5451.925;    0.000;    0.000
773.944; 5476.925;    0.000;    0.000
774.136; 5644.925;    0.000;    0.000
774.329; 5739.925;    0.000;    0.000
774.521; 5782.925;    0.000;    0.000
774.713; 6093.925;    0.000;    0.000
774.906; 6147.925;    0.000;    0.000
775.098; 6535.925;    0.000;    0.000
775.290; 6687.925;    0.000;    0.000
775.483; 7086.925;    0.000;    0.000
775.675; 7398.925;    0.000;    0.000
775.867; 7745.925;    0.000;    0.000
776.059; 8535.925;    0.000;    0.000
776.251; 9349.925;    0.000;    0.000
776.444;10436.925;    0.000;    0.000
776.636;12064.925;    0.000;    0.000
776.828;14868.925;    0.000;    0.000
777.020;20141.926;    0.000;    0.000
777.212;26670.926;    0.000;    0.000
777.404;29687.926;    0.000;    0.000
777.596;26641.926;    0.000;    0.000
777.788;21069.926;    0.000;    0.000
777.980;16872.926;    0.000;    0.000
778.172;14234.925;    0.000;    0.000
778.364;12479.925;    0.000;    0.000
778.556;11114.925;    0.000;    0.000
778.748;10116.925;    0.000;    0.000
778.940; 9451.925;    0.000;    0.000
779.132; 8614.925;    0.000;    0.000
779.324; 8039.925;    0.000;    0.000
779.516; 7676.925;    0.000;    0.000
779.708; 7315.925;    0.000;    0.000
779.900; 7019.925;    0.000;    0.000
780.091; 6808.925;    0.000;    0.000
780.283; 6511.925;    0.000;    0.000
780.475; 6357.925;    0.000;    0.000
780.667; 6203.925;    0.000;    0.000
780.859; 5941.925;    0.000;    0.000
781.050; 5839.925;    0.000;    0.000
781.242; 5687.925;    0.000;    0.000
781.434; 5680.925;    0.000;    0.000
781.625; 5605.925;    0.000;    0.000
781.817; 5470.925;    0.000;    0.000
782.008; 5293.925;    0.000;    0.000
782.200; 5201.925;    0.000;    0.000
782.392; 5093.925;    0.000;    0.000
782.583; 5220.925;    0.000;    0.000
782.775; 5100.925;    0.000;    0.000
782.966; 4996.925;    0.000;    0.000
783.158; 4902.925;    0.000;    0.000
783.349; 4918.925;    0.000;    0.000
783.541; 4857.925;    0.000;    0.000
783.732; 4833.925;    0.000;    0.000
783.924; 4779.925;    0.000;    0.000
784.115; 4766.925;    0.000;    0.000
784.306; 4722.925;    0.000;    0.000
784.498; 4774.925;    0.000;    0.000
784.689; 4640.925;    0.000;    0.000
784.880; 4789.925;    0.000;    0.000
785.072; 4660.925;    0.000;    0.000
785.263; 4688.925;    0.000;    0.000
785.454; 4658.925;    0.000;    0.000
785.645; 4459.925;    0.000;    0.000
785.837; 4616.925;    0.000;    0.000
786.028; 4531.925;    0.000;    0.000
786.219; 4607.925;    0.000;    0.000
786.410; 4542.925;    0.000;    0.000
786.601; 4553.925;    0.000;    0.000
786.792; 4415.925;    0.000;    0.000
786.984; 4543.925;    0.000;    0.000
787.175; 4487.925;    0.000;    0.000
787.366; 4512.925;    0.000;    0.000
787.557; 4456.925;    0.000;    0.000
787.748; 4443.925;    0.000;    0.000
787.939; 4581.925;    0.000;    0.000
788.130; 4551.925;    0.000;    0.000
788.321; 4453.925;    0.000;    0.000
788.512; 4661.925;    0.000;    0.000
788.703; 4663.925;    0.000;    0.000
788.894; 4492.925;    0.000;    0.000
789.084; 4501.925;    0.000;    0.000
789.275; 4580.925;    0.000;    0.000
789.466; 4574.925;    0.000;    0.000
789.657; 4461.925;    0.000;    0.000
789.848; 4449.925;    0.000;    0.000
790.039; 4686.925;    0.000;    0.000
790.229; 4611.925;    0.000;    0.000
790.420; 4534.925;    0.000;    0.000
790.611; 4668.925;    0.000;    0.000
790.801; 4452.925;    0.000;    0.000
790.992; 4594.925;    0.000;    0.000
791.183; 4627.925;    0.000;    0.000
791.373; 4556.925;    0.000;    0.000
791.564; 4473.925;    0.000;    0.000
791.755; 4513.925;    0.000;    0.000
791.945; 4574.925;    0.000;    0.000
792.136; 4419.925;    0.000;    0.000
792.326; 4493.925;    0.000;    0.000
792.517; 4544.925;    0.000;    0.000
792.707; 4610.925;    0.000;    0.000
792.898; 4670.925;    0.000;    0.000
793.088; 4703.925;    0.000;    0.000
793.279; 4738.925;    0.000;    0.000
793.469; 4753.925;    0.000;    0.000
793.660; 4800.925;    0.000;    0.000
793.850; 4898.925;    0.000;    0.000
794.040; 4927.925;    0.000;    0.000
794.231; 5282.925;    0.000;    0.000
794.421; 5540.925;    0.000;    0.000
794.611; 6181.925;    0.000;    0.000
794.802; 6564.925;    0.000;    0.000
794.992; 6989.925;    0.000;    0.000
795.182; 7070.925;    0.000;    0.000
795.372; 6621.925;    0.000;    0.000
795.563; 6298.925;    0.000;    0.000
795.753; 5765.925;    0.000;    0.000
795.943; 5640.925;    0.000;    0.000
796.133; 5352.925;    0.000;    0.000
796.323; 5132.925;    0.000;    0.000
796.513; 5094.925;    0.000;    0.000
796.703; 4952.925;    0.000;    0.000
796.893; 5003.925;    0.000;    0.000
797.083; 4853.925;    0.000;    0.000
797.273; 4817.925;    0.000;    0.000
797.463; 4766.925;    0.000;    0.000
797.653; 4669.925;    0.000;    0.000
797.843; 4661.925;    0.000;    0.000
798.033; 4490.925;    0.000;    0.000
798.223; 4576.925;    0.000;    0.000
798.413; 4460.925;    0.000;    0.000
798.603; 4380.925;    0.000;    0.000
798.793; 4380.925;    0.000;    0.000
798.983; 4304.925;    0.000;    0.000
799.172; 4335.925;    0.000;    0.000
799.362; 4277.925;    0.000;    0.000
799.552; 4335.925;    0.000;    0.000
799.742; 4189.925;    0.000;    0.000
799.932; 4153.925;    0.000;    0.000
800.121; 4271.925;    0.000;    0.000
800.311; 4092.925;    0.000;    0.000
800.501; 4063.925;    0.000;    0.000
800.690; 4112.925;    0.000;    0.000
800.880; 4026.925;    0.000;    0.000
801.070; 4181.925;    0.000;    0.000
801.259; 4041.925;    0.000;    0.000
801.449; 3967.925;    0.000;    0.000
801.638; 4019.925;    0.000;    0.000
801.828; 4078.925;    0.000;    0.000
802.017; 3990.925;    0.000;    0.000
802.207; 4014.925;    0.000;    0.000
802.396; 4023.925;    0.000;    0.000
802.586; 3875.925;    0.000;    0.000
802.775; 4004.925;    0.000;    0.000
802.965; 3934.925;    0.000;    0.000
803.154; 3902.925;    0.000;    0.000
803.343; 3941.925;    0.000;    0.000
803.533; 3987.925;    0.000;    0.000
803.722; 3953.925;    0.000;    0.000
803.911; 4028.925;    0.000;    0.000
804.101; 4010.925;    0.000;    0.000
804.290; 3926.925;    0.000;    0.000
804.479; 3967.925;    0.000;    0.000
804.668; 3972.925;    0.000;    0.000
804.857; 3849.925;    0.000;    0.000
805.047; 3848.925;    0.000;    0.000
805.236; 3920.925;    0.000;    0.000
805.425; 3963.925;    0.000;    0.000
805.614; 3983.925;    0.000;    0.000
805.803; 4016.925;    0.000;    0.000
805.992; 3981.925;    0.000;    0.000
806.181; 3995.925;    0.000;    0.000
806.370; 3887.925;    0.000;    0.000
806.559; 4007.925;    0.000;    0.000
806.748; 3975.925;    0.000;    0.000
806.937; 4004.925;    0.000;    0.000
807.126; 3891.925;    0.000;    0.000
807.315; 3983.925;    0.000;    0.000
807.504; 4027.925;    0.000;    0.000
807.693; 4051.925;    0.000;    0.000
807.882; 3949.925;    0.000;    0.000
808.071; 4023.925;    0.000;    0.000
808.260; 3991.925;    0.000;    0.000
808.448; 3985.925;    0.000;    0.000
808.637; 4037.925;    0.000;    0.000
808.826; 4212.925;    0.000;    0.000
809.015; 3925.925;    0.000;    0.000
809.203; 4045.925;    0.000;    0.000
809.392; 4046.925;    0.000;    0.000
809.581; 4220.925;    0.000;    0.000
809.770; 4153.925;    0.000;    0.000
809.958; 4130.925;    0.000;    0.000
810.147; 4152.925;    0.000;    0.000
810.335; 4134.925;    0.000;    0.000
810.524; 4357.925;    0.000;    0.000
810.713; 4216.925;    0.000;    0.000
810.901; 4298.925;    0.000;    0.000
811.090; 4341.925;    0.000;    0.000
811.278; 4394.925;    0.000;    0.000
811.467; 4358.925;    0.000;    0.000
811.655; 4445.925;    0.000;    0.000
811.844; 4454.925;    0.000;    0.000
812.032; 4528.925;    0.000;    0.000
812.220; 4590.925;    0.000;    0.000
812.409; 4514.925;    0.000;    0.000
812.597; 4626.925;    0.000;    0.000
812.785; 4760.925;    0.000;    0.000
812.974; 4641.925;    0.000;    0.000
813.162; 4794.925;    0.000;    0.000
813.350; 4682.925;    0.000;    0.000
813.539; 4712.925;    0.000;    0.000
813.727; 4819.925;    0.000;    0.000
813.915; 4830.925;    0.000;    0.000
814.103; 4850.925;    0.000;    0.000
814.291; 4974.925;    0.000;    0.000
814.479; 4913.925;    0.000;    0.000
814.668; 5101.925;    0.000;    0.000
814.856; 5314.925;    0.000;    0.000
815.044; 5274.925;    0.000;    0.000
815.232; 5382.925;    0.000;    0.000
815.420; 5528.925;    0.000;    0.000
815.608; 5742.925;    0.000;    0.000
815.796; 5790.925;    0.000;    0.000
815.984; 5910.925;    0.000;    0.000
816.172; 6252.925;    0.000;    0.000
816.360; 6305.925;    0.000;    0.000
816.548; 6630.925;    0.000;    0.000
816.736; 6780.925;    0.000;    0.000
816.924; 7164.925;    0.000;    0.000
817.111; 7525.925;    0.000;    0.000
817.299; 8086.925;    0.000;    0.000
817.487; 8796.925;    0.000;    0.000
817.675; 9987.925;    0.000;    0.000
817.863;11759.925;    0.000;    0.000
818.050;17010.926;    0.000;    0.000
818.238;28988.926;    0.000;    0.000
818.426;32571.926;    0.000;    0.000
818.613;25165.926;    0.000;    0.000
818.801;20729.926;    0.000;    0.000
818.989;20206.926;    0.000;    0.000
819.176;23921.926;    0.000;    0.000
819.364;36269.926;    0.000;    0.000
819.552;41244.926;    0.000;    0.000
819.739;32370.926;    0.000;    0.000
819.927;23590.926;    0.000;    0.000
820.114;19772.926;    0.000;    0.000
820.302;17420.926;    0.000;    0.000
820.489;15969.925;    0.000;    0.000
820.677;14862.925;    0.000;    0.000
820.864;13938.925;    0.000;    0.000
821.052;13903.925;    0.000;    0.000
821.239;13573.925;    0.000;    0.000
821.426;13820.925;    0.000;    0.000
821.614;14954.925;    0.000;    0.000
821.801;14928.925;    0.000;    0.000
821.988;13687.925;    0.000;    0.000
822.176;13144.925;    0.000;    0.000
822.363;12937.925;    0.000;    0.000
822.550;12106.925;    0.000;    0.000
822.737;11213.925;    0.000;    0.000
822.924;10787.925;    0.000;    0.000
823.112;10263.925;    0.000;    0.000
823.299; 9690.925;    0.000;    0.000
823.486; 9318.925;    0.000;    0.000
823.673; 8936.925;    0.000;    0.000
823.860; 8661.925;    0.000;    0.000
824.047; 8793.925;    0.000;    0.000
824.234; 9002.925;    0.000;    0.000
824.421; 8832.925;    0.000;    0.000
824.608; 8253.925;    0.000;    0.000
824.795; 7712.925;    0.000;    0.000
824.982; 7384.925;    0.000;    0.000
825.169; 7052.925;    0.000;    0.000
825.356; 6829.925;    0.000;    0.000
825.543; 6480.925;    0.000;    0.000
825.730; 6291.925;    0.000;    0.000
825.917; 6203.925;    0.000;    0.000
826.104; 5889.925;    0.000;    0.000
826.290; 5912.925;    0.000;    0.000
826.477; 5751.925;    0.000;    0.000
826.664; 5691.925;    0.000;    0.000
826.851; 5511.925;    0.000;    0.000
827.038; 5412.925;    0.000;    0.000
827.224; 5203.925;    0.000;    0.000
827.411; 5217.925;    0.000;    0.000
827.598; 5167.925;    0.000;    0.000
827.784; 5017.925;    0.000;    0.000
827.971; 4881.925;    0.000;    0.000
828.157; 5069.925;    0.000;    0.000
828.344; 4820.925;    0.000;    0.000
828.531; 4771.925;    0.000;    0.000
828.717; 4790.925;    0.000;    0.000
828.904; 4644.925;    0.000;    0.000
829.090; 4706.925;    0.000;    0.000
829.277; 4455.925;    0.000;    0.000
829.463; 4483.925;    0.000;    0.000
829.650; 4394.925;    0.000;    0.000
829.836; 4321.925;    0.000;    0.000
830.022; 4348.925;    0.000;    0.000
830.209; 4283.925;    0.000;    0.000
830.395; 4281.925;    0.000;    0.000
830.581; 4102.925;    0.000;    0.000
830.768; 4072.925;    0.000;    0.000
830.954; 4025.925;    0.000;    0.000
831.140; 4013.925;    0.000;    0.000
831.327; 3946.925;    0.000;    0.000
831.513; 4000.925;    0.000;    0.000
831.699; 3937.925;    0.000;    0.000
831.885; 4020.925;    0.000;    0.000
832.071; 3918.925;    0.000;    0.000
832.257; 3836.925;    0.000;    0.000
832.444; 3883.925;    0.000;    0.000
832.630; 3748.925;    0.000;    0.000
832.816; 3753.925;    0.000;    0.000
833.002; 3642.925;    0.000;    0.000
833.188; 3703.925;    0.000;    0.000
833.374; 3579.925;    0.000;    0.000
833.560; 3697.925;    0.000;    0.000
833.746; 3602.925;    0.000;    0.000
833.932; 3568.925;    0.000;    0.000
834.118; 3505.925;    0.000;    0.000
834.303; 3611.925;    0.000;    0.000
834.489; 3522.925;    0.000;    0.000
834.675; 3548.925;    0.000;    0.000
834.861; 3445.925;    0.000;    0.000
835.047; 3518.925;    0.000;    0.000
835.233; 3505.925;    0.000;    0.000
835.418; 3428.925;    0.000;    0.000
835.604; 3371.925;    0.000;    0.000
835.790; 3402.925;    0.000;    0.000
835.976; 3372.925;    0.000;    0.000
836.161; 3396.925;    0.000;    0.000
836.347; 3291.925;    0.000;    0.000
836.533; 3397.925;    0.000;    0.000
836.718; 3392.925;    0.000;    0.000
836.904; 3299.925;    0.000;    0.000
837.089; 3259.925;    0.000;    0.000
837.275; 3421.925;    0.000;    0.000
837.460; 3320.925;    0.000;    0.000
837.646; 3309.925;    0.000;    0.000
837.831; 3303.925;    0.000;    0.000
838.017; 3373.925;    0.000;    0.000
838.202; 3182.925;    0.000;    0.000
838.388; 3219.925;    0.000;    0.000
838.573; 3300.925;    0.000;    0.000
838.759; 3291.925;    0.000;    0.000
838.944; 3252.925;    0.000;    0.000
839.129; 3290.925;    0.000;    0.000
839.315; 3187.925;    0.000;    0.000
839.500; 3215.925;    0.000;    0.000
839.685; 3223.925;    0.000;    0.000
839.870; 3269.925;    0.000;    0.000
840.056; 3222.925;    0.000;    0.000
840.241; 3313.925;    0.000;    0.000
840.426; 3263.925;    0.000;    0.000
840.611; 3299.925;    0.000;    0.000
840.796; 3258.925;    0.000;    0.000
840.981; 3222.925;    0.000;    0.000
841.166; 3264.925;    0.000;    0.000
841.352; 3275.925;    0.000;    0.000
841.537; 3293.925;    0.000;    0.000
841.722; 3348.925;    0.000;    0.000
841.907; 3344.925;    0.000;    0.000
842.092; 3399.925;    0.000;    0.000
842.277; 3465.925;    0.000;    0.000
842.461; 3518.925;    0.000;    0.000
842.646; 3575.925;    0.000;    0.000
842.831; 3651.925;    0.000;    0.000
843.016; 3713.925;    0.000;    0.000
843.201; 3884.925;    0.000;    0.000
843.386; 3990.925;    0.000;    0.000
843.571; 4069.925;    0.000;    0.000
843.755; 4347.925;    0.000;    0.000
843.940; 4612.925;    0.000;    0.000
844.125; 5055.925;    0.000;    0.000
844.310; 5728.925;    0.000;    0.000
844.494; 7124.925;    0.000;    0.000
844.679; 8883.925;    0.000;    0.000
844.864; 8553.925;    0.000;    0.000
845.048; 7407.925;    0.000;    0.000
845.233; 6425.925;    0.000;    0.000
845.418; 5763.925;    0.000;    0.000
845.602; 5325.925;    0.000;    0.000
845.787; 4926.925;    0.000;    0.000
845.971; 4589.925;    0.000;    0.000
846.156; 4312.925;    0.000;    0.000
846.340; 4111.925;    0.000;    0.000
846.525; 4040.925;    0.000;    0.000
846.709; 3854.925;    0.000;    0.000
846.893; 3732.925;    0.000;    0.000
847.078; 3649.925;    0.000;    0.000
847.262; 3597.925;    0.000;    0.000
847.447; 3467.925;    0.000;    0.000
847.631; 3394.925;    0.000;    0.000
847.815; 3381.925;    0.000;    0.000
848.000; 3240.925;    0.000;    0.000
848.184; 3276.925;    0.000;    0.000
848.368; 3197.925;    0.000;    0.000
848.552; 3182.925;    0.000;    0.000
848.736; 3086.925;    0.000;    0.000
848.921; 3071.925;    0.000;    0.000
849.105; 3073.925;    0.000;    0.000
849.289; 3064.925;    0.000;    0.000
849.473; 2988.925;    0.000;    0.000
849.657; 3012.925;    0.000;    0.000
849.841; 2985.925;    0.000;    0.000
850.025; 2948.925;    0.000;    0.000
850.209; 2975.925;    0.000;    0.000
850.393; 2847.925;    0.000;    0.000
850.577; 2843.925;    0.000;    0.000
850.761; 2808.925;    0.000;    0.000
850.945; 2829.925;    0.000;    0.000
851.129; 2895.925;    0.000;    0.000
851.313; 2777.925;    0.000;    0.000
851.497; 2837.925;    0.000;    0.000
851.680; 2797.925;    0.000;    0.000
851.864; 2734.925;    0.000;    0.000
852.048; 2829.925;    0.000;    0.000
852.232; 2820.925;    0.000;    0.000
852.416; 2826.925;    0.000;    0.000
852.599; 2756.925;    0.000;    0.000
852.783; 2712.925;    0.000;    0.000
852.967; 2788.925;    0.000;    0.000
853.150; 2769.925;    0.000;    0.000
853.334; 2756.925;    0.000;    0.000
853.518; 2801.925;    0.000;    0.000
853.701; 2679.925;    0.000;    0.000
853.885; 2839.925;    0.000;    0.000
854.068; 2694.925;    0.000;    0.000
854.252; 2641.925;    0.000;    0.000
854.435; 2720.925;    0.000;    0.000
854.619; 2761.925;    0.000;    0.000
854.802; 2661.925;    0.000;    0.000
854.986; 2744.925;    0.000;    0.000
855.169; 2682.925;    0.000;    0.000
855.353; 2699.925;    0.000;    0.000
855.536; 2646.925;    0.000;    0.000
855.719; 2692.925;    0.000;    0.000
855.903; 2777.925;    0.000;    0.000
856.086; 2710.925;    0.000;    0.000
856.269; 2751.925;    0.000;    0.000
856.452; 2730.925;    0.000;    0.000
856.636; 2827.925;    0.000;    0.000
856.819; 2938.925;    0.000;    0.000
857.002; 2972.925;    0.000;    0.000
857.185; 2915.925;    0.000;    0.000
857.368; 2906.925;    0.000;    0.000
857.552; 2831.925;    0.000;    0.000
857.735; 2864.925;    0.000;    0.000
857.918; 2745.925;    0.000;    0.000
858.101; 2865.925;    0.000;    0.000
858.284; 2780.925;    0.000;    0.000
858.467; 2889.925;    0.000;    0.000
858.650; 2897.925;    0.000;    0.000
858.833; 2850.925;    0.000;    0.000
859.016; 2914.925;    0.000;    0.000
859.199; 3069.925;    0.000;    0.000
859.382; 3256.925;    0.000;    0.000
859.564; 3344.925;    0.000;    0.000
859.747; 3292.925;    0.000;    0.000
859.930; 3140.925;    0.000;    0.000
860.113; 3034.925;    0.000;    0.000
860.296; 3049.925;    0.000;    0.000
860.478; 3025.925;    0.000;    0.000
860.661; 3043.925;    0.000;    0.000
860.844; 3071.925;    0.000;    0.000
861.027; 3016.925;    0.000;    0.000
861.209; 2966.925;    0.000;    0.000
861.392; 2910.925;    0.000;    0.000
861.575; 2989.925;    0.000;    0.000
861.757; 3041.925;    0.000;    0.000
861.940; 3105.925;    0.000;    0.000
862.122; 3084.925;    0.000;    0.000
862.305; 3058.925;    0.000;    0.000
862.487; 3302.925;    0.000;    0.000
862.670; 3458.925;    0.000;    0.000
862.852; 3856.925;    0.000;    0.000
863.035; 4345.925;    0.000;    0.000
863.217; 4262.925;    0.000;    0.000
863.400; 3956.925;    0.000;    0.000
863.582; 3904.925;    0.000;    0.000
863.764; 3755.925;    0.000;    0.000
863.947; 3598.925;    0.000;    0.000
864.129; 3452.925;    0.000;    0.000
864.311; 3479.925;    0.000;    0.000
864.493; 3459.925;    0.000;    0.000
864.676; 3487.925;    0.000;    0.000
864.858; 3332.925;    0.000;    0.000
865.040; 3363.925;    0.000;    0.000
865.222; 3319.925;    0.000;    0.000
865.404; 3463.925;    0.000;    0.000
865.587; 3579.925;    0.000;    0.000
865.769; 3681.925;    0.000;    0.000
865.951; 3569.925;    0.000;    0.000
866.133; 3659.925;    0.000;    0.000
866.315; 3669.925;    0.000;    0.000
866.497; 3545.925;    0.000;    0.000
866.679; 3864.925;    0.000;    0.000
866.861; 3872.925;    0.000;    0.000
867.043; 4001.925;    0.000;    0.000
867.225; 4242.925;    0.000;    0.000
867.407; 4602.925;    0.000;    0.000
867.589; 5043.925;    0.000;    0.000
867.770; 6155.925;    0.000;    0.000
867.952; 8064.925;    0.000;    0.000
868.134; 9286.925;    0.000;    0.000
868.316; 9522.925;    0.000;    0.000
868.498; 8923.925;    0.000;    0.000
868.679; 7873.925;    0.000;    0.000
868.861; 6885.925;    0.000;    0.000
869.043; 6058.925;    0.000;    0.000
869.224; 5466.925;    0.000;    0.000
869.406; 4941.925;    0.000;    0.000
869.588; 4870.925;    0.000;    0.000
869.769; 4668.925;    0.000;    0.000
869.951; 4540.925;    0.000;    0.000
870.132; 4746.925;    0.000;    0.000
870.314; 4874.925;    0.000;    0.000
870.495; 4898.925;    0.000;    0.000
870.677; 4545.925;    0.000;    0.000
870.858; 4567.925;    0.000;    0.000
871.040; 4706.925;    0.000;    0.000
871.221; 4888.925;    0.000;    0.000
871.403; 4736.925;    0.000;    0.000
871.584; 4572.925;    0.000;    0.000
871.765; 4659.925;    0.000;    0.000
871.947; 4920.925;    0.000;    0.000
872.128; 4315.925;    0.000;    0.000
872.309; 3943.925;    0.000;    0.000
872.491; 3717.925;    0.000;    0.000
872.672; 3581.925;    0.000;    0.000
872.853; 3529.925;    0.000;    0.000
873.034; 3399.925;    0.000;    0.000
873.215; 3457.925;    0.000;    0.000
873.396; 3202.925;    0.000;    0.000
873.578; 3138.925;    0.000;    0.000
873.759; 3096.925;    0.000;    0.000
873.940; 2951.925;    0.000;    0.000
874.121; 2966.925;    0.000;    0.000
874.302; 2884.925;    0.000;    0.000
874.483; 2924.925;    0.000;    0.000
874.664; 2897.925;    0.000;    0.000
874.845; 2807.925;    0.000;    0.000
875.026; 2814.925;    0.000;    0.000
875.207; 2667.925;    0.000;    0.000
875.388; 2717.925;    0.000;    0.000
875.568; 2680.925;    0.000;    0.000
875.749; 2601.925;    0.000;    0.000
875.930; 2666.925;    0.000;    0.000
876.111; 2585.925;    0.000;    0.000
876.292; 2598.925;    0.000;    0.000
876.472; 2563.925;    0.000;    0.000
876.653; 2540.925;    0.000;    0.000
876.834; 2476.925;    0.000;    0.000
877.015; 2536.925;    0.000;    0.000
877.195; 2446.925;    0.000;    0.000
877.376; 2501.925;    0.000;    0.000
877.556; 2479.925;    0.000;    0.000
877.737; 2475.925;    0.000;    0.000
877.918; 2435.925;    0.000;    0.000
878.098; 2338.925;    0.000;    0.000
878.279; 2286.925;    0.000;    0.000
878.459; 2337.925;    0.000;    0.000
878.640; 2397.925;    0.000;    0.000
878.820; 2341.925;    0.000;    0.000
879.000; 2436.925;    0.000;    0.000
879.181; 2384.925;    0.000;    0.000
879.361; 2416.925;    0.000;    0.000
879.542; 2324.925;    0.000;    0.000
879.722; 2384.925;    0.000;    0.000
879.902; 2449.925;    0.000;    0.000
880.083; 2355.925;    0.000;    0.000
880.263; 2413.925;    0.000;    0.000
880.443; 2655.925;    0.000;    0.000
880.623; 3023.925;    0.000;    0.000
880.803; 3172.925;    0.000;    0.000
880.984; 2873.925;    0.000;    0.000
881.164; 2672.925;    0.000;    0.000
881.344; 2639.925;    0.000;    0.000
881.524; 2597.925;    0.000;    0.000
881.704; 2551.925;    0.000;    0.000
881.884; 2644.925;    0.000;    0.000
882.064; 2735.925;    0.000;    0.000
882.244; 2739.925;    0.000;    0.000
882.424; 2616.925;    0.000;    0.000
882.604; 2517.925;    0.000;    0.000
882.784; 2441.925;    0.000;    0.000
882.964; 2483.925;    0.000;    0.000
883.144; 2459.925;    0.000;    0.000
883.324; 2451.925;    0.000;    0.000
883.504; 2446.925;    0.000;    0.000
883.683; 2370.925;    0.000;    0.000
883.863; 2399.925;    0.000;    0.000
884.043; 2377.925;    0.000;    0.000
884.223; 2259.925;    0.000;    0.000
884.402; 2360.925;    0.000;    0.000
884.582; 2370.925;    0.000;    0.000
884.762; 2355.925;    0.000;    0.000
884.941; 2280.925;    0.000;    0.000
885.121; 2281.925;    0.000;    0.000
885.301; 2265.925;    0.000;    0.000
885.480; 2210.925;    0.000;    0.000
885.660; 2301.925;    0.000;    0.000
885.839; 2253.925;    0.000;    0.000
886.019; 2304.925;    0.000;    0.000
886.198; 2306.925;    0.000;    0.000
886.378; 2158.925;    0.000;    0.000
886.557; 2184.925;    0.000;    0.000
886.737; 2208.925;    0.000;    0.000
886.916; 2229.925;    0.000;    0.000
887.095; 2212.925;    0.000;    0.000
887.275; 2192.925;    0.000;    0.000
887.454; 2215.925;    0.000;    0.000
887.633; 2251.925;    0.000;    0.000
887.813; 2186.925;    0.000;    0.000
887.992; 2197.925;    0.000;    0.000
888.171; 2183.925;    0.000;    0.000
888.350; 2101.925;    0.000;    0.000
888.530; 2177.925;    0.000;    0.000
888.709; 2226.925;    0.000;    0.000
888.888; 2258.925;    0.000;    0.000
889.067; 2189.925;    0.000;    0.000
889.246; 2200.925;    0.000;    0.000
889.425; 2216.925;    0.000;    0.000
889.604; 2238.925;    0.000;    0.000
889.783; 2202.925;    0.000;    0.000
889.962; 2140.925;    0.000;    0.000
890.141; 2205.925;    0.000;    0.000
890.320; 2257.925;    0.000;    0.000
890.499; 2246.925;    0.000;    0.000
890.678; 2172.925;    0.000;    0.000
890.857; 2177.925;    0.000;    0.000
891.036; 2106.925;    0.000;    0.000
891.214; 2094.925;    0.000;    0.000
891.393; 2220.925;    0.000;    0.000
891.572; 2221.925;    0.000;    0.000
891.751; 2208.925;    0.000;    0.000
891.930; 2212.925;    0.000;    0.000
892.108; 2170.925;    0.000;    0.000
892.287; 2125.925;    0.000;    0.000
892.466; 2106.925;    0.000;    0.000
892.644; 2179.925;    0.000;    0.000
892.823; 2097.925;    0.000;    0.000
893.001; 2166.925;    0.000;    0.000
893.180; 2124.925;    0.000;    0.000
893.359; 2156.925;    0.000;    0.000
893.537; 2161.925;    0.000;    0.000
893.716; 2184.925;    0.000;    0.000
893.894; 2138.925;    0.000;    0.000
894.073; 2025.925;    0.000;    0.000
894.251; 2157.925;    0.000;    0.000
894.429; 2152.925;    0.000;    0.000
894.608; 2131.925;    0.000;    0.000
894.786; 2122.925;    0.000;    0.000
894.964; 2130.925;    0.000;    0.000
895.143; 2116.925;    0.000;    0.000
895.321; 2199.925;    0.000;    0.000
895.499; 2129.925;    0.000;    0.000
895.677; 2224.925;    0.000;    0.000
895.856; 2214.925;    0.000;    0.000
896.034; 2113.925;    0.000;    0.000
896.212; 2187.925;    0.000;    0.000
896.390; 2140.925;    0.000;    0.000
896.568; 2095.925;    0.000;    0.000
896.746; 2154.925;    0.000;    0.000
896.924; 2118.925;    0.000;    0.000
897.102; 2145.925;    0.000;    0.000
897.280; 2059.925;    0.000;    0.000
897.458; 2181.925;    0.000;    0.000
897.636; 2086.925;    0.000;    0.000
897.814; 2180.925;    0.000;    0.000
897.992; 2214.925;    0.000;    0.000
898.170; 2203.925;    0.000;    0.000
898.348; 2252.925;    0.000;    0.000
898.526; 2188.925;    0.000;    0.000
898.704; 2233.925;    0.000;    0.000
898.882; 2152.925;    0.000;    0.000
899.059; 2161.925;    0.000;    0.000
899.237; 2235.925;    0.000;    0.000
899.415; 2297.925;    0.000;    0.000
899.593; 2198.925;    0.000;    0.000
899.770; 2255.925;    0.000;    0.000
899.948; 2166.925;    0.000;    0.000
900.125; 2181.925;    0.000;    0.000
900.303; 2160.925;    0.000;    0.000
900.481; 2160.925;    0.000;    0.000
900.658; 2215.925;    0.000;    0.000
900.836; 2176.925;    0.000;    0.000
901.013; 2304.925;    0.000;    0.000
901.191; 2303.925;    0.000;    0.000
901.368; 2225.925;    0.000;    0.000
901.546; 2365.925;    0.000;    0.000
901.723; 2309.925;    0.000;    0.000
901.901; 2397.925;    0.000;    0.000
902.078; 2391.925;    0.000;    0.000
902.255; 2498.925;    0.000;    0.000
902.433; 2424.925;    0.000;    0.000
902.610; 2452.925;    0.000;    0.000
902.787; 2462.925;    0.000;    0.000
902.964; 2467.925;    0.000;    0.000
903.142; 2464.925;    0.000;    0.000
903.319; 2519.925;    0.000;    0.000
903.496; 2557.925;    0.000;    0.000
903.673; 2586.925;    0.000;    0.000
903.850; 2573.925;    0.000;    0.000
904.027; 2621.925;    0.000;    0.000
904.204; 2797.925;    0.000;    0.000
904.381; 2932.925;    0.000;    0.000
904.558; 3272.925;    0.000;    0.000
904.735; 3434.925;    0.000;    0.000
904.912; 3398.925;    0.000;    0.000
905.089; 3406.925;    0.000;    0.000
905.266; 3239.925;    0.000;    0.000
905.443; 3119.925;    0.000;    0.000
905.620; 2980.925;    0.000;    0.000
905.797; 2894.925;    0.000;    0.000
905.974; 2836.925;    0.000;    0.000
906.151; 2729.925;    0.000;    0.000
906.327; 2819.925;    0.000;    0.000
906.504; 2721.925;    0.000;    0.000
906.681; 2714.925;    0.000;    0.000
906.858; 2689.925;    0.000;    0.000
907.034; 2658.925;    0.000;    0.000
907.211; 2491.925;    0.000;    0.000
907.388; 2548.925;    0.000;    0.000
907.564; 2480.925;    0.000;    0.000
907.741; 2452.925;    0.000;    0.000
907.917; 2470.925;    0.000;    0.000
908.094; 2513.925;    0.000;    0.000
908.271; 2507.925;    0.000;    0.000
908.447; 2399.925;    0.000;    0.000
908.623; 2489.925;    0.000;    0.000
908.800; 2384.925;    0.000;    0.000
908.976; 2356.925;    0.000;    0.000
909.153; 2331.925;    0.000;    0.000
909.329; 2395.925;    0.000;    0.000
909.505; 2280.925;    0.000;    0.000
909.682; 2331.925;    0.000;    0.000
909.858; 2409.925;    0.000;    0.000
910.034; 2287.925;    0.000;    0.000
910.211; 2335.925;    0.000;    0.000
910.387; 2387.925;    0.000;    0.000
910.563; 2293.925;    0.000;    0.000
910.739; 2264.925;    0.000;    0.000
910.915; 2409.925;    0.000;    0.000
911.091; 2279.925;    0.000;    0.000
911.268; 2275.925;    0.000;    0.000
911.444; 2272.925;    0.000;    0.000
911.620; 2241.925;    0.000;    0.000
911.796; 2236.925;    0.000;    0.000
911.972; 2303.925;    0.000;    0.000
912.148; 2265.925;    0.000;    0.000
912.324; 2239.925;    0.000;    0.000
912.500; 2346.925;    0.000;    0.000
912.676; 2269.925;    0.000;    0.000
912.851; 2237.925;    0.000;    0.000
913.027; 2332.925;    0.000;    0.000
913.203; 2241.925;    0.000;    0.000
913.379; 2246.925;    0.000;    0.000
913.555; 2122.925;    0.000;    0.000
913.730; 2268.925;    0.000;    0.000
913.906; 2277.925;    0.000;    0.000
914.082; 2290.925;    0.000;    0.000
914.258; 2252.925;    0.000;    0.000
914.433; 2276.925;    0.000;    0.000
914.609; 2257.925;    0.000;    0.000
914.784; 2252.925;    0.000;    0.000
914.960; 2272.925;    0.000;    0.000
915.136; 2193.925;    0.000;    0.000
915.311; 2291.925;    0.000;    0.000
915.487; 2276.925;    0.000;    0.000
915.662; 2333.925;    0.000;    0.000
915.838; 2261.925;    0.000;    0.000
916.013; 2182.925;    0.000;    0.000
916.189; 2333.925;    0.000;    0.000
916.364; 2275.925;    0.000;    0.000
916.539; 2258.925;    0.000;    0.000
916.715; 2280.925;    0.000;    0.000
916.890; 2336.925;    0.000;    0.000
917.065; 2322.925;    0.000;    0.000
917.240; 2221.925;    0.000;    0.000
917.416; 2336.925;    0.000;    0.000
917.591; 2259.925;    0.000;    0.000
917.766; 2345.925;    0.000;    0.000
917.941; 2346.925;    0.000;    0.000
918.116; 2270.925;    0.000;    0.000
918.292; 2239.925;    0.000;    0.000
918.467; 2409.925;    0.000;    0.000
918.642; 2330.925;    0.000;    0.000
918.817; 2394.925;    0.000;    0.000
918.992; 2302.925;    0.000;    0.000
919.167; 2445.925;    0.000;    0.000
919.342; 2470.925;    0.000;    0.000
919.517; 2450.925;    0.000;    0.000
919.692; 2324.925;    0.000;    0.000
919.867; 2456.925;    0.000;    0.000
920.041; 2462.925;    0.000;    0.000
920.216; 2396.925;    0.000;    0.000
920.391; 2566.925;    0.000;    0.000
920.566; 2535.925;    0.000;    0.000
920.741; 2585.925;    0.000;    0.000
920.915; 2742.925;    0.000;    0.000
921.090; 2939.925;    0.000;    0.000
921.265; 3362.925;    0.000;    0.000
921.439; 3507.925;    0.000;    0.000
921.614; 3374.925;    0.000;    0.000
921.789; 3064.925;    0.000;    0.000
921.963; 3095.925;    0.000;    0.000
922.138; 2872.925;    0.000;    0.000
922.312; 2841.925;    0.000;    0.000
922.487; 2846.925;    0.000;    0.000
922.661; 2967.925;    0.000;    0.000
922.836; 3201.925;    0.000;    0.000
923.010; 3137.925;    0.000;    0.000
923.185; 3078.925;    0.000;    0.000
923.359; 2970.925;    0.000;    0.000
923.534; 2947.925;    0.000;    0.000
923.708; 3028.925;    0.000;    0.000
923.882; 3110.925;    0.000;    0.000
924.057; 2954.925;    0.000;    0.000
924.231; 2920.925;    0.000;    0.000
924.405; 2875.925;    0.000;    0.000
924.579; 2835.925;    0.000;    0.000
924.753; 2794.925;    0.000;    0.000
924.928; 2818.925;    0.000;    0.000
925.102; 2681.925;    0.000;    0.000
925.276; 2699.925;    0.000;    0.000
925.450; 2771.925;    0.000;    0.000
925.624; 2712.925;    0.000;    0.000
925.798; 2818.925;    0.000;    0.000
925.972; 2856.925;    0.000;    0.000
926.146; 3035.925;    0.000;    0.000
926.320; 3071.925;    0.000;    0.000
926.494; 3185.925;    0.000;    0.000
926.668; 3302.925;    0.000;    0.000
926.842; 3337.925;    0.000;    0.000
927.016; 3439.925;    0.000;    0.000
927.190; 3349.925;    0.000;    0.000
927.363; 3276.925;    0.000;    0.000
927.537; 3336.925;    0.000;    0.000
927.711; 3170.925;    0.000;    0.000
927.885; 3159.925;    0.000;    0.000
928.058; 2998.925;    0.000;    0.000
928.232; 3111.925;    0.000;    0.000
928.406; 2951.925;    0.000;    0.000
928.579; 2872.925;    0.000;    0.000
928.753; 2947.925;    0.000;    0.000
928.927; 2796.925;    0.000;    0.000
929.100; 2839.925;    0.000;    0.000
929.274; 2727.925;    0.000;    0.000
929.447; 2715.925;    0.000;    0.000
929.621; 2683.925;    0.000;    0.000
929.794; 2769.925;    0.000;    0.000
929.968; 2709.925;    0.000;    0.000
930.141; 2815.925;    0.000;    0.000
930.315; 2699.925;    0.000;    0.000
930.488; 2719.925;    0.000;    0.000
930.661; 2668.925;    0.000;    0.000
930.835; 2548.925;    0.000;    0.000
931.008; 2569.925;    0.000;    0.000
931.181; 2483.925;    0.000;    0.000
931.354; 2577.925;    0.000;    0.000
931.528; 2441.925;    0.000;    0.000
931.701; 2481.925;    0.000;    0.000
931.874; 2432.925;    0.000;    0.000
932.047; 2403.925;    0.000;    0.000
932.220; 2390.925;    0.000;    0.000
932.393; 2328.925;    0.000;    0.000
932.566; 2370.925;    0.000;    0.000
932.739; 2361.925;    0.000;    0.000
932.912; 2317.925;    0.000;    0.000
933.085; 2430.925;    0.000;    0.000
933.258; 2357.925;    0.000;    0.000
933.431; 2322.925;    0.000;    0.000
933.604; 2352.925;    0.000;    0.000
933.777; 2352.925;    0.000;    0.000
933.950; 2322.925;    0.000;    0.000
934.123; 2348.925;    0.000;    0.000
934.296; 2304.925;    0.000;    0.000
934.468; 2277.925;    0.000;    0.000
934.641; 2293.925;    0.000;    0.000
934.814; 2312.925;    0.000;    0.000
934.987; 2285.925;    0.000;    0.000
935.159; 2279.925;    0.000;    0.000
935.332; 2218.925;    0.000;    0.000
935.505; 2176.925;    0.000;    0.000
935.677; 2259.925;    0.000;    0.000
935.850; 2208.925;    0.000;    0.000
936.022; 2225.925;    0.000;    0.000
936.195; 2282.925;    0.000;    0.000
936.367; 2211.925;    0.000;    0.000
936.540; 2273.925;    0.000;    0.000
936.712; 2271.925;    0.000;    0.000
936.885; 2322.925;    0.000;    0.000
937.057; 2214.925;    0.000;    0.000
937.229; 2209.925;    0.000;    0.000
937.402; 2252.925;    0.000;    0.000
937.574; 2267.925;    0.000;    0.000
937.746; 2350.925;    0.000;    0.000
937.919; 2310.925;    0.000;    0.000
938.091; 2370.925;    0.000;    0.000
938.263; 2461.925;    0.000;    0.000
938.435; 2707.925;    0.000;    0.000
938.608; 2854.925;    0.000;    0.000
938.780; 3006.925;    0.000;    0.000
938.952; 3116.925;    0.000;    0.000
939.124; 3140.925;    0.000;    0.000
939.296; 3307.925;    0.000;    0.000
939.468; 3334.925;    0.000;    0.000
939.640; 3096.925;    0.000;    0.000
939.812; 3011.925;    0.000;    0.000
939.984; 2679.925;    0.000;    0.000
940.156; 2669.925;    0.000;    0.000
940.328; 2566.925;    0.000;    0.000
940.500; 2451.925;    0.000;    0.000
940.672; 2507.925;    0.000;    0.000
940.843; 2377.925;    0.000;    0.000
941.015; 2364.925;    0.000;    0.000
941.187; 2380.925;    0.000;    0.000
941.359; 2395.925;    0.000;    0.000
941.531; 2325.925;    0.000;    0.000
941.702; 2316.925;    0.000;    0.000
941.874; 2303.925;    0.000;    0.000
942.046; 2249.925;    0.000;    0.000
942.217; 2271.925;    0.000;    0.000
942.389; 2162.925;    0.000;    0.000
942.560; 2121.925;    0.000;    0.000
942.732; 2229.925;    0.000;    0.000
942.904; 2116.925;    0.000;    0.000
943.075; 2199.925;    0.000;    0.000
943.247; 2120.925;    0.000;    0.000
943.418; 2110.925;    0.000;    0.000
943.589; 2122.925;    0.000;    0.000
943.761; 2135.925;    0.000;    0.000
943.932; 2139.925;    0.000;    0.000
944.104; 2147.925;    0.000;    0.000
944.275; 2030.925;    0.000;    0.000
944.446; 2108.925;    0.000;    0.000
944.617; 1997.925;    0.000;    0.000
944.789; 2025.925;    0.000;    0.000
944.960; 2033.925;    0.000;    0.000
945.131; 1948.925;    0.000;    0.000
945.302; 2091.925;    0.000;    0.000
945.473; 1978.925;    0.000;    0.000
945.645; 2010.925;    0.000;    0.000
945.816; 2078.925;    0.000;    0.000
945.987; 2097.925;    0.000;    0.000
946.158; 2095.925;    0.000;    0.000
946.329; 2058.925;    0.000;    0.000
946.500; 2076.925;    0.000;    0.000
946.671; 2056.925;    0.000;    0.000
946.842; 2064.925;    0.000;    0.000
947.013; 1923.925;    0.000;    0.000
947.183; 2076.925;    0.000;    0.000
947.354; 2055.925;    0.000;    0.000
947.525; 2017.925;    0.000;    0.000
947.696; 2075.925;    0.000;    0.000
947.867; 1923.925;    0.000;    0.000
948.037; 1863.925;    0.000;    0.000
948.208; 2021.925;    0.000;    0.000
948.379; 2108.925;    0.000;    0.000
948.550; 2009.925;    0.000;    0.000
948.720; 1951.925;    0.000;    0.000
948.891; 2007.925;    0.000;    0.000
949.061; 1952.925;    0.000;    0.000
949.232; 1965.925;    0.000;    0.000
949.403; 1956.925;    0.000;    0.000
949.573; 1963.925;    0.000;    0.000
949.744; 1985.925;    0.000;    0.000
949.914; 1947.925;    0.000;    0.000
950.085; 1970.925;    0.000;    0.000
950.255; 1955.925;    0.000;    0.000
950.425; 1977.925;    0.000;    0.000
950.596; 1968.925;    0.000;    0.000
950.766; 1969.925;    0.000;    0.000
950.936; 1962.925;    0.000;    0.000
951.107; 1925.925;    0.000;    0.000
951.277; 1972.925;    0.000;    0.000
951.447; 1949.925;    0.000;    0.000
951.617; 1934.925;    0.000;    0.000
951.788; 1976.925;    0.000;    0.000
951.958; 1912.925;    0.000;    0.000
952.128; 1929.925;    0.000;    0.000
952.298; 1960.925;    0.000;    0.000
952.468; 1984.925;    0.000;    0.000
952.638; 1961.925;    0.000;    0.000
952.808; 1879.925;    0.000;    0.000
952.978; 1932.925;    0.000;    0.000
953.148; 1965.925;    0.000;    0.000
953.318; 1957.925;    0.000;    0.000
953.488; 1886.925;    0.000;    0.000
953.658; 2005.925;    0.000;    0.000
953.828; 1927.925;    0.000;    0.000
953.998; 1972.925;    0.000;    0.000
954.167; 1900.925;    0.000;    0.000
954.337; 1932.925;    0.000;    0.000
954.507; 2028.925;    0.000;    0.000
954.677; 1929.925;    0.000;    0.000
954.846; 2031.925;    0.000;    0.000
955.016; 1959.925;    0.000;    0.000
955.186; 2021.925;    0.000;    0.000
955.355; 2053.925;    0.000;    0.000
955.525; 1930.925;    0.000;    0.000
955.695; 1891.925;    0.000;    0.000
955.864; 2029.925;    0.000;    0.000
956.034; 1970.925;    0.000;    0.000
956.203; 1994.925;    0.000;    0.000
956.373; 1918.925;    0.000;    0.000
956.542; 2001.925;    0.000;    0.000
956.711; 1942.925;    0.000;    0.000
956.881; 1990.925;    0.000;    0.000
957.050; 1980.925;    0.000;    0.000
957.220; 1964.925;    0.000;    0.000
957.389; 1942.925;    0.000;    0.000
957.558; 1984.925;    0.000;    0.000
957.727; 1908.925;    0.000;    0.000
957.897; 1951.925;    0.000;    0.000
958.066; 1941.925;    0.000;    0.000
958.235; 1882.925;    0.000;    0.000
958.404; 2027.925;    0.000;    0.000
958.573; 1917.925;    0.000;    0.000
958.743; 1893.925;    0.000;    0.000
958.912; 1938.925;    0.000;    0.000
959.081; 1968.925;    0.000;    0.000
959.250; 1867.925;    0.000;    0.000
959.419; 1932.925;    0.000;    0.000
959.588; 1950.925;    0.000;    0.000
959.757; 1938.925;    0.000;    0.000
959.926; 1959.925;    0.000;    0.000
960.094; 2005.925;    0.000;    0.000
960.263; 1893.925;    0.000;    0.000
960.432; 1922.925;    0.000;    0.000
960.601; 1854.925;    0.000;    0.000
960.770; 1895.925;    0.000;    0.000
960.939; 1864.925;    0.000;    0.000
961.107; 1938.925;    0.000;    0.000
961.276; 1902.925;    0.000;    0.000
961.445; 1886.925;    0.000;    0.000
961.613; 1803.925;    0.000;    0.000
961.782; 1903.925;    0.000;    0.000
961.951; 1856.925;    0.000;    0.000
962.119; 1906.925;    0.000;    0.000
962.288; 1882.925;    0.000;    0.000
962.456; 1837.925;    0.000;    0.000
962.625; 1883.925;    0.000;    0.000
962.793; 1867.925;    0.000;    0.000
962.962; 1892.925;    0.000;    0.000
963.130; 1796.925;    0.000;    0.000
963.298; 1848.925;    0.000;    0.000
963.467; 1919.925;    0.000;    0.000
963.635; 1885.925;    0.000;    0.000
963.803; 1889.925;    0.000;    0.000
963.972; 1837.925;    0.000;    0.000
964.140; 1839.925;    0.000;    0.000
964.308; 1889.925;    0.000;    0.000
964.477; 1892.925;    0.000;    0.000
964.645; 1884.925;    0.000;    0.000
964.813; 1914.925;    0.000;    0.000
964.981; 2023.925;    0.000;    0.000
965.149; 1988.925;    0.000;    0.000
965.317; 1923.925;    0.000;    0.000
965.485; 1915.925;    0.000;    0.000
965.653; 1940.925;    0.000;    0.000
965.821; 1959.925;    0.000;    0.000
965.989; 1931.925;    0.000;    0.000
966.157; 1991.925;    0.000;    0.000
966.325; 1839.925;    0.000;    0.000
966.493; 1867.925;    0.000;    0.000
966.661; 1923.925;    0.000;    0.000
966.829; 1917.925;    0.000;    0.000
966.996; 1965.925;    0.000;    0.000
967.164; 2005.925;    0.000;    0.000
967.332; 2059.925;    0.000;    0.000
967.500; 1859.925;    0.000;    0.000
967.667; 1944.925;    0.000;    0.000
967.835; 1856.925;    0.000;    0.000
968.003; 1942.925;    0.000;    0.000
968.170; 1835.925;    0.000;    0.000
968.338; 1861.925;    0.000;    0.000
968.505; 1945.925;    0.000;    0.000
968.673; 1945.925;    0.000;    0.000
968.841; 1842.925;    0.000;    0.000
969.008; 1827.925;    0.000;    0.000
969.175; 1878.925;    0.000;    0.000
969.343; 1926.925;    0.000;    0.000
969.510; 1914.925;    0.000;    0.000
969.678; 1882.925;    0.000;    0.000
969.845; 1925.925;    0.000;    0.000
970.012; 1930.925;    0.000;    0.000
970.180; 1930.925;    0.000;    0.000
970.347; 1946.925;    0.000;    0.000
970.514; 1876.925;    0.000;    0.000
970.681; 1852.925;    0.000;    0.000
970.849; 1848.925;    0.000;    0.000
971.016; 1912.925;    0.000;    0.000
971.183; 1972.925;    0.000;    0.000
971.350; 1887.925;    0.000;    0.000
971.517; 1949.925;    0.000;    0.000
971.684; 1963.925;    0.000;    0.000
971.851; 1929.925;    0.000;    0.000
972.018; 1987.925;    0.000;    0.000
972.185; 1917.925;    0.000;    0.000
972.352; 1936.925;    0.000;    0.000
972.519; 1957.925;    0.000;    0.000
972.686; 1908.925;    0.000;    0.000
972.853; 1889.925;    0.000;    0.000
973.020; 1914.925;    0.000;    0.000
973.186; 1915.925;    0.000;    0.000
973.353; 1974.925;    0.000;    0.000
973.520; 1917.925;    0.000;    0.000
973.687; 1970.925;    0.000;    0.000
973.853; 1986.925;    0.000;    0.000
974.020; 1909.925;    0.000;    0.000
974.187; 1884.925;    0.000;    0.000
974.353; 1936.925;    0.000;    0.000
974.520; 1892.925;    0.000;    0.000
974.687; 1842.925;    0.000;    0.000
974.853; 1926.925;    0.000;    0.000
975.020; 1897.925;    0.000;    0.000
975.186; 1955.925;    0.000;    0.000
975.353; 1925.925;    0.000;    0.000
975.519; 1864.925;    0.000;    0.000
975.685; 1888.925;    0.000;    0.000
975.852; 1892.925;    0.000;    0.000
976.018; 1935.925;    0.000;    0.000
976.184; 1900.925;    0.000;    0.000
976.351; 1875.925;    0.000;    0.000
976.517; 1911.925;    0.000;    0.000
976.683; 1901.925;    0.000;    0.000
976.849; 1877.925;    0.000;    0.000
977.016; 1817.925;    0.000;    0.000
977.182; 1957.925;    0.000;    0.000
977.348; 1799.925;    0.000;    0.000
977.514; 1862.925;    0.000;    0.000
977.680; 1786.925;    0.000;    0.000
977.846; 1840.925;    0.000;    0.000
978.012; 1832.925;    0.000;    0.000
978.178; 1859.925;    0.000;    0.000
978.344; 1864.925;    0.000;    0.000
978.510; 1820.925;    0.000;    0.000
978.676; 1855.925;    0.000;    0.000
978.842; 1819.925;    0.000;    0.000
979.008; 1845.925;    0.000;    0.000
979.174; 1855.925;    0.000;    0.000
979.340; 1921.925;    0.000;    0.000
979.505; 1927.925;    0.000;    0.000
979.671; 1889.925;    0.000;    0.000
979.837; 1966.925;    0.000;    0.000
980.003; 1869.925;    0.000;    0.000
980.168; 1850.925;    0.000;    0.000
980.334; 1911.925;    0.000;    0.000
980.499; 1932.925;    0.000;    0.000
980.665; 1928.925;    0.000;    0.000
980.831; 1962.925;    0.000;    0.000
980.996; 1964.925;    0.000;    0.000
981.162; 1949.925;    0.000;    0.000
981.327; 1965.925;    0.000;    0.000
981.493; 1961.925;    0.000;    0.000
981.658; 1904.925;    0.000;    0.000
981.823; 1991.925;    0.000;    0.000
981.989; 1938.925;    0.000;    0.000
982.154; 2002.925;    0.000;    0.000
982.319; 1906.925;    0.000;    0.000
982.485; 2013.925;    0.000;    0.000
982.650; 1983.925;    0.000;    0.000
982.815; 2030.925;    0.000;    0.000
982.980; 1876.925;    0.000;    0.000
983.146; 1960.925;    0.000;    0.000
983.311; 1892.925;    0.000;    0.000
983.476; 1849.925;    0.000;    0.000
983.641; 1956.925;    0.000;    0.000
983.806; 1901.925;    0.000;    0.000
983.971; 1971.925;    0.000;    0.000
984.136; 1979.925;    0.000;    0.000
984.301; 1904.925;    0.000;    0.000
984.466; 1963.925;    0.000;    0.000
984.631; 2022.925;    0.000;    0.000
984.796; 1923.925;    0.000;    0.000
984.961; 2057.925;    0.000;    0.000
985.126; 2039.925;    0.000;    0.000
985.291; 1987.925;    0.000;    0.000
985.455; 1916.925;    0.000;    0.000
985.620; 1861.925;    0.000;    0.000
985.785; 1852.925;    0.000;    0.000
985.950; 1815.925;    0.000;    0.000
986.114; 1917.925;    0.000;    0.000
986.279; 1943.925;    0.000;    0.000
986.444; 1906.925;    0.000;    0.000
986.608; 1931.925;    0.000;    0.000
986.773; 1977.925;    0.000;    0.000
986.937; 1972.925;    0.000;    0.000
987.102; 1955.925;    0.000;    0.000
987.266; 1922.925;    0.000;    0.000
987.431; 2007.925;    0.000;    0.000
987.595; 1928.925;    0.000;    0.000
987.760; 1965.925;    0.000;    0.000
987.924; 1943.925;    0.000;    0.000
988.088; 1966.925;    0.000;    0.000
988.253; 1827.925;    0.000;    0.000
988.417; 1881.925;    0.000;    0.000
988.581; 1832.925;    0.000;    0.000
988.746; 1915.925;    0.000;    0.000
988.910; 1934.925;    0.000;    0.000
989.074; 1959.925;    0.000;    0.000
989.238; 1988.925;    0.000;    0.000
989.402; 1957.925;    0.000;    0.000
989.566; 1905.925;    0.000;    0.000
989.731; 1894.925;    0.000;    0.000
989.895; 1901.925;    0.000;    0.000
990.059; 1811.925;    0.000;    0.000
990.223; 1864.925;    0.000;    0.000
990.387; 1908.925;    0.000;    0.000
990.551; 1956.925;    0.000;    0.000
990.714; 1902.925;    0.000;    0.000
990.878; 1893.925;    0.000;    0.000
991.042; 1917.925;    0.000;    0.000
991.206; 1917.925;    0.000;    0.000
991.370; 1905.925;    0.000;    0.000
991.534; 1898.925;    0.000;    0.000
991.697; 1912.925;    0.000;    0.000
991.861; 1940.925;    0.000;    0.000
992.025; 1992.925;    0.000;    0.000
992.188; 1880.925;    0.000;    0.000
992.352; 1986.925;    0.000;    0.000
992.516; 1893.925;    0.000;    0.000
992.679; 1901.925;    0.000;    0.000
992.843; 1929.925;    0.000;    0.000
993.006; 1913.925;    0.000;    0.000
993.170; 1884.925;    0.000;    0.000
993.333; 1776.925;    0.000;    0.000
993.497; 1866.925;    0.000;    0.000
993.660; 1840.925;    0.000;    0.000
993.824; 1864.925;    0.000;    0.000
993.987; 1959.925;    0.000;    0.000
994.150; 1909.925;    0.000;    0.000
994.314; 1928.925;    0.000;    0.000
994.477; 1863.925;    0.000;    0.000
994.640; 1823.925;    0.000;    0.000
994.803; 1913.925;    0.000;    0.000
994.967; 1870.925;    0.000;    0.000
995.130; 1905.925;    0.000;    0.000
995.293; 1839.925;    0.000;    0.000
995.456; 1867.925;    0.000;    0.000
995.619; 1948.925;    0.000;    0.000
995.782; 1838.925;    0.000;    0.000
995.945; 1928.925;    0.000;    0.000
996.108; 1903.925;    0.000;    0.000
996.271; 1855.925;    0.000;    0.000
996.434; 1881.925;    0.000;    0.000
996.597; 1826.925;    0.000;    0.000
996.760; 1903.925;    0.000;    0.000
996.923; 1867.925;    0.000;    0.000
997.086; 1897.925;    0.000;    0.000
997.248; 1998.925;    0.000;    0.000
997.411; 1834.925;    0.000;    0.000
997.574; 1875.925;    0.000;    0.000
997.737; 1843.925;    0.000;    0.000
997.899; 1850.925;    0.000;    0.000
998.062; 1878.925;    0.000;    0.000
998.225; 1824.925;    0.000;    0.000
998.387; 1943.925;    0.000;    0.000
998.550; 1887.925;    0.000;    0.000
998.712; 1912.925;    0.000;    0.000
998.875; 1996.925;    0.000;    0.000
999.037; 1899.925;    0.000;    0.000
999.200; 1927.925;    0.000;    0.000
999.362; 1815.925;    0.000;    0.000
999.525; 1961.925;    0.000;    0.000
999.687; 1885.925;    0.000;    0.000
999.849; 1891.925;    0.000;    0.000
1000.012; 1899.925;    0.000;    0.000
1000.174; 1971.925;    0.000;    0.000
1000.336; 1950.925;    0.000;    0.000
1000.499; 1936.925;    0.000;    0.000
1000.661; 1945.925;    0.000;    0.000
1000.823; 1907.925;    0.000;    0.000
1000.985; 1887.925;    0.000;    0.000
1001.147; 1936.925;    0.000;    0.000
1001.309; 1935.925;    0.000;    0.000
1001.471; 1926.925;    0.000;    0.000
1001.633; 1959.925;    0.000;    0.000
1001.796; 1881.925;    0.000;    0.000
1001.958; 1999.925;    0.000;    0.000
1002.119; 1979.925;    0.000;    0.000
1002.281; 1990.925;    0.000;    0.000
1002.443; 2065.925;    0.000;    0.000
1002.605; 2026.925;    0.000;    0.000
1002.767; 2145.925;    0.000;    0.000
1002.929; 2105.925;    0.000;    0.000
1003.091; 2180.925;    0.000;    0.000
1003.252; 2204.925;    0.000;    0.000
1003.414; 2354.925;    0.000;    0.000
1003.576; 2396.925;    0.000;    0.000
1003.738; 2348.925;    0.000;    0.000
1003.899; 2491.925;    0.000;    0.000
1004.061; 2453.925;    0.000;    0.000
1004.222; 2656.925;    0.000;    0.000
1004.384; 2619.925;    0.000;    0.000
1004.546; 2625.925;    0.000;    0.000
1004.707; 2711.925;    0.000;    0.000
1004.869; 2766.925;    0.000;    0.000
1005.030; 2651.925;    0.000;    0.000
1005.191; 2601.925;    0.000;    0.000
1005.353; 2616.925;    0.000;    0.000
1005.514; 2535.925;    0.000;    0.000
1005.675; 2482.925;    0.000;    0.000
1005.837; 2417.925;    0.000;    0.000
1005.998; 2404.925;    0.000;    0.000
1006.159; 2347.925;    0.000;    0.000
1006.321; 2369.925;    0.000;    0.000
1006.482; 2378.925;    0.000;    0.000
1006.643; 2384.925;    0.000;    0.000
1006.804; 2531.925;    0.000;    0.000
1006.965; 2589.925;    0.000;    0.000
1007.126; 2674.925;    0.000;    0.000
1007.287; 2818.925;    0.000;    0.000
1007.448; 2551.925;    0.000;    0.000
1007.609; 2587.925;    0.000;    0.000
1007.770; 2514.925;    0.000;    0.000
1007.931; 2522.925;    0.000;    0.000
1008.092; 2602.925;    0.000;    0.000
1008.253; 2589.925;    0.000;    0.000
1008.414; 2759.925;    0.000;    0.000
1008.575; 2864.925;    0.000;    0.000
1008.736; 2828.925;    0.000;    0.000
1008.896; 2840.925;    0.000;    0.000
1009.057; 2762.925;    0.000;    0.000
1009.218; 2745.925;    0.000;    0.000
1009.379; 2695.925;    0.000;    0.000
1009.539; 2737.925;    0.000;    0.000
1009.700; 2699.925;    0.000;    0.000
1009.860; 2822.925;    0.000;    0.000
1010.021; 2708.925;    0.000;    0.000
1010.182; 2721.925;    0.000;    0.000
1010.342; 2708.925;    0.000;    0.000
1010.503; 2817.925;    0.000;    0.000
1010.663; 2788.925;    0.000;    0.000
1010.823; 2883.925;    0.000;    0.000
1010.984; 2944.925;    0.000;    0.000
1011.144; 3031.925;    0.000;    0.000
1011.305; 2978.925;    0.000;    0.000
1011.465; 3063.925;    0.000;    0.000
1011.625; 3071.925;    0.000;    0.000
1011.785; 3085.925;    0.000;    0.000
1011.946; 3027.925;    0.000;    0.000
1012.106; 3172.925;    0.000;    0.000
1012.266; 3027.925;    0.000;    0.000
1012.426; 2989.925;    0.000;    0.000
1012.586; 3064.925;    0.000;    0.000
1012.746; 3019.925;    0.000;    0.000
1012.906; 3029.925;    0.000;    0.000
1013.066; 3029.925;    0.000;    0.000
1013.226; 3072.925;    0.000;    0.000
1013.386; 3007.925;    0.000;    0.000
1013.546; 3011.925;    0.000;    0.000
1013.706; 2928.925;    0.000;    0.000
1013.866; 2876.925;    0.000;    0.000
1014.026; 2931.925;    0.000;    0.000
1014.186; 2879.925;    0.000;    0.000
1014.346; 2813.925;    0.000;    0.000
1014.505; 2987.925;    0.000;    0.000
1014.665; 3001.925;    0.000;    0.000
1014.825; 3035.925;    0.000;    0.000
1014.985; 2921.925;    0.000;    0.000
1015.144; 3054.925;    0.000;    0.000
1015.304; 3225.925;    0.000;    0.000
1015.464; 3270.925;    0.000;    0.000
1015.623; 3089.925;    0.000;    0.000
1015.783; 3124.925;    0.000;    0.000
1015.942; 3368.925;    0.000;    0.000
1016.102; 3418.925;    0.000;    0.000
1016.261; 3246.925;    0.000;    0.000
1016.420; 3262.925;    0.000;    0.000
1016.580; 3643.925;    0.000;    0.000
1016.739; 3665.925;    0.000;    0.000
1016.899; 3580.925;    0.000;    0.000
1017.058; 3540.925;    0.000;    0.000
1017.217; 3922.925;    0.000;    0.000
1017.376; 3893.925;    0.000;    0.000
1017.536; 3466.925;    0.000;    0.000
1017.695; 3469.925;    0.000;    0.000
1017.854; 3591.925;    0.000;    0.000
1018.013; 3558.925;    0.000;    0.000
1018.172; 3268.925;    0.000;    0.000
1018.331; 3388.925;    0.000;    0.000
1018.490; 3452.925;    0.000;    0.000
1018.649; 3593.925;    0.000;    0.000
1018.808; 3728.925;    0.000;    0.000
1018.967; 3573.925;    0.000;    0.000
1019.126; 3545.925;    0.000;    0.000
1019.285; 3687.925;    0.000;    0.000
1019.444; 3692.925;    0.000;    0.000
1019.603; 3605.925;    0.000;    0.000
1019.762; 3400.925;    0.000;    0.000
1019.921; 3464.925;    0.000;    0.000
1020.079; 3623.925;    0.000;    0.000
1020.238; 3857.925;    0.000;    0.000
1020.397; 3784.925;    0.000;    0.000
1020.555; 3513.925;    0.000;    0.000
1020.714; 3657.925;    0.000;    0.000
1020.873; 3679.925;    0.000;    0.000
1021.031; 3856.925;    0.000;    0.000
1021.190; 3645.925;    0.000;    0.000
1021.348; 3520.925;    0.000;    0.000
1021.507; 3754.925;    0.000;    0.000
1021.665; 3943.925;    0.000;    0.000
1021.824; 3809.925;    0.000;    0.000
1021.982; 3724.925;    0.000;    0.000
1022.141; 3479.925;    0.000;    0.000
1022.299; 3806.925;    0.000;    0.000
1022.457; 4127.925;    0.000;    0.000
1022.616; 3910.925;    0.000;    0.000
1022.774; 3573.925;    0.000;    0.000
1022.932; 3567.925;    0.000;    0.000
1023.090; 4098.925;    0.000;    0.000
1023.249; 4085.925;    0.000;    0.000
1023.407; 3926.925;    0.000;    0.000
1023.565; 3668.925;    0.000;    0.000
1023.723; 3803.925;    0.000;    0.000
1023.881; 3970.925;    0.000;    0.000
1024.039; 4084.925;    0.000;    0.000
1024.197; 3990.925;    0.000;    0.000
1024.355; 3697.925;    0.000;    0.000
1024.513; 3759.925;    0.000;    0.000
1024.671; 4034.925;    0.000;    0.000
1024.829; 4341.925;    0.000;    0.000
1024.987; 4096.925;    0.000;    0.000
1025.145; 3792.925;    0.000;    0.000
1025.302; 3743.925;    0.000;    0.000
1025.460; 4084.925;    0.000;    0.000
1025.618; 4138.925;    0.000;    0.000
1025.776; 4161.925;    0.000;    0.000
1025.933; 3841.925;    0.000;    0.000
1026.091; 3863.925;    0.000;    0.000
1026.249; 4089.925;    0.000;    0.000
1026.406; 4314.925;    0.000;    0.000
1026.564; 4266.925;    0.000;    0.000
1026.721; 3982.925;    0.000;    0.000
1026.879; 3803.925;    0.000;    0.000
1027.036; 4032.925;    0.000;    0.000
1027.194; 4356.925;    0.000;    0.000
1027.351; 4498.925;    0.000;    0.000
1027.509; 4214.925;    0.000;    0.000
1027.666; 3995.925;    0.000;    0.000
1027.823; 4169.925;    0.000;    0.000
1027.981; 4333.925;    0.000;    0.000
1028.138; 4662.925;    0.000;    0.000
1028.295; 4382.925;    0.000;    0.000
1028.452; 4033.925;    0.000;    0.000
1028.609; 3960.925;    0.000;    0.000
1028.767; 4200.925;    0.000;    0.000
1028.924; 4354.925;    0.000;    0.000
1029.081; 4324.925;    0.000;    0.000
1029.238; 4420.925;    0.000;    0.000
1029.395; 4023.925;    0.000;    0.000
1029.552; 4151.925;    0.000;    0.000
1029.709; 4338.925;    0.000;    0.000
1029.866; 4449.925;    0.000;    0.000
1030.023; 4559.925;    0.000;    0.000
1030.180; 4225.925;    0.000;    0.000
1030.337; 4159.925;    0.000;    0.000
1030.494; 4280.925;    0.000;    0.000
1030.650; 4472.925;    0.000;    0.000
1030.807; 4791.925;    0.000;    0.000
1030.964; 4504.925;    0.000;    0.000
1031.121; 4481.925;    0.000;    0.000
1031.277; 4341.925;    0.000;    0.000
1031.434; 4569.925;    0.000;    0.000
1031.591; 4595.925;    0.000;    0.000
1031.747; 4769.925;    0.000;    0.000
1031.904; 4786.925;    0.000;    0.000
1032.060; 4560.925;    0.000;    0.000
1032.217; 4360.925;    0.000;    0.000
1032.373; 4589.925;    0.000;    0.000
1032.530; 4838.925;    0.000;    0.000
1032.686; 5014.925;    0.000;    0.000
1032.843; 5403.925;    0.000;    0.000
1032.999; 5065.925;    0.000;    0.000
1033.155; 5028.925;    0.000;    0.000
1033.312; 4944.925;    0.000;    0.000
1033.468; 5086.925;    0.000;    0.000
1033.624; 6113.925;    0.000;    0.000
1033.780; 5816.925;    0.000;    0.000
1033.937; 6321.925;    0.000;    0.000
1034.093; 5747.925;    0.000;    0.000
1034.249; 5630.925;    0.000;    0.000
1034.405; 5630.925;    0.000;    0.000
1034.561; 5899.925;    0.000;    0.000
1034.717; 6156.925;    0.000;    0.000
1034.873; 6463.925;    0.000;    0.000
1035.029; 6276.925;    0.000;    0.000
1035.185; 6106.925;    0.000;    0.000
1035.341; 5857.925;    0.000;    0.000
1035.497; 6101.925;    0.000;    0.000
1035.653; 6279.925;    0.000;    0.000
1035.809; 6477.925;    0.000;    0.000
1035.964; 7276.925;    0.000;    0.000
1036.120; 7304.925;    0.000;    0.000
1036.276; 6940.925;    0.000;    0.000
1036.432; 7181.925;    0.000;    0.000
1036.587; 6540.925;    0.000;    0.000
1036.743; 6373.925;    0.000;    0.000
1036.899; 7041.925;    0.000;    0.000
1037.054; 7151.925;    0.000;    0.000
1037.210; 7654.925;    0.000;    0.000
1037.365; 8661.925;    0.000;    0.000
1037.521; 7704.925;    0.000;    0.000
1037.676; 7508.925;    0.000;    0.000
1037.832; 7529.925;    0.000;    0.000
1037.987; 7174.925;    0.000;    0.000
1038.143; 6792.925;    0.000;    0.000
1038.298; 7835.925;    0.000;    0.000
1038.453; 8185.925;    0.000;    0.000
1038.609; 8200.925;    0.000;    0.000
1038.764; 9248.925;    0.000;    0.000
1038.919; 8219.925;    0.000;    0.000
1039.074; 7619.925;    0.000;    0.000
1039.229; 7774.925;    0.000;    0.000
1039.385; 7255.925;    0.000;    0.000
1039.540; 7749.925;    0.000;    0.000
1039.695; 8255.925;    0.000;    0.000
1039.850; 8919.925;    0.000;    0.000
1040.005; 8974.925;    0.000;    0.000
1040.160; 9867.925;    0.000;    0.000
1040.315;10122.925;    0.000;    0.000
1040.470; 8941.925;    0.000;    0.000
1040.625; 8709.925;    0.000;    0.000
1040.780; 9070.925;    0.000;    0.000
1040.935; 8533.925;    0.000;    0.000
1041.089; 8540.925;    0.000;    0.000
1041.244; 9506.925;    0.000;    0.000
1041.399;10520.925;    0.000;    0.000
1041.554;10190.925;    0.000;    0.000
1041.708;11108.925;    0.000;    0.000
1041.863;12309.925;    0.000;    0.000
1042.018;10638.925;    0.000;    0.000
1042.172;10533.925;    0.000;    0.000
1042.327;10760.925;    0.000;    0.000
1042.481;10073.925;    0.000;    0.000
1042.636;10504.925;    0.000;    0.000
1042.791;10062.925;    0.000;    0.000
1042.945;11280.925;    0.000;    0.000
1043.099;13475.925;    0.000;    0.000
1043.254;12998.925;    0.000;    0.000
1043.408;12537.925;    0.000;    0.000
1043.563;14810.925;    0.000;    0.000
1043.717;14415.925;    0.000;    0.000
1043.871;12757.925;    0.000;    0.000
1044.025;12844.925;    0.000;    0.000
1044.180;12522.925;    0.000;    0.000
1044.334;11706.925;    0.000;    0.000
1044.488;12031.925;    0.000;    0.000
1044.642;12790.925;    0.000;    0.000
1044.796;13467.925;    0.000;    0.000
1044.950;15864.925;    0.000;    0.000
1045.104;17396.926;    0.000;    0.000
1045.258;17547.926;    0.000;    0.000
1045.412;17138.926;    0.000;    0.000
1045.566;17643.926;    0.000;    0.000
1045.720;17271.926;    0.000;    0.000
1045.874;16325.925;    0.000;    0.000
1046.028;15383.925;    0.000;    0.000
1046.182;13880.925;    0.000;    0.000
1046.336;13995.925;    0.000;    0.000
1046.489;15373.925;    0.000;    0.000
1046.643;15450.925;    0.000;    0.000
1046.797;15855.925;    0.000;    0.000
1046.951;17267.926;    0.000;    0.000
1047.104;19511.926;    0.000;    0.000
1047.258;19526.926;    0.000;    0.000
1047.411;18792.926;    0.000;    0.000
1047.565;19387.926;    0.000;    0.000
1047.719;20465.926;    0.000;    0.000
1047.872;20445.926;    0.000;    0.000
1048.026;17786.926;    0.000;    0.000
1048.179;17387.926;    0.000;    0.000
1048.332;17757.926;    0.000;    0.000
1048.486;16996.926;    0.000;    0.000
1048.639;17442.926;    0.000;    0.000
1048.792;17496.926;    0.000;    0.000
1048.946;18697.926;    0.000;    0.000
1049.099;20046.926;    0.000;    0.000
1049.252;20773.926;    0.000;    0.000
1049.406;20502.926;    0.000;    0.000
1049.559;20677.926;    0.000;    0.000
1049.712;23212.926;    0.000;    0.000
1049.865;25464.926;    0.000;    0.000
1050.018;24780.926;    0.000;    0.000
1050.171;23350.926;    0.000;    0.000
1050.324;21868.926;    0.000;    0.000
1050.477;22751.926;    0.000;    0.000
1050.630;25279.926;    0.000;    0.000
1050.783;26641.926;    0.000;    0.000
1050.936;25046.926;    0.000;    0.000
1051.089;22521.926;    0.000;    0.000
1051.242;21911.926;    0.000;    0.000
1051.394;23955.926;    0.000;    0.000
1051.547;27136.926;    0.000;    0.000
1051.700;28962.926;    0.000;    0.000
1051.853;27088.926;    0.000;    0.000
1052.005;25531.926;    0.000;    0.000
1052.158;26955.926;    0.000;    0.000
1052.311;29827.926;    0.000;    0.000
1052.463;30486.926;    0.000;    0.000
1052.616;28931.926;    0.000;    0.000
1052.768;27285.926;    0.000;    0.000
1052.921;26161.926;    0.000;    0.000
1053.073;26395.926;    0.000;    0.000
1053.226;27536.926;    0.000;    0.000
1053.378;33019.926;    0.000;    0.000
1053.531;36476.926;    0.000;    0.000
1053.683;35942.926;    0.000;    0.000
1053.835;32505.926;    0.000;    0.000
1053.988;24627.926;    0.000;    0.000
1054.140; 4247.925;    0.000;    0.000
1054.292; 1123.925;    0.000;    0.000
1054.444;  908.925;    0.000;    0.000
1054.596;  816.925;    0.000;    0.000
1054.749;  751.925;    0.000;    0.000
1054.901;  695.925;    0.000;    0.000
1055.053;  695.925;    0.000;    0.000
1055.205;  657.925;    0.000;    0.000
1055.357;  661.925;    0.000;    0.000
1055.509;  643.925;    0.000;    0.000
1055.661;  609.925;    0.000;    0.000
1055.813;  599.925;    0.000;    0.000
1055.965;  582.925;    0.000;    0.000
1056.116;  660.925;    0.000;    0.000
1056.268;  601.925;    0.000;    0.000
1056.420;  634.925;    0.000;    0.000

