
Integration time [ms]:   1.000
Averaging Nr. [scans]: 1
Smoothing Nr. [pixels]: 0
Data measured with spectrometer [name]: UV2
Wave   ;Sample   ;Dark     ;Reference
[nm]   ;[counts] ;[counts] ;[counts] 

353.533;  226.750;    0.000;    0.000
353.597;  222.750;    0.000;    0.000
353.660;  215.750;    0.000;    0.000
353.723;  192.750;    0.000;    0.000
353.786;  165.750;    0.000;    0.000
353.850;  220.750;    0.000;    0.000
353.913;  178.750;    0.000;    0.000
353.976;  214.750;    0.000;    0.000
354.039;  193.750;    0.000;    0.000
354.102;  191.750;    0.000;    0.000
354.166;  179.750;    0.000;    0.000
354.229;  222.750;    0.000;    0.000
354.292;  204.750;    0.000;    0.000
354.355;  201.750;    0.000;    0.000
354.418;  212.750;    0.000;    0.000
354.481;  206.750;    0.000;    0.000
354.545;  400.750;    0.000;    0.000
354.608;  405.750;    0.000;    0.000
354.671;  359.750;    0.000;    0.000
354.734;  419.750;    0.000;    0.000
354.797;  396.750;    0.000;    0.000
354.860;  407.750;    0.000;    0.000
354.923;  367.750;    0.000;    0.000
354.986;  428.750;    0.000;    0.000
355.050;  418.750;    0.000;    0.000
355.113;  403.750;    0.000;    0.000
355.176;  406.750;    0.000;    0.000
355.239;  422.750;    0.000;    0.000
355.302;  439.750;    0.000;    0.000
355.365;  426.750;    0.000;    0.000
355.428;  400.750;    0.000;    0.000
355.491;  468.750;    0.000;    0.000
355.554;  460.750;    0.000;    0.000
355.617;  430.750;    0.000;    0.000
355.680;  442.750;    0.000;    0.000
355.743;  415.750;    0.000;    0.000
355.806;  419.750;    0.000;    0.000
355.869;  479.750;    0.000;    0.000
355.932;  376.750;    0.000;    0.000
355.995;  424.750;    0.000;    0.000
356.058;  448.750;    0.000;    0.000
356.121;  438.750;    0.000;    0.000
356.184;  448.750;    0.000;    0.000
356.247;  421.750;    0.000;    0.000
356.310;  445.750;    0.000;    0.000
356.373;  445.750;    0.000;    0.000
356.436;  460.750;    0.000;    0.000
356.498;  461.750;    0.000;    0.000
356.561;  419.750;    0.000;    0.000
356.624;  437.750;    0.000;    0.000
356.687;  477.750;    0.000;    0.000
356.750;  429.750;    0.000;    0.000
356.813;  419.750;    0.000;    0.000
356.876;  478.750;    0.000;    0.000
356.939;  423.750;    0.000;    0.000
357.001;  459.750;    0.000;    0.000
357.064;  447.750;    0.000;    0.000
357.127;  454.750;    0.000;    0.000
357.190;  492.750;    0.000;    0.000
357.253;  432.750;    0.000;    0.000
357.316;  498.750;    0.000;    0.000
357.378;  442.750;    0.000;    0.000
357.441;  450.750;    0.000;    0.000
357.504;  419.750;    0.000;    0.000
357.567;  469.750;    0.000;    0.000
357.629;  456.750;    0.000;    0.000
357.692;  466.750;    0.000;    0.000
357.755;  456.750;    0.000;    0.000
357.818;  492.750;    0.000;    0.000
357.880;  497.750;    0.000;    0.000
357.943;  431.750;    0.000;    0.000
358.006;  488.750;    0.000;    0.000
358.069;  509.750;    0.000;    0.000
358.131;  503.750;    0.000;    0.000
358.194;  443.750;    0.000;    0.000
358.257;  490.750;    0.000;    0.000
358.319;  459.750;    0.000;    0.000
358.382;  489.750;    0.000;    0.000
358.445;  468.750;    0.000;    0.000
358.507;  492.750;    0.000;    0.000
358.570;  470.750;    0.000;    0.000
358.633;  466.750;    0.000;    0.000
358.695;  505.750;    0.000;    0.000
358.758;  475.750;    0.000;    0.000
358.821;  431.750;    0.000;    0.000
358.883;  468.750;    0.000;    0.000
358.946;  498.750;    0.000;    0.000
359.008;  499.750;    0.000;    0.000
359.071;  492.750;    0.000;    0.000
359.134;  432.750;    0.000;    0.000
359.196;  469.750;    0.000;    0.000
359.259;  482.750;    0.000;    0.000
359.321;  510.750;    0.000;    0.000
359.384;  525.750;    0.000;    0.000
359.446;  465.750;    0.000;    0.000
359.509;  505.750;    0.000;    0.000
359.571;  478.750;    0.000;    0.000
359.634;  486.750;    0.000;    0.000
359.696;  413.750;    0.000;    0.000
359.759;  523.750;    0.000;    0.000
359.821;  515.750;    0.000;    0.000
359.884;  490.750;    0.000;    0.000
359.946;  466.750;    0.000;    0.000
360.009;  483.750;    0.000;    0.000
360.071;  468.750;    0.000;    0.000
360.134;  524.750;    0.000;    0.000
360.196;  492.750;    0.000;    0.000
360.259;  452.750;    0.000;    0.000
360.321;  516.750;    0.000;    0.000
360.384;  537.750;    0.000;    0.000
360.446;  453.750;    0.000;    0.000
360.508;  495.750;    0.000;    0.000
360.571;  507.750;    0.000;    0.000
360.633;  495.750;    0.000;    0.000
360.696;  443.750;    0.000;    0.000
360.758;  497.750;    0.000;    0.000
360.820;  518.750;    0.000;    0.000
360.883;  494.750;    0.000;    0.000
360.945;  502.750;    0.000;    0.000
361.007;  490.750;    0.000;    0.000
361.070;  525.750;    0.000;    0.000
361.132;  552.750;    0.000;    0.000
361.194;  476.750;    0.000;    0.000
361.257;  502.750;    0.000;    0.000
361.319;  496.750;    0.000;    0.000
361.381;  529.750;    0.000;    0.000
361.443;  503.750;    0.000;    0.000
361.506;  535.750;    0.000;    0.000
361.568;  518.750;    0.000;    0.000
361.630;  473.750;    0.000;    0.000
361.693;  573.750;    0.000;    0.000
361.755;  528.750;    0.000;    0.000
361.817;  560.750;    0.000;    0.000
361.879;  538.750;    0.000;    0.000
361.941;  495.750;    0.000;    0.000
362.004;  467.750;    0.000;    0.000
362.066;  509.750;    0.000;    0.000
362.128;  531.750;    0.000;    0.000
362.190;  508.750;    0.000;    0.000
362.252;  568.750;    0.000;    0.000
362.315;  530.750;    0.000;    0.000
362.377;  473.750;    0.000;    0.000
362.439;  502.750;    0.000;    0.000
362.501;  579.750;    0.000;    0.000
362.563;  547.750;    0.000;    0.000
362.625;  578.750;    0.000;    0.000
362.688;  557.750;    0.000;    0.000
362.750;  568.750;    0.000;    0.000
362.812;  496.750;    0.000;    0.000
362.874;  538.750;    0.000;    0.000
362.936;  582.750;    0.000;    0.000
362.998;  511.750;    0.000;    0.000
363.060;  523.750;    0.000;    0.000
363.122;  539.750;    0.000;    0.000
363.184;  600.750;    0.000;    0.000
363.246;  570.750;    0.000;    0.000
363.308;  506.750;    0.000;    0.000
363.370;  574.750;    0.000;    0.000
363.432;  538.750;    0.000;    0.000
363.494;  517.750;    0.000;    0.000
363.556;  562.750;    0.000;    0.000
363.618;  556.750;    0.000;    0.000
363.680;  524.750;    0.000;    0.000
363.742;  572.750;    0.000;    0.000
363.804;  535.750;    0.000;    0.000
363.866;  560.750;    0.000;    0.000
363.928;  491.750;    0.000;    0.000
363.990;  589.750;    0.000;    0.000
364.052;  583.750;    0.000;    0.000
364.114;  498.750;    0.000;    0.000
364.176;  535.750;    0.000;    0.000
364.238;  578.750;    0.000;    0.000
364.300;  603.750;    0.000;    0.000
364.362;  514.750;    0.000;    0.000
364.424;  548.750;    0.000;    0.000
364.486;  564.750;    0.000;    0.000
364.548;  546.750;    0.000;    0.000
364.609;  592.750;    0.000;    0.000
364.671;  596.750;    0.000;    0.000
364.733;  579.750;    0.000;    0.000
364.795;  589.750;    0.000;    0.000
364.857;  538.750;    0.000;    0.000
364.919;  493.750;    0.000;    0.000
364.981;  543.750;    0.000;    0.000
365.042;  612.750;    0.000;    0.000
365.104;  567.750;    0.000;    0.000
365.166;  542.750;    0.000;    0.000
365.228;  581.750;    0.000;    0.000
365.290;  550.750;    0.000;    0.000
365.351;  559.750;    0.000;    0.000
365.413;  562.750;    0.000;    0.000
365.475;  588.750;    0.000;    0.000
365.537;  531.750;    0.000;    0.000
365.598;  568.750;    0.000;    0.000
365.660;  524.750;    0.000;    0.000
365.722;  540.750;    0.000;    0.000
365.784;  591.750;    0.000;    0.000
365.845;  550.750;    0.000;    0.000
365.907;  517.750;    0.000;    0.000
365.969;  569.750;    0.000;    0.000
366.030;  553.750;    0.000;    0.000
366.092;  628.750;    0.000;    0.000
366.154;  584.750;    0.000;    0.000
366.215;  543.750;    0.000;    0.000
366.277;  595.750;    0.000;    0.000
366.339;  619.750;    0.000;    0.000
366.400;  607.750;    0.000;    0.000
366.462;  631.750;    0.000;    0.000
366.524;  568.750;    0.000;    0.000
366.585;  580.750;    0.000;    0.000
366.647;  548.750;    0.000;    0.000
366.708;  520.750;    0.000;    0.000
366.770;  630.750;    0.000;    0.000
366.832;  647.750;    0.000;    0.000
366.893;  605.750;    0.000;    0.000
366.955;  607.750;    0.000;    0.000
367.016;  593.750;    0.000;    0.000
367.078;  586.750;    0.000;    0.000
367.139;  610.750;    0.000;    0.000
367.201;  575.750;    0.000;    0.000
367.262;  640.750;    0.000;    0.000
367.324;  607.750;    0.000;    0.000
367.385;  562.750;    0.000;    0.000
367.447;  632.750;    0.000;    0.000
367.508;  580.750;    0.000;    0.000
367.570;  615.750;    0.000;    0.000
367.631;  570.750;    0.000;    0.000
367.693;  586.750;    0.000;    0.000
367.754;  609.750;    0.000;    0.000
367.816;  597.750;    0.000;    0.000
367.877;  578.750;    0.000;    0.000
367.939;  622.750;    0.000;    0.000
368.000;  538.750;    0.000;    0.000
368.062;  641.750;    0.000;    0.000
368.123;  635.750;    0.000;    0.000
368.184;  638.750;    0.000;    0.000
368.246;  584.750;    0.000;    0.000
368.307;  620.750;    0.000;    0.000
368.369;  591.750;    0.000;    0.000
368.430;  554.750;    0.000;    0.000
368.491;  644.750;    0.000;    0.000
368.553;  679.750;    0.000;    0.000
368.614;  647.750;    0.000;    0.000
368.675;  544.750;    0.000;    0.000
368.737;  624.750;    0.000;    0.000
368.798;  593.750;    0.000;    0.000
368.859;  654.750;    0.000;    0.000
368.921;  624.750;    0.000;    0.000
368.982;  631.750;    0.000;    0.000
369.043;  623.750;    0.000;    0.000
369.104;  635.750;    0.000;    0.000
369.166;  634.750;    0.000;    0.000
369.227;  649.750;    0.000;    0.000
369.288;  650.750;    0.000;    0.000
369.349;  654.750;    0.000;    0.000
369.411;  630.750;    0.000;    0.000
369.472;  648.750;    0.000;    0.000
369.533;  601.750;    0.000;    0.000
369.594;  632.750;    0.000;    0.000
369.656;  626.750;    0.000;    0.000
369.717;  616.750;    0.000;    0.000
369.778;  671.750;    0.000;    0.000
369.839;  629.750;    0.000;    0.000
369.900;  677.750;    0.000;    0.000
369.961;  640.750;    0.000;    0.000
370.023;  617.750;    0.000;    0.000
370.084;  666.750;    0.000;    0.000
370.145;  599.750;    0.000;    0.000
370.206;  679.750;    0.000;    0.000
370.267;  661.750;    0.000;    0.000
370.328;  627.750;    0.000;    0.000
370.389;  652.750;    0.000;    0.000
370.451;  630.750;    0.000;    0.000
370.512;  672.750;    0.000;    0.000
370.573;  683.750;    0.000;    0.000
370.634;  672.750;    0.000;    0.000
370.695;  617.750;    0.000;    0.000
370.756;  686.750;    0.000;    0.000
370.817;  627.750;    0.000;    0.000
370.878;  674.750;    0.000;    0.000
370.939;  627.750;    0.000;    0.000
371.000;  659.750;    0.000;    0.000
371.061;  612.750;    0.000;    0.000
371.122;  678.750;    0.000;    0.000
371.183;  610.750;    0.000;    0.000
371.244;  656.750;    0.000;    0.000
371.305;  658.750;    0.000;    0.000
371.366;  625.750;    0.000;    0.000
371.427;  650.750;    0.000;    0.000
371.488;  698.750;    0.000;    0.000
371.549;  599.750;    0.000;    0.000
371.610;  650.750;    0.000;    0.000
371.671;  629.750;    0.000;    0.000
371.732;  626.750;    0.000;    0.000
371.793;  662.750;    0.000;    0.000
371.853;  674.750;    0.000;    0.000
371.914;  630.750;    0.000;    0.000
371.975;  699.750;    0.000;    0.000
372.036;  696.750;    0.000;    0.000
372.097;  652.750;    0.000;    0.000
372.158;  654.750;    0.000;    0.000
372.219;  666.750;    0.000;    0.000
372.280;  688.750;    0.000;    0.000
372.340;  677.750;    0.000;    0.000
372.401;  683.750;    0.000;    0.000
372.462;  672.750;    0.000;    0.000
372.523;  620.750;    0.000;    0.000
372.584;  689.750;    0.000;    0.000
372.645;  653.750;    0.000;    0.000
372.705;  682.750;    0.000;    0.000
372.766;  647.750;    0.000;    0.000
372.827;  669.750;    0.000;    0.000
372.888;  659.750;    0.000;    0.000
372.948;  693.750;    0.000;    0.000
373.009;  734.750;    0.000;    0.000
373.070;  676.750;    0.000;    0.000
373.131;  673.750;    0.000;    0.000
373.191;  706.750;    0.000;    0.000
373.252;  633.750;    0.000;    0.000
373.313;  672.750;    0.000;    0.000
373.373;  675.750;    0.000;    0.000
373.434;  723.750;    0.000;    0.000
373.495;  672.750;    0.000;    0.000
373.555;  731.750;    0.000;    0.000
373.616;  717.750;    0.000;    0.000
373.677;  678.750;    0.000;    0.000
373.737;  688.750;    0.000;    0.000
373.798;  685.750;    0.000;    0.000
373.859;  748.750;    0.000;    0.000
373.919;  727.750;    0.000;    0.000
373.980;  732.750;    0.000;    0.000
374.041;  691.750;    0.000;    0.000
374.101;  707.750;    0.000;    0.000
374.162;  701.750;    0.000;    0.000
374.222;  752.750;    0.000;    0.000
374.283;  735.750;    0.000;    0.000
374.343;  750.750;    0.000;    0.000
374.404;  742.750;    0.000;    0.000
374.465;  737.750;    0.000;    0.000
374.525;  713.750;    0.000;    0.000
374.586;  728.750;    0.000;    0.000
374.646;  772.750;    0.000;    0.000
374.707;  772.750;    0.000;    0.000
374.767;  763.750;    0.000;    0.000
374.828;  713.750;    0.000;    0.000
374.888;  733.750;    0.000;    0.000
374.949;  711.750;    0.000;    0.000
375.009;  723.750;    0.000;    0.000
375.070;  746.750;    0.000;    0.000
375.130;  805.750;    0.000;    0.000
375.190;  739.750;    0.000;    0.000
375.251;  750.750;    0.000;    0.000
375.311;  748.750;    0.000;    0.000
375.372;  742.750;    0.000;    0.000
375.432;  761.750;    0.000;    0.000
375.493;  736.750;    0.000;    0.000
375.553;  718.750;    0.000;    0.000
375.613;  717.750;    0.000;    0.000
375.674;  754.750;    0.000;    0.000
375.734;  775.750;    0.000;    0.000
375.794;  771.750;    0.000;    0.000
375.855;  710.750;    0.000;    0.000
375.915;  739.750;    0.000;    0.000
375.975;  768.750;    0.000;    0.000
376.036;  772.750;    0.000;    0.000
376.096;  742.750;    0.000;    0.000
376.156;  736.750;    0.000;    0.000
376.217;  744.750;    0.000;    0.000
376.277;  781.750;    0.000;    0.000
376.337;  723.750;    0.000;    0.000
376.398;  694.750;    0.000;    0.000
376.458;  739.750;    0.000;    0.000
376.518;  765.750;    0.000;    0.000
376.578;  749.750;    0.000;    0.000
376.639;  736.750;    0.000;    0.000
376.699;  764.750;    0.000;    0.000
376.759;  766.750;    0.000;    0.000
376.819;  721.750;    0.000;    0.000
376.880;  725.750;    0.000;    0.000
376.940;  797.750;    0.000;    0.000
377.000;  739.750;    0.000;    0.000
377.060;  784.750;    0.000;    0.000
377.120;  763.750;    0.000;    0.000
377.180;  793.750;    0.000;    0.000
377.241;  733.750;    0.000;    0.000
377.301;  822.750;    0.000;    0.000
377.361;  763.750;    0.000;    0.000
377.421;  836.750;    0.000;    0.000
377.481;  765.750;    0.000;    0.000
377.541;  813.750;    0.000;    0.000
377.601;  826.750;    0.000;    0.000
377.661;  830.750;    0.000;    0.000
377.722;  775.750;    0.000;    0.000
377.782;  795.750;    0.000;    0.000
377.842;  911.750;    0.000;    0.000
377.902;  838.750;    0.000;    0.000
377.962;  790.750;    0.000;    0.000
378.022;  772.750;    0.000;    0.000
378.082;  822.750;    0.000;    0.000
378.142;  812.750;    0.000;    0.000
378.202;  864.750;    0.000;    0.000
378.262;  838.750;    0.000;    0.000
378.322;  807.750;    0.000;    0.000
378.382;  796.750;    0.000;    0.000
378.442;  839.750;    0.000;    0.000
378.502;  827.750;    0.000;    0.000
378.562;  856.750;    0.000;    0.000
378.622;  808.750;    0.000;    0.000
378.682;  863.750;    0.000;    0.000
378.742;  844.750;    0.000;    0.000
378.802;  874.750;    0.000;    0.000
378.862;  855.750;    0.000;    0.000
378.921;  903.750;    0.000;    0.000
378.981;  830.750;    0.000;    0.000
379.041;  879.750;    0.000;    0.000
379.101;  864.750;    0.000;    0.000
379.161;  844.750;    0.000;    0.000
379.221;  880.750;    0.000;    0.000
379.281;  880.750;    0.000;    0.000
379.341;  866.750;    0.000;    0.000
379.401;  921.750;    0.000;    0.000
379.460;  891.750;    0.000;    0.000
379.520;  845.750;    0.000;    0.000
379.580;  945.750;    0.000;    0.000
379.640;  866.750;    0.000;    0.000
379.700;  897.750;    0.000;    0.000
379.759;  920.750;    0.000;    0.000
379.819;  881.750;    0.000;    0.000
379.879;  889.750;    0.000;    0.000
379.939;  914.750;    0.000;    0.000
379.999;  937.750;    0.000;    0.000
380.058;  921.750;    0.000;    0.000
380.118;  975.750;    0.000;    0.000
380.178;  885.750;    0.000;    0.000
380.237;  966.750;    0.000;    0.000
380.297;  921.750;    0.000;    0.000
380.357; 1017.750;    0.000;    0.000
380.417;  998.750;    0.000;    0.000
380.476;  995.750;    0.000;    0.000
380.536;  946.750;    0.000;    0.000
380.596;  929.750;    0.000;    0.000
380.655;  975.750;    0.000;    0.000
380.715;  972.750;    0.000;    0.000
380.775;  986.750;    0.000;    0.000
380.834;  950.750;    0.000;    0.000
380.894;  889.750;    0.000;    0.000
380.954;  928.750;    0.000;    0.000
381.013; 1001.750;    0.000;    0.000
381.073;  972.750;    0.000;    0.000
381.132; 1030.750;    0.000;    0.000
381.192;  985.750;    0.000;    0.000
381.252; 1007.750;    0.000;    0.000
381.311; 1001.750;    0.000;    0.000
381.371; 1041.750;    0.000;    0.000
381.430; 1000.750;    0.000;    0.000
381.490; 1013.750;    0.000;    0.000
381.549; 1038.750;    0.000;    0.000
381.609; 1039.750;    0.000;    0.000
381.668; 1077.750;    0.000;    0.000
381.728; 1057.750;    0.000;    0.000
381.787; 1115.750;    0.000;    0.000
381.847; 1030.750;    0.000;    0.000
381.906; 1042.750;    0.000;    0.000
381.966; 1057.750;    0.000;    0.000
382.025; 1095.750;    0.000;    0.000
382.085; 1142.750;    0.000;    0.000
382.144; 1116.750;    0.000;    0.000
382.204; 1156.750;    0.000;    0.000
382.263; 1143.750;    0.000;    0.000
382.323; 1154.750;    0.000;    0.000
382.382; 1228.750;    0.000;    0.000
382.441; 1183.750;    0.000;    0.000
382.501; 1233.750;    0.000;    0.000
382.560; 1358.750;    0.000;    0.000
382.619; 1246.750;    0.000;    0.000
382.679; 1405.750;    0.000;    0.000
382.738; 1398.750;    0.000;    0.000
382.798; 1533.750;    0.000;    0.000
382.857; 1686.750;    0.000;    0.000
382.916; 1710.750;    0.000;    0.000
382.976; 1701.750;    0.000;    0.000
383.035; 1726.750;    0.000;    0.000
383.094; 1809.750;    0.000;    0.000
383.154; 2030.750;    0.000;    0.000
383.213; 2022.750;    0.000;    0.000
383.272; 1947.750;    0.000;    0.000
383.331; 1704.750;    0.000;    0.000
383.391; 1637.750;    0.000;    0.000
383.450; 1608.750;    0.000;    0.000
383.509; 1642.750;    0.000;    0.000
383.568; 1724.750;    0.000;    0.000
383.628; 1803.750;    0.000;    0.000
383.687; 1937.750;    0.000;    0.000
383.746; 2129.750;    0.000;    0.000
383.805; 2222.750;    0.000;    0.000
383.864; 2035.750;    0.000;    0.000
383.924; 1776.750;    0.000;    0.000
383.983; 1577.750;    0.000;    0.000
384.042; 1549.750;    0.000;    0.000
384.101; 1394.750;    0.000;    0.000
384.160; 1262.750;    0.000;    0.000
384.219; 1297.750;    0.000;    0.000
384.279; 1245.750;    0.000;    0.000
384.338; 1221.750;    0.000;    0.000
384.397; 1166.750;    0.000;    0.000
384.456; 1178.750;    0.000;    0.000
384.515; 1201.750;    0.000;    0.000
384.574; 1283.750;    0.000;    0.000
384.633; 1155.750;    0.000;    0.000
384.692; 1174.750;    0.000;    0.000
384.751; 1194.750;    0.000;    0.000
384.810; 1143.750;    0.000;    0.000
384.869; 1172.750;    0.000;    0.000
384.929; 1130.750;    0.000;    0.000
384.988; 1114.750;    0.000;    0.000
385.047; 1116.750;    0.000;    0.000
385.106; 1112.750;    0.000;    0.000
385.165; 1123.750;    0.000;    0.000
385.224; 1168.750;    0.000;    0.000
385.283; 1090.750;    0.000;    0.000
385.342; 1111.750;    0.000;    0.000
385.401; 1111.750;    0.000;    0.000
385.459; 1062.750;    0.000;    0.000
385.518; 1109.750;    0.000;    0.000
385.577; 1070.750;    0.000;    0.000
385.636; 1118.750;    0.000;    0.000
385.695; 1114.750;    0.000;    0.000
385.754; 1102.750;    0.000;    0.000
385.813; 1089.750;    0.000;    0.000
385.872; 1080.750;    0.000;    0.000
385.931; 1120.750;    0.000;    0.000
385.990; 1098.750;    0.000;    0.000
386.049; 1100.750;    0.000;    0.000
386.107; 1057.750;    0.000;    0.000
386.166; 1055.750;    0.000;    0.000
386.225; 1049.750;    0.000;    0.000
386.284; 1076.750;    0.000;    0.000
386.343; 1101.750;    0.000;    0.000
386.402; 1071.750;    0.000;    0.000
386.460; 1136.750;    0.000;    0.000
386.519; 1053.750;    0.000;    0.000
386.578; 1055.750;    0.000;    0.000
386.637; 1117.750;    0.000;    0.000
386.696; 1138.750;    0.000;    0.000
386.754; 1009.750;    0.000;    0.000
386.813; 1067.750;    0.000;    0.000
386.872; 1024.750;    0.000;    0.000
386.931; 1053.750;    0.000;    0.000
386.989; 1118.750;    0.000;    0.000
387.048; 1077.750;    0.000;    0.000
387.107; 1102.750;    0.000;    0.000
387.165; 1031.750;    0.000;    0.000
387.224; 1055.750;    0.000;    0.000
387.283; 1102.750;    0.000;    0.000
387.342; 1081.750;    0.000;    0.000
387.400; 1076.750;    0.000;    0.000
387.459; 1048.750;    0.000;    0.000
387.517; 1080.750;    0.000;    0.000
387.576; 1032.750;    0.000;    0.000
387.635; 1019.750;    0.000;    0.000
387.693; 1095.750;    0.000;    0.000
387.752; 1065.750;    0.000;    0.000
387.811; 1033.750;    0.000;    0.000
387.869; 1005.750;    0.000;    0.000
387.928; 1000.750;    0.000;    0.000
387.986; 1010.750;    0.000;    0.000
388.045; 1023.750;    0.000;    0.000
388.103; 1059.750;    0.000;    0.000
388.162; 1043.750;    0.000;    0.000
388.221; 1057.750;    0.000;    0.000
388.279; 1028.750;    0.000;    0.000
388.338; 1036.750;    0.000;    0.000
388.396; 1018.750;    0.000;    0.000
388.455; 1068.750;    0.000;    0.000
388.513;  959.750;    0.000;    0.000
388.572; 1057.750;    0.000;    0.000
388.630; 1047.750;    0.000;    0.000
388.689; 1014.750;    0.000;    0.000
388.747; 1031.750;    0.000;    0.000
388.806;  968.750;    0.000;    0.000
388.864; 1013.750;    0.000;    0.000
388.922; 1038.750;    0.000;    0.000
388.981; 1006.750;    0.000;    0.000
389.039;  976.750;    0.000;    0.000
389.098; 1055.750;    0.000;    0.000
389.156; 1019.750;    0.000;    0.000
389.214; 1040.750;    0.000;    0.000
389.273; 1062.750;    0.000;    0.000
389.331;  963.750;    0.000;    0.000
389.390;  962.750;    0.000;    0.000
389.448; 1044.750;    0.000;    0.000
389.506; 1087.750;    0.000;    0.000
389.565; 1050.750;    0.000;    0.000
389.623;  994.750;    0.000;    0.000
389.681; 1050.750;    0.000;    0.000
389.740; 1093.750;    0.000;    0.000
389.798; 1046.750;    0.000;    0.000
389.856; 1042.750;    0.000;    0.000
389.914; 1006.750;    0.000;    0.000
389.973; 1048.750;    0.000;    0.000
390.031; 1007.750;    0.000;    0.000
390.089; 1066.750;    0.000;    0.000
390.147; 1030.750;    0.000;    0.000
390.206; 1064.750;    0.000;    0.000
390.264; 1035.750;    0.000;    0.000
390.322; 1040.750;    0.000;    0.000
390.380; 1020.750;    0.000;    0.000
390.439; 1052.750;    0.000;    0.000
390.497; 1025.750;    0.000;    0.000
390.555; 1056.750;    0.000;    0.000
390.613; 1049.750;    0.000;    0.000
390.671; 1007.750;    0.000;    0.000
390.729;  955.750;    0.000;    0.000
390.788; 1005.750;    0.000;    0.000
390.846; 1065.750;    0.000;    0.000
390.904; 1087.750;    0.000;    0.000
390.962; 1092.750;    0.000;    0.000
391.020; 1014.750;    0.000;    0.000
391.078; 1045.750;    0.000;    0.000
391.136; 1053.750;    0.000;    0.000
391.194; 1022.750;    0.000;    0.000
391.253; 1071.750;    0.000;    0.000
391.311; 1032.750;    0.000;    0.000
391.369; 1077.750;    0.000;    0.000
391.427; 1091.750;    0.000;    0.000
391.485; 1074.750;    0.000;    0.000
391.543; 1084.750;    0.000;    0.000
391.601;  991.750;    0.000;    0.000
391.659; 1061.750;    0.000;    0.000
391.717; 1102.750;    0.000;    0.000
391.775; 1008.750;    0.000;    0.000
391.833; 1061.750;    0.000;    0.000
391.891; 1048.750;    0.000;    0.000
391.949; 1015.750;    0.000;    0.000
392.007; 1098.750;    0.000;    0.000
392.065; 1085.750;    0.000;    0.000
392.123; 1047.750;    0.000;    0.000
392.180; 1125.750;    0.000;    0.000
392.238; 1088.750;    0.000;    0.000
392.296; 1094.750;    0.000;    0.000
392.354; 1015.750;    0.000;    0.000
392.412; 1068.750;    0.000;    0.000
392.470; 1029.750;    0.000;    0.000
392.528; 1055.750;    0.000;    0.000
392.586; 1040.750;    0.000;    0.000
392.644; 1058.750;    0.000;    0.000
392.701; 1053.750;    0.000;    0.000
392.759; 1143.750;    0.000;    0.000
392.817; 1084.750;    0.000;    0.000
392.875; 1097.750;    0.000;    0.000
392.933; 1174.750;    0.000;    0.000
392.991; 1143.750;    0.000;    0.000
393.048; 1058.750;    0.000;    0.000
393.106; 1073.750;    0.000;    0.000
393.164; 1131.750;    0.000;    0.000
393.222; 1118.750;    0.000;    0.000
393.279; 1186.750;    0.000;    0.000
393.337; 1168.750;    0.000;    0.000
393.395; 1201.750;    0.000;    0.000
393.453; 1146.750;    0.000;    0.000
393.510; 1080.750;    0.000;    0.000
393.568; 1144.750;    0.000;    0.000
393.626; 1011.750;    0.000;    0.000
393.684; 1109.750;    0.000;    0.000
393.741; 1106.750;    0.000;    0.000
393.799; 1045.750;    0.000;    0.000
393.857; 1073.750;    0.000;    0.000
393.914; 1110.750;    0.000;    0.000
393.972; 1095.750;    0.000;    0.000
394.030; 1062.750;    0.000;    0.000
394.087; 1079.750;    0.000;    0.000
394.145; 1101.750;    0.000;    0.000
394.202; 1036.750;    0.000;    0.000
394.260; 1078.750;    0.000;    0.000
394.318; 1078.750;    0.000;    0.000
394.375; 1070.750;    0.000;    0.000
394.433; 1121.750;    0.000;    0.000
394.490; 1057.750;    0.000;    0.000
394.548; 1110.750;    0.000;    0.000
394.605; 1130.750;    0.000;    0.000
394.663; 1042.750;    0.000;    0.000
394.720; 1105.750;    0.000;    0.000
394.778; 1141.750;    0.000;    0.000
394.836; 1024.750;    0.000;    0.000
394.893; 1140.750;    0.000;    0.000
394.951; 1188.750;    0.000;    0.000
395.008; 1043.750;    0.000;    0.000
395.065; 1115.750;    0.000;    0.000
395.123; 1113.750;    0.000;    0.000
395.180; 1065.750;    0.000;    0.000
395.238; 1107.750;    0.000;    0.000
395.295; 1090.750;    0.000;    0.000
395.353; 1032.750;    0.000;    0.000
395.410; 1131.750;    0.000;    0.000
395.468; 1179.750;    0.000;    0.000
395.525; 1072.750;    0.000;    0.000
395.582; 1146.750;    0.000;    0.000
395.640; 1091.750;    0.000;    0.000
395.697; 1086.750;    0.000;    0.000
395.754; 1154.750;    0.000;    0.000
395.812; 1133.750;    0.000;    0.000
395.869; 1166.750;    0.000;    0.000
395.927; 1094.750;    0.000;    0.000
395.984; 1174.750;    0.000;    0.000
396.041; 1154.750;    0.000;    0.000
396.098; 1151.750;    0.000;    0.000
396.156; 1164.750;    0.000;    0.000
396.213; 1144.750;    0.000;    0.000
396.270; 1122.750;    0.000;    0.000
396.328; 1126.750;    0.000;    0.000
396.385; 1176.750;    0.000;    0.000
396.442; 1147.750;    0.000;    0.000
396.499; 1101.750;    0.000;    0.000
396.557; 1178.750;    0.000;    0.000
396.614; 1200.750;    0.000;    0.000
396.671; 1149.750;    0.000;    0.000
396.728; 1192.750;    0.000;    0.000
396.785; 1241.750;    0.000;    0.000
396.843; 1216.750;    0.000;    0.000
396.900; 1221.750;    0.000;    0.000
396.957; 1151.750;    0.000;    0.000
397.014; 1185.750;    0.000;    0.000
397.071; 1179.750;    0.000;    0.000
397.128; 1149.750;    0.000;    0.000
397.186; 1161.750;    0.000;    0.000
397.243; 1130.750;    0.000;    0.000
397.300; 1213.750;    0.000;    0.000
397.357; 1212.750;    0.000;    0.000
397.414; 1187.750;    0.000;    0.000
397.471; 1139.750;    0.000;    0.000
397.528; 1184.750;    0.000;    0.000
397.585; 1083.750;    0.000;    0.000
397.642; 1149.750;    0.000;    0.000
397.699; 1152.750;    0.000;    0.000
397.756; 1210.750;    0.000;    0.000
397.814; 1171.750;    0.000;    0.000
397.871; 1178.750;    0.000;    0.000
397.928; 1209.750;    0.000;    0.000
397.985; 1179.750;    0.000;    0.000
398.042; 1220.750;    0.000;    0.000
398.099; 1160.750;    0.000;    0.000
398.156; 1220.750;    0.000;    0.000
398.212; 1191.750;    0.000;    0.000
398.269; 1252.750;    0.000;    0.000
398.326; 1163.750;    0.000;    0.000
398.383; 1211.750;    0.000;    0.000
398.440; 1225.750;    0.000;    0.000
398.497; 1216.750;    0.000;    0.000
398.554; 1161.750;    0.000;    0.000
398.611; 1156.750;    0.000;    0.000
398.668; 1144.750;    0.000;    0.000
398.725; 1187.750;    0.000;    0.000
398.782; 1229.750;    0.000;    0.000
398.839; 1265.750;    0.000;    0.000
398.895; 1251.750;    0.000;    0.000
398.952; 1193.750;    0.000;    0.000
399.009; 1244.750;    0.000;    0.000
399.066; 1175.750;    0.000;    0.000
399.123; 1239.750;    0.000;    0.000
399.180; 1226.750;    0.000;    0.000
399.236; 1237.750;    0.000;    0.000
399.293; 1307.750;    0.000;    0.000
399.350; 1248.750;    0.000;    0.000
399.407; 1342.750;    0.000;    0.000
399.463; 1282.750;    0.000;    0.000
399.520; 1265.750;    0.000;    0.000
399.577; 1306.750;    0.000;    0.000
399.634; 1381.750;    0.000;    0.000
399.690; 1296.750;    0.000;    0.000
399.747; 1330.750;    0.000;    0.000
399.804; 1371.750;    0.000;    0.000
399.861; 1356.750;    0.000;    0.000
399.917; 1357.750;    0.000;    0.000
399.974; 1259.750;    0.000;    0.000
400.031; 1352.750;    0.000;    0.000
400.087; 1252.750;    0.000;    0.000
400.144; 1341.750;    0.000;    0.000
400.201; 1297.750;    0.000;    0.000
400.257; 1316.750;    0.000;    0.000
400.314; 1321.750;    0.000;    0.000
400.370; 1355.750;    0.000;    0.000
400.427; 1339.750;    0.000;    0.000
400.484; 1311.750;    0.000;    0.000
400.540; 1317.750;    0.000;    0.000
400.597; 1231.750;    0.000;    0.000
400.653; 1350.750;    0.000;    0.000
400.710; 1308.750;    0.000;    0.000
400.766; 1336.750;    0.000;    0.000
400.823; 1253.750;    0.000;    0.000
400.879; 1334.750;    0.000;    0.000
400.936; 1232.750;    0.000;    0.000
400.993; 1269.750;    0.000;    0.000
401.049; 1263.750;    0.000;    0.000
401.105; 1329.750;    0.000;    0.000
401.162; 1326.750;    0.000;    0.000
401.218; 1261.750;    0.000;    0.000
401.275; 1253.750;    0.000;    0.000
401.331; 1276.750;    0.000;    0.000
401.388; 1275.750;    0.000;    0.000
401.444; 1336.750;    0.000;    0.000
401.501; 1257.750;    0.000;    0.000
401.557; 1249.750;    0.000;    0.000
401.614; 1279.750;    0.000;    0.000
401.670; 1326.750;    0.000;    0.000
401.726; 1255.750;    0.000;    0.000
401.783; 1271.750;    0.000;    0.000
401.839; 1333.750;    0.000;    0.000
401.895; 1268.750;    0.000;    0.000
401.952; 1308.750;    0.000;    0.000
402.008; 1298.750;    0.000;    0.000
402.064; 1222.750;    0.000;    0.000
402.121; 1243.750;    0.000;    0.000
402.177; 1253.750;    0.000;    0.000
402.233; 1265.750;    0.000;    0.000
402.290; 1300.750;    0.000;    0.000
402.346; 1304.750;    0.000;    0.000
402.402; 1298.750;    0.000;    0.000
402.458; 1299.750;    0.000;    0.000
402.515; 1285.750;    0.000;    0.000
402.571; 1331.750;    0.000;    0.000
402.627; 1287.750;    0.000;    0.000
402.683; 1268.750;    0.000;    0.000
402.740; 1244.750;    0.000;    0.000
402.796; 1295.750;    0.000;    0.000
402.852; 1326.750;    0.000;    0.000
402.908; 1322.750;    0.000;    0.000
402.964; 1291.750;    0.000;    0.000
403.021; 1265.750;    0.000;    0.000
403.077; 1354.750;    0.000;    0.000
403.133; 1338.750;    0.000;    0.000
403.189; 1298.750;    0.000;    0.000
403.245; 1290.750;    0.000;    0.000
403.301; 1335.750;    0.000;    0.000
403.357; 1374.750;    0.000;    0.000
403.414; 1362.750;    0.000;    0.000
403.470; 1318.750;    0.000;    0.000
403.526; 1310.750;    0.000;    0.000
403.582; 1328.750;    0.000;    0.000
403.638; 1374.750;    0.000;    0.000
403.694; 1342.750;    0.000;    0.000
403.750; 1372.750;    0.000;    0.000
403.806; 1396.750;    0.000;    0.000
403.862; 1413.750;    0.000;    0.000
403.918; 1316.750;    0.000;    0.000
403.974; 1318.750;    0.000;    0.000
404.030; 1313.750;    0.000;    0.000
404.086; 1335.750;    0.000;    0.000
404.142; 1463.750;    0.000;    0.000
404.198; 1357.750;    0.000;    0.000
404.254; 1354.750;    0.000;    0.000
404.310; 1385.750;    0.000;    0.000
404.366; 1360.750;    0.000;    0.000
404.422; 1358.750;    0.000;    0.000
404.478; 1365.750;    0.000;    0.000
404.534; 1372.750;    0.000;    0.000
404.590; 1413.750;    0.000;    0.000
404.646; 1385.750;    0.000;    0.000
404.701; 1376.750;    0.000;    0.000
404.757; 1409.750;    0.000;    0.000
404.813; 1363.750;    0.000;    0.000
404.869; 1393.750;    0.000;    0.000
404.925; 1401.750;    0.000;    0.000
404.981; 1433.750;    0.000;    0.000
405.037; 1415.750;    0.000;    0.000
405.092; 1406.750;    0.000;    0.000
405.148; 1437.750;    0.000;    0.000
405.204; 1383.750;    0.000;    0.000
405.260; 1401.750;    0.000;    0.000
405.316; 1378.750;    0.000;    0.000
405.371; 1424.750;    0.000;    0.000
405.427; 1421.750;    0.000;    0.000
405.483; 1440.750;    0.000;    0.000
405.539; 1419.750;    0.000;    0.000
405.594; 1380.750;    0.000;    0.000
405.650; 1393.750;    0.000;    0.000
405.706; 1417.750;    0.000;    0.000
405.761; 1409.750;    0.000;    0.000
405.817; 1410.750;    0.000;    0.000
405.873; 1409.750;    0.000;    0.000
405.928; 1405.750;    0.000;    0.000
405.984; 1433.750;    0.000;    0.000
406.040; 1395.750;    0.000;    0.000
406.095; 1400.750;    0.000;    0.000
406.151; 1449.750;    0.000;    0.000
406.207; 1451.750;    0.000;    0.000
406.262; 1391.750;    0.000;    0.000
406.318; 1478.750;    0.000;    0.000
406.374; 1465.750;    0.000;    0.000
406.429; 1429.750;    0.000;    0.000
406.485; 1482.750;    0.000;    0.000
406.540; 1374.750;    0.000;    0.000
406.596; 1538.750;    0.000;    0.000
406.651; 1497.750;    0.000;    0.000
406.707; 1531.750;    0.000;    0.000
406.763; 1438.750;    0.000;    0.000
406.818; 1420.750;    0.000;    0.000
406.874; 1436.750;    0.000;    0.000
406.929; 1555.750;    0.000;    0.000
406.985; 1480.750;    0.000;    0.000
407.040; 1446.750;    0.000;    0.000
407.095; 1461.750;    0.000;    0.000
407.151; 1549.750;    0.000;    0.000
407.206; 1506.750;    0.000;    0.000
407.262; 1547.750;    0.000;    0.000
407.317; 1572.750;    0.000;    0.000
407.373; 1545.750;    0.000;    0.000
407.428; 1537.750;    0.000;    0.000
407.484; 1542.750;    0.000;    0.000
407.539; 1522.750;    0.000;    0.000
407.594; 1599.750;    0.000;    0.000
407.650; 1535.750;    0.000;    0.000
407.705; 1521.750;    0.000;    0.000
407.760; 1566.750;    0.000;    0.000
407.816; 1518.750;    0.000;    0.000
407.871; 1562.750;    0.000;    0.000
407.926; 1520.750;    0.000;    0.000
407.982; 1513.750;    0.000;    0.000
408.037; 1556.750;    0.000;    0.000
408.092; 1470.750;    0.000;    0.000
408.148; 1528.750;    0.000;    0.000
408.203; 1529.750;    0.000;    0.000
408.258; 1523.750;    0.000;    0.000
408.314; 1563.750;    0.000;    0.000
408.369; 1556.750;    0.000;    0.000
408.424; 1505.750;    0.000;    0.000
408.479; 1555.750;    0.000;    0.000
408.534; 1512.750;    0.000;    0.000
408.590; 1542.750;    0.000;    0.000
408.645; 1623.750;    0.000;    0.000
408.700; 1631.750;    0.000;    0.000
408.755; 1582.750;    0.000;    0.000
408.810; 1515.750;    0.000;    0.000
408.866; 1572.750;    0.000;    0.000
408.921; 1582.750;    0.000;    0.000
408.976; 1564.750;    0.000;    0.000
409.031; 1616.750;    0.000;    0.000
409.086; 1558.750;    0.000;    0.000
409.141; 1527.750;    0.000;    0.000
409.196; 1554.750;    0.000;    0.000
409.252; 1459.750;    0.000;    0.000
409.307; 1447.750;    0.000;    0.000
409.362; 1500.750;    0.000;    0.000
409.417; 1532.750;    0.000;    0.000
409.472; 1568.750;    0.000;    0.000
409.527; 1526.750;    0.000;    0.000
409.582; 1560.750;    0.000;    0.000
409.637; 1567.750;    0.000;    0.000
409.692; 1481.750;    0.000;    0.000
409.747; 1437.750;    0.000;    0.000
409.802; 1570.750;    0.000;    0.000
409.857; 1597.750;    0.000;    0.000
409.912; 1606.750;    0.000;    0.000
409.967; 1613.750;    0.000;    0.000
410.022; 1601.750;    0.000;    0.000
410.077; 1614.750;    0.000;    0.000
410.132; 1629.750;    0.000;    0.000
410.187; 1522.750;    0.000;    0.000
410.242; 1565.750;    0.000;    0.000
410.297; 1593.750;    0.000;    0.000
410.351; 1594.750;    0.000;    0.000
410.406; 1551.750;    0.000;    0.000
410.461; 1564.750;    0.000;    0.000
410.516; 1597.750;    0.000;    0.000
410.571; 1567.750;    0.000;    0.000
410.626; 1566.750;    0.000;    0.000
410.681; 1562.750;    0.000;    0.000
410.736; 1587.750;    0.000;    0.000
410.790; 1557.750;    0.000;    0.000
410.845; 1622.750;    0.000;    0.000
410.900; 1558.750;    0.000;    0.000
410.955; 1600.750;    0.000;    0.000
411.010; 1624.750;    0.000;    0.000
411.064; 1553.750;    0.000;    0.000
411.119; 1662.750;    0.000;    0.000
411.174; 1586.750;    0.000;    0.000
411.229; 1613.750;    0.000;    0.000
411.283; 1573.750;    0.000;    0.000
411.338; 1565.750;    0.000;    0.000
411.393; 1518.750;    0.000;    0.000
411.447; 1630.750;    0.000;    0.000
411.502; 1661.750;    0.000;    0.000
411.557; 1597.750;    0.000;    0.000
411.612; 1575.750;    0.000;    0.000
411.666; 1552.750;    0.000;    0.000
411.721; 1546.750;    0.000;    0.000
411.776; 1601.750;    0.000;    0.000
411.830; 1575.750;    0.000;    0.000
411.885; 1566.750;    0.000;    0.000
411.939; 1661.750;    0.000;    0.000
411.994; 1634.750;    0.000;    0.000
412.049; 1589.750;    0.000;    0.000
412.103; 1616.750;    0.000;    0.000
412.158; 1608.750;    0.000;    0.000
412.212; 1591.750;    0.000;    0.000
412.267; 1626.750;    0.000;    0.000
412.322; 1667.750;    0.000;    0.000
412.376; 1611.750;    0.000;    0.000
412.431; 1597.750;    0.000;    0.000
412.485; 1558.750;    0.000;    0.000
412.540; 1602.750;    0.000;    0.000
412.594; 1558.750;    0.000;    0.000
412.649; 1606.750;    0.000;    0.000
412.703; 1577.750;    0.000;    0.000
412.758; 1638.750;    0.000;    0.000
412.812; 1596.750;    0.000;    0.000
412.866; 1512.750;    0.000;    0.000
412.921; 1574.750;    0.000;    0.000
412.975; 1571.750;    0.000;    0.000
413.030; 1590.750;    0.000;    0.000
413.084; 1617.750;    0.000;    0.000
413.139; 1657.750;    0.000;    0.000
413.193; 1604.750;    0.000;    0.000
413.247; 1654.750;    0.000;    0.000
413.302; 1624.750;    0.000;    0.000
413.356; 1591.750;    0.000;    0.000
413.410; 1603.750;    0.000;    0.000
413.465; 1567.750;    0.000;    0.000
413.519; 1566.750;    0.000;    0.000
413.573; 1589.750;    0.000;    0.000
413.628; 1666.750;    0.000;    0.000
413.682; 1568.750;    0.000;    0.000
413.736; 1632.750;    0.000;    0.000
413.791; 1646.750;    0.000;    0.000
413.845; 1673.750;    0.000;    0.000
413.899; 1638.750;    0.000;    0.000
413.953; 1605.750;    0.000;    0.000
414.008; 1579.750;    0.000;    0.000
414.062; 1604.750;    0.000;    0.000
414.116; 1617.750;    0.000;    0.000
414.170; 1590.750;    0.000;    0.000
414.225; 1591.750;    0.000;    0.000
414.279; 1634.750;    0.000;    0.000
414.333; 1615.750;    0.000;    0.000
414.387; 1635.750;    0.000;    0.000
414.441; 1634.750;    0.000;    0.000
414.496; 1644.750;    0.000;    0.000
414.550; 1710.750;    0.000;    0.000
414.604; 1672.750;    0.000;    0.000
414.658; 1618.750;    0.000;    0.000
414.712; 1532.750;    0.000;    0.000
414.766; 1619.750;    0.000;    0.000
414.820; 1672.750;    0.000;    0.000
414.874; 1603.750;    0.000;    0.000
414.928; 1636.750;    0.000;    0.000
414.982; 1677.750;    0.000;    0.000
415.037; 1568.750;    0.000;    0.000
415.091; 1695.750;    0.000;    0.000
415.145; 1642.750;    0.000;    0.000
415.199; 1651.750;    0.000;    0.000
415.253; 1671.750;    0.000;    0.000
415.307; 1661.750;    0.000;    0.000
415.361; 1668.750;    0.000;    0.000
415.415; 1658.750;    0.000;    0.000
415.469; 1666.750;    0.000;    0.000
415.523; 1684.750;    0.000;    0.000
415.577; 1665.750;    0.000;    0.000
415.631; 1577.750;    0.000;    0.000
415.684; 1726.750;    0.000;    0.000
415.738; 1664.750;    0.000;    0.000
415.792; 1615.750;    0.000;    0.000
415.846; 1647.750;    0.000;    0.000
415.900; 1659.750;    0.000;    0.000
415.954; 1662.750;    0.000;    0.000
416.008; 1703.750;    0.000;    0.000
416.062; 1610.750;    0.000;    0.000
416.116; 1698.750;    0.000;    0.000
416.169; 1736.750;    0.000;    0.000
416.223; 1710.750;    0.000;    0.000
416.277; 1658.750;    0.000;    0.000
416.331; 1586.750;    0.000;    0.000
416.385; 1610.750;    0.000;    0.000
416.439; 1641.750;    0.000;    0.000
416.492; 1694.750;    0.000;    0.000
416.546; 1646.750;    0.000;    0.000
416.600; 1680.750;    0.000;    0.000
416.654; 1698.750;    0.000;    0.000
416.707; 1645.750;    0.000;    0.000
416.761; 1606.750;    0.000;    0.000
416.815; 1606.750;    0.000;    0.000
416.869; 1663.750;    0.000;    0.000
416.922; 1684.750;    0.000;    0.000
416.976; 1663.750;    0.000;    0.000
417.030; 1664.750;    0.000;    0.000
417.083; 1670.750;    0.000;    0.000
417.137; 1704.750;    0.000;    0.000
417.191; 1645.750;    0.000;    0.000
417.244; 1636.750;    0.000;    0.000
417.298; 1617.750;    0.000;    0.000
417.352; 1606.750;    0.000;    0.000
417.405; 1713.750;    0.000;    0.000
417.459; 1641.750;    0.000;    0.000
417.512; 1639.750;    0.000;    0.000
417.566; 1669.750;    0.000;    0.000
417.620; 1642.750;    0.000;    0.000
417.673; 1573.750;    0.000;    0.000
417.727; 1637.750;    0.000;    0.000
417.780; 1660.750;    0.000;    0.000
417.834; 1713.750;    0.000;    0.000
417.887; 1638.750;    0.000;    0.000
417.941; 1675.750;    0.000;    0.000
417.994; 1613.750;    0.000;    0.000
418.048; 1603.750;    0.000;    0.000
418.101; 1639.750;    0.000;    0.000
418.155; 1704.750;    0.000;    0.000
418.208; 1770.750;    0.000;    0.000
418.262; 1667.750;    0.000;    0.000
418.315; 1670.750;    0.000;    0.000
418.369; 1768.750;    0.000;    0.000
418.422; 1599.750;    0.000;    0.000
418.476; 1668.750;    0.000;    0.000
418.529; 1662.750;    0.000;    0.000
418.582; 1716.750;    0.000;    0.000
418.636; 1665.750;    0.000;    0.000
418.689; 1668.750;    0.000;    0.000
418.743; 1645.750;    0.000;    0.000
418.796; 1646.750;    0.000;    0.000
418.849; 1683.750;    0.000;    0.000
418.903; 1725.750;    0.000;    0.000
418.956; 1639.750;    0.000;    0.000
419.009; 1693.750;    0.000;    0.000
419.063; 1602.750;    0.000;    0.000
419.116; 1654.750;    0.000;    0.000
419.169; 1669.750;    0.000;    0.000
419.222; 1704.750;    0.000;    0.000
419.276; 1681.750;    0.000;    0.000
419.329; 1684.750;    0.000;    0.000
419.382; 1668.750;    0.000;    0.000
419.435; 1597.750;    0.000;    0.000
419.489; 1687.750;    0.000;    0.000
419.542; 1643.750;    0.000;    0.000
419.595; 1601.750;    0.000;    0.000
419.648; 1667.750;    0.000;    0.000
419.701; 1603.750;    0.000;    0.000
419.755; 1610.750;    0.000;    0.000
419.808; 1628.750;    0.000;    0.000
419.861; 1615.750;    0.000;    0.000
419.914; 1668.750;    0.000;    0.000
419.967; 1694.750;    0.000;    0.000
420.020; 1626.750;    0.000;    0.000
420.073; 1621.750;    0.000;    0.000
420.127; 1632.750;    0.000;    0.000
420.180; 1615.750;    0.000;    0.000
420.233; 1622.750;    0.000;    0.000
420.286; 1564.750;    0.000;    0.000
420.339; 1697.750;    0.000;    0.000
420.392; 1619.750;    0.000;    0.000
420.445; 1658.750;    0.000;    0.000
420.498; 1600.750;    0.000;    0.000
420.551; 1641.750;    0.000;    0.000
420.604; 1689.750;    0.000;    0.000
420.657; 1562.750;    0.000;    0.000
420.710; 1598.750;    0.000;    0.000
420.763; 1565.750;    0.000;    0.000
420.816; 1701.750;    0.000;    0.000
420.869; 1601.750;    0.000;    0.000
420.922; 1618.750;    0.000;    0.000
420.975; 1690.750;    0.000;    0.000
421.028; 1645.750;    0.000;    0.000
421.081; 1571.750;    0.000;    0.000
421.134; 1651.750;    0.000;    0.000
421.187; 1700.750;    0.000;    0.000
421.239; 1528.750;    0.000;    0.000
421.292; 1567.750;    0.000;    0.000
421.345; 1628.750;    0.000;    0.000
421.398; 1602.750;    0.000;    0.000
421.451; 1629.750;    0.000;    0.000
421.504; 1567.750;    0.000;    0.000
421.557; 1596.750;    0.000;    0.000
421.609; 1591.750;    0.000;    0.000
421.662; 1620.750;    0.000;    0.000
421.715; 1583.750;    0.000;    0.000
421.768; 1630.750;    0.000;    0.000
421.821; 1563.750;    0.000;    0.000
421.873; 1654.750;    0.000;    0.000
421.926; 1589.750;    0.000;    0.000
421.979; 1586.750;    0.000;    0.000
422.032; 1618.750;    0.000;    0.000
422.084; 1650.750;    0.000;    0.000
422.137; 1502.750;    0.000;    0.000
422.190; 1553.750;    0.000;    0.000
422.243; 1596.750;    0.000;    0.000
422.295; 1620.750;    0.000;    0.000
422.348; 1644.750;    0.000;    0.000
422.401; 1606.750;    0.000;    0.000
422.453; 1537.750;    0.000;    0.000
422.506; 1629.750;    0.000;    0.000
422.559; 1659.750;    0.000;    0.000
422.611; 1667.750;    0.000;    0.000
422.664; 1646.750;    0.000;    0.000
422.716; 1683.750;    0.000;    0.000
422.769; 1611.750;    0.000;    0.000
422.822; 1578.750;    0.000;    0.000
422.874; 1518.750;    0.000;    0.000
422.927; 1584.750;    0.000;    0.000
422.979; 1522.750;    0.000;    0.000
423.032; 1556.750;    0.000;    0.000
423.084; 1582.750;    0.000;    0.000
423.137; 1532.750;    0.000;    0.000
423.189; 1589.750;    0.000;    0.000
423.242; 1558.750;    0.000;    0.000
423.294; 1597.750;    0.000;    0.000
423.347; 1574.750;    0.000;    0.000
423.399; 1603.750;    0.000;    0.000
423.452; 1639.750;    0.000;    0.000
423.504; 1624.750;    0.000;    0.000
423.557; 1535.750;    0.000;    0.000
423.609; 1608.750;    0.000;    0.000
423.662; 1584.750;    0.000;    0.000
423.714; 1548.750;    0.000;    0.000
423.766; 1539.750;    0.000;    0.000
423.819; 1618.750;    0.000;    0.000
423.871; 1553.750;    0.000;    0.000
423.923; 1505.750;    0.000;    0.000
423.976; 1533.750;    0.000;    0.000
424.028; 1532.750;    0.000;    0.000
424.081; 1610.750;    0.000;    0.000
424.133; 1561.750;    0.000;    0.000
424.185; 1567.750;    0.000;    0.000
424.238; 1587.750;    0.000;    0.000
424.290; 1559.750;    0.000;    0.000
424.342; 1488.750;    0.000;    0.000
424.394; 1585.750;    0.000;    0.000
424.447; 1548.750;    0.000;    0.000
424.499; 1586.750;    0.000;    0.000
424.551; 1572.750;    0.000;    0.000
424.603; 1579.750;    0.000;    0.000
424.656; 1683.750;    0.000;    0.000
424.708; 1521.750;    0.000;    0.000
424.760; 1650.750;    0.000;    0.000
424.812; 1573.750;    0.000;    0.000
424.864; 1558.750;    0.000;    0.000
424.917; 1542.750;    0.000;    0.000
424.969; 1587.750;    0.000;    0.000
425.021; 1608.750;    0.000;    0.000
425.073; 1615.750;    0.000;    0.000
425.125; 1554.750;    0.000;    0.000
425.177; 1536.750;    0.000;    0.000
425.229; 1586.750;    0.000;    0.000
425.282; 1613.750;    0.000;    0.000
425.334; 1566.750;    0.000;    0.000
425.386; 1500.750;    0.000;    0.000
425.438; 1535.750;    0.000;    0.000
425.490; 1550.750;    0.000;    0.000
425.542; 1583.750;    0.000;    0.000
425.594; 1462.750;    0.000;    0.000
425.646; 1567.750;    0.000;    0.000
425.698; 1532.750;    0.000;    0.000
425.750; 1506.750;    0.000;    0.000
425.802; 1452.750;    0.000;    0.000
425.854; 1572.750;    0.000;    0.000
425.906; 1548.750;    0.000;    0.000
425.958; 1551.750;    0.000;    0.000
426.010; 1510.750;    0.000;    0.000
426.062; 1601.750;    0.000;    0.000
426.114; 1515.750;    0.000;    0.000
426.166; 1595.750;    0.000;    0.000
426.218; 1600.750;    0.000;    0.000
426.270; 1512.750;    0.000;    0.000
426.321; 1557.750;    0.000;    0.000
426.373; 1576.750;    0.000;    0.000
426.425; 1582.750;    0.000;    0.000
426.477; 1503.750;    0.000;    0.000
426.529; 1587.750;    0.000;    0.000
426.581; 1519.750;    0.000;    0.000
426.633; 1561.750;    0.000;    0.000
426.684; 1558.750;    0.000;    0.000
426.736; 1532.750;    0.000;    0.000
426.788; 1540.750;    0.000;    0.000
426.840; 1518.750;    0.000;    0.000
426.892; 1573.750;    0.000;    0.000
426.943; 1510.750;    0.000;    0.000
426.995; 1513.750;    0.000;    0.000
427.047; 1503.750;    0.000;    0.000
427.099; 1470.750;    0.000;    0.000
427.150; 1531.750;    0.000;    0.000
427.202; 1504.750;    0.000;    0.000
427.254; 1473.750;    0.000;    0.000
427.306; 1512.750;    0.000;    0.000
427.357; 1532.750;    0.000;    0.000
427.409; 1562.750;    0.000;    0.000
427.461; 1471.750;    0.000;    0.000
427.512; 1581.750;    0.000;    0.000
427.564; 1555.750;    0.000;    0.000
427.616; 1519.750;    0.000;    0.000
427.667; 1470.750;    0.000;    0.000
427.719; 1480.750;    0.000;    0.000
427.770; 1471.750;    0.000;    0.000
427.822; 1516.750;    0.000;    0.000
427.874; 1486.750;    0.000;    0.000
427.925; 1464.750;    0.000;    0.000
427.977; 1473.750;    0.000;    0.000
428.028; 1544.750;    0.000;    0.000
428.080; 1491.750;    0.000;    0.000
428.131; 1510.750;    0.000;    0.000
428.183; 1527.750;    0.000;    0.000
428.234; 1465.750;    0.000;    0.000
428.286; 1499.750;    0.000;    0.000
428.337; 1474.750;    0.000;    0.000
428.389; 1530.750;    0.000;    0.000
428.440; 1478.750;    0.000;    0.000
428.492; 1549.750;    0.000;    0.000
428.543; 1422.750;    0.000;    0.000
428.595; 1542.750;    0.000;    0.000
428.646; 1508.750;    0.000;    0.000
428.697; 1492.750;    0.000;    0.000
428.749; 1493.750;    0.000;    0.000
428.800; 1518.750;    0.000;    0.000
428.852; 1506.750;    0.000;    0.000
428.903; 1505.750;    0.000;    0.000
428.954; 1567.750;    0.000;    0.000
429.006; 1459.750;    0.000;    0.000
429.057; 1414.750;    0.000;    0.000
429.108; 1380.750;    0.000;    0.000
429.160; 1455.750;    0.000;    0.000
429.211; 1494.750;    0.000;    0.000
429.262; 1486.750;    0.000;    0.000
429.314; 1442.750;    0.000;    0.000
429.365; 1463.750;    0.000;    0.000
429.416; 1484.750;    0.000;    0.000
429.467; 1460.750;    0.000;    0.000
429.519; 1486.750;    0.000;    0.000
429.570; 1436.750;    0.000;    0.000
429.621; 1458.750;    0.000;    0.000
429.672; 1413.750;    0.000;    0.000
429.724; 1473.750;    0.000;    0.000
429.775; 1488.750;    0.000;    0.000
429.826; 1515.750;    0.000;    0.000
429.877; 1454.750;    0.000;    0.000
429.928; 1443.750;    0.000;    0.000
429.980; 1451.750;    0.000;    0.000
430.031; 1465.750;    0.000;    0.000
430.082; 1468.750;    0.000;    0.000
430.133; 1488.750;    0.000;    0.000
430.184; 1502.750;    0.000;    0.000
430.235; 1546.750;    0.000;    0.000
430.286; 1485.750;    0.000;    0.000
430.337; 1469.750;    0.000;    0.000
430.388; 1431.750;    0.000;    0.000
430.439; 1496.750;    0.000;    0.000
430.490; 1488.750;    0.000;    0.000
430.542; 1487.750;    0.000;    0.000
430.593; 1479.750;    0.000;    0.000
430.644; 1336.750;    0.000;    0.000
430.695; 1517.750;    0.000;    0.000
430.746; 1467.750;    0.000;    0.000
430.797; 1442.750;    0.000;    0.000
430.848; 1368.750;    0.000;    0.000
430.898; 1411.750;    0.000;    0.000
430.949; 1459.750;    0.000;    0.000
431.000; 1454.750;    0.000;    0.000
431.051; 1534.750;    0.000;    0.000
431.102; 1409.750;    0.000;    0.000
431.153; 1478.750;    0.000;    0.000
431.204; 1410.750;    0.000;    0.000
431.255; 1398.750;    0.000;    0.000
431.306; 1442.750;    0.000;    0.000
431.357; 1471.750;    0.000;    0.000
431.408; 1468.750;    0.000;    0.000
431.458; 1534.750;    0.000;    0.000
431.509; 1404.750;    0.000;    0.000
431.560; 1496.750;    0.000;    0.000
431.611; 1460.750;    0.000;    0.000
431.662; 1445.750;    0.000;    0.000
431.713; 1446.750;    0.000;    0.000
431.763; 1497.750;    0.000;    0.000
431.814; 1483.750;    0.000;    0.000
431.865; 1417.750;    0.000;    0.000
431.916; 1471.750;    0.000;    0.000
431.966; 1484.750;    0.000;    0.000
432.017; 1409.750;    0.000;    0.000
432.068; 1440.750;    0.000;    0.000
432.118; 1515.750;    0.000;    0.000
432.169; 1456.750;    0.000;    0.000
432.220; 1503.750;    0.000;    0.000
432.271; 1425.750;    0.000;    0.000
432.321; 1457.750;    0.000;    0.000
432.372; 1442.750;    0.000;    0.000
432.423; 1489.750;    0.000;    0.000
432.473; 1488.750;    0.000;    0.000
432.524; 1395.750;    0.000;    0.000
432.574; 1485.750;    0.000;    0.000
432.625; 1434.750;    0.000;    0.000
432.676; 1425.750;    0.000;    0.000
432.726; 1499.750;    0.000;    0.000
432.777; 1400.750;    0.000;    0.000
432.827; 1475.750;    0.000;    0.000
432.878; 1476.750;    0.000;    0.000
432.928; 1431.750;    0.000;    0.000
432.979; 1458.750;    0.000;    0.000
433.029; 1463.750;    0.000;    0.000
433.080; 1402.750;    0.000;    0.000
433.130; 1445.750;    0.000;    0.000
433.181; 1454.750;    0.000;    0.000
433.231; 1450.750;    0.000;    0.000
433.282; 1444.750;    0.000;    0.000
433.332; 1474.750;    0.000;    0.000
433.383; 1519.750;    0.000;    0.000
433.433; 1512.750;    0.000;    0.000
433.484; 1528.750;    0.000;    0.000
433.534; 1509.750;    0.000;    0.000
433.585; 1504.750;    0.000;    0.000
433.635; 1472.750;    0.000;    0.000
433.685; 1509.750;    0.000;    0.000
433.736; 1519.750;    0.000;    0.000
433.786; 1503.750;    0.000;    0.000
433.836; 1515.750;    0.000;    0.000
433.887; 1423.750;    0.000;    0.000
433.937; 1519.750;    0.000;    0.000
433.987; 1474.750;    0.000;    0.000
434.038; 1534.750;    0.000;    0.000
434.088; 1476.750;    0.000;    0.000
434.138; 1442.750;    0.000;    0.000
434.189; 1452.750;    0.000;    0.000
434.239; 1450.750;    0.000;    0.000
434.289; 1480.750;    0.000;    0.000
434.339; 1505.750;    0.000;    0.000
434.389; 1476.750;    0.000;    0.000
434.440; 1521.750;    0.000;    0.000
434.490; 1444.750;    0.000;    0.000
434.540; 1525.750;    0.000;    0.000
434.590; 1491.750;    0.000;    0.000
434.640; 1463.750;    0.000;    0.000
434.691; 1521.750;    0.000;    0.000
434.741; 1481.750;    0.000;    0.000
434.791; 1461.750;    0.000;    0.000
434.841; 1538.750;    0.000;    0.000
434.891; 1570.750;    0.000;    0.000
434.941; 1539.750;    0.000;    0.000
434.991; 1577.750;    0.000;    0.000
435.042; 1561.750;    0.000;    0.000
435.092; 1556.750;    0.000;    0.000
435.142; 1420.750;    0.000;    0.000
435.192; 1446.750;    0.000;    0.000
435.242; 1461.750;    0.000;    0.000
435.292; 1423.750;    0.000;    0.000
435.342; 1535.750;    0.000;    0.000
435.392; 1435.750;    0.000;    0.000
435.442; 1556.750;    0.000;    0.000
435.492; 1467.750;    0.000;    0.000
435.542; 1472.750;    0.000;    0.000
435.592; 1404.750;    0.000;    0.000
435.642; 1456.750;    0.000;    0.000
435.692; 1451.750;    0.000;    0.000
435.742; 1478.750;    0.000;    0.000
435.792; 1453.750;    0.000;    0.000
435.842; 1447.750;    0.000;    0.000
435.891; 1439.750;    0.000;    0.000
435.941; 1462.750;    0.000;    0.000
435.991; 1482.750;    0.000;    0.000
436.041; 1507.750;    0.000;    0.000
436.091; 1466.750;    0.000;    0.000
436.141; 1442.750;    0.000;    0.000
436.191; 1498.750;    0.000;    0.000
436.241; 1392.750;    0.000;    0.000
436.290; 1502.750;    0.000;    0.000
436.340; 1416.750;    0.000;    0.000
436.390; 1474.750;    0.000;    0.000
436.440; 1472.750;    0.000;    0.000
436.490; 1443.750;    0.000;    0.000
436.539; 1490.750;    0.000;    0.000
436.589; 1485.750;    0.000;    0.000
436.639; 1430.750;    0.000;    0.000
436.689; 1453.750;    0.000;    0.000
436.738; 1422.750;    0.000;    0.000
436.788; 1394.750;    0.000;    0.000
436.838; 1535.750;    0.000;    0.000
436.887; 1504.750;    0.000;    0.000
436.937; 1449.750;    0.000;    0.000
436.987; 1440.750;    0.000;    0.000
437.036; 1446.750;    0.000;    0.000
437.086; 1400.750;    0.000;    0.000
437.136; 1465.750;    0.000;    0.000
437.185; 1433.750;    0.000;    0.000
437.235; 1505.750;    0.000;    0.000
437.285; 1464.750;    0.000;    0.000
437.334; 1367.750;    0.000;    0.000
437.384; 1409.750;    0.000;    0.000
437.433; 1503.750;    0.000;    0.000
437.483; 1379.750;    0.000;    0.000
437.532; 1515.750;    0.000;    0.000
437.582; 1462.750;    0.000;    0.000
437.631; 1461.750;    0.000;    0.000
437.681; 1472.750;    0.000;    0.000
437.730; 1424.750;    0.000;    0.000
437.780; 1378.750;    0.000;    0.000
437.829; 1482.750;    0.000;    0.000
437.879; 1429.750;    0.000;    0.000
437.928; 1411.750;    0.000;    0.000
437.978; 1463.750;    0.000;    0.000
438.027; 1502.750;    0.000;    0.000
438.077; 1498.750;    0.000;    0.000
438.126; 1455.750;    0.000;    0.000
438.176; 1480.750;    0.000;    0.000
438.225; 1448.750;    0.000;    0.000
438.274; 1398.750;    0.000;    0.000
438.324; 1472.750;    0.000;    0.000
438.373; 1428.750;    0.000;    0.000
438.422; 1495.750;    0.000;    0.000
438.472; 1385.750;    0.000;    0.000
438.521; 1354.750;    0.000;    0.000
438.570; 1465.750;    0.000;    0.000
438.620; 1387.750;    0.000;    0.000
438.669; 1472.750;    0.000;    0.000
438.718; 1475.750;    0.000;    0.000
438.768; 1438.750;    0.000;    0.000
438.817; 1523.750;    0.000;    0.000
438.866; 1418.750;    0.000;    0.000
438.915; 1403.750;    0.000;    0.000
438.965; 1384.750;    0.000;    0.000
439.014; 1468.750;    0.000;    0.000
439.063; 1504.750;    0.000;    0.000
439.112; 1426.750;    0.000;    0.000
439.162; 1460.750;    0.000;    0.000
439.211; 1389.750;    0.000;    0.000
439.260; 1495.750;    0.000;    0.000
439.309; 1399.750;    0.000;    0.000
439.358; 1476.750;    0.000;    0.000
439.407; 1441.750;    0.000;    0.000
439.456; 1433.750;    0.000;    0.000
439.506; 1476.750;    0.000;    0.000
439.555; 1504.750;    0.000;    0.000
439.604; 1503.750;    0.000;    0.000
439.653; 1475.750;    0.000;    0.000
439.702; 1419.750;    0.000;    0.000
439.751; 1435.750;    0.000;    0.000
439.800; 1431.750;    0.000;    0.000
439.849; 1416.750;    0.000;    0.000
439.898; 1474.750;    0.000;    0.000
439.947; 1408.750;    0.000;    0.000
439.996; 1464.750;    0.000;    0.000
440.045; 1522.750;    0.000;    0.000
440.094; 1467.750;    0.000;    0.000
440.143; 1378.750;    0.000;    0.000
440.192; 1487.750;    0.000;    0.000
440.241; 1509.750;    0.000;    0.000
440.290; 1492.750;    0.000;    0.000
440.339; 1432.750;    0.000;    0.000
440.388; 1438.750;    0.000;    0.000
440.437; 1500.750;    0.000;    0.000
440.486; 1451.750;    0.000;    0.000
440.535; 1483.750;    0.000;    0.000
440.583; 1453.750;    0.000;    0.000
440.632; 1480.750;    0.000;    0.000
440.681; 1483.750;    0.000;    0.000
440.730; 1530.750;    0.000;    0.000
440.779; 1486.750;    0.000;    0.000
440.828; 1449.750;    0.000;    0.000
440.876; 1469.750;    0.000;    0.000
440.925; 1558.750;    0.000;    0.000
440.974; 1496.750;    0.000;    0.000
441.023; 1486.750;    0.000;    0.000
441.072; 1525.750;    0.000;    0.000
441.120; 1473.750;    0.000;    0.000
441.169; 1510.750;    0.000;    0.000
441.218; 1531.750;    0.000;    0.000
441.267; 1556.750;    0.000;    0.000
441.315; 1515.750;    0.000;    0.000
441.364; 1579.750;    0.000;    0.000
441.413; 1426.750;    0.000;    0.000
441.461; 1470.750;    0.000;    0.000
441.510; 1433.750;    0.000;    0.000
441.559; 1518.750;    0.000;    0.000
441.607; 1548.750;    0.000;    0.000
441.656; 1560.750;    0.000;    0.000
441.705; 1642.750;    0.000;    0.000
441.753; 1513.750;    0.000;    0.000
441.802; 1566.750;    0.000;    0.000
441.850; 1479.750;    0.000;    0.000
441.899; 1555.750;    0.000;    0.000
441.948; 1486.750;    0.000;    0.000
441.996; 1513.750;    0.000;    0.000
442.045; 1548.750;    0.000;    0.000
442.093; 1554.750;    0.000;    0.000
442.142; 1522.750;    0.000;    0.000
442.190; 1520.750;    0.000;    0.000
442.239; 1549.750;    0.000;    0.000
442.287; 1503.750;    0.000;    0.000
442.336; 1504.750;    0.000;    0.000
442.384; 1524.750;    0.000;    0.000
442.433; 1561.750;    0.000;    0.000
442.481; 1559.750;    0.000;    0.000
442.529; 1512.750;    0.000;    0.000
442.578; 1551.750;    0.000;    0.000
442.626; 1569.750;    0.000;    0.000
442.675; 1527.750;    0.000;    0.000
442.723; 1508.750;    0.000;    0.000
442.771; 1529.750;    0.000;    0.000
442.820; 1508.750;    0.000;    0.000
442.868; 1447.750;    0.000;    0.000
442.917; 1472.750;    0.000;    0.000
442.965; 1527.750;    0.000;    0.000
443.013; 1521.750;    0.000;    0.000
443.062; 1527.750;    0.000;    0.000
443.110; 1522.750;    0.000;    0.000
443.158; 1517.750;    0.000;    0.000
443.206; 1518.750;    0.000;    0.000
443.255; 1481.750;    0.000;    0.000
443.303; 1558.750;    0.000;    0.000
443.351; 1532.750;    0.000;    0.000
443.399; 1509.750;    0.000;    0.000
443.448; 1532.750;    0.000;    0.000
443.496; 1519.750;    0.000;    0.000
443.544; 1562.750;    0.000;    0.000
443.592; 1541.750;    0.000;    0.000
443.640; 1539.750;    0.000;    0.000
443.689; 1467.750;    0.000;    0.000
443.737; 1554.750;    0.000;    0.000
443.785; 1614.750;    0.000;    0.000
443.833; 1581.750;    0.000;    0.000
443.881; 1514.750;    0.000;    0.000
443.929; 1534.750;    0.000;    0.000
443.977; 1592.750;    0.000;    0.000
444.025; 1570.750;    0.000;    0.000
444.074; 1503.750;    0.000;    0.000
444.122; 1650.750;    0.000;    0.000
444.170; 1588.750;    0.000;    0.000
444.218; 1573.750;    0.000;    0.000
444.266; 1576.750;    0.000;    0.000
444.314; 1554.750;    0.000;    0.000
444.362; 1602.750;    0.000;    0.000
444.410; 1627.750;    0.000;    0.000
444.458; 1605.750;    0.000;    0.000
444.506; 1615.750;    0.000;    0.000
444.554; 1618.750;    0.000;    0.000
444.602; 1662.750;    0.000;    0.000
444.650; 1604.750;    0.000;    0.000
444.698; 1629.750;    0.000;    0.000
444.746; 1616.750;    0.000;    0.000
444.793; 1602.750;    0.000;    0.000
444.841; 1624.750;    0.000;    0.000
444.889; 1599.750;    0.000;    0.000
444.937; 1537.750;    0.000;    0.000
444.985; 1617.750;    0.000;    0.000
445.033; 1592.750;    0.000;    0.000
445.081; 1637.750;    0.000;    0.000
445.129; 1556.750;    0.000;    0.000
445.176; 1579.750;    0.000;    0.000
445.224; 1631.750;    0.000;    0.000
445.272; 1631.750;    0.000;    0.000
445.320; 1591.750;    0.000;    0.000
445.368; 1595.750;    0.000;    0.000
445.415; 1582.750;    0.000;    0.000
445.463; 1558.750;    0.000;    0.000
445.511; 1578.750;    0.000;    0.000
445.559; 1612.750;    0.000;    0.000
445.606; 1540.750;    0.000;    0.000
445.654; 1646.750;    0.000;    0.000
445.702; 1630.750;    0.000;    0.000
445.749; 1682.750;    0.000;    0.000
445.797; 1583.750;    0.000;    0.000
445.845; 1595.750;    0.000;    0.000
445.892; 1600.750;    0.000;    0.000
445.940; 1566.750;    0.000;    0.000
445.988; 1606.750;    0.000;    0.000
446.035; 1572.750;    0.000;    0.000
446.083; 1638.750;    0.000;    0.000
446.130; 1553.750;    0.000;    0.000
446.178; 1592.750;    0.000;    0.000
446.226; 1638.750;    0.000;    0.000
446.273; 1647.750;    0.000;    0.000
446.321; 1610.750;    0.000;    0.000
446.368; 1677.750;    0.000;    0.000
446.416; 1601.750;    0.000;    0.000
446.463; 1552.750;    0.000;    0.000
446.511; 1632.750;    0.000;    0.000
446.558; 1648.750;    0.000;    0.000
446.606; 1675.750;    0.000;    0.000
446.653; 1659.750;    0.000;    0.000
446.701; 1665.750;    0.000;    0.000
446.748; 1695.750;    0.000;    0.000
446.796; 1675.750;    0.000;    0.000
446.843; 1712.750;    0.000;    0.000
446.891; 1612.750;    0.000;    0.000
446.938; 1707.750;    0.000;    0.000
446.985; 1708.750;    0.000;    0.000
447.033; 1636.750;    0.000;    0.000
447.080; 1689.750;    0.000;    0.000
447.128; 1669.750;    0.000;    0.000
447.175; 1750.750;    0.000;    0.000
447.222; 1677.750;    0.000;    0.000
447.270; 1769.750;    0.000;    0.000
447.317; 1779.750;    0.000;    0.000
447.364; 1739.750;    0.000;    0.000
447.411; 1766.750;    0.000;    0.000
447.459; 1699.750;    0.000;    0.000
447.506; 1751.750;    0.000;    0.000
447.553; 1764.750;    0.000;    0.000
447.601; 1828.750;    0.000;    0.000
447.648; 1750.750;    0.000;    0.000
447.695; 1730.750;    0.000;    0.000
447.742; 1776.750;    0.000;    0.000
447.789; 1809.750;    0.000;    0.000
447.837; 1845.750;    0.000;    0.000
447.884; 1872.750;    0.000;    0.000
447.931; 1874.750;    0.000;    0.000
447.978; 1925.750;    0.000;    0.000
448.025; 1873.750;    0.000;    0.000
448.072; 1877.750;    0.000;    0.000
448.120; 1863.750;    0.000;    0.000
448.167; 1932.750;    0.000;    0.000
448.214; 1847.750;    0.000;    0.000
448.261; 1853.750;    0.000;    0.000
448.308; 1869.750;    0.000;    0.000
448.355; 1896.750;    0.000;    0.000
448.402; 1863.750;    0.000;    0.000
448.449; 1774.750;    0.000;    0.000
448.496; 1745.750;    0.000;    0.000
448.543; 1761.750;    0.000;    0.000
448.590; 1767.750;    0.000;    0.000
448.637; 1734.750;    0.000;    0.000
448.684; 1684.750;    0.000;    0.000
448.731; 1691.750;    0.000;    0.000
448.778; 1717.750;    0.000;    0.000
448.825; 1722.750;    0.000;    0.000
448.872; 1686.750;    0.000;    0.000
448.919; 1757.750;    0.000;    0.000
448.966; 1798.750;    0.000;    0.000
449.013; 1733.750;    0.000;    0.000
449.060; 1772.750;    0.000;    0.000
449.107; 1722.750;    0.000;    0.000
449.154; 1687.750;    0.000;    0.000
449.200; 1716.750;    0.000;    0.000
449.247; 1699.750;    0.000;    0.000
449.294; 1703.750;    0.000;    0.000
449.341; 1684.750;    0.000;    0.000
449.388; 1622.750;    0.000;    0.000
449.435; 1675.750;    0.000;    0.000
449.481; 1606.750;    0.000;    0.000
449.528; 1652.750;    0.000;    0.000
449.575; 1611.750;    0.000;    0.000
449.622; 1712.750;    0.000;    0.000
449.668; 1670.750;    0.000;    0.000
449.715; 1684.750;    0.000;    0.000
449.762; 1585.750;    0.000;    0.000
449.809; 1666.750;    0.000;    0.000
449.855; 1683.750;    0.000;    0.000
449.902; 1664.750;    0.000;    0.000
449.949; 1661.750;    0.000;    0.000
449.995; 1673.750;    0.000;    0.000
450.042; 1646.750;    0.000;    0.000
450.089; 1660.750;    0.000;    0.000
450.135; 1633.750;    0.000;    0.000
450.182; 1639.750;    0.000;    0.000
450.229; 1609.750;    0.000;    0.000
450.275; 1588.750;    0.000;    0.000
450.322; 1621.750;    0.000;    0.000
450.368; 1653.750;    0.000;    0.000
450.415; 1620.750;    0.000;    0.000
450.462; 1605.750;    0.000;    0.000
450.508; 1603.750;    0.000;    0.000
450.555; 1619.750;    0.000;    0.000
450.601; 1585.750;    0.000;    0.000
450.648; 1635.750;    0.000;    0.000
450.694; 1571.750;    0.000;    0.000
450.741; 1582.750;    0.000;    0.000
450.787; 1636.750;    0.000;    0.000
450.834; 1633.750;    0.000;    0.000
450.880; 1562.750;    0.000;    0.000
450.927; 1572.750;    0.000;    0.000
450.973; 1574.750;    0.000;    0.000
451.019; 1615.750;    0.000;    0.000
451.066; 1595.750;    0.000;    0.000
451.112; 1640.750;    0.000;    0.000
451.159; 1597.750;    0.000;    0.000
451.205; 1580.750;    0.000;    0.000
451.251; 1600.750;    0.000;    0.000
451.298; 1596.750;    0.000;    0.000
451.344; 1555.750;    0.000;    0.000
451.390; 1565.750;    0.000;    0.000
451.437; 1569.750;    0.000;    0.000
451.483; 1633.750;    0.000;    0.000
451.529; 1547.750;    0.000;    0.000
451.576; 1570.750;    0.000;    0.000
451.622; 1549.750;    0.000;    0.000
451.668; 1557.750;    0.000;    0.000
451.714; 1569.750;    0.000;    0.000
451.761; 1554.750;    0.000;    0.000
451.807; 1590.750;    0.000;    0.000
451.853; 1571.750;    0.000;    0.000
451.899; 1525.750;    0.000;    0.000
451.945; 1605.750;    0.000;    0.000
451.992; 1566.750;    0.000;    0.000
452.038; 1472.750;    0.000;    0.000
452.084; 1646.750;    0.000;    0.000
452.130; 1563.750;    0.000;    0.000
452.176; 1503.750;    0.000;    0.000
452.222; 1466.750;    0.000;    0.000
452.268; 1541.750;    0.000;    0.000
452.315; 1584.750;    0.000;    0.000
452.361; 1570.750;    0.000;    0.000
452.407; 1584.750;    0.000;    0.000
452.453; 1552.750;    0.000;    0.000
452.499; 1519.750;    0.000;    0.000
452.545; 1539.750;    0.000;    0.000
452.591; 1618.750;    0.000;    0.000
452.637; 1501.750;    0.000;    0.000
452.683; 1507.750;    0.000;    0.000
452.729; 1582.750;    0.000;    0.000
452.775; 1586.750;    0.000;    0.000
452.821; 1550.750;    0.000;    0.000
452.867; 1515.750;    0.000;    0.000
452.913; 1542.750;    0.000;    0.000
452.959; 1558.750;    0.000;    0.000
453.005; 1584.750;    0.000;    0.000
453.051; 1624.750;    0.000;    0.000
453.097; 1558.750;    0.000;    0.000
453.142; 1516.750;    0.000;    0.000
453.188; 1522.750;    0.000;    0.000
453.234; 1505.750;    0.000;    0.000
453.280; 1455.750;    0.000;    0.000
453.326; 1562.750;    0.000;    0.000
453.372; 1513.750;    0.000;    0.000
453.418; 1540.750;    0.000;    0.000
453.463; 1557.750;    0.000;    0.000
453.509; 1520.750;    0.000;    0.000
453.555; 1578.750;    0.000;    0.000
453.601; 1503.750;    0.000;    0.000
453.647; 1575.750;    0.000;    0.000
453.692; 1545.750;    0.000;    0.000
453.738; 1501.750;    0.000;    0.000
453.784; 1510.750;    0.000;    0.000
453.829; 1548.750;    0.000;    0.000
453.875; 1588.750;    0.000;    0.000
453.921; 1481.750;    0.000;    0.000
453.967; 1541.750;    0.000;    0.000
454.012; 1618.750;    0.000;    0.000
454.058; 1575.750;    0.000;    0.000
454.104; 1589.750;    0.000;    0.000
454.149; 1577.750;    0.000;    0.000
454.195; 1475.750;    0.000;    0.000
454.240; 1526.750;    0.000;    0.000
454.286; 1510.750;    0.000;    0.000
454.332; 1573.750;    0.000;    0.000
454.377; 1549.750;    0.000;    0.000
454.423; 1570.750;    0.000;    0.000
454.468; 1558.750;    0.000;    0.000
454.514; 1552.750;    0.000;    0.000
454.559; 1563.750;    0.000;    0.000
454.605; 1515.750;    0.000;    0.000
454.650; 1546.750;    0.000;    0.000
454.696; 1518.750;    0.000;    0.000
454.741; 1575.750;    0.000;    0.000
454.787; 1524.750;    0.000;    0.000
454.832; 1552.750;    0.000;    0.000
454.878; 1556.750;    0.000;    0.000
454.923; 1586.750;    0.000;    0.000
454.969; 1600.750;    0.000;    0.000
455.014; 1527.750;    0.000;    0.000
455.060; 1555.750;    0.000;    0.000
455.105; 1577.750;    0.000;    0.000
455.150; 1530.750;    0.000;    0.000
455.196; 1537.750;    0.000;    0.000
455.241; 1550.750;    0.000;    0.000
455.286; 1534.750;    0.000;    0.000
455.332; 1551.750;    0.000;    0.000
455.377; 1518.750;    0.000;    0.000
455.422; 1561.750;    0.000;    0.000
455.468; 1554.750;    0.000;    0.000
455.513; 1508.750;    0.000;    0.000
455.558; 1424.750;    0.000;    0.000
455.604; 1544.750;    0.000;    0.000
455.649; 1591.750;    0.000;    0.000
455.694; 1488.750;    0.000;    0.000
455.739; 1517.750;    0.000;    0.000
455.785; 1571.750;    0.000;    0.000
455.830; 1599.750;    0.000;    0.000
455.875; 1558.750;    0.000;    0.000
455.920; 1591.750;    0.000;    0.000
455.965; 1521.750;    0.000;    0.000
456.010; 1530.750;    0.000;    0.000
456.056; 1536.750;    0.000;    0.000
456.101; 1484.750;    0.000;    0.000
456.146; 1492.750;    0.000;    0.000
456.191; 1683.750;    0.000;    0.000
456.236; 1558.750;    0.000;    0.000
456.281; 1517.750;    0.000;    0.000
456.326; 1559.750;    0.000;    0.000
456.371; 1597.750;    0.000;    0.000
456.416; 1582.750;    0.000;    0.000
456.461; 1600.750;    0.000;    0.000
456.507; 1579.750;    0.000;    0.000
456.552; 1568.750;    0.000;    0.000
456.597; 1455.750;    0.000;    0.000
456.642; 1538.750;    0.000;    0.000
456.687; 1597.750;    0.000;    0.000
456.732; 1588.750;    0.000;    0.000
456.776; 1537.750;    0.000;    0.000
456.821; 1606.750;    0.000;    0.000
456.866; 1546.750;    0.000;    0.000
456.911; 1485.750;    0.000;    0.000
456.956; 1535.750;    0.000;    0.000
457.001; 1617.750;    0.000;    0.000
457.046; 1602.750;    0.000;    0.000
457.091; 1556.750;    0.000;    0.000
457.136; 1555.750;    0.000;    0.000
457.181; 1534.750;    0.000;    0.000
457.225; 1619.750;    0.000;    0.000
457.270; 1544.750;    0.000;    0.000
457.315; 1505.750;    0.000;    0.000
457.360; 1598.750;    0.000;    0.000
457.405; 1510.750;    0.000;    0.000
457.450; 1566.750;    0.000;    0.000
457.494; 1495.750;    0.000;    0.000
457.539; 1491.750;    0.000;    0.000
457.584; 1522.750;    0.000;    0.000
457.629; 1532.750;    0.000;    0.000
457.673; 1620.750;    0.000;    0.000
457.718; 1626.750;    0.000;    0.000
457.763; 1598.750;    0.000;    0.000
457.807; 1650.750;    0.000;    0.000
457.852; 1611.750;    0.000;    0.000
457.897; 1701.750;    0.000;    0.000
457.941; 1636.750;    0.000;    0.000
457.986; 1630.750;    0.000;    0.000
458.031; 1586.750;    0.000;    0.000
458.075; 1562.750;    0.000;    0.000
458.120; 1627.750;    0.000;    0.000
458.165; 1573.750;    0.000;    0.000
458.209; 1630.750;    0.000;    0.000
458.254; 1510.750;    0.000;    0.000
458.298; 1514.750;    0.000;    0.000
458.343; 1512.750;    0.000;    0.000
458.387; 1579.750;    0.000;    0.000
458.432; 1574.750;    0.000;    0.000
458.476; 1636.750;    0.000;    0.000
458.521; 1592.750;    0.000;    0.000
458.565; 1605.750;    0.000;    0.000
458.610; 1558.750;    0.000;    0.000
458.654; 1638.750;    0.000;    0.000
458.699; 1593.750;    0.000;    0.000
458.743; 1671.750;    0.000;    0.000
458.788; 1631.750;    0.000;    0.000
458.832; 1624.750;    0.000;    0.000
458.877; 1582.750;    0.000;    0.000
458.921; 1567.750;    0.000;    0.000
458.965; 1612.750;    0.000;    0.000
459.010; 1626.750;    0.000;    0.000
459.054; 1643.750;    0.000;    0.000
459.099; 1672.750;    0.000;    0.000
459.143; 1614.750;    0.000;    0.000
459.187; 1661.750;    0.000;    0.000
459.231; 1616.750;    0.000;    0.000
459.276; 1622.750;    0.000;    0.000
459.320; 1631.750;    0.000;    0.000
459.364; 1644.750;    0.000;    0.000
459.409; 1665.750;    0.000;    0.000
459.453; 1669.750;    0.000;    0.000
459.497; 1646.750;    0.000;    0.000
459.541; 1646.750;    0.000;    0.000
459.586; 1631.750;    0.000;    0.000
459.630; 1663.750;    0.000;    0.000
459.674; 1669.750;    0.000;    0.000
459.718; 1644.750;    0.000;    0.000
459.762; 1620.750;    0.000;    0.000
459.807; 1676.750;    0.000;    0.000
459.851; 1692.750;    0.000;    0.000
459.895; 1645.750;    0.000;    0.000
459.939; 1705.750;    0.000;    0.000
459.983; 1669.750;    0.000;    0.000
460.027; 1601.750;    0.000;    0.000
460.071; 1713.750;    0.000;    0.000
460.115; 1689.750;    0.000;    0.000
460.159; 1739.750;    0.000;    0.000
460.204; 1749.750;    0.000;    0.000
460.248; 1677.750;    0.000;    0.000
460.292; 1631.750;    0.000;    0.000
460.336; 1717.750;    0.000;    0.000
460.380; 1790.750;    0.000;    0.000
460.424; 1727.750;    0.000;    0.000
460.468; 1695.750;    0.000;    0.000
460.512; 1670.750;    0.000;    0.000
460.556; 1727.750;    0.000;    0.000
460.599; 1664.750;    0.000;    0.000
460.643; 1666.750;    0.000;    0.000
460.687; 1718.750;    0.000;    0.000
460.731; 1654.750;    0.000;    0.000
460.775; 1768.750;    0.000;    0.000
460.819; 1689.750;    0.000;    0.000
460.863; 1716.750;    0.000;    0.000
460.907; 1616.750;    0.000;    0.000
460.951; 1684.750;    0.000;    0.000
460.995; 1729.750;    0.000;    0.000
461.038; 1657.750;    0.000;    0.000
461.082; 1705.750;    0.000;    0.000
461.126; 1723.750;    0.000;    0.000
461.170; 1693.750;    0.000;    0.000
461.214; 1653.750;    0.000;    0.000
461.257; 1765.750;    0.000;    0.000
461.301; 1701.750;    0.000;    0.000
461.345; 1690.750;    0.000;    0.000
461.389; 1729.750;    0.000;    0.000
461.432; 1663.750;    0.000;    0.000
461.476; 1693.750;    0.000;    0.000
461.520; 1741.750;    0.000;    0.000
461.563; 1730.750;    0.000;    0.000
461.607; 1717.750;    0.000;    0.000
461.651; 1772.750;    0.000;    0.000
461.694; 1671.750;    0.000;    0.000
461.738; 1699.750;    0.000;    0.000
461.782; 1690.750;    0.000;    0.000
461.825; 1775.750;    0.000;    0.000
461.869; 1737.750;    0.000;    0.000
461.913; 1772.750;    0.000;    0.000
461.956; 1764.750;    0.000;    0.000
462.000; 1712.750;    0.000;    0.000
462.043; 1760.750;    0.000;    0.000
462.087; 1723.750;    0.000;    0.000
462.130; 1761.750;    0.000;    0.000
462.174; 1709.750;    0.000;    0.000
462.217; 1683.750;    0.000;    0.000
462.261; 1761.750;    0.000;    0.000
462.304; 1722.750;    0.000;    0.000
462.348; 1725.750;    0.000;    0.000
462.391; 1783.750;    0.000;    0.000
462.435; 1790.750;    0.000;    0.000
462.478; 1717.750;    0.000;    0.000
462.522; 1808.750;    0.000;    0.000
462.565; 1757.750;    0.000;    0.000
462.608; 1776.750;    0.000;    0.000
462.652; 1788.750;    0.000;    0.000
462.695; 1859.750;    0.000;    0.000
462.739; 1767.750;    0.000;    0.000
462.782; 1821.750;    0.000;    0.000
462.825; 1879.750;    0.000;    0.000
462.869; 1803.750;    0.000;    0.000
462.912; 1798.750;    0.000;    0.000
462.955; 1736.750;    0.000;    0.000
462.998; 1761.750;    0.000;    0.000
463.042; 1866.750;    0.000;    0.000
463.085; 1824.750;    0.000;    0.000
463.128; 1856.750;    0.000;    0.000
463.172; 1641.750;    0.000;    0.000
463.215;  453.750;    0.000;    0.000
463.258;  338.750;    0.000;    0.000
463.301;  303.750;    0.000;    0.000
463.344;  351.750;    0.000;    0.000
463.388;  333.750;    0.000;    0.000
463.431;  321.750;    0.000;    0.000
463.474;  382.750;    0.000;    0.000
463.517;  306.750;    0.000;    0.000
463.560;  328.750;    0.000;    0.000
463.603;  341.750;    0.000;    0.000
463.646;  347.750;    0.000;    0.000
463.690;  334.750;    0.000;    0.000
463.733;  344.750;    0.000;    0.000
463.776;  289.750;    0.000;    0.000
463.819;  305.750;    0.000;    0.000
463.862;  298.750;    0.000;    0.000

