
Integration time [ms]:   1.000
Averaging Nr. [scans]: 1
Smoothing Nr. [pixels]: 0
Data measured with spectrometer [name]: UV1
Wave   ;Sample   ;Dark     ;Reference
[nm]   ;[counts] ;[counts] ;[counts] 

236.381;  134.400;    0.000;    0.000
236.451;  188.400;    0.000;    0.000
236.520;  178.400;    0.000;    0.000
236.590;  189.400;    0.000;    0.000
236.660;  180.400;    0.000;    0.000
236.730;  182.400;    0.000;    0.000
236.799;  181.400;    0.000;    0.000
236.869;  166.400;    0.000;    0.000
236.939;  154.400;    0.000;    0.000
237.009;  183.400;    0.000;    0.000
237.078;  184.400;    0.000;    0.000
237.148;  142.400;    0.000;    0.000
237.218;  182.400;    0.000;    0.000
237.287;  194.400;    0.000;    0.000
237.357;  183.400;    0.000;    0.000
237.427;  181.400;    0.000;    0.000
237.496;  392.400;    0.000;    0.000
237.566;  354.400;    0.000;    0.000
237.636;  350.400;    0.000;    0.000
237.705;  393.400;    0.000;    0.000
237.775;  372.400;    0.000;    0.000
237.845;  353.400;    0.000;    0.000
237.914;  330.400;    0.000;    0.000
237.984;  386.400;    0.000;    0.000
238.054;  358.400;    0.000;    0.000
238.123;  389.400;    0.000;    0.000
238.193;  350.400;    0.000;    0.000
238.263;  370.400;    0.000;    0.000
238.332;  370.400;    0.000;    0.000
238.402;  376.400;    0.000;    0.000
238.471;  366.400;    0.000;    0.000
238.541;  356.400;    0.000;    0.000
238.611;  336.400;    0.000;    0.000
238.680;  374.400;    0.000;    0.000
238.750;  339.400;    0.000;    0.000
238.819;  328.400;    0.000;    0.000
238.889;  351.400;    0.000;    0.000
238.958;  369.400;    0.000;    0.000
239.028;  336.400;    0.000;    0.000
239.097;  359.400;    0.000;    0.000
239.167;  397.400;    0.000;    0.000
239.237;  371.400;    0.000;    0.000
239.306;  352.400;    0.000;    0.000
239.376;  393.400;    0.000;    0.000
239.445;  349.400;    0.000;    0.000
239.515;  376.400;    0.000;    0.000
239.584;  345.400;    0.000;    0.000
239.654;  353.400;    0.000;    0.000
239.723;  366.400;    0.000;    0.000
239.793;  346.400;    0.000;    0.000
239.862;  349.400;    0.000;    0.000
239.932;  328.400;    0.000;    0.000
240.001;  330.400;    0.000;    0.000
240.070;  344.400;    0.000;    0.000
240.140;  354.400;    0.000;    0.000
240.209;  322.400;    0.000;    0.000
240.279;  377.400;    0.000;    0.000
240.348;  374.400;    0.000;    0.000
240.418;  359.400;    0.000;    0.000
240.487;  364.400;    0.000;    0.000
240.556;  350.400;    0.000;    0.000
240.626;  382.400;    0.000;    0.000
240.695;  366.400;    0.000;    0.000
240.765;  353.400;    0.000;    0.000
240.834;  313.400;    0.000;    0.000
240.903;  354.400;    0.000;    0.000
240.973;  344.400;    0.000;    0.000
241.042;  342.400;    0.000;    0.000
241.112;  366.400;    0.000;    0.000
241.181;  362.400;    0.000;    0.000
241.250;  328.400;    0.000;    0.000
241.320;  373.400;    0.000;    0.000
241.389;  330.400;    0.000;    0.000
241.458;  360.400;    0.000;    0.000
241.528;  342.400;    0.000;    0.000
241.597;  379.400;    0.000;    0.000
241.666;  340.400;    0.000;    0.000
241.736;  390.400;    0.000;    0.000
241.805;  331.400;    0.000;    0.000
241.874;  358.400;    0.000;    0.000
241.943;  347.400;    0.000;    0.000
242.013;  375.400;    0.000;    0.000
242.082;  354.400;    0.000;    0.000
242.151;  331.400;    0.000;    0.000
242.221;  344.400;    0.000;    0.000
242.290;  377.400;    0.000;    0.000
242.359;  309.400;    0.000;    0.000
242.428;  374.400;    0.000;    0.000
242.498;  387.400;    0.000;    0.000
242.567;  349.400;    0.000;    0.000
242.636;  374.400;    0.000;    0.000
242.705;  376.400;    0.000;    0.000
242.774;  368.400;    0.000;    0.000
242.844;  373.400;    0.000;    0.000
242.913;  346.400;    0.000;    0.000
242.982;  358.400;    0.000;    0.000
243.051;  293.400;    0.000;    0.000
243.120;  335.400;    0.000;    0.000
243.190;  378.400;    0.000;    0.000
243.259;  382.400;    0.000;    0.000
243.328;  342.400;    0.000;    0.000
243.397;  328.400;    0.000;    0.000
243.466;  323.400;    0.000;    0.000
243.535;  354.400;    0.000;    0.000
243.605;  366.400;    0.000;    0.000
243.674;  334.400;    0.000;    0.000
243.743;  353.400;    0.000;    0.000
243.812;  385.400;    0.000;    0.000
243.881;  332.400;    0.000;    0.000
243.950;  348.400;    0.000;    0.000
244.019;  364.400;    0.000;    0.000
244.088;  366.400;    0.000;    0.000
244.158;  378.400;    0.000;    0.000
244.227;  369.400;    0.000;    0.000
244.296;  323.400;    0.000;    0.000
244.365;  377.400;    0.000;    0.000
244.434;  300.400;    0.000;    0.000
244.503;  340.400;    0.000;    0.000
244.572;  318.400;    0.000;    0.000
244.641;  339.400;    0.000;    0.000
244.710;  390.400;    0.000;    0.000
244.779;  409.400;    0.000;    0.000
244.848;  319.400;    0.000;    0.000
244.917;  344.400;    0.000;    0.000
244.986;  375.400;    0.000;    0.000
245.055;  378.400;    0.000;    0.000
245.124;  368.400;    0.000;    0.000
245.193;  351.400;    0.000;    0.000
245.262;  341.400;    0.000;    0.000
245.331;  361.400;    0.000;    0.000
245.400;  336.400;    0.000;    0.000
245.469;  403.400;    0.000;    0.000
245.538;  371.400;    0.000;    0.000
245.607;  364.400;    0.000;    0.000
245.676;  336.400;    0.000;    0.000
245.745;  407.400;    0.000;    0.000
245.814;  355.400;    0.000;    0.000
245.883;  393.400;    0.000;    0.000
245.952;  395.400;    0.000;    0.000
246.021;  369.400;    0.000;    0.000
246.090;  405.400;    0.000;    0.000
246.159;  365.400;    0.000;    0.000
246.227;  332.400;    0.000;    0.000
246.296;  337.400;    0.000;    0.000
246.365;  362.400;    0.000;    0.000
246.434;  424.400;    0.000;    0.000
246.503;  376.400;    0.000;    0.000
246.572;  427.400;    0.000;    0.000
246.641;  398.400;    0.000;    0.000
246.710;  394.400;    0.000;    0.000
246.779;  385.400;    0.000;    0.000
246.847;  395.400;    0.000;    0.000
246.916;  397.400;    0.000;    0.000
246.985;  400.400;    0.000;    0.000
247.054;  404.400;    0.000;    0.000
247.123;  346.400;    0.000;    0.000
247.192;  381.400;    0.000;    0.000
247.260;  414.400;    0.000;    0.000
247.329;  361.400;    0.000;    0.000
247.398;  363.400;    0.000;    0.000
247.467;  366.400;    0.000;    0.000
247.536;  376.400;    0.000;    0.000
247.604;  378.400;    0.000;    0.000
247.673;  376.400;    0.000;    0.000
247.742;  363.400;    0.000;    0.000
247.811;  414.400;    0.000;    0.000
247.879;  381.400;    0.000;    0.000
247.948;  366.400;    0.000;    0.000
248.017;  431.400;    0.000;    0.000
248.086;  407.400;    0.000;    0.000
248.154;  384.400;    0.000;    0.000
248.223;  384.400;    0.000;    0.000
248.292;  368.400;    0.000;    0.000
248.361;  359.400;    0.000;    0.000
248.429;  337.400;    0.000;    0.000
248.498;  371.400;    0.000;    0.000
248.567;  369.400;    0.000;    0.000
248.635;  389.400;    0.000;    0.000
248.704;  387.400;    0.000;    0.000
248.773;  376.400;    0.000;    0.000
248.841;  397.400;    0.000;    0.000
248.910;  384.400;    0.000;    0.000
248.979;  358.400;    0.000;    0.000
249.047;  395.400;    0.000;    0.000
249.116;  331.400;    0.000;    0.000
249.185;  388.400;    0.000;    0.000
249.253;  357.400;    0.000;    0.000
249.322;  378.400;    0.000;    0.000
249.390;  327.400;    0.000;    0.000
249.459;  371.400;    0.000;    0.000
249.528;  383.400;    0.000;    0.000
249.596;  336.400;    0.000;    0.000
249.665;  292.400;    0.000;    0.000
249.733;  337.400;    0.000;    0.000
249.802;  357.400;    0.000;    0.000
249.871;  393.400;    0.000;    0.000
249.939;  323.400;    0.000;    0.000
250.008;  365.400;    0.000;    0.000
250.076;  336.400;    0.000;    0.000
250.145;  338.400;    0.000;    0.000
250.213;  302.400;    0.000;    0.000
250.282;  327.400;    0.000;    0.000
250.350;  334.400;    0.000;    0.000
250.419;  361.400;    0.000;    0.000
250.487;  396.400;    0.000;    0.000
250.556;  344.400;    0.000;    0.000
250.624;  353.400;    0.000;    0.000
250.693;  320.400;    0.000;    0.000
250.761;  360.400;    0.000;    0.000
250.830;  347.400;    0.000;    0.000
250.898;  329.400;    0.000;    0.000
250.967;  340.400;    0.000;    0.000
251.035;  331.400;    0.000;    0.000
251.104;  325.400;    0.000;    0.000
251.172;  333.400;    0.000;    0.000
251.241;  324.400;    0.000;    0.000
251.309;  331.400;    0.000;    0.000
251.378;  331.400;    0.000;    0.000
251.446;  320.400;    0.000;    0.000
251.514;  354.400;    0.000;    0.000
251.583;  295.400;    0.000;    0.000
251.651;  307.400;    0.000;    0.000
251.720;  329.400;    0.000;    0.000
251.788;  377.400;    0.000;    0.000
251.856;  278.400;    0.000;    0.000
251.925;  289.400;    0.000;    0.000
251.993;  357.400;    0.000;    0.000
252.062;  324.400;    0.000;    0.000
252.130;  334.400;    0.000;    0.000
252.198;  322.400;    0.000;    0.000
252.267;  302.400;    0.000;    0.000
252.335;  324.400;    0.000;    0.000
252.403;  283.400;    0.000;    0.000
252.472;  302.400;    0.000;    0.000
252.540;  342.400;    0.000;    0.000
252.608;  342.400;    0.000;    0.000
252.677;  283.400;    0.000;    0.000
252.745;  365.400;    0.000;    0.000
252.813;  300.400;    0.000;    0.000
252.881;  272.400;    0.000;    0.000
252.950;  286.400;    0.000;    0.000
253.018;  295.400;    0.000;    0.000
253.086;  338.400;    0.000;    0.000
253.155;  285.400;    0.000;    0.000
253.223;  289.400;    0.000;    0.000
253.291;  320.400;    0.000;    0.000
253.359;  307.400;    0.000;    0.000
253.428;  326.400;    0.000;    0.000
253.496;  298.400;    0.000;    0.000
253.564;  328.400;    0.000;    0.000
253.632;  265.400;    0.000;    0.000
253.700;  293.400;    0.000;    0.000
253.769;  288.400;    0.000;    0.000
253.837;  288.400;    0.000;    0.000
253.905;  283.400;    0.000;    0.000
253.973;  298.400;    0.000;    0.000
254.041;  304.400;    0.000;    0.000
254.110;  283.400;    0.000;    0.000
254.178;  299.400;    0.000;    0.000
254.246;  265.400;    0.000;    0.000
254.314;  280.400;    0.000;    0.000
254.382;  281.400;    0.000;    0.000
254.450;  269.400;    0.000;    0.000
254.518;  289.400;    0.000;    0.000
254.587;  284.400;    0.000;    0.000
254.655;  329.400;    0.000;    0.000
254.723;  268.400;    0.000;    0.000
254.791;  304.400;    0.000;    0.000
254.859;  268.400;    0.000;    0.000
254.927;  317.400;    0.000;    0.000
254.995;  236.400;    0.000;    0.000
255.063;  261.400;    0.000;    0.000
255.131;  257.400;    0.000;    0.000
255.199;  321.400;    0.000;    0.000
255.267;  230.400;    0.000;    0.000
255.336;  267.400;    0.000;    0.000
255.404;  268.400;    0.000;    0.000
255.472;  328.400;    0.000;    0.000
255.540;  282.400;    0.000;    0.000
255.608;  290.400;    0.000;    0.000
255.676;  259.400;    0.000;    0.000
255.744;  267.400;    0.000;    0.000
255.812;  293.400;    0.000;    0.000
255.880;  300.400;    0.000;    0.000
255.948;  274.400;    0.000;    0.000
256.016;  291.400;    0.000;    0.000
256.084;  331.400;    0.000;    0.000
256.152;  314.400;    0.000;    0.000
256.220;  247.400;    0.000;    0.000
256.288;  282.400;    0.000;    0.000
256.356;  231.400;    0.000;    0.000
256.424;  263.400;    0.000;    0.000
256.491;  254.400;    0.000;    0.000
256.559;  279.400;    0.000;    0.000
256.627;  286.400;    0.000;    0.000
256.695;  263.400;    0.000;    0.000
256.763;  281.400;    0.000;    0.000
256.831;  316.400;    0.000;    0.000
256.899;  315.400;    0.000;    0.000
256.967;  236.400;    0.000;    0.000
257.035;  279.400;    0.000;    0.000
257.103;  320.400;    0.000;    0.000
257.171;  253.400;    0.000;    0.000
257.238;  263.400;    0.000;    0.000
257.306;  289.400;    0.000;    0.000
257.374;  265.400;    0.000;    0.000
257.442;  295.400;    0.000;    0.000
257.510;  276.400;    0.000;    0.000
257.578;  273.400;    0.000;    0.000
257.646;  290.400;    0.000;    0.000
257.713;  282.400;    0.000;    0.000
257.781;  255.400;    0.000;    0.000
257.849;  263.400;    0.000;    0.000
257.917;  290.400;    0.000;    0.000
257.985;  286.400;    0.000;    0.000
258.052;  298.400;    0.000;    0.000
258.120;  279.400;    0.000;    0.000
258.188;  287.400;    0.000;    0.000
258.256;  268.400;    0.000;    0.000
258.324;  288.400;    0.000;    0.000
258.391;  246.400;    0.000;    0.000
258.459;  319.400;    0.000;    0.000
258.527;  257.400;    0.000;    0.000
258.595;  305.400;    0.000;    0.000
258.662;  263.400;    0.000;    0.000
258.730;  310.400;    0.000;    0.000
258.798;  275.400;    0.000;    0.000
258.865;  302.400;    0.000;    0.000
258.933;  306.400;    0.000;    0.000
259.001;  311.400;    0.000;    0.000
259.069;  278.400;    0.000;    0.000
259.136;  331.400;    0.000;    0.000
259.204;  284.400;    0.000;    0.000
259.272;  292.400;    0.000;    0.000
259.339;  263.400;    0.000;    0.000
259.407;  334.400;    0.000;    0.000
259.475;  299.400;    0.000;    0.000
259.542;  311.400;    0.000;    0.000
259.610;  291.400;    0.000;    0.000
259.677;  279.400;    0.000;    0.000
259.745;  288.400;    0.000;    0.000
259.813;  353.400;    0.000;    0.000
259.880;  319.400;    0.000;    0.000
259.948;  337.400;    0.000;    0.000
260.016;  339.400;    0.000;    0.000
260.083;  365.400;    0.000;    0.000
260.151;  314.400;    0.000;    0.000
260.218;  313.400;    0.000;    0.000
260.286;  340.400;    0.000;    0.000
260.353;  343.400;    0.000;    0.000
260.421;  306.400;    0.000;    0.000
260.489;  346.400;    0.000;    0.000
260.556;  358.400;    0.000;    0.000
260.624;  367.400;    0.000;    0.000
260.691;  333.400;    0.000;    0.000
260.759;  368.400;    0.000;    0.000
260.826;  282.400;    0.000;    0.000
260.894;  312.400;    0.000;    0.000
260.961;  349.400;    0.000;    0.000
261.029;  362.400;    0.000;    0.000
261.096;  367.400;    0.000;    0.000
261.164;  338.400;    0.000;    0.000
261.231;  389.400;    0.000;    0.000
261.299;  356.400;    0.000;    0.000
261.366;  362.400;    0.000;    0.000
261.434;  371.400;    0.000;    0.000
261.501;  320.400;    0.000;    0.000
261.568;  380.400;    0.000;    0.000
261.636;  337.400;    0.000;    0.000
261.703;  428.400;    0.000;    0.000
261.771;  379.400;    0.000;    0.000
261.838;  383.400;    0.000;    0.000
261.906;  385.400;    0.000;    0.000
261.973;  396.400;    0.000;    0.000
262.040;  399.400;    0.000;    0.000
262.108;  355.400;    0.000;    0.000
262.175;  353.400;    0.000;    0.000
262.243;  432.400;    0.000;    0.000
262.310;  371.400;    0.000;    0.000
262.377;  395.400;    0.000;    0.000
262.445;  407.400;    0.000;    0.000
262.512;  398.400;    0.000;    0.000
262.579;  389.400;    0.000;    0.000
262.647;  385.400;    0.000;    0.000
262.714;  433.400;    0.000;    0.000
262.781;  369.400;    0.000;    0.000
262.849;  402.400;    0.000;    0.000
262.916;  408.400;    0.000;    0.000
262.983;  406.400;    0.000;    0.000
263.051;  412.400;    0.000;    0.000
263.118;  424.400;    0.000;    0.000
263.185;  478.400;    0.000;    0.000
263.252;  405.400;    0.000;    0.000
263.320;  440.400;    0.000;    0.000
263.387;  447.400;    0.000;    0.000
263.454;  429.400;    0.000;    0.000
263.522;  382.400;    0.000;    0.000
263.589;  428.400;    0.000;    0.000
263.656;  411.400;    0.000;    0.000
263.723;  405.400;    0.000;    0.000
263.790;  434.400;    0.000;    0.000
263.858;  456.400;    0.000;    0.000
263.925;  429.400;    0.000;    0.000
263.992;  419.400;    0.000;    0.000
264.059;  420.400;    0.000;    0.000
264.126;  436.400;    0.000;    0.000
264.194;  433.400;    0.000;    0.000
264.261;  506.400;    0.000;    0.000
264.328;  445.400;    0.000;    0.000
264.395;  435.400;    0.000;    0.000
264.462;  445.400;    0.000;    0.000
264.529;  452.400;    0.000;    0.000
264.597;  410.400;    0.000;    0.000
264.664;  478.400;    0.000;    0.000
264.731;  515.400;    0.000;    0.000
264.798;  474.400;    0.000;    0.000
264.865;  491.400;    0.000;    0.000
264.932;  490.400;    0.000;    0.000
264.999;  488.400;    0.000;    0.000
265.066;  477.400;    0.000;    0.000
265.133;  432.400;    0.000;    0.000
265.201;  477.400;    0.000;    0.000
265.268;  496.400;    0.000;    0.000
265.335;  489.400;    0.000;    0.000
265.402;  438.400;    0.000;    0.000
265.469;  487.400;    0.000;    0.000
265.536;  502.400;    0.000;    0.000
265.603;  543.400;    0.000;    0.000
265.670;  448.400;    0.000;    0.000
265.737;  508.400;    0.000;    0.000
265.804;  483.400;    0.000;    0.000
265.871;  508.400;    0.000;    0.000
265.938;  517.400;    0.000;    0.000
266.005;  499.400;    0.000;    0.000
266.072;  483.400;    0.000;    0.000
266.139;  529.400;    0.000;    0.000
266.206;  541.400;    0.000;    0.000
266.273;  486.400;    0.000;    0.000
266.340;  503.400;    0.000;    0.000
266.407;  479.400;    0.000;    0.000
266.474;  516.400;    0.000;    0.000
266.541;  528.400;    0.000;    0.000
266.608;  480.400;    0.000;    0.000
266.675;  535.400;    0.000;    0.000
266.742;  555.400;    0.000;    0.000
266.808;  559.400;    0.000;    0.000
266.875;  545.400;    0.000;    0.000
266.942;  577.400;    0.000;    0.000
267.009;  505.400;    0.000;    0.000
267.076;  531.400;    0.000;    0.000
267.143;  581.400;    0.000;    0.000
267.210;  540.400;    0.000;    0.000
267.277;  566.400;    0.000;    0.000
267.344;  538.400;    0.000;    0.000
267.410;  563.400;    0.000;    0.000
267.477;  586.400;    0.000;    0.000
267.544;  501.400;    0.000;    0.000
267.611;  622.400;    0.000;    0.000
267.678;  556.400;    0.000;    0.000
267.745;  603.400;    0.000;    0.000
267.811;  540.400;    0.000;    0.000
267.878;  536.400;    0.000;    0.000
267.945;  520.400;    0.000;    0.000
268.012;  609.400;    0.000;    0.000
268.079;  589.400;    0.000;    0.000
268.145;  557.400;    0.000;    0.000
268.212;  521.400;    0.000;    0.000
268.279;  525.400;    0.000;    0.000
268.346;  568.400;    0.000;    0.000
268.412;  524.400;    0.000;    0.000
268.479;  552.400;    0.000;    0.000
268.546;  540.400;    0.000;    0.000
268.613;  526.400;    0.000;    0.000
268.679;  523.400;    0.000;    0.000
268.746;  563.400;    0.000;    0.000
268.813;  553.400;    0.000;    0.000
268.879;  533.400;    0.000;    0.000
268.946;  598.400;    0.000;    0.000
269.013;  549.400;    0.000;    0.000
269.079;  607.400;    0.000;    0.000
269.146;  556.400;    0.000;    0.000
269.213;  580.400;    0.000;    0.000
269.280;  536.400;    0.000;    0.000
269.346;  566.400;    0.000;    0.000
269.413;  549.400;    0.000;    0.000
269.479;  571.400;    0.000;    0.000
269.546;  571.400;    0.000;    0.000
269.613;  519.400;    0.000;    0.000
269.679;  614.400;    0.000;    0.000
269.746;  586.400;    0.000;    0.000
269.813;  583.400;    0.000;    0.000
269.879;  551.400;    0.000;    0.000
269.946;  595.400;    0.000;    0.000
270.012;  602.400;    0.000;    0.000
270.079;  548.400;    0.000;    0.000
270.145;  593.400;    0.000;    0.000
270.212;  581.400;    0.000;    0.000
270.279;  557.400;    0.000;    0.000
270.345;  524.400;    0.000;    0.000
270.412;  551.400;    0.000;    0.000
270.478;  574.400;    0.000;    0.000
270.545;  596.400;    0.000;    0.000
270.611;  600.400;    0.000;    0.000
270.678;  567.400;    0.000;    0.000
270.744;  557.400;    0.000;    0.000
270.811;  608.400;    0.000;    0.000
270.877;  595.400;    0.000;    0.000
270.944;  553.400;    0.000;    0.000
271.010;  579.400;    0.000;    0.000
271.077;  548.400;    0.000;    0.000
271.143;  579.400;    0.000;    0.000
271.210;  531.400;    0.000;    0.000
271.276;  550.400;    0.000;    0.000
271.342;  555.400;    0.000;    0.000
271.409;  563.400;    0.000;    0.000
271.475;  531.400;    0.000;    0.000
271.542;  553.400;    0.000;    0.000
271.608;  596.400;    0.000;    0.000
271.675;  525.400;    0.000;    0.000
271.741;  599.400;    0.000;    0.000
271.807;  535.400;    0.000;    0.000
271.874;  596.400;    0.000;    0.000
271.940;  621.400;    0.000;    0.000
272.007;  594.400;    0.000;    0.000
272.073;  573.400;    0.000;    0.000
272.139;  583.400;    0.000;    0.000
272.206;  591.400;    0.000;    0.000
272.272;  582.400;    0.000;    0.000
272.338;  618.400;    0.000;    0.000
272.405;  574.400;    0.000;    0.000
272.471;  597.400;    0.000;    0.000
272.537;  557.400;    0.000;    0.000
272.604;  536.400;    0.000;    0.000
272.670;  574.400;    0.000;    0.000
272.736;  532.400;    0.000;    0.000
272.802;  618.400;    0.000;    0.000
272.869;  550.400;    0.000;    0.000
272.935;  563.400;    0.000;    0.000
273.001;  544.400;    0.000;    0.000
273.068;  561.400;    0.000;    0.000
273.134;  564.400;    0.000;    0.000
273.200;  584.400;    0.000;    0.000
273.266;  589.400;    0.000;    0.000
273.333;  599.400;    0.000;    0.000
273.399;  532.400;    0.000;    0.000
273.465;  631.400;    0.000;    0.000
273.531;  563.400;    0.000;    0.000
273.597;  660.400;    0.000;    0.000
273.664;  599.400;    0.000;    0.000
273.730;  641.400;    0.000;    0.000
273.796;  587.400;    0.000;    0.000
273.862;  651.400;    0.000;    0.000
273.928;  589.400;    0.000;    0.000
273.995;  589.400;    0.000;    0.000
274.061;  608.400;    0.000;    0.000
274.127;  617.400;    0.000;    0.000
274.193;  567.400;    0.000;    0.000
274.259;  608.400;    0.000;    0.000
274.325;  622.400;    0.000;    0.000
274.391;  601.400;    0.000;    0.000
274.457;  580.400;    0.000;    0.000
274.524;  657.400;    0.000;    0.000
274.590;  601.400;    0.000;    0.000
274.656;  622.400;    0.000;    0.000
274.722;  650.400;    0.000;    0.000
274.788;  641.400;    0.000;    0.000
274.854;  630.400;    0.000;    0.000
274.920;  648.400;    0.000;    0.000
274.986;  614.400;    0.000;    0.000
275.052;  646.400;    0.000;    0.000
275.118;  594.400;    0.000;    0.000
275.184;  660.400;    0.000;    0.000
275.250;  629.400;    0.000;    0.000
275.316;  598.400;    0.000;    0.000
275.382;  606.400;    0.000;    0.000
275.448;  684.400;    0.000;    0.000
275.514;  637.400;    0.000;    0.000
275.580;  662.400;    0.000;    0.000
275.646;  652.400;    0.000;    0.000
275.712;  762.400;    0.000;    0.000
275.778;  657.400;    0.000;    0.000
275.844;  660.400;    0.000;    0.000
275.910;  674.400;    0.000;    0.000
275.976;  745.400;    0.000;    0.000
276.042;  658.400;    0.000;    0.000
276.108;  716.400;    0.000;    0.000
276.174;  693.400;    0.000;    0.000
276.240;  730.400;    0.000;    0.000
276.306;  710.400;    0.000;    0.000
276.372;  744.400;    0.000;    0.000
276.437;  741.400;    0.000;    0.000
276.503;  686.400;    0.000;    0.000
276.569;  784.400;    0.000;    0.000
276.635;  684.400;    0.000;    0.000
276.701;  761.400;    0.000;    0.000
276.767;  746.400;    0.000;    0.000
276.833;  784.400;    0.000;    0.000
276.899;  827.400;    0.000;    0.000
276.964;  849.400;    0.000;    0.000
277.030;  862.400;    0.000;    0.000
277.096;  802.400;    0.000;    0.000
277.162;  925.400;    0.000;    0.000
277.228;  905.400;    0.000;    0.000
277.293;  886.400;    0.000;    0.000
277.359;  998.400;    0.000;    0.000
277.425; 1014.400;    0.000;    0.000
277.491; 1084.400;    0.000;    0.000
277.557; 1164.400;    0.000;    0.000
277.622; 1526.400;    0.000;    0.000
277.688; 1730.400;    0.000;    0.000
277.754; 1596.400;    0.000;    0.000
277.820; 1799.400;    0.000;    0.000
277.885; 1949.400;    0.000;    0.000
277.951; 2426.400;    0.000;    0.000
278.017; 2530.400;    0.000;    0.000
278.083; 2015.400;    0.000;    0.000
278.148; 1977.400;    0.000;    0.000
278.214; 1924.400;    0.000;    0.000
278.280; 2018.400;    0.000;    0.000
278.345; 1900.400;    0.000;    0.000
278.411; 1789.400;    0.000;    0.000
278.477; 1724.400;    0.000;    0.000
278.542; 1847.400;    0.000;    0.000
278.608; 1926.400;    0.000;    0.000
278.674; 2097.400;    0.000;    0.000
278.739; 2362.400;    0.000;    0.000
278.805; 2661.400;    0.000;    0.000
278.871; 3053.400;    0.000;    0.000
278.936; 3452.400;    0.000;    0.000
279.002; 4688.400;    0.000;    0.000
279.067; 6602.400;    0.000;    0.000
279.133; 7392.400;    0.000;    0.000
279.199; 6670.400;    0.000;    0.000
279.264; 6635.400;    0.000;    0.000
279.330; 7509.400;    0.000;    0.000
279.395; 9388.400;    0.000;    0.000
279.461;12199.400;    0.000;    0.000
279.527;13788.400;    0.000;    0.000
279.592;14053.400;    0.000;    0.000
279.658;12476.400;    0.000;    0.000
279.723;11007.400;    0.000;    0.000
279.789;11659.400;    0.000;    0.000
279.854;11075.400;    0.000;    0.000
279.920; 9096.400;    0.000;    0.000
279.985; 7977.400;    0.000;    0.000
280.051; 7833.400;    0.000;    0.000
280.116; 8815.400;    0.000;    0.000
280.182;11183.400;    0.000;    0.000
280.247;13665.400;    0.000;    0.000
280.313;12894.400;    0.000;    0.000
280.378;10216.400;    0.000;    0.000
280.444; 7343.400;    0.000;    0.000
280.509; 5733.400;    0.000;    0.000
280.574; 4578.400;    0.000;    0.000
280.640; 4028.400;    0.000;    0.000
280.705; 3595.400;    0.000;    0.000
280.771; 3211.400;    0.000;    0.000
280.836; 2920.400;    0.000;    0.000
280.902; 2734.400;    0.000;    0.000
280.967; 2483.400;    0.000;    0.000
281.032; 2255.400;    0.000;    0.000
281.098; 2165.400;    0.000;    0.000
281.163; 2033.400;    0.000;    0.000
281.229; 2020.400;    0.000;    0.000
281.294; 1921.400;    0.000;    0.000
281.359; 1837.400;    0.000;    0.000
281.425; 1816.400;    0.000;    0.000
281.490; 1672.400;    0.000;    0.000
281.555; 1609.400;    0.000;    0.000
281.621; 1604.400;    0.000;    0.000
281.686; 1558.400;    0.000;    0.000
281.751; 1547.400;    0.000;    0.000
281.816; 1389.400;    0.000;    0.000
281.882; 1356.400;    0.000;    0.000
281.947; 1437.400;    0.000;    0.000
282.012; 1356.400;    0.000;    0.000
282.078; 1301.400;    0.000;    0.000
282.143; 1304.400;    0.000;    0.000
282.208; 1203.400;    0.000;    0.000
282.273; 1230.400;    0.000;    0.000
282.339; 1187.400;    0.000;    0.000
282.404; 1270.400;    0.000;    0.000
282.469; 1153.400;    0.000;    0.000
282.534; 1145.400;    0.000;    0.000
282.600; 1144.400;    0.000;    0.000
282.665; 1121.400;    0.000;    0.000
282.730; 1126.400;    0.000;    0.000
282.795; 1142.400;    0.000;    0.000
282.860; 1086.400;    0.000;    0.000
282.926; 1159.400;    0.000;    0.000
282.991;  974.400;    0.000;    0.000
283.056; 1046.400;    0.000;    0.000
283.121; 1040.400;    0.000;    0.000
283.186; 1044.400;    0.000;    0.000
283.251; 1091.400;    0.000;    0.000
283.316; 1008.400;    0.000;    0.000
283.382; 1032.400;    0.000;    0.000
283.447; 1047.400;    0.000;    0.000
283.512;  991.400;    0.000;    0.000
283.577; 1011.400;    0.000;    0.000
283.642; 1005.400;    0.000;    0.000
283.707;  985.400;    0.000;    0.000
283.772;  933.400;    0.000;    0.000
283.837;  959.400;    0.000;    0.000
283.902; 1001.400;    0.000;    0.000
283.967; 1040.400;    0.000;    0.000
284.032;  952.400;    0.000;    0.000
284.097; 1042.400;    0.000;    0.000
284.163;  965.400;    0.000;    0.000
284.228; 1016.400;    0.000;    0.000
284.293;  965.400;    0.000;    0.000
284.358; 1047.400;    0.000;    0.000
284.423; 1022.400;    0.000;    0.000
284.488; 1042.400;    0.000;    0.000
284.553; 1073.400;    0.000;    0.000
284.618; 1096.400;    0.000;    0.000
284.683; 1131.400;    0.000;    0.000
284.748; 1106.400;    0.000;    0.000
284.812; 1274.400;    0.000;    0.000
284.877; 1394.400;    0.000;    0.000
284.942; 1533.400;    0.000;    0.000
285.007; 1789.400;    0.000;    0.000
285.072; 2196.400;    0.000;    0.000
285.137; 3392.400;    0.000;    0.000
285.202; 4996.400;    0.000;    0.000
285.267; 5388.400;    0.000;    0.000
285.332; 3806.400;    0.000;    0.000
285.397; 2611.400;    0.000;    0.000
285.462; 2033.400;    0.000;    0.000
285.527; 1749.400;    0.000;    0.000
285.591; 1591.400;    0.000;    0.000
285.656; 1362.400;    0.000;    0.000
285.721; 1313.400;    0.000;    0.000
285.786; 1188.400;    0.000;    0.000
285.851; 1196.400;    0.000;    0.000
285.916; 1173.400;    0.000;    0.000
285.981; 1128.400;    0.000;    0.000
286.045; 1112.400;    0.000;    0.000
286.110; 1055.400;    0.000;    0.000
286.175; 1025.400;    0.000;    0.000
286.240;  984.400;    0.000;    0.000
286.305; 1019.400;    0.000;    0.000
286.369;  957.400;    0.000;    0.000
286.434; 1029.400;    0.000;    0.000
286.499;  932.400;    0.000;    0.000
286.564;  971.400;    0.000;    0.000
286.628;  951.400;    0.000;    0.000
286.693;  950.400;    0.000;    0.000
286.758;  936.400;    0.000;    0.000
286.823; 1021.400;    0.000;    0.000
286.887;  939.400;    0.000;    0.000
286.952;  989.400;    0.000;    0.000
287.017;  942.400;    0.000;    0.000
287.082;  885.400;    0.000;    0.000
287.146;  994.400;    0.000;    0.000
287.211;  877.400;    0.000;    0.000
287.276;  880.400;    0.000;    0.000
287.340;  922.400;    0.000;    0.000
287.405;  934.400;    0.000;    0.000
287.470;  814.400;    0.000;    0.000
287.534;  920.400;    0.000;    0.000
287.599;  955.400;    0.000;    0.000
287.663;  898.400;    0.000;    0.000
287.728;  910.400;    0.000;    0.000
287.793;  918.400;    0.000;    0.000
287.857;  931.400;    0.000;    0.000
287.922;  865.400;    0.000;    0.000
287.987;  868.400;    0.000;    0.000
288.051;  904.400;    0.000;    0.000
288.116;  932.400;    0.000;    0.000
288.180;  921.400;    0.000;    0.000
288.245;  944.400;    0.000;    0.000
288.309;  895.400;    0.000;    0.000
288.374;  915.400;    0.000;    0.000
288.439;  925.400;    0.000;    0.000
288.503;  852.400;    0.000;    0.000
288.568;  945.400;    0.000;    0.000
288.632;  889.400;    0.000;    0.000
288.697;  879.400;    0.000;    0.000
288.761;  850.400;    0.000;    0.000
288.826;  801.400;    0.000;    0.000
288.890;  916.400;    0.000;    0.000
288.955;  872.400;    0.000;    0.000
289.019;  943.400;    0.000;    0.000
289.084;  850.400;    0.000;    0.000
289.148;  844.400;    0.000;    0.000
289.212;  883.400;    0.000;    0.000
289.277;  863.400;    0.000;    0.000
289.341;  941.400;    0.000;    0.000
289.406;  812.400;    0.000;    0.000
289.470;  929.400;    0.000;    0.000
289.535;  895.400;    0.000;    0.000
289.599;  883.400;    0.000;    0.000
289.663;  842.400;    0.000;    0.000
289.728;  849.400;    0.000;    0.000
289.792;  916.400;    0.000;    0.000
289.857;  895.400;    0.000;    0.000
289.921;  849.400;    0.000;    0.000
289.985;  884.400;    0.000;    0.000
290.050;  922.400;    0.000;    0.000
290.114;  873.400;    0.000;    0.000
290.178;  889.400;    0.000;    0.000
290.243;  910.400;    0.000;    0.000
290.307;  917.400;    0.000;    0.000
290.371;  940.400;    0.000;    0.000
290.436;  992.400;    0.000;    0.000
290.500;  840.400;    0.000;    0.000
290.564;  910.400;    0.000;    0.000
290.629;  918.400;    0.000;    0.000
290.693;  887.400;    0.000;    0.000
290.757;  927.400;    0.000;    0.000
290.821;  949.400;    0.000;    0.000
290.886;  876.400;    0.000;    0.000
290.950;  944.400;    0.000;    0.000
291.014;  921.400;    0.000;    0.000
291.078;  881.400;    0.000;    0.000
291.143;  932.400;    0.000;    0.000
291.207;  941.400;    0.000;    0.000
291.271; 1011.400;    0.000;    0.000
291.335;  954.400;    0.000;    0.000
291.399;  906.400;    0.000;    0.000
291.464;  963.400;    0.000;    0.000
291.528; 1034.400;    0.000;    0.000
291.592; 1079.400;    0.000;    0.000
291.656; 1034.400;    0.000;    0.000
291.720; 1002.400;    0.000;    0.000
291.784; 1035.400;    0.000;    0.000
291.849;  996.400;    0.000;    0.000
291.913;  963.400;    0.000;    0.000
291.977;  988.400;    0.000;    0.000
292.041; 1000.400;    0.000;    0.000
292.105; 1013.400;    0.000;    0.000
292.169; 1059.400;    0.000;    0.000
292.233; 1009.400;    0.000;    0.000
292.297;  985.400;    0.000;    0.000
292.361; 1077.400;    0.000;    0.000
292.425; 1086.400;    0.000;    0.000
292.490; 1151.400;    0.000;    0.000
292.554; 1202.400;    0.000;    0.000
292.618; 1194.400;    0.000;    0.000
292.682; 1284.400;    0.000;    0.000
292.746; 1348.400;    0.000;    0.000
292.810; 1633.400;    0.000;    0.000
292.874; 2090.400;    0.000;    0.000
292.938; 2302.400;    0.000;    0.000
293.002; 2135.400;    0.000;    0.000
293.066; 1923.400;    0.000;    0.000
293.130; 1790.400;    0.000;    0.000
293.194; 1742.400;    0.000;    0.000
293.258; 1640.400;    0.000;    0.000
293.322; 1667.400;    0.000;    0.000
293.386; 1685.400;    0.000;    0.000
293.450; 1722.400;    0.000;    0.000
293.514; 1884.400;    0.000;    0.000
293.577; 2245.400;    0.000;    0.000
293.641; 2911.400;    0.000;    0.000
293.705; 3510.400;    0.000;    0.000
293.769; 3268.400;    0.000;    0.000
293.833; 2921.400;    0.000;    0.000
293.897; 2624.400;    0.000;    0.000
293.961; 2365.400;    0.000;    0.000
294.025; 2166.400;    0.000;    0.000
294.089; 2053.400;    0.000;    0.000
294.152; 1916.400;    0.000;    0.000
294.216; 1837.400;    0.000;    0.000
294.280; 1684.400;    0.000;    0.000
294.344; 1640.400;    0.000;    0.000
294.408; 1528.400;    0.000;    0.000
294.472; 1527.400;    0.000;    0.000
294.536; 1514.400;    0.000;    0.000
294.599; 1447.400;    0.000;    0.000
294.663; 1357.400;    0.000;    0.000
294.727; 1343.400;    0.000;    0.000
294.791; 1313.400;    0.000;    0.000
294.855; 1276.400;    0.000;    0.000
294.918; 1225.400;    0.000;    0.000
294.982; 1298.400;    0.000;    0.000
295.046; 1243.400;    0.000;    0.000
295.110; 1236.400;    0.000;    0.000
295.173; 1195.400;    0.000;    0.000
295.237; 1240.400;    0.000;    0.000
295.301; 1120.400;    0.000;    0.000
295.364; 1223.400;    0.000;    0.000
295.428; 1113.400;    0.000;    0.000
295.492; 1151.400;    0.000;    0.000
295.556; 1127.400;    0.000;    0.000
295.619; 1109.400;    0.000;    0.000
295.683; 1179.400;    0.000;    0.000
295.747; 1114.400;    0.000;    0.000
295.810; 1167.400;    0.000;    0.000
295.874; 1097.400;    0.000;    0.000
295.938; 1096.400;    0.000;    0.000
296.001; 1121.400;    0.000;    0.000
296.065; 1120.400;    0.000;    0.000
296.128; 1143.400;    0.000;    0.000
296.192; 1108.400;    0.000;    0.000
296.256; 1083.400;    0.000;    0.000
296.319; 1044.400;    0.000;    0.000
296.383; 1053.400;    0.000;    0.000
296.447; 1029.400;    0.000;    0.000
296.510; 1103.400;    0.000;    0.000
296.574; 1103.400;    0.000;    0.000
296.637; 1029.400;    0.000;    0.000
296.701; 1062.400;    0.000;    0.000
296.764; 1074.400;    0.000;    0.000
296.828; 1115.400;    0.000;    0.000
296.891; 1105.400;    0.000;    0.000
296.955; 1014.400;    0.000;    0.000
297.018; 1086.400;    0.000;    0.000
297.082; 1082.400;    0.000;    0.000
297.145; 1043.400;    0.000;    0.000
297.209; 1064.400;    0.000;    0.000
297.272; 1024.400;    0.000;    0.000
297.336; 1044.400;    0.000;    0.000
297.399; 1032.400;    0.000;    0.000
297.463; 1015.400;    0.000;    0.000
297.526; 1049.400;    0.000;    0.000
297.590; 1103.400;    0.000;    0.000
297.653; 1053.400;    0.000;    0.000
297.717; 1049.400;    0.000;    0.000
297.780; 1083.400;    0.000;    0.000
297.843; 1024.400;    0.000;    0.000
297.907; 1081.400;    0.000;    0.000
297.970; 1040.400;    0.000;    0.000
298.034; 1090.400;    0.000;    0.000
298.097; 1059.400;    0.000;    0.000
298.160; 1031.400;    0.000;    0.000
298.224; 1024.400;    0.000;    0.000
298.287; 1061.400;    0.000;    0.000
298.350; 1034.400;    0.000;    0.000
298.414; 1043.400;    0.000;    0.000
298.477;  993.400;    0.000;    0.000
298.540; 1063.400;    0.000;    0.000
298.604;  980.400;    0.000;    0.000
298.667; 1044.400;    0.000;    0.000
298.730; 1073.400;    0.000;    0.000
298.794; 1034.400;    0.000;    0.000
298.857;  993.400;    0.000;    0.000
298.920; 1011.400;    0.000;    0.000
298.984; 1045.400;    0.000;    0.000
299.047;  964.400;    0.000;    0.000
299.110; 1002.400;    0.000;    0.000
299.173;  982.400;    0.000;    0.000
299.237; 1047.400;    0.000;    0.000
299.300; 1030.400;    0.000;    0.000
299.363;  961.400;    0.000;    0.000
299.426;  984.400;    0.000;    0.000
299.489;  956.400;    0.000;    0.000
299.553; 1005.400;    0.000;    0.000
299.616;  992.400;    0.000;    0.000
299.679;  984.400;    0.000;    0.000
299.742;  991.400;    0.000;    0.000
299.805; 1017.400;    0.000;    0.000
299.868; 1026.400;    0.000;    0.000
299.932; 1007.400;    0.000;    0.000
299.995; 1041.400;    0.000;    0.000
300.058;  983.400;    0.000;    0.000
300.121; 1028.400;    0.000;    0.000
300.184; 1004.400;    0.000;    0.000
300.247;  983.400;    0.000;    0.000
300.310;  968.400;    0.000;    0.000
300.374;  997.400;    0.000;    0.000
300.437;  943.400;    0.000;    0.000
300.500; 1035.400;    0.000;    0.000
300.563; 1001.400;    0.000;    0.000
300.626;  985.400;    0.000;    0.000
300.689;  990.400;    0.000;    0.000
300.752;  949.400;    0.000;    0.000
300.815;  953.400;    0.000;    0.000
300.878; 1040.400;    0.000;    0.000
300.941; 1002.400;    0.000;    0.000
301.004;  982.400;    0.000;    0.000
301.067; 1034.400;    0.000;    0.000
301.130;  968.400;    0.000;    0.000
301.193;  983.400;    0.000;    0.000
301.256;  968.400;    0.000;    0.000
301.319; 1042.400;    0.000;    0.000
301.382; 1014.400;    0.000;    0.000
301.445; 1007.400;    0.000;    0.000
301.508; 1033.400;    0.000;    0.000
301.571; 1023.400;    0.000;    0.000
301.634; 1054.400;    0.000;    0.000
301.697; 1006.400;    0.000;    0.000
301.760; 1071.400;    0.000;    0.000
301.823; 1010.400;    0.000;    0.000
301.885;  953.400;    0.000;    0.000
301.948;  990.400;    0.000;    0.000
302.011; 1000.400;    0.000;    0.000
302.074; 1031.400;    0.000;    0.000
302.137;  982.400;    0.000;    0.000
302.200; 1058.400;    0.000;    0.000
302.263; 1080.400;    0.000;    0.000
302.326; 1005.400;    0.000;    0.000
302.388; 1053.400;    0.000;    0.000
302.451; 1052.400;    0.000;    0.000
302.514; 1008.400;    0.000;    0.000
302.577; 1047.400;    0.000;    0.000
302.640;  996.400;    0.000;    0.000
302.703;  988.400;    0.000;    0.000
302.765; 1083.400;    0.000;    0.000
302.828; 1081.400;    0.000;    0.000
302.891; 1069.400;    0.000;    0.000
302.954; 1019.400;    0.000;    0.000
303.016; 1039.400;    0.000;    0.000
303.079; 1029.400;    0.000;    0.000
303.142; 1074.400;    0.000;    0.000
303.205; 1046.400;    0.000;    0.000
303.267; 1081.400;    0.000;    0.000
303.330; 1071.400;    0.000;    0.000
303.393; 1036.400;    0.000;    0.000
303.456; 1068.400;    0.000;    0.000
303.518; 1058.400;    0.000;    0.000
303.581; 1044.400;    0.000;    0.000
303.644; 1069.400;    0.000;    0.000
303.706; 1073.400;    0.000;    0.000
303.769; 1101.400;    0.000;    0.000
303.832; 1106.400;    0.000;    0.000
303.894; 1127.400;    0.000;    0.000
303.957; 1048.400;    0.000;    0.000
304.020; 1090.400;    0.000;    0.000
304.082; 1114.400;    0.000;    0.000
304.145; 1134.400;    0.000;    0.000
304.207; 1139.400;    0.000;    0.000
304.270; 1151.400;    0.000;    0.000
304.333; 1094.400;    0.000;    0.000
304.395; 1096.400;    0.000;    0.000
304.458; 1146.400;    0.000;    0.000
304.520; 1127.400;    0.000;    0.000
304.583; 1159.400;    0.000;    0.000
304.646; 1106.400;    0.000;    0.000
304.708; 1103.400;    0.000;    0.000
304.771; 1084.400;    0.000;    0.000
304.833; 1143.400;    0.000;    0.000
304.896; 1171.400;    0.000;    0.000
304.958; 1138.400;    0.000;    0.000
305.021; 1167.400;    0.000;    0.000
305.083; 1073.400;    0.000;    0.000
305.146; 1159.400;    0.000;    0.000
305.208; 1165.400;    0.000;    0.000
305.271; 1108.400;    0.000;    0.000
305.333; 1155.400;    0.000;    0.000
305.396; 1162.400;    0.000;    0.000
305.458; 1167.400;    0.000;    0.000
305.520; 1212.400;    0.000;    0.000
305.583; 1163.400;    0.000;    0.000
305.645; 1211.400;    0.000;    0.000
305.708; 1230.400;    0.000;    0.000
305.770; 1281.400;    0.000;    0.000
305.833; 1159.400;    0.000;    0.000
305.895; 1183.400;    0.000;    0.000
305.957; 1129.400;    0.000;    0.000
306.020; 1166.400;    0.000;    0.000
306.082; 1202.400;    0.000;    0.000
306.144; 1257.400;    0.000;    0.000
306.207; 1127.400;    0.000;    0.000
306.269; 1206.400;    0.000;    0.000
306.331; 1208.400;    0.000;    0.000
306.394; 1206.400;    0.000;    0.000
306.456; 1184.400;    0.000;    0.000
306.518; 1287.400;    0.000;    0.000
306.581; 1252.400;    0.000;    0.000
306.643; 1243.400;    0.000;    0.000
306.705; 1194.400;    0.000;    0.000
306.768; 1201.400;    0.000;    0.000
306.830; 1249.400;    0.000;    0.000
306.892; 1269.400;    0.000;    0.000
306.954; 1227.400;    0.000;    0.000
307.017; 1254.400;    0.000;    0.000
307.079; 1220.400;    0.000;    0.000
307.141; 1256.400;    0.000;    0.000
307.203; 1222.400;    0.000;    0.000
307.266; 1291.400;    0.000;    0.000
307.328; 1310.400;    0.000;    0.000
307.390; 1323.400;    0.000;    0.000
307.452; 1275.400;    0.000;    0.000
307.514; 1330.400;    0.000;    0.000
307.577; 1355.400;    0.000;    0.000
307.639; 1382.400;    0.000;    0.000
307.701; 1299.400;    0.000;    0.000
307.763; 1311.400;    0.000;    0.000
307.825; 1364.400;    0.000;    0.000
307.887; 1405.400;    0.000;    0.000
307.949; 1300.400;    0.000;    0.000
308.012; 1389.400;    0.000;    0.000
308.074; 1303.400;    0.000;    0.000
308.136; 1347.400;    0.000;    0.000
308.198; 1384.400;    0.000;    0.000
308.260; 1397.400;    0.000;    0.000
308.322; 1352.400;    0.000;    0.000
308.384; 1453.400;    0.000;    0.000
308.446; 1323.400;    0.000;    0.000
308.508; 1421.400;    0.000;    0.000
308.570; 1446.400;    0.000;    0.000
308.632; 1437.400;    0.000;    0.000
308.694; 1392.400;    0.000;    0.000
308.756; 1459.400;    0.000;    0.000
308.818; 1414.400;    0.000;    0.000
308.880; 1478.400;    0.000;    0.000
308.942; 1518.400;    0.000;    0.000
309.004; 1483.400;    0.000;    0.000
309.066; 1467.400;    0.000;    0.000
309.128; 1498.400;    0.000;    0.000
309.190; 1504.400;    0.000;    0.000
309.252; 1536.400;    0.000;    0.000
309.314; 1617.400;    0.000;    0.000
309.376; 1675.400;    0.000;    0.000
309.438; 1556.400;    0.000;    0.000
309.500; 1533.400;    0.000;    0.000
309.562; 1607.400;    0.000;    0.000
309.624; 1524.400;    0.000;    0.000
309.686; 1657.400;    0.000;    0.000
309.747; 1583.400;    0.000;    0.000
309.809; 1696.400;    0.000;    0.000
309.871; 1599.400;    0.000;    0.000
309.933; 1533.400;    0.000;    0.000
309.995; 1540.400;    0.000;    0.000
310.057; 1535.400;    0.000;    0.000
310.119; 1495.400;    0.000;    0.000
310.180; 1433.400;    0.000;    0.000
310.242; 1476.400;    0.000;    0.000
310.304; 1559.400;    0.000;    0.000
310.366; 1503.400;    0.000;    0.000
310.428; 1451.400;    0.000;    0.000
310.489; 1530.400;    0.000;    0.000
310.551; 1513.400;    0.000;    0.000
310.613; 1469.400;    0.000;    0.000
310.675; 1537.400;    0.000;    0.000
310.737; 1537.400;    0.000;    0.000
310.798; 1490.400;    0.000;    0.000
310.860; 1486.400;    0.000;    0.000
310.922; 1474.400;    0.000;    0.000
310.983; 1418.400;    0.000;    0.000
311.045; 1434.400;    0.000;    0.000
311.107; 1458.400;    0.000;    0.000
311.169; 1418.400;    0.000;    0.000
311.230; 1468.400;    0.000;    0.000
311.292; 1472.400;    0.000;    0.000
311.354; 1454.400;    0.000;    0.000
311.415; 1430.400;    0.000;    0.000
311.477; 1396.400;    0.000;    0.000
311.539; 1515.400;    0.000;    0.000
311.600; 1489.400;    0.000;    0.000
311.662; 1510.400;    0.000;    0.000
311.724; 1452.400;    0.000;    0.000
311.785; 1401.400;    0.000;    0.000
311.847; 1415.400;    0.000;    0.000
311.908; 1484.400;    0.000;    0.000
311.970; 1520.400;    0.000;    0.000
312.032; 1453.400;    0.000;    0.000
312.093; 1394.400;    0.000;    0.000
312.155; 1481.400;    0.000;    0.000
312.216; 1493.400;    0.000;    0.000
312.278; 1477.400;    0.000;    0.000
312.339; 1382.400;    0.000;    0.000
312.401; 1442.400;    0.000;    0.000
312.462; 1454.400;    0.000;    0.000
312.524; 1470.400;    0.000;    0.000
312.585; 1448.400;    0.000;    0.000
312.647; 1464.400;    0.000;    0.000
312.708; 1462.400;    0.000;    0.000
312.770; 1500.400;    0.000;    0.000
312.831; 1458.400;    0.000;    0.000
312.893; 1515.400;    0.000;    0.000
312.954; 1537.400;    0.000;    0.000
313.016; 1500.400;    0.000;    0.000
313.077; 1481.400;    0.000;    0.000
313.139; 1458.400;    0.000;    0.000
313.200; 1447.400;    0.000;    0.000
313.261; 1602.400;    0.000;    0.000
313.323; 1439.400;    0.000;    0.000
313.384; 1484.400;    0.000;    0.000
313.446; 1504.400;    0.000;    0.000
313.507; 1479.400;    0.000;    0.000
313.568; 1478.400;    0.000;    0.000
313.630; 1461.400;    0.000;    0.000
313.691; 1501.400;    0.000;    0.000
313.752; 1493.400;    0.000;    0.000
313.814; 1461.400;    0.000;    0.000
313.875; 1486.400;    0.000;    0.000
313.936; 1480.400;    0.000;    0.000
313.998; 1520.400;    0.000;    0.000
314.059; 1530.400;    0.000;    0.000
314.120; 1474.400;    0.000;    0.000
314.182; 1484.400;    0.000;    0.000
314.243; 1499.400;    0.000;    0.000
314.304; 1459.400;    0.000;    0.000
314.365; 1516.400;    0.000;    0.000
314.427; 1540.400;    0.000;    0.000
314.488; 1493.400;    0.000;    0.000
314.549; 1533.400;    0.000;    0.000
314.610; 1533.400;    0.000;    0.000
314.672; 1547.400;    0.000;    0.000
314.733; 1529.400;    0.000;    0.000
314.794; 1496.400;    0.000;    0.000
314.855; 1514.400;    0.000;    0.000
314.917; 1440.400;    0.000;    0.000
314.978; 1531.400;    0.000;    0.000
315.039; 1484.400;    0.000;    0.000
315.100; 1549.400;    0.000;    0.000
315.161; 1578.400;    0.000;    0.000
315.222; 1541.400;    0.000;    0.000
315.283; 1547.400;    0.000;    0.000
315.345; 1503.400;    0.000;    0.000
315.406; 1570.400;    0.000;    0.000
315.467; 1544.400;    0.000;    0.000
315.528; 1562.400;    0.000;    0.000
315.589; 1547.400;    0.000;    0.000
315.650; 1591.400;    0.000;    0.000
315.711; 1558.400;    0.000;    0.000
315.772; 1489.400;    0.000;    0.000
315.833; 1560.400;    0.000;    0.000
315.894; 1535.400;    0.000;    0.000
315.955; 1535.400;    0.000;    0.000
316.016; 1588.400;    0.000;    0.000
316.078; 1574.400;    0.000;    0.000
316.139; 1615.400;    0.000;    0.000
316.200; 1539.400;    0.000;    0.000
316.261; 1587.400;    0.000;    0.000
316.322; 1641.400;    0.000;    0.000
316.383; 1496.400;    0.000;    0.000
316.444; 1559.400;    0.000;    0.000
316.504; 1455.400;    0.000;    0.000
316.565; 1559.400;    0.000;    0.000
316.626; 1520.400;    0.000;    0.000
316.687; 1623.400;    0.000;    0.000
316.748; 1613.400;    0.000;    0.000
316.809; 1553.400;    0.000;    0.000
316.870; 1651.400;    0.000;    0.000
316.931; 1675.400;    0.000;    0.000
316.992; 1689.400;    0.000;    0.000
317.053; 1602.400;    0.000;    0.000
317.114; 1692.400;    0.000;    0.000
317.175; 1649.400;    0.000;    0.000
317.235; 1647.400;    0.000;    0.000
317.296; 1656.400;    0.000;    0.000
317.357; 1662.400;    0.000;    0.000
317.418; 1611.400;    0.000;    0.000
317.479; 1662.400;    0.000;    0.000
317.540; 1625.400;    0.000;    0.000
317.601; 1623.400;    0.000;    0.000
317.661; 1588.400;    0.000;    0.000
317.722; 1589.400;    0.000;    0.000
317.783; 1586.400;    0.000;    0.000
317.844; 1668.400;    0.000;    0.000
317.904; 1577.400;    0.000;    0.000
317.965; 1641.400;    0.000;    0.000
318.026; 1626.400;    0.000;    0.000
318.087; 1684.400;    0.000;    0.000
318.148; 1707.400;    0.000;    0.000
318.208; 1678.400;    0.000;    0.000
318.269; 1640.400;    0.000;    0.000
318.330; 1602.400;    0.000;    0.000
318.390; 1727.400;    0.000;    0.000
318.451; 1617.400;    0.000;    0.000
318.512; 1702.400;    0.000;    0.000
318.572; 1683.400;    0.000;    0.000
318.633; 1622.400;    0.000;    0.000
318.694; 1677.400;    0.000;    0.000
318.754; 1614.400;    0.000;    0.000
318.815; 1652.400;    0.000;    0.000
318.876; 1673.400;    0.000;    0.000
318.936; 1554.400;    0.000;    0.000
318.997; 1672.400;    0.000;    0.000
319.058; 1654.400;    0.000;    0.000
319.118; 1635.400;    0.000;    0.000
319.179; 1622.400;    0.000;    0.000
319.239; 1550.400;    0.000;    0.000
319.300; 1705.400;    0.000;    0.000
319.361; 1612.400;    0.000;    0.000
319.421; 1527.400;    0.000;    0.000
319.482; 1464.400;    0.000;    0.000
319.542; 1554.400;    0.000;    0.000
319.603; 1602.400;    0.000;    0.000
319.663; 1543.400;    0.000;    0.000
319.724; 1491.400;    0.000;    0.000
319.784; 1659.400;    0.000;    0.000
319.845; 1630.400;    0.000;    0.000
319.905; 1654.400;    0.000;    0.000
319.966; 1681.400;    0.000;    0.000
320.026; 1741.400;    0.000;    0.000
320.087; 1707.400;    0.000;    0.000
320.147; 1712.400;    0.000;    0.000
320.208; 1670.400;    0.000;    0.000
320.268; 1638.400;    0.000;    0.000
320.329; 1686.400;    0.000;    0.000
320.389; 1649.400;    0.000;    0.000
320.449; 1675.400;    0.000;    0.000
320.510; 1636.400;    0.000;    0.000
320.570; 1622.400;    0.000;    0.000
320.631; 1660.400;    0.000;    0.000
320.691; 1668.400;    0.000;    0.000
320.751; 1647.400;    0.000;    0.000
320.812; 1687.400;    0.000;    0.000
320.872; 1656.400;    0.000;    0.000
320.932; 1655.400;    0.000;    0.000
320.993; 1677.400;    0.000;    0.000
321.053; 1719.400;    0.000;    0.000
321.113; 1751.400;    0.000;    0.000
321.174; 1671.400;    0.000;    0.000
321.234; 1671.400;    0.000;    0.000
321.294; 1604.400;    0.000;    0.000
321.355; 1669.400;    0.000;    0.000
321.415; 1655.400;    0.000;    0.000
321.475; 1691.400;    0.000;    0.000
321.535; 1757.400;    0.000;    0.000
321.596; 1659.400;    0.000;    0.000
321.656; 1732.400;    0.000;    0.000
321.716; 1765.400;    0.000;    0.000
321.776; 1739.400;    0.000;    0.000
321.837; 1748.400;    0.000;    0.000
321.897; 1729.400;    0.000;    0.000
321.957; 1617.400;    0.000;    0.000
322.017; 1706.400;    0.000;    0.000
322.077; 1775.400;    0.000;    0.000
322.138; 1697.400;    0.000;    0.000
322.198; 1718.400;    0.000;    0.000
322.258; 1722.400;    0.000;    0.000
322.318; 1632.400;    0.000;    0.000
322.378; 1653.400;    0.000;    0.000
322.438; 1726.400;    0.000;    0.000
322.499; 1744.400;    0.000;    0.000
322.559; 1714.400;    0.000;    0.000
322.619; 1773.400;    0.000;    0.000
322.679; 1752.400;    0.000;    0.000
322.739; 1718.400;    0.000;    0.000
322.799; 1685.400;    0.000;    0.000
322.859; 1714.400;    0.000;    0.000
322.919; 1718.400;    0.000;    0.000
322.979; 1693.400;    0.000;    0.000
323.039; 1690.400;    0.000;    0.000
323.099; 1686.400;    0.000;    0.000
323.159; 1754.400;    0.000;    0.000
323.219; 1674.400;    0.000;    0.000
323.279; 1768.400;    0.000;    0.000
323.339; 1756.400;    0.000;    0.000
323.399; 1724.400;    0.000;    0.000
323.459; 1806.400;    0.000;    0.000
323.519; 1814.400;    0.000;    0.000
323.579; 1811.400;    0.000;    0.000
323.639; 1903.400;    0.000;    0.000
323.699; 1833.400;    0.000;    0.000
323.759; 1906.400;    0.000;    0.000
323.819; 1970.400;    0.000;    0.000
323.879; 1933.400;    0.000;    0.000
323.939; 1825.400;    0.000;    0.000
323.999; 1718.400;    0.000;    0.000
324.059; 1814.400;    0.000;    0.000
324.119; 1854.400;    0.000;    0.000
324.178; 1760.400;    0.000;    0.000
324.238; 1786.400;    0.000;    0.000
324.298; 1758.400;    0.000;    0.000
324.358; 1750.400;    0.000;    0.000
324.418; 1746.400;    0.000;    0.000
324.478; 1793.400;    0.000;    0.000
324.538; 1710.400;    0.000;    0.000
324.597; 1764.400;    0.000;    0.000
324.657; 1692.400;    0.000;    0.000
324.717; 1788.400;    0.000;    0.000
324.777; 1748.400;    0.000;    0.000
324.837; 1760.400;    0.000;    0.000
324.896; 1809.400;    0.000;    0.000
324.956; 1679.400;    0.000;    0.000
325.016; 1717.400;    0.000;    0.000
325.076; 1783.400;    0.000;    0.000
325.135; 1727.400;    0.000;    0.000
325.195; 1802.400;    0.000;    0.000
325.255; 1701.400;    0.000;    0.000
325.315; 1830.400;    0.000;    0.000
325.374; 1901.400;    0.000;    0.000
325.434; 1817.400;    0.000;    0.000
325.494; 1776.400;    0.000;    0.000
325.553; 1786.400;    0.000;    0.000
325.613; 1850.400;    0.000;    0.000
325.673; 1748.400;    0.000;    0.000
325.732; 1782.400;    0.000;    0.000
325.792; 1713.400;    0.000;    0.000
325.852; 1706.400;    0.000;    0.000
325.911; 1728.400;    0.000;    0.000
325.971; 1719.400;    0.000;    0.000
326.031; 1748.400;    0.000;    0.000
326.090; 1834.400;    0.000;    0.000
326.150; 1714.400;    0.000;    0.000
326.209; 1791.400;    0.000;    0.000
326.269; 1777.400;    0.000;    0.000
326.328; 1803.400;    0.000;    0.000
326.388; 1784.400;    0.000;    0.000
326.448; 1898.400;    0.000;    0.000
326.507; 1841.400;    0.000;    0.000
326.567; 1800.400;    0.000;    0.000
326.626; 1867.400;    0.000;    0.000
326.686; 1725.400;    0.000;    0.000
326.745; 1726.400;    0.000;    0.000
326.805; 1752.400;    0.000;    0.000
326.864; 1705.400;    0.000;    0.000
326.924; 1777.400;    0.000;    0.000
326.983; 1770.400;    0.000;    0.000
327.043; 1862.400;    0.000;    0.000
327.102; 1785.400;    0.000;    0.000
327.161; 1808.400;    0.000;    0.000
327.221; 1884.400;    0.000;    0.000
327.280; 1820.400;    0.000;    0.000
327.340; 1776.400;    0.000;    0.000
327.399; 1880.400;    0.000;    0.000
327.459; 1759.400;    0.000;    0.000
327.518; 1805.400;    0.000;    0.000
327.577; 1729.400;    0.000;    0.000
327.637; 1755.400;    0.000;    0.000
327.696; 1765.400;    0.000;    0.000
327.755; 1801.400;    0.000;    0.000
327.815; 1696.400;    0.000;    0.000
327.874; 1762.400;    0.000;    0.000
327.933; 1775.400;    0.000;    0.000
327.993; 1838.400;    0.000;    0.000
328.052; 1816.400;    0.000;    0.000
328.111; 1769.400;    0.000;    0.000
328.171; 1830.400;    0.000;    0.000
328.230; 1785.400;    0.000;    0.000
328.289; 1800.400;    0.000;    0.000
328.349; 1853.400;    0.000;    0.000
328.408; 1886.400;    0.000;    0.000
328.467; 1868.400;    0.000;    0.000
328.526; 1840.400;    0.000;    0.000
328.586; 1935.400;    0.000;    0.000
328.645; 1878.400;    0.000;    0.000
328.704; 1822.400;    0.000;    0.000
328.763; 1829.400;    0.000;    0.000
328.822; 1815.400;    0.000;    0.000
328.882; 1819.400;    0.000;    0.000
328.941; 1902.400;    0.000;    0.000
329.000; 1926.400;    0.000;    0.000
329.059; 1842.400;    0.000;    0.000
329.118; 1857.400;    0.000;    0.000
329.177; 1809.400;    0.000;    0.000
329.237; 1892.400;    0.000;    0.000
329.296; 1940.400;    0.000;    0.000
329.355; 1932.400;    0.000;    0.000
329.414; 1924.400;    0.000;    0.000
329.473; 1862.400;    0.000;    0.000
329.532; 1963.400;    0.000;    0.000
329.591; 1899.400;    0.000;    0.000
329.650; 1957.400;    0.000;    0.000
329.709; 2021.400;    0.000;    0.000
329.768; 2030.400;    0.000;    0.000
329.827; 2171.400;    0.000;    0.000
329.886; 2151.400;    0.000;    0.000
329.945; 2212.400;    0.000;    0.000
330.004; 2212.400;    0.000;    0.000
330.063; 2280.400;    0.000;    0.000
330.122; 2291.400;    0.000;    0.000
330.181; 2383.400;    0.000;    0.000
330.240; 2465.400;    0.000;    0.000
330.299; 2271.400;    0.000;    0.000
330.358; 2175.400;    0.000;    0.000
330.417; 2173.400;    0.000;    0.000
330.476; 2149.400;    0.000;    0.000
330.535; 2068.400;    0.000;    0.000
330.594; 1967.400;    0.000;    0.000
330.653; 1939.400;    0.000;    0.000
330.712; 1934.400;    0.000;    0.000
330.771; 1916.400;    0.000;    0.000
330.830; 1921.400;    0.000;    0.000
330.889; 1965.400;    0.000;    0.000
330.948; 1925.400;    0.000;    0.000
331.006; 1920.400;    0.000;    0.000
331.065; 1875.400;    0.000;    0.000
331.124; 1968.400;    0.000;    0.000
331.183; 1880.400;    0.000;    0.000
331.242; 1848.400;    0.000;    0.000
331.301; 1861.400;    0.000;    0.000
331.359; 1873.400;    0.000;    0.000
331.418; 1825.400;    0.000;    0.000
331.477; 1825.400;    0.000;    0.000
331.536; 1839.400;    0.000;    0.000
331.595; 1778.400;    0.000;    0.000
331.653; 1834.400;    0.000;    0.000
331.712; 1822.400;    0.000;    0.000
331.771; 1828.400;    0.000;    0.000
331.830; 1797.400;    0.000;    0.000
331.888; 1828.400;    0.000;    0.000
331.947; 1764.400;    0.000;    0.000
332.006; 1788.400;    0.000;    0.000
332.065; 1833.400;    0.000;    0.000
332.123; 1852.400;    0.000;    0.000
332.182; 1905.400;    0.000;    0.000
332.241; 1983.400;    0.000;    0.000
332.299; 1931.400;    0.000;    0.000
332.358; 2012.400;    0.000;    0.000
332.417; 1943.400;    0.000;    0.000
332.475; 1950.400;    0.000;    0.000
332.534; 1925.400;    0.000;    0.000
332.592; 1843.400;    0.000;    0.000
332.651; 1903.400;    0.000;    0.000
332.710; 1875.400;    0.000;    0.000
332.768; 1862.400;    0.000;    0.000
332.827; 1832.400;    0.000;    0.000
332.885; 1781.400;    0.000;    0.000
332.944; 1769.400;    0.000;    0.000
333.003; 1763.400;    0.000;    0.000
333.061; 1832.400;    0.000;    0.000
333.120; 1913.400;    0.000;    0.000
333.178; 2044.400;    0.000;    0.000
333.237; 1950.400;    0.000;    0.000
333.295; 2015.400;    0.000;    0.000
333.354; 2019.400;    0.000;    0.000
333.412; 1986.400;    0.000;    0.000
333.471; 2059.400;    0.000;    0.000
333.529; 2108.400;    0.000;    0.000
333.588; 2073.400;    0.000;    0.000
333.646; 2179.400;    0.000;    0.000
333.705; 2082.400;    0.000;    0.000
333.763; 2159.400;    0.000;    0.000
333.822; 2203.400;    0.000;    0.000
333.880; 2042.400;    0.000;    0.000
333.938; 2059.400;    0.000;    0.000
333.997; 2172.400;    0.000;    0.000
334.055; 2195.400;    0.000;    0.000
334.114; 2153.400;    0.000;    0.000
334.172; 2088.400;    0.000;    0.000
334.230; 2085.400;    0.000;    0.000
334.289; 2065.400;    0.000;    0.000
334.347; 2039.400;    0.000;    0.000
334.405; 2094.400;    0.000;    0.000
334.464; 2069.400;    0.000;    0.000
334.522; 2084.400;    0.000;    0.000
334.580; 1984.400;    0.000;    0.000
334.639; 2009.400;    0.000;    0.000
334.697; 2042.400;    0.000;    0.000
334.755; 1946.400;    0.000;    0.000
334.814; 2013.400;    0.000;    0.000
334.872; 2013.400;    0.000;    0.000
334.930; 2058.400;    0.000;    0.000
334.988; 2056.400;    0.000;    0.000
335.047; 2016.400;    0.000;    0.000
335.105; 2030.400;    0.000;    0.000
335.163; 2034.400;    0.000;    0.000
335.221; 2006.400;    0.000;    0.000
335.280; 2001.400;    0.000;    0.000
335.338; 2015.400;    0.000;    0.000
335.396; 2076.400;    0.000;    0.000
335.454; 1938.400;    0.000;    0.000
335.512; 1940.400;    0.000;    0.000
335.570; 2002.400;    0.000;    0.000
335.629; 2097.400;    0.000;    0.000
335.687; 2141.400;    0.000;    0.000
335.745; 2238.400;    0.000;    0.000
335.803; 2309.400;    0.000;    0.000
335.861; 2188.400;    0.000;    0.000
335.919; 2330.400;    0.000;    0.000
335.977; 2192.400;    0.000;    0.000
336.035; 2196.400;    0.000;    0.000
336.094; 2314.400;    0.000;    0.000
336.152; 2277.400;    0.000;    0.000
336.210; 2246.400;    0.000;    0.000
336.268; 2311.400;    0.000;    0.000
336.326; 2263.400;    0.000;    0.000
336.384; 2266.400;    0.000;    0.000
336.442; 2188.400;    0.000;    0.000
336.500; 2192.400;    0.000;    0.000
336.558; 2209.400;    0.000;    0.000
336.616; 2223.400;    0.000;    0.000
336.674; 2144.400;    0.000;    0.000
336.732; 2141.400;    0.000;    0.000
336.790; 2181.400;    0.000;    0.000
336.848; 2220.400;    0.000;    0.000
336.906; 2201.400;    0.000;    0.000
336.964; 2215.400;    0.000;    0.000
337.022; 2238.400;    0.000;    0.000
337.080; 2226.400;    0.000;    0.000
337.138; 2287.400;    0.000;    0.000
337.195; 2218.400;    0.000;    0.000
337.253; 2243.400;    0.000;    0.000
337.311; 2190.400;    0.000;    0.000
337.369; 2114.400;    0.000;    0.000
337.427; 2079.400;    0.000;    0.000
337.485; 2100.400;    0.000;    0.000
337.543; 2151.400;    0.000;    0.000
337.601; 2152.400;    0.000;    0.000
337.658; 2086.400;    0.000;    0.000
337.716; 2097.400;    0.000;    0.000
337.774; 2077.400;    0.000;    0.000
337.832; 2021.400;    0.000;    0.000
337.890; 1985.400;    0.000;    0.000
337.947; 1978.400;    0.000;    0.000
338.005; 2014.400;    0.000;    0.000
338.063; 1960.400;    0.000;    0.000
338.121; 2002.400;    0.000;    0.000
338.178; 2006.400;    0.000;    0.000
338.236; 2152.400;    0.000;    0.000
338.294; 2084.400;    0.000;    0.000
338.352; 2137.400;    0.000;    0.000
338.409; 2074.400;    0.000;    0.000
338.467; 2094.400;    0.000;    0.000
338.525; 2003.400;    0.000;    0.000
338.583; 2007.400;    0.000;    0.000
338.640; 2018.400;    0.000;    0.000
338.698; 1990.400;    0.000;    0.000
338.756; 2112.400;    0.000;    0.000
338.813; 2135.400;    0.000;    0.000
338.871; 2105.400;    0.000;    0.000
338.928; 2304.400;    0.000;    0.000
338.986; 2236.400;    0.000;    0.000
339.044; 2323.400;    0.000;    0.000
339.101; 2145.400;    0.000;    0.000
339.159; 2058.400;    0.000;    0.000
339.216; 2077.400;    0.000;    0.000
339.274; 2201.400;    0.000;    0.000
339.332; 2115.400;    0.000;    0.000
339.389; 2146.400;    0.000;    0.000
339.447; 2094.400;    0.000;    0.000
339.504; 2106.400;    0.000;    0.000
339.562; 2088.400;    0.000;    0.000
339.619; 2233.400;    0.000;    0.000
339.677; 2120.400;    0.000;    0.000
339.734; 2096.400;    0.000;    0.000
339.792; 2160.400;    0.000;    0.000
339.849; 2091.400;    0.000;    0.000
339.907; 2170.400;    0.000;    0.000
339.964; 2115.400;    0.000;    0.000
340.022; 2193.400;    0.000;    0.000
340.079; 2155.400;    0.000;    0.000
340.137; 2105.400;    0.000;    0.000
340.194; 2130.400;    0.000;    0.000
340.252; 2081.400;    0.000;    0.000
340.309; 2016.400;    0.000;    0.000
340.366; 2155.400;    0.000;    0.000
340.424; 2112.400;    0.000;    0.000
340.481; 2156.400;    0.000;    0.000
340.538; 2126.400;    0.000;    0.000
340.596; 2139.400;    0.000;    0.000
340.653; 2161.400;    0.000;    0.000
340.711; 2321.400;    0.000;    0.000
340.768; 2251.400;    0.000;    0.000
340.825; 2248.400;    0.000;    0.000
340.883; 2241.400;    0.000;    0.000
340.940; 2244.400;    0.000;    0.000
340.997; 2186.400;    0.000;    0.000
341.054; 2115.400;    0.000;    0.000
341.112; 2209.400;    0.000;    0.000
341.169; 2228.400;    0.000;    0.000
341.226; 2237.400;    0.000;    0.000
341.284; 2332.400;    0.000;    0.000
341.341; 2363.400;    0.000;    0.000
341.398; 2244.400;    0.000;    0.000
341.455; 2433.400;    0.000;    0.000
341.512; 2352.400;    0.000;    0.000
341.570; 2315.400;    0.000;    0.000
341.627; 2299.400;    0.000;    0.000
341.684; 2239.400;    0.000;    0.000
341.741; 2306.400;    0.000;    0.000
341.798; 2267.400;    0.000;    0.000
341.856; 2161.400;    0.000;    0.000
341.913; 2243.400;    0.000;    0.000
341.970; 2237.400;    0.000;    0.000
342.027; 2326.400;    0.000;    0.000
342.084; 2215.400;    0.000;    0.000
342.141; 2450.400;    0.000;    0.000
342.198; 2305.400;    0.000;    0.000
342.255; 2260.400;    0.000;    0.000
342.313; 2268.400;    0.000;    0.000
342.370; 2215.400;    0.000;    0.000
342.427; 2148.400;    0.000;    0.000
342.484; 2104.400;    0.000;    0.000
342.541; 2099.400;    0.000;    0.000
342.598; 2157.400;    0.000;    0.000
342.655; 2095.400;    0.000;    0.000
342.712; 2147.400;    0.000;    0.000
342.769; 2109.400;    0.000;    0.000
342.826; 2101.400;    0.000;    0.000
342.883; 2104.400;    0.000;    0.000
342.940; 2061.400;    0.000;    0.000
342.997; 2119.400;    0.000;    0.000
343.054; 2110.400;    0.000;    0.000
343.111; 2056.400;    0.000;    0.000
343.168; 2111.400;    0.000;    0.000
343.225; 2228.400;    0.000;    0.000
343.282; 2149.400;    0.000;    0.000
343.339; 2162.400;    0.000;    0.000
343.395; 2157.400;    0.000;    0.000
343.452; 2153.400;    0.000;    0.000
343.509; 2161.400;    0.000;    0.000
343.566; 2220.400;    0.000;    0.000
343.623; 2152.400;    0.000;    0.000
343.680; 2186.400;    0.000;    0.000
343.737; 2074.400;    0.000;    0.000
343.794; 2210.400;    0.000;    0.000
343.850; 2183.400;    0.000;    0.000
343.907; 2169.400;    0.000;    0.000
343.964; 2242.400;    0.000;    0.000
344.021; 2270.400;    0.000;    0.000
344.078; 2236.400;    0.000;    0.000
344.134; 2265.400;    0.000;    0.000
344.191; 2270.400;    0.000;    0.000
344.248; 2264.400;    0.000;    0.000
344.305; 2224.400;    0.000;    0.000
344.361; 2247.400;    0.000;    0.000
344.418; 2286.400;    0.000;    0.000
344.475; 2204.400;    0.000;    0.000
344.532; 2279.400;    0.000;    0.000
344.588; 2243.400;    0.000;    0.000
344.645; 2255.400;    0.000;    0.000
344.702; 2174.400;    0.000;    0.000
344.758; 2153.400;    0.000;    0.000
344.815; 2091.400;    0.000;    0.000
344.872; 2175.400;    0.000;    0.000
344.928; 2205.400;    0.000;    0.000
344.985; 2276.400;    0.000;    0.000
345.042; 2308.400;    0.000;    0.000
345.098; 2191.400;    0.000;    0.000
345.155; 2193.400;    0.000;    0.000
345.212; 2174.400;    0.000;    0.000
345.268; 2231.400;    0.000;    0.000
345.325; 2167.400;    0.000;    0.000
345.381; 2253.400;    0.000;    0.000
345.438; 2254.400;    0.000;    0.000
345.495; 2330.400;    0.000;    0.000
345.551; 2395.400;    0.000;    0.000
345.608; 2259.400;    0.000;    0.000
345.664; 2296.400;    0.000;    0.000
345.721; 2202.400;    0.000;    0.000
345.777; 2242.400;    0.000;    0.000
345.834; 2171.400;    0.000;    0.000
345.890; 2225.400;    0.000;    0.000
345.947; 2103.400;    0.000;    0.000
346.003; 2220.400;    0.000;    0.000
346.060; 2254.400;    0.000;    0.000
346.116; 2291.400;    0.000;    0.000
346.173; 2254.400;    0.000;    0.000
346.229; 2261.400;    0.000;    0.000
346.285; 2245.400;    0.000;    0.000
346.342; 2200.400;    0.000;    0.000
346.398; 2343.400;    0.000;    0.000
346.455; 2352.400;    0.000;    0.000
346.511; 2402.400;    0.000;    0.000
346.567; 2396.400;    0.000;    0.000
346.624; 2273.400;    0.000;    0.000
346.680; 2275.400;    0.000;    0.000
346.737; 2399.400;    0.000;    0.000
346.793; 2392.400;    0.000;    0.000
346.849; 2479.400;    0.000;    0.000
346.906; 2468.400;    0.000;    0.000
346.962; 2603.400;    0.000;    0.000
347.018; 2535.400;    0.000;    0.000
347.074; 2409.400;    0.000;    0.000
347.131; 2373.400;    0.000;    0.000
347.187; 2415.400;    0.000;    0.000
347.243; 2297.400;    0.000;    0.000
347.300; 2389.400;    0.000;    0.000
347.356; 2278.400;    0.000;    0.000
347.412; 2156.400;    0.000;    0.000
347.468; 2253.400;    0.000;    0.000
347.524; 2152.400;    0.000;    0.000
347.581; 2104.400;    0.000;    0.000
347.637; 2188.400;    0.000;    0.000
347.693; 2267.400;    0.000;    0.000
347.749; 2176.400;    0.000;    0.000
347.805; 2205.400;    0.000;    0.000
347.862; 2263.400;    0.000;    0.000
347.918; 2247.400;    0.000;    0.000
347.974; 2221.400;    0.000;    0.000
348.030; 2235.400;    0.000;    0.000
348.086; 2142.400;    0.000;    0.000
348.142; 2185.400;    0.000;    0.000
348.198; 2149.400;    0.000;    0.000
348.254; 2210.400;    0.000;    0.000
348.311; 2163.400;    0.000;    0.000
348.367; 2244.400;    0.000;    0.000
348.423; 2094.400;    0.000;    0.000
348.479; 2154.400;    0.000;    0.000
348.535; 2182.400;    0.000;    0.000
348.591; 2171.400;    0.000;    0.000
348.647; 2239.400;    0.000;    0.000
348.703; 2222.400;    0.000;    0.000
348.759; 2224.400;    0.000;    0.000
348.815; 2162.400;    0.000;    0.000
348.871; 2207.400;    0.000;    0.000
348.927; 2329.400;    0.000;    0.000
348.983; 2202.400;    0.000;    0.000
349.039; 2319.400;    0.000;    0.000
349.095; 2338.400;    0.000;    0.000
349.151; 2293.400;    0.000;    0.000
349.207; 2238.400;    0.000;    0.000
349.263; 2230.400;    0.000;    0.000
349.319; 2243.400;    0.000;    0.000
349.374; 2234.400;    0.000;    0.000
349.430; 2284.400;    0.000;    0.000
349.486; 2262.400;    0.000;    0.000
349.542; 2256.400;    0.000;    0.000
349.598; 2447.400;    0.000;    0.000
349.654; 2306.400;    0.000;    0.000
349.710; 2211.400;    0.000;    0.000
349.766; 2276.400;    0.000;    0.000
349.821; 2171.400;    0.000;    0.000
349.877; 2335.400;    0.000;    0.000
349.933; 2322.400;    0.000;    0.000
349.989; 2213.400;    0.000;    0.000
350.045; 2195.400;    0.000;    0.000
350.100; 2263.400;    0.000;    0.000
350.156; 2319.400;    0.000;    0.000
350.212; 2226.400;    0.000;    0.000
350.268; 2270.400;    0.000;    0.000
350.323; 2257.400;    0.000;    0.000
350.379; 2273.400;    0.000;    0.000
350.435; 2279.400;    0.000;    0.000
350.491; 2218.400;    0.000;    0.000
350.546; 2204.400;    0.000;    0.000
350.602; 2158.400;    0.000;    0.000
350.658; 2208.400;    0.000;    0.000
350.713; 2291.400;    0.000;    0.000
350.769; 2176.400;    0.000;    0.000
350.825; 2221.400;    0.000;    0.000
350.880; 2230.400;    0.000;    0.000
350.936; 2229.400;    0.000;    0.000
350.992; 2281.400;    0.000;    0.000
351.047; 2283.400;    0.000;    0.000
351.103; 2230.400;    0.000;    0.000
351.158; 2140.400;    0.000;    0.000
351.214; 2224.400;    0.000;    0.000
351.270; 2226.400;    0.000;    0.000
351.325; 2115.400;    0.000;    0.000
351.381; 2092.400;    0.000;    0.000
351.436; 2283.400;    0.000;    0.000
351.492; 2331.400;    0.000;    0.000
351.547; 2416.400;    0.000;    0.000
351.603; 2353.400;    0.000;    0.000
351.658; 2435.400;    0.000;    0.000
351.714; 2369.400;    0.000;    0.000
351.769; 2351.400;    0.000;    0.000
351.825; 2395.400;    0.000;    0.000
351.880; 2440.400;    0.000;    0.000
351.936; 2469.400;    0.000;    0.000
351.991; 2364.400;    0.000;    0.000
352.047; 2423.400;    0.000;    0.000
352.102; 2339.400;    0.000;    0.000
352.158; 2303.400;    0.000;    0.000
352.213; 2174.400;    0.000;    0.000
352.268; 2223.400;    0.000;    0.000
352.324; 2253.400;    0.000;    0.000
352.379; 2231.400;    0.000;    0.000
352.434; 2245.400;    0.000;    0.000
352.490; 2202.400;    0.000;    0.000
352.545; 2281.400;    0.000;    0.000
352.601; 2194.400;    0.000;    0.000
352.656; 2163.400;    0.000;    0.000
352.711; 2178.400;    0.000;    0.000
352.767; 2154.400;    0.000;    0.000
352.822; 2208.400;    0.000;    0.000
352.877; 2266.400;    0.000;    0.000
352.932; 2231.400;    0.000;    0.000
352.988; 2208.400;    0.000;    0.000
353.043; 2282.400;    0.000;    0.000
353.098; 2263.400;    0.000;    0.000
353.153; 2316.400;    0.000;    0.000
353.209; 2177.400;    0.000;    0.000
353.264; 2113.400;    0.000;    0.000
353.319; 2052.400;    0.000;    0.000
353.374; 2033.400;    0.000;    0.000
353.430; 2167.400;    0.000;    0.000
353.485; 2162.400;    0.000;    0.000
353.540; 2176.400;    0.000;    0.000
353.595; 2123.400;    0.000;    0.000
353.650; 2156.400;    0.000;    0.000
353.705; 2097.400;    0.000;    0.000
353.761; 2064.400;    0.000;    0.000
353.816; 2145.400;    0.000;    0.000
353.871; 2127.400;    0.000;    0.000
353.926; 2089.400;    0.000;    0.000
353.981; 2062.400;    0.000;    0.000
354.036; 2133.400;    0.000;    0.000
354.091; 2058.400;    0.000;    0.000
354.146; 2063.400;    0.000;    0.000
354.201; 2134.400;    0.000;    0.000
354.256; 2022.400;    0.000;    0.000
354.311; 2158.400;    0.000;    0.000
354.367; 2202.400;    0.000;    0.000
354.422; 2225.400;    0.000;    0.000
354.477; 2152.400;    0.000;    0.000
354.532; 2098.400;    0.000;    0.000
354.587; 2122.400;    0.000;    0.000
354.642; 2148.400;    0.000;    0.000
354.697; 2200.400;    0.000;    0.000
354.751; 2211.400;    0.000;    0.000
354.806; 2222.400;    0.000;    0.000
354.861; 2208.400;    0.000;    0.000
354.916; 2203.400;    0.000;    0.000
354.971; 2161.400;    0.000;    0.000
355.026; 2231.400;    0.000;    0.000
355.081; 2168.400;    0.000;    0.000
355.136; 2071.400;    0.000;    0.000
355.191; 2129.400;    0.000;    0.000
355.246; 2136.400;    0.000;    0.000
355.301; 2165.400;    0.000;    0.000
355.355; 2255.400;    0.000;    0.000
355.410; 2169.400;    0.000;    0.000
355.465; 2170.400;    0.000;    0.000
355.520; 2043.400;    0.000;    0.000
355.575; 2114.400;    0.000;    0.000
355.630; 2093.400;    0.000;    0.000
355.684; 2060.400;    0.000;    0.000
355.739; 2118.400;    0.000;    0.000
355.794; 2173.400;    0.000;    0.000
355.849; 2078.400;    0.000;    0.000
355.904; 2072.400;    0.000;    0.000
355.958; 2071.400;    0.000;    0.000
356.013; 2012.400;    0.000;    0.000
356.068; 2138.400;    0.000;    0.000
356.123; 2186.400;    0.000;    0.000
356.177; 2217.400;    0.000;    0.000
356.232; 2241.400;    0.000;    0.000
356.287; 2261.400;    0.000;    0.000
356.341; 2312.400;    0.000;    0.000
356.396; 2220.400;    0.000;    0.000
356.451; 2170.400;    0.000;    0.000
356.505; 2160.400;    0.000;    0.000
356.560; 2144.400;    0.000;    0.000
356.615; 2135.400;    0.000;    0.000
356.669; 2125.400;    0.000;    0.000
356.724; 2170.400;    0.000;    0.000
356.778; 2109.400;    0.000;    0.000
356.833; 2081.400;    0.000;    0.000
356.888; 2117.400;    0.000;    0.000
356.942; 2066.400;    0.000;    0.000
356.997; 2078.400;    0.000;    0.000
357.051; 2040.400;    0.000;    0.000
357.106; 2036.400;    0.000;    0.000
357.160; 2068.400;    0.000;    0.000
357.215; 1924.400;    0.000;    0.000
357.269; 2072.400;    0.000;    0.000
357.324; 2027.400;    0.000;    0.000
357.378; 2027.400;    0.000;    0.000
357.433; 2009.400;    0.000;    0.000
357.487; 2033.400;    0.000;    0.000
357.542; 1999.400;    0.000;    0.000
357.596; 2131.400;    0.000;    0.000
357.651; 2145.400;    0.000;    0.000
357.705; 2078.400;    0.000;    0.000
357.760; 2090.400;    0.000;    0.000
357.814; 2011.400;    0.000;    0.000
357.868; 2071.400;    0.000;    0.000
357.923; 2052.400;    0.000;    0.000
357.977; 1968.400;    0.000;    0.000
358.032; 2010.400;    0.000;    0.000
358.086; 2141.400;    0.000;    0.000
358.140; 2081.400;    0.000;    0.000
358.195; 2013.400;    0.000;    0.000
358.249; 2067.400;    0.000;    0.000
358.303; 2040.400;    0.000;    0.000
358.358; 2000.400;    0.000;    0.000
358.412; 2006.400;    0.000;    0.000
358.466; 2022.400;    0.000;    0.000
358.521; 1997.400;    0.000;    0.000
358.575; 1933.400;    0.000;    0.000
358.629; 2011.400;    0.000;    0.000
358.683; 2024.400;    0.000;    0.000
358.738; 2034.400;    0.000;    0.000
358.792; 1952.400;    0.000;    0.000
358.846; 2022.400;    0.000;    0.000
358.900; 2019.400;    0.000;    0.000
358.954; 2027.400;    0.000;    0.000
359.009; 2004.400;    0.000;    0.000
359.063; 1999.400;    0.000;    0.000
359.117; 2016.400;    0.000;    0.000
359.171; 2061.400;    0.000;    0.000
359.225; 1995.400;    0.000;    0.000
359.280; 2075.400;    0.000;    0.000
359.334; 2071.400;    0.000;    0.000
359.388; 2033.400;    0.000;    0.000
359.442; 2016.400;    0.000;    0.000
359.496; 1931.400;    0.000;    0.000
359.550; 1975.400;    0.000;    0.000
359.604; 1975.400;    0.000;    0.000
359.658; 1900.400;    0.000;    0.000
359.712; 1987.400;    0.000;    0.000
359.766; 1969.400;    0.000;    0.000
359.820; 1991.400;    0.000;    0.000
359.875; 1903.400;    0.000;    0.000
359.929; 1973.400;    0.000;    0.000
359.983; 1885.400;    0.000;    0.000
360.037; 1920.400;    0.000;    0.000
360.091; 2035.400;    0.000;    0.000
360.145; 1893.400;    0.000;    0.000
360.199; 1948.400;    0.000;    0.000
360.253; 1986.400;    0.000;    0.000
360.306; 1969.400;    0.000;    0.000
360.360; 1935.400;    0.000;    0.000
360.414; 1882.400;    0.000;    0.000
360.468; 1973.400;    0.000;    0.000
360.522; 1984.400;    0.000;    0.000
360.576; 1944.400;    0.000;    0.000
360.630; 1965.400;    0.000;    0.000
360.684; 1970.400;    0.000;    0.000
360.738; 1916.400;    0.000;    0.000
360.792; 1961.400;    0.000;    0.000
360.846; 1861.400;    0.000;    0.000
360.899; 1986.400;    0.000;    0.000
360.953; 1992.400;    0.000;    0.000
361.007; 2017.400;    0.000;    0.000
361.061; 1974.400;    0.000;    0.000
361.115; 2042.400;    0.000;    0.000
361.168; 1964.400;    0.000;    0.000
361.222; 1973.400;    0.000;    0.000
361.276; 1900.400;    0.000;    0.000
361.330; 2010.400;    0.000;    0.000
361.384; 1982.400;    0.000;    0.000
361.437; 1983.400;    0.000;    0.000
361.491; 1906.400;    0.000;    0.000
361.545; 1917.400;    0.000;    0.000
361.599; 1906.400;    0.000;    0.000
361.652; 1930.400;    0.000;    0.000
361.706; 1869.400;    0.000;    0.000
361.760; 1888.400;    0.000;    0.000
361.813; 1942.400;    0.000;    0.000
361.867; 1876.400;    0.000;    0.000
361.921; 1922.400;    0.000;    0.000
361.974; 1890.400;    0.000;    0.000
362.028; 1953.400;    0.000;    0.000
362.082; 1836.400;    0.000;    0.000
362.135; 1867.400;    0.000;    0.000
362.189; 1950.400;    0.000;    0.000
362.242; 1882.400;    0.000;    0.000
362.296; 1888.400;    0.000;    0.000
362.350; 1843.400;    0.000;    0.000
362.403; 1893.400;    0.000;    0.000
362.457; 1848.400;    0.000;    0.000
362.510; 1884.400;    0.000;    0.000
362.564; 1785.400;    0.000;    0.000
362.617; 1861.400;    0.000;    0.000
362.671; 1762.400;    0.000;    0.000
362.724; 1837.400;    0.000;    0.000
362.778; 1835.400;    0.000;    0.000
362.831; 1818.400;    0.000;    0.000
362.885; 1858.400;    0.000;    0.000
362.938; 1776.400;    0.000;    0.000
362.992;  414.400;    0.000;    0.000
363.045;  307.400;    0.000;    0.000
363.099;  300.400;    0.000;    0.000
363.152;  326.400;    0.000;    0.000
363.205;  311.400;    0.000;    0.000
363.259;  276.400;    0.000;    0.000
363.312;  323.400;    0.000;    0.000
363.366;  321.400;    0.000;    0.000
363.419;  316.400;    0.000;    0.000
363.472;  297.400;    0.000;    0.000
363.526;  303.400;    0.000;    0.000
363.579;  301.400;    0.000;    0.000
363.632;  310.400;    0.000;    0.000
363.686;  301.400;    0.000;    0.000
363.739;  302.400;    0.000;    0.000
363.792;  295.400;    0.000;    0.000

