
Integration time [ms]:   0.300
Averaging Nr. [scans]: 1
Smoothing Nr. [pixels]: 0
Data measured with spectrometer [name]: UV2
Wave   ;Sample   ;Dark     ;Reference
[nm]   ;[counts] ;[counts] ;[counts] 

353.533;  229.350;  178.050;    0.000
353.597;  227.350;  251.050;    0.000
353.660;  222.350;  213.050;    0.000
353.723;  162.350;  185.050;    0.000
353.786;  206.350;  191.050;    0.000
353.850;  223.350;  238.050;    0.000
353.913;  204.350;  181.050;    0.000
353.976;  209.350;  190.050;    0.000
354.039;  207.350;  184.050;    0.000
354.102;  227.350;  231.050;    0.000
354.166;  194.350;  188.050;    0.000
354.229;  228.350;  224.050;    0.000
354.292;  195.350;  186.050;    0.000
354.355;  220.350;  175.050;    0.000
354.418;  154.350;  191.050;    0.000
354.481;  201.350;  181.050;    0.000
354.545;  804.350;  193.050;    0.000
354.608;  822.350;  210.050;    0.000
354.671;  832.350;  183.050;    0.000
354.734;  901.350;  189.050;    0.000
354.797;  849.350;  168.050;    0.000
354.860;  910.350;  178.050;    0.000
354.923;  881.350;  236.050;    0.000
354.986;  904.350;  181.050;    0.000
355.050;  913.350;  168.050;    0.000
355.113;  835.350;  201.050;    0.000
355.176;  961.350;  206.050;    0.000
355.239;  921.350;  213.050;    0.000
355.302;  962.350;  198.050;    0.000
355.365; 1019.350;  199.050;    0.000
355.428;  960.350;  200.050;    0.000
355.491;  971.350;  232.050;    0.000
355.554;  935.350;  184.050;    0.000
355.617; 1039.350;  214.050;    0.000
355.680; 1044.350;  191.050;    0.000
355.743; 1030.350;  161.050;    0.000
355.806; 1002.350;  153.050;    0.000
355.869; 1090.350;  221.050;    0.000
355.932; 1048.350;  152.050;    0.000
355.995; 1112.350;  195.050;    0.000
356.058; 1137.350;  172.050;    0.000
356.121; 1185.350;  186.050;    0.000
356.184; 1091.350;  196.050;    0.000
356.247; 1034.350;  183.050;    0.000
356.310; 1136.350;  159.050;    0.000
356.373; 1173.350;  183.050;    0.000
356.436; 1175.350;  176.050;    0.000
356.498; 1170.350;  191.050;    0.000
356.561; 1057.350;  145.050;    0.000
356.624; 1112.350;  187.050;    0.000
356.687; 1197.350;  181.050;    0.000
356.750; 1122.350;  227.050;    0.000
356.813; 1129.350;  147.050;    0.000
356.876; 1125.350;  184.050;    0.000
356.939; 1172.350;  141.050;    0.000
357.001; 1175.350;  188.050;    0.000
357.064; 1155.350;  173.050;    0.000
357.127; 1161.350;  159.050;    0.000
357.190; 1141.350;  185.050;    0.000
357.253; 1150.350;  180.050;    0.000
357.316; 1186.350;  199.050;    0.000
357.378; 1166.350;  196.050;    0.000
357.441; 1175.350;  175.050;    0.000
357.504; 1185.350;  164.050;    0.000
357.567; 1067.350;  145.050;    0.000
357.629; 1231.350;  205.050;    0.000
357.692; 1185.350;  175.050;    0.000
357.755; 1222.350;  205.050;    0.000
357.818; 1189.350;  141.050;    0.000
357.880; 1266.350;  170.050;    0.000
357.943; 1208.350;  152.050;    0.000
358.006; 1159.350;  145.050;    0.000
358.069; 1195.350;  164.050;    0.000
358.131; 1291.350;  148.050;    0.000
358.194; 1209.350;  122.050;    0.000
358.257; 1216.350;  147.050;    0.000
358.319; 1230.350;  156.050;    0.000
358.382; 1218.350;  193.050;    0.000
358.445; 1266.350;  155.050;    0.000
358.507; 1297.350;  160.050;    0.000
358.570; 1230.350;  159.050;    0.000
358.633; 1249.350;  163.050;    0.000
358.695; 1199.350;  174.050;    0.000
358.758; 1207.350;  127.050;    0.000
358.821; 1217.350;  165.050;    0.000
358.883; 1247.350;  145.050;    0.000
358.946; 1249.350;  127.050;    0.000
359.008; 1304.350;  180.050;    0.000
359.071; 1260.350;  173.050;    0.000
359.134; 1265.350;  150.050;    0.000
359.196; 1258.350;  158.050;    0.000
359.259; 1275.350;  159.050;    0.000
359.321; 1290.350;  159.050;    0.000
359.384; 1370.350;  182.050;    0.000
359.446; 1277.350;  140.050;    0.000
359.509; 1271.350;  146.050;    0.000
359.571; 1342.350;  133.050;    0.000
359.634; 1283.350;   93.050;    0.000
359.696; 1281.350;  142.050;    0.000
359.759; 1331.350;  161.050;    0.000
359.821; 1314.350;  110.050;    0.000
359.884; 1255.350;  114.050;    0.000
359.946; 1292.350;  180.050;    0.000
360.009; 1235.350;  158.050;    0.000
360.071; 1302.350;  116.050;    0.000
360.134; 1285.350;  170.050;    0.000
360.196; 1296.350;  128.050;    0.000
360.259; 1396.350;  157.050;    0.000
360.321; 1322.350;  122.050;    0.000
360.384; 1353.350;  119.050;    0.000
360.446; 1319.350;  122.050;    0.000
360.508; 1340.350;  195.050;    0.000
360.571; 1398.350;  128.050;    0.000
360.633; 1355.350;  172.050;    0.000
360.696; 1323.350;  115.050;    0.000
360.758; 1392.350;  162.050;    0.000
360.820; 1358.350;  149.050;    0.000
360.883; 1377.350;  151.050;    0.000
360.945; 1428.350;  149.050;    0.000
361.007; 1326.350;  135.050;    0.000
361.070; 1394.350;  162.050;    0.000
361.132; 1353.350;  198.050;    0.000
361.194; 1389.350;  141.050;    0.000
361.257; 1318.350;  154.050;    0.000
361.319; 1379.350;  147.050;    0.000
361.381; 1369.350;  154.050;    0.000
361.443; 1401.350;  144.050;    0.000
361.506; 1445.350;  164.050;    0.000
361.568; 1355.350;  148.050;    0.000
361.630; 1422.350;  127.050;    0.000
361.693; 1319.350;  158.050;    0.000
361.755; 1365.350;  161.050;    0.000
361.817; 1439.350;  173.050;    0.000
361.879; 1422.350;  159.050;    0.000
361.941; 1355.350;  153.050;    0.000
362.004; 1420.350;  148.050;    0.000
362.066; 1363.350;  150.050;    0.000
362.128; 1422.350;  132.050;    0.000
362.190; 1425.350;  207.050;    0.000
362.252; 1458.350;  142.050;    0.000
362.315; 1412.350;  153.050;    0.000
362.377; 1380.350;  164.050;    0.000
362.439; 1439.350;  155.050;    0.000
362.501; 1401.350;  157.050;    0.000
362.563; 1387.350;  188.050;    0.000
362.625; 1460.350;  194.050;    0.000
362.688; 1450.350;  159.050;    0.000
362.750; 1524.350;  205.050;    0.000
362.812; 1339.350;  148.050;    0.000
362.874; 1466.350;  173.050;    0.000
362.936; 1522.350;  152.050;    0.000
362.998; 1443.350;  145.050;    0.000
363.060; 1490.350;  184.050;    0.000
363.122; 1506.350;  147.050;    0.000
363.184; 1493.350;  136.050;    0.000
363.246; 1473.350;  171.050;    0.000
363.308; 1414.350;  154.050;    0.000
363.370; 1415.350;  175.050;    0.000
363.432; 1433.350;  139.050;    0.000
363.494; 1409.350;  163.050;    0.000
363.556; 1485.350;  117.050;    0.000
363.618; 1445.350;  126.050;    0.000
363.680; 1434.350;  147.050;    0.000
363.742; 1517.350;  161.050;    0.000
363.804; 1473.350;  159.050;    0.000
363.866; 1437.350;  170.050;    0.000
363.928; 1459.350;  122.050;    0.000
363.990; 1495.350;  167.050;    0.000
364.052; 1507.350;  180.050;    0.000
364.114; 1463.350;  119.050;    0.000
364.176; 1547.350;  184.050;    0.000
364.238; 1472.350;  180.050;    0.000
364.300; 1534.350;  159.050;    0.000
364.362; 1512.350;  163.050;    0.000
364.424; 1464.350;  139.050;    0.000
364.486; 1492.350;  189.050;    0.000
364.548; 1486.350;  167.050;    0.000
364.609; 1467.350;  165.050;    0.000
364.671; 1568.350;  171.050;    0.000
364.733; 1502.350;  165.050;    0.000
364.795; 1516.350;  122.050;    0.000
364.857; 1495.350;  147.050;    0.000
364.919; 1510.350;  104.050;    0.000
364.981; 1480.350;  143.050;    0.000
365.042; 1439.350;  166.050;    0.000
365.104; 1448.350;  162.050;    0.000
365.166; 1492.350;  155.050;    0.000
365.228; 1551.350;  179.050;    0.000
365.290; 1502.350;  133.050;    0.000
365.351; 1514.350;  142.050;    0.000
365.413; 1450.350;  144.050;    0.000
365.475; 1544.350;  139.050;    0.000
365.537; 1492.350;  181.050;    0.000
365.598; 1543.350;  166.050;    0.000
365.660; 1477.350;  130.050;    0.000
365.722; 1523.350;  177.050;    0.000
365.784; 1500.350;  149.050;    0.000
365.845; 1482.350;  156.050;    0.000
365.907; 1494.350;  122.050;    0.000
365.969; 1567.350;  140.050;    0.000
366.030; 1504.350;  156.050;    0.000
366.092; 1576.350;  140.050;    0.000
366.154; 1527.350;  169.050;    0.000
366.215; 1555.350;  170.050;    0.000
366.277; 1476.350;  143.050;    0.000
366.339; 1540.350;  139.050;    0.000
366.400; 1476.350;  139.050;    0.000
366.462; 1502.350;  140.050;    0.000
366.524; 1540.350;  150.050;    0.000
366.585; 1492.350;  163.050;    0.000
366.647; 1530.350;  193.050;    0.000
366.708; 1538.350;  135.050;    0.000
366.770; 1589.350;  165.050;    0.000
366.832; 1586.350;  168.050;    0.000
366.893; 1550.350;  157.050;    0.000
366.955; 1569.350;  132.050;    0.000
367.016; 1521.350;  127.050;    0.000
367.078; 1591.350;  146.050;    0.000
367.139; 1555.350;  129.050;    0.000
367.201; 1603.350;  148.050;    0.000
367.262; 1621.350;  165.050;    0.000
367.324; 1591.350;  171.050;    0.000
367.385; 1566.350;  118.050;    0.000
367.447; 1614.350;  144.050;    0.000
367.508; 1668.350;  135.050;    0.000
367.570; 1491.350;  160.050;    0.000
367.631; 1616.350;  157.050;    0.000
367.693; 1603.350;  168.050;    0.000
367.754; 1627.350;  139.050;    0.000
367.816; 1602.350;  141.050;    0.000
367.877; 1648.350;  195.050;    0.000
367.939; 1648.350;  166.050;    0.000
368.000; 1616.350;  127.050;    0.000
368.062; 1594.350;  143.050;    0.000
368.123; 1549.350;  156.050;    0.000
368.184; 1576.350;  179.050;    0.000
368.246; 1548.350;  168.050;    0.000
368.307; 1612.350;  203.050;    0.000
368.369; 1563.350;  149.050;    0.000
368.430; 1617.350;  121.050;    0.000
368.491; 1626.350;  131.050;    0.000
368.553; 1682.350;  161.050;    0.000
368.614; 1602.350;  157.050;    0.000
368.675; 1640.350;  152.050;    0.000
368.737; 1661.350;  168.050;    0.000
368.798; 1675.350;  147.050;    0.000
368.859; 1671.350;  174.050;    0.000
368.921; 1593.350;  168.050;    0.000
368.982; 1594.350;  151.050;    0.000
369.043; 1695.350;  169.050;    0.000
369.104; 1588.350;  149.050;    0.000
369.166; 1650.350;  178.050;    0.000
369.227; 1599.350;  149.050;    0.000
369.288; 1647.350;  131.050;    0.000
369.349; 1642.350;  128.050;    0.000
369.411; 1618.350;  198.050;    0.000
369.472; 1705.350;  156.050;    0.000
369.533; 1596.350;  142.050;    0.000
369.594; 1602.350;  125.050;    0.000
369.656; 1649.350;  153.050;    0.000
369.717; 1579.350;  124.050;    0.000
369.778; 1661.350;  163.050;    0.000
369.839; 1658.350;  130.050;    0.000
369.900; 1681.350;  170.050;    0.000
369.961; 1631.350;  142.050;    0.000
370.023; 1702.350;  197.050;    0.000
370.084; 1679.350;  151.050;    0.000
370.145; 1641.350;  128.050;    0.000
370.206; 1655.350;  152.050;    0.000
370.267; 1672.350;  154.050;    0.000
370.328; 1629.350;  154.050;    0.000
370.389; 1692.350;  173.050;    0.000
370.451; 1669.350;  191.050;    0.000
370.512; 1688.350;  155.050;    0.000
370.573; 1768.350;  134.050;    0.000
370.634; 1715.350;  160.050;    0.000
370.695; 1660.350;  124.050;    0.000
370.756; 1677.350;  169.050;    0.000
370.817; 1694.350;  169.050;    0.000
370.878; 1762.350;  200.050;    0.000
370.939; 1612.350;  157.050;    0.000
371.000; 1708.350;  131.050;    0.000
371.061; 1671.350;  136.050;    0.000
371.122; 1715.350;  176.050;    0.000
371.183; 1667.350;   81.050;    0.000
371.244; 1734.350;  156.050;    0.000
371.305; 1738.350;  131.050;    0.000
371.366; 1656.350;  161.050;    0.000
371.427; 1738.350;  127.050;    0.000
371.488; 1698.350;  184.050;    0.000
371.549; 1685.350;  159.050;    0.000
371.610; 1715.350;  147.050;    0.000
371.671; 1700.350;  132.050;    0.000
371.732; 1695.350;  163.050;    0.000
371.793; 1757.350;  179.050;    0.000
371.853; 1689.350;  179.050;    0.000
371.914; 1732.350;  149.050;    0.000
371.975; 1766.350;  117.050;    0.000
372.036; 1764.350;  141.050;    0.000
372.097; 1669.350;  101.050;    0.000
372.158; 1725.350;  115.050;    0.000
372.219; 1822.350;  174.050;    0.000
372.280; 1693.350;  134.050;    0.000
372.340; 1778.350;  180.050;    0.000
372.401; 1749.350;  166.050;    0.000
372.462; 1707.350;  171.050;    0.000
372.523; 1659.350;  132.050;    0.000
372.584; 1685.350;  182.050;    0.000
372.645; 1717.350;  149.050;    0.000
372.705; 1739.350;  182.050;    0.000
372.766; 1776.350;  145.050;    0.000
372.827; 1772.350;  161.050;    0.000
372.888; 1717.350;  156.050;    0.000
372.948; 1685.350;  158.050;    0.000
373.009; 1750.350;  178.050;    0.000
373.070; 1746.350;  166.050;    0.000
373.131; 1766.350;  154.050;    0.000
373.191; 1797.350;  193.050;    0.000
373.252; 1763.350;  148.050;    0.000
373.313; 1743.350;  152.050;    0.000
373.373; 1729.350;  156.050;    0.000
373.434; 1805.350;  166.050;    0.000
373.495; 1787.350;  152.050;    0.000
373.555; 1742.350;  145.050;    0.000
373.616; 1716.350;  141.050;    0.000
373.677; 1747.350;  169.050;    0.000
373.737; 1763.350;  166.050;    0.000
373.798; 1706.350;  151.050;    0.000
373.859; 1765.350;  170.050;    0.000
373.919; 1812.350;  206.050;    0.000
373.980; 1818.350;  140.050;    0.000
374.041; 1724.350;  148.050;    0.000
374.101; 1797.350;  165.050;    0.000
374.162; 1801.350;  166.050;    0.000
374.222; 1794.350;  156.050;    0.000
374.283; 1833.350;  161.050;    0.000
374.343; 1822.350;  185.050;    0.000
374.404; 1751.350;  148.050;    0.000
374.465; 1899.350;  162.050;    0.000
374.525; 1795.350;  177.050;    0.000
374.586; 1789.350;  164.050;    0.000
374.646; 1869.350;  180.050;    0.000
374.707; 1900.350;  203.050;    0.000
374.767; 1866.350;  148.050;    0.000
374.828; 1896.350;  142.050;    0.000
374.888; 1915.350;  187.050;    0.000
374.949; 1909.350;  137.050;    0.000
375.009; 1856.350;  155.050;    0.000
375.070; 1929.350;  165.050;    0.000
375.130; 1854.350;  168.050;    0.000
375.190; 1862.350;  157.050;    0.000
375.251; 1931.350;  206.050;    0.000
375.311; 1816.350;  141.050;    0.000
375.372; 1837.350;  144.050;    0.000
375.432; 1865.350;  153.050;    0.000
375.493; 1883.350;  168.050;    0.000
375.553; 1758.350;  146.050;    0.000
375.613; 1852.350;  142.050;    0.000
375.674; 1919.350;  153.050;    0.000
375.734; 1925.350;  166.050;    0.000
375.794; 1802.350;  145.050;    0.000
375.855; 1837.350;  162.050;    0.000
375.915; 1902.350;  162.050;    0.000
375.975; 1866.350;  144.050;    0.000
376.036; 1895.350;  128.050;    0.000
376.096; 1863.350;  122.050;    0.000
376.156; 1841.350;  140.050;    0.000
376.217; 1835.350;  158.050;    0.000
376.277; 1879.350;  163.050;    0.000
376.337; 1848.350;  139.050;    0.000
376.398; 1810.350;  176.050;    0.000
376.458; 1827.350;  143.050;    0.000
376.518; 1894.350;  136.050;    0.000
376.578; 1874.350;  177.050;    0.000
376.639; 1894.350;  163.050;    0.000
376.699; 1927.350;  183.050;    0.000
376.759; 1898.350;  169.050;    0.000
376.819; 1871.350;  147.050;    0.000
376.880; 1951.350;  188.050;    0.000
376.940; 1777.350;  185.050;    0.000
377.000; 1868.350;  131.050;    0.000
377.060; 1891.350;  182.050;    0.000
377.120; 1902.350;  165.050;    0.000
377.180; 1894.350;  169.050;    0.000
377.241; 1879.350;  146.050;    0.000
377.301; 1936.350;  183.050;    0.000
377.361; 1806.350;  124.050;    0.000
377.421; 1881.350;  186.050;    0.000
377.481; 1883.350;  178.050;    0.000
377.541; 1864.350;  140.050;    0.000
377.601; 1952.350;  175.050;    0.000
377.661; 1933.350;  169.050;    0.000
377.722; 1941.350;  144.050;    0.000
377.782; 1864.350;  182.050;    0.000
377.842; 1930.350;  161.050;    0.000
377.902; 1968.350;  151.050;    0.000
377.962; 1997.350;  134.050;    0.000
378.022; 1897.350;  153.050;    0.000
378.082; 1968.350;  178.050;    0.000
378.142; 1933.350;  118.050;    0.000
378.202; 1980.350;  153.050;    0.000
378.262; 1887.350;  166.050;    0.000
378.322; 1899.350;  174.050;    0.000
378.382; 1984.350;  148.050;    0.000
378.442; 2011.350;  190.050;    0.000
378.502; 1938.350;  136.050;    0.000
378.562; 1948.350;  130.050;    0.000
378.622; 2074.350;  188.050;    0.000
378.682; 1932.350;  163.050;    0.000
378.742; 1962.350;  150.050;    0.000
378.802; 2019.350;  127.050;    0.000
378.862; 2018.350;  186.050;    0.000
378.921; 1985.350;  203.050;    0.000
378.981; 2082.350;  177.050;    0.000
379.041; 2041.350;  134.050;    0.000
379.101; 2028.350;  167.050;    0.000
379.161; 2035.350;  130.050;    0.000
379.221; 2097.350;  169.050;    0.000
379.281; 2117.350;  162.050;    0.000
379.341; 2079.350;  134.050;    0.000
379.401; 2088.350;  151.050;    0.000
379.460; 2076.350;  190.050;    0.000
379.520; 2157.350;  158.050;    0.000
379.580; 2103.350;  162.050;    0.000
379.640; 2166.350;  146.050;    0.000
379.700; 2124.350;  167.050;    0.000
379.759; 2144.350;  194.050;    0.000
379.819; 2109.350;  176.050;    0.000
379.879; 2088.350;  140.050;    0.000
379.939; 2133.350;  184.050;    0.000
379.999; 2122.350;  165.050;    0.000
380.058; 2174.350;  194.050;    0.000
380.118; 2125.350;  137.050;    0.000
380.178; 2126.350;  139.050;    0.000
380.237; 2183.350;  139.050;    0.000
380.297; 2121.350;  160.050;    0.000
380.357; 2175.350;  194.050;    0.000
380.417; 2133.350;  174.050;    0.000
380.476; 2153.350;  153.050;    0.000
380.536; 2196.350;  169.050;    0.000
380.596; 2133.350;  159.050;    0.000
380.655; 2200.350;  178.050;    0.000
380.715; 2233.350;  196.050;    0.000
380.775; 2193.350;  202.050;    0.000
380.834; 2218.350;  186.050;    0.000
380.894; 2211.350;  167.050;    0.000
380.954; 2214.350;  150.050;    0.000
381.013; 2293.350;  187.050;    0.000
381.073; 2215.350;  114.050;    0.000
381.132; 2287.350;  176.050;    0.000
381.192; 2248.350;  197.050;    0.000
381.252; 2301.350;  172.050;    0.000
381.311; 2239.350;  155.050;    0.000
381.371; 2222.350;  172.050;    0.000
381.430; 2348.350;  143.050;    0.000
381.490; 2308.350;  136.050;    0.000
381.549; 2169.350;  131.050;    0.000
381.609; 2316.350;  203.050;    0.000
381.668; 2341.350;  135.050;    0.000
381.728; 2398.350;  163.050;    0.000
381.787; 2368.350;  195.050;    0.000
381.847; 2427.350;  185.050;    0.000
381.906; 2328.350;  187.050;    0.000
381.966; 2413.350;  153.050;    0.000
382.025; 2517.350;  175.050;    0.000
382.085; 2492.350;  195.050;    0.000
382.144; 2542.350;  210.050;    0.000
382.204; 2478.350;  201.050;    0.000
382.263; 2471.350;  178.050;    0.000
382.323; 2567.350;  151.050;    0.000
382.382; 2600.350;  147.050;    0.000
382.441; 2661.350;  144.050;    0.000
382.501; 2769.350;  156.050;    0.000
382.560; 2842.350;  160.050;    0.000
382.619; 2880.350;  173.050;    0.000
382.679; 2934.350;  167.050;    0.000
382.738; 3117.350;  189.050;    0.000
382.798; 3299.350;  181.050;    0.000
382.857; 3523.350;  161.050;    0.000
382.916; 3864.350;  162.050;    0.000
382.976; 4069.350;  169.050;    0.000
383.035; 3695.350;  174.050;    0.000
383.094; 3904.350;  178.050;    0.000
383.154; 4334.350;  188.050;    0.000
383.213; 5234.350;  162.050;    0.000
383.272; 4933.350;  144.050;    0.000
383.331; 3970.350;  144.050;    0.000
383.391; 3700.350;  198.050;    0.000
383.450; 3491.350;  185.050;    0.000
383.509; 3635.350;  132.050;    0.000
383.568; 3731.350;  171.050;    0.000
383.628; 3877.350;  171.050;    0.000
383.687; 4146.350;  172.050;    0.000
383.746; 4910.350;  144.050;    0.000
383.805; 5890.350;  177.050;    0.000
383.864; 5950.350;  145.050;    0.000
383.924; 4457.350;  203.050;    0.000
383.983; 3647.350;  153.050;    0.000
384.042; 3327.350;  171.050;    0.000
384.101; 3199.350;  186.050;    0.000
384.160; 3005.350;  132.050;    0.000
384.219; 2965.350;  157.050;    0.000
384.279; 2838.350;  166.050;    0.000
384.338; 2792.350;  141.050;    0.000
384.397; 2760.350;  142.050;    0.000
384.456; 2679.350;  155.050;    0.000
384.515; 2673.350;  158.050;    0.000
384.574; 2713.350;  208.050;    0.000
384.633; 2628.350;  158.050;    0.000
384.692; 2574.350;  162.050;    0.000
384.751; 2622.350;  179.050;    0.000
384.810; 2637.350;  150.050;    0.000
384.869; 2663.350;  147.050;    0.000
384.929; 2606.350;  132.050;    0.000
384.988; 2613.350;  166.050;    0.000
385.047; 2493.350;  161.050;    0.000
385.106; 2571.350;  180.050;    0.000
385.165; 2544.350;  123.050;    0.000
385.224; 2647.350;  153.050;    0.000
385.283; 2501.350;  158.050;    0.000
385.342; 2577.350;  184.050;    0.000
385.401; 2582.350;  191.050;    0.000
385.459; 2622.350;  143.050;    0.000
385.518; 2578.350;  152.050;    0.000
385.577; 2581.350;  134.050;    0.000
385.636; 2577.350;  187.050;    0.000
385.695; 2517.350;  141.050;    0.000
385.754; 2625.350;  143.050;    0.000
385.813; 2589.350;  145.050;    0.000
385.872; 2477.350;  116.050;    0.000
385.931; 2571.350;  147.050;    0.000
385.990; 2587.350;  170.050;    0.000
386.049; 2667.350;  189.050;    0.000
386.107; 2557.350;  122.050;    0.000
386.166; 2657.350;  155.050;    0.000
386.225; 2528.350;  173.050;    0.000
386.284; 2668.350;  138.050;    0.000
386.343; 2598.350;  216.050;    0.000
386.402; 2521.350;  162.050;    0.000
386.460; 2509.350;  131.050;    0.000
386.519; 2466.350;  122.050;    0.000
386.578; 2522.350;  140.050;    0.000
386.637; 2541.350;  169.050;    0.000
386.696; 2553.350;  176.050;    0.000
386.754; 2507.350;  127.050;    0.000
386.813; 2647.350;  138.050;    0.000
386.872; 2515.350;  135.050;    0.000
386.931; 2611.350;  170.050;    0.000
386.989; 2523.350;  167.050;    0.000
387.048; 2528.350;  131.050;    0.000
387.107; 2620.350;  176.050;    0.000
387.165; 2572.350;  139.050;    0.000
387.224; 2506.350;  150.050;    0.000
387.283; 2566.350;  169.050;    0.000
387.342; 2450.350;  191.050;    0.000
387.400; 2534.350;  131.050;    0.000
387.459; 2510.350;  139.050;    0.000
387.517; 2543.350;  214.050;    0.000
387.576; 2497.350;  146.050;    0.000
387.635; 2551.350;  161.050;    0.000
387.693; 2565.350;  197.050;    0.000
387.752; 2473.350;  159.050;    0.000
387.811; 2520.350;  144.050;    0.000
387.869; 2595.350;  172.050;    0.000
387.928; 2460.350;  160.050;    0.000
387.986; 2479.350;  192.050;    0.000
388.045; 2477.350;  121.050;    0.000
388.103; 2502.350;  129.050;    0.000
388.162; 2510.350;  169.050;    0.000
388.221; 2588.350;  171.050;    0.000
388.279; 2488.350;  135.050;    0.000
388.338; 2535.350;  222.050;    0.000
388.396; 2559.350;  168.050;    0.000
388.455; 2527.350;  178.050;    0.000
388.513; 2474.350;  151.050;    0.000
388.572; 2582.350;  147.050;    0.000
388.630; 2502.350;  158.050;    0.000
388.689; 2476.350;  163.050;    0.000
388.747; 2452.350;  180.050;    0.000
388.806; 2465.350;  119.050;    0.000
388.864; 2463.350;  159.050;    0.000
388.922; 2553.350;  152.050;    0.000
388.981; 2446.350;  125.050;    0.000
389.039; 2492.350;  151.050;    0.000
389.098; 2547.350;  151.050;    0.000
389.156; 2510.350;  175.050;    0.000
389.214; 2489.350;  133.050;    0.000
389.273; 2527.350;  142.050;    0.000
389.331; 2546.350;  179.050;    0.000
389.390; 2446.350;  179.050;    0.000
389.448; 2493.350;  159.050;    0.000
389.506; 2529.350;  140.050;    0.000
389.565; 2470.350;  160.050;    0.000
389.623; 2569.350;  181.050;    0.000
389.681; 2547.350;  181.050;    0.000
389.740; 2591.350;  187.050;    0.000
389.798; 2485.350;  163.050;    0.000
389.856; 2521.350;  185.050;    0.000
389.914; 2581.350;  170.050;    0.000
389.973; 2410.350;  150.050;    0.000
390.031; 2514.350;  149.050;    0.000
390.089; 2527.350;  191.050;    0.000
390.147; 2503.350;  126.050;    0.000
390.206; 2581.350;  174.050;    0.000
390.264; 2527.350;  164.050;    0.000
390.322; 2507.350;  150.050;    0.000
390.380; 2494.350;  137.050;    0.000
390.439; 2468.350;  176.050;    0.000
390.497; 2553.350;  188.050;    0.000
390.555; 2568.350;  143.050;    0.000
390.613; 2628.350;  174.050;    0.000
390.671; 2519.350;  208.050;    0.000
390.729; 2490.350;  135.050;    0.000
390.788; 2615.350;  169.050;    0.000
390.846; 2516.350;  173.050;    0.000
390.904; 2504.350;  176.050;    0.000
390.962; 2558.350;  179.050;    0.000
391.020; 2577.350;  201.050;    0.000
391.078; 2584.350;  192.050;    0.000
391.136; 2598.350;  170.050;    0.000
391.194; 2534.350;  163.050;    0.000
391.253; 2603.350;  203.050;    0.000
391.311; 2615.350;  170.050;    0.000
391.369; 2706.350;  191.050;    0.000
391.427; 2605.350;  226.050;    0.000
391.485; 2667.350;  181.050;    0.000
391.543; 2636.350;  177.050;    0.000
391.601; 2688.350;  150.050;    0.000
391.659; 2747.350;  201.050;    0.000
391.717; 2719.350;  166.050;    0.000
391.775; 2534.350;  200.050;    0.000
391.833; 2614.350;  180.050;    0.000
391.891; 2712.350;  172.050;    0.000
391.949; 2702.350;  174.050;    0.000
392.007; 2662.350;  194.050;    0.000
392.065; 2747.350;  161.050;    0.000
392.123; 2647.350;  159.050;    0.000
392.180; 2678.350;  193.050;    0.000
392.238; 2693.350;  188.050;    0.000
392.296; 2757.350;  206.050;    0.000
392.354; 2700.350;  170.050;    0.000
392.412; 2680.350;  207.050;    0.000
392.470; 2671.350;  168.050;    0.000
392.528; 2691.350;  185.050;    0.000
392.586; 2713.350;  154.050;    0.000
392.644; 2660.350;  190.050;    0.000
392.701; 2722.350;  195.050;    0.000
392.759; 2820.350;  229.050;    0.000
392.817; 2670.350;  176.050;    0.000
392.875; 2793.350;  198.050;    0.000
392.933; 2688.350;  174.050;    0.000
392.991; 2743.350;  237.050;    0.000
393.048; 2766.350;  212.050;    0.000
393.106; 2757.350;  191.050;    0.000
393.164; 2751.350;  136.050;    0.000
393.222; 2748.350;  164.050;    0.000
393.279; 2832.350;  208.050;    0.000
393.337; 2979.350;  203.050;    0.000
393.395; 3073.350;  191.050;    0.000
393.453; 2896.350;  153.050;    0.000
393.510; 2766.350;  171.050;    0.000
393.568; 2858.350;  203.050;    0.000
393.626; 2698.350;  169.050;    0.000
393.684; 2701.350;  201.050;    0.000
393.741; 2770.350;  172.050;    0.000
393.799; 2779.350;  149.050;    0.000
393.857; 2701.350;  151.050;    0.000
393.914; 2835.350;  192.050;    0.000
393.972; 2809.350;  176.050;    0.000
394.030; 2869.350;  165.050;    0.000
394.087; 2822.350;  192.050;    0.000
394.145; 2827.350;  183.050;    0.000
394.202; 2768.350;  161.050;    0.000
394.260; 2733.350;  135.050;    0.000
394.318; 2767.350;  188.050;    0.000
394.375; 2805.350;  163.050;    0.000
394.433; 2868.350;  151.050;    0.000
394.490; 2870.350;  190.050;    0.000
394.548; 2773.350;  157.050;    0.000
394.605; 2804.350;  205.050;    0.000
394.663; 2845.350;  173.050;    0.000
394.720; 2832.350;  171.050;    0.000
394.778; 2909.350;  190.050;    0.000
394.836; 2803.350;  134.050;    0.000
394.893; 2846.350;  142.050;    0.000
394.951; 2827.350;  192.050;    0.000
395.008; 2952.350;  149.050;    0.000
395.065; 2897.350;  194.050;    0.000
395.123; 2844.350;  160.050;    0.000
395.180; 2881.350;  178.050;    0.000
395.238; 2854.350;  191.050;    0.000
395.295; 2920.350;  160.050;    0.000
395.353; 2913.350;  162.050;    0.000
395.410; 2954.350;  165.050;    0.000
395.468; 3001.350;  190.050;    0.000
395.525; 3023.350;  173.050;    0.000
395.582; 3020.350;  161.050;    0.000
395.640; 2981.350;  200.050;    0.000
395.697; 3009.350;  198.050;    0.000
395.754; 2909.350;  136.050;    0.000
395.812; 2940.350;  172.050;    0.000
395.869; 3008.350;  172.050;    0.000
395.927; 2875.350;  145.050;    0.000
395.984; 3001.350;  220.050;    0.000
396.041; 2857.350;  137.050;    0.000
396.098; 3022.350;  161.050;    0.000
396.156; 3002.350;  159.050;    0.000
396.213; 3006.350;  200.050;    0.000
396.270; 3035.350;  209.050;    0.000
396.328; 2887.350;  162.050;    0.000
396.385; 2971.350;  186.050;    0.000
396.442; 2969.350;  177.050;    0.000
396.499; 2911.350;  183.050;    0.000
396.557; 3008.350;  182.050;    0.000
396.614; 2948.350;  186.050;    0.000
396.671; 2992.350;  144.050;    0.000
396.728; 2937.350;  176.050;    0.000
396.785; 3018.350;  169.050;    0.000
396.843; 3118.350;  134.050;    0.000
396.900; 3152.350;  184.050;    0.000
396.957; 3066.350;  197.050;    0.000
397.014; 3049.350;  187.050;    0.000
397.071; 3085.350;  186.050;    0.000
397.128; 3133.350;  200.050;    0.000
397.186; 3090.350;  175.050;    0.000
397.243; 3149.350;  154.050;    0.000
397.300; 3125.350;  191.050;    0.000
397.357; 3249.350;  238.050;    0.000
397.414; 3167.350;  161.050;    0.000
397.471; 3103.350;  135.050;    0.000
397.528; 3081.350;  158.050;    0.000
397.585; 3157.350;  159.050;    0.000
397.642; 3141.350;  180.050;    0.000
397.699; 3174.350;  170.050;    0.000
397.756; 3104.350;  175.050;    0.000
397.814; 3123.350;  182.050;    0.000
397.871; 3173.350;  173.050;    0.000
397.928; 3179.350;  173.050;    0.000
397.985; 3137.350;  176.050;    0.000
398.042; 3186.350;  189.050;    0.000
398.099; 3066.350;  160.050;    0.000
398.156; 3197.350;  218.050;    0.000
398.212; 3208.350;  194.050;    0.000
398.269; 3263.350;  199.050;    0.000
398.326; 3181.350;  188.050;    0.000
398.383; 3307.350;  187.050;    0.000
398.440; 3155.350;  174.050;    0.000
398.497; 3256.350;  214.050;    0.000
398.554; 3356.350;  181.050;    0.000
398.611; 3315.350;  195.050;    0.000
398.668; 3194.350;  145.050;    0.000
398.725; 3294.350;  178.050;    0.000
398.782; 3344.350;  210.050;    0.000
398.839; 3302.350;  216.050;    0.000
398.895; 3438.350;  189.050;    0.000
398.952; 3483.350;  206.050;    0.000
399.009; 3453.350;  142.050;    0.000
399.066; 3530.350;  192.050;    0.000
399.123; 3595.350;  181.050;    0.000
399.180; 3523.350;  200.050;    0.000
399.236; 3610.350;  156.050;    0.000
399.293; 3731.350;  194.050;    0.000
399.350; 3733.350;  167.050;    0.000
399.407; 3924.350;  192.050;    0.000
399.463; 3950.350;  161.050;    0.000
399.520; 4065.350;  149.050;    0.000
399.577; 4084.350;  156.050;    0.000
399.634; 4091.350;  195.050;    0.000
399.690; 4040.350;  163.050;    0.000
399.747; 4065.350;  192.050;    0.000
399.804; 4043.350;  212.050;    0.000
399.861; 4060.350;  203.050;    0.000
399.917; 3910.350;  221.050;    0.000
399.974; 3950.350;  221.050;    0.000
400.031; 3875.350;  195.050;    0.000
400.087; 3708.350;  159.050;    0.000
400.144; 3920.350;  201.050;    0.000
400.201; 3711.350;  206.050;    0.000
400.257; 3727.350;  168.050;    0.000
400.314; 3704.350;  183.050;    0.000
400.370; 3716.350;  209.050;    0.000
400.427; 3582.350;  192.050;    0.000
400.484; 3568.350;  150.050;    0.000
400.540; 3564.350;  213.050;    0.000
400.597; 3554.350;  161.050;    0.000
400.653; 3550.350;  170.050;    0.000
400.710; 3621.350;  173.050;    0.000
400.766; 3604.350;  204.050;    0.000
400.823; 3540.350;  194.050;    0.000
400.879; 3573.350;  188.050;    0.000
400.936; 3537.350;  172.050;    0.000
400.993; 3573.350;  154.050;    0.000
401.049; 3440.350;  157.050;    0.000
401.105; 3544.350;  214.050;    0.000
401.162; 3515.350;  195.050;    0.000
401.218; 3585.350;  195.050;    0.000
401.275; 3551.350;  182.050;    0.000
401.331; 3458.350;  188.050;    0.000
401.388; 3466.350;  194.050;    0.000
401.444; 3444.350;  175.050;    0.000
401.501; 3551.350;  169.050;    0.000
401.557; 3576.350;  176.050;    0.000
401.614; 3511.350;  153.050;    0.000
401.670; 3513.350;  178.050;    0.000
401.726; 3620.350;  179.050;    0.000
401.783; 3504.350;  198.050;    0.000
401.839; 3608.350;  179.050;    0.000
401.895; 3570.350;  154.050;    0.000
401.952; 3553.350;  138.050;    0.000
402.008; 3530.350;  135.050;    0.000
402.064; 3518.350;  154.050;    0.000
402.121; 3508.350;  199.050;    0.000
402.177; 3601.350;  126.050;    0.000
402.233; 3621.350;  190.050;    0.000
402.290; 3437.350;  175.050;    0.000
402.346; 3621.350;  200.050;    0.000
402.402; 3638.350;  191.050;    0.000
402.458; 3601.350;  172.050;    0.000
402.515; 3683.350;  186.050;    0.000
402.571; 3665.350;  189.050;    0.000
402.627; 3687.350;  151.050;    0.000
402.683; 3619.350;  187.050;    0.000
402.740; 3593.350;  147.050;    0.000
402.796; 3578.350;  176.050;    0.000
402.852; 3707.350;  200.050;    0.000
402.908; 3706.350;  201.050;    0.000
402.964; 3652.350;  153.050;    0.000
403.021; 3739.350;  165.050;    0.000
403.077; 3669.350;  195.050;    0.000
403.133; 3822.350;  139.050;    0.000
403.189; 3653.350;  166.050;    0.000
403.245; 3634.350;  194.050;    0.000
403.301; 3772.350;  210.050;    0.000
403.357; 3761.350;  187.050;    0.000
403.414; 3711.350;  195.050;    0.000
403.470; 3771.350;  150.050;    0.000
403.526; 3661.350;  158.050;    0.000
403.582; 3744.350;  184.050;    0.000
403.638; 3807.350;  171.050;    0.000
403.694; 3876.350;  197.050;    0.000
403.750; 3878.350;  196.050;    0.000
403.806; 3935.350;  192.050;    0.000
403.862; 3786.350;  169.050;    0.000
403.918; 3896.350;  199.050;    0.000
403.974; 3940.350;  156.050;    0.000
404.030; 3817.350;  193.050;    0.000
404.086; 3692.350;  161.050;    0.000
404.142; 3807.350;  172.050;    0.000
404.198; 3882.350;  195.050;    0.000
404.254; 3868.350;  167.050;    0.000
404.310; 3879.350;  156.050;    0.000
404.366; 3894.350;  144.050;    0.000
404.422; 3782.350;  161.050;    0.000
404.478; 3847.350;  179.050;    0.000
404.534; 3798.350;  163.050;    0.000
404.590; 3760.350;  183.050;    0.000
404.646; 3841.350;  155.050;    0.000
404.701; 3899.350;  142.050;    0.000
404.757; 3844.350;  175.050;    0.000
404.813; 3923.350;  153.050;    0.000
404.869; 3888.350;  199.050;    0.000
404.925; 3861.350;  153.050;    0.000
404.981; 3886.350;  174.050;    0.000
405.037; 3768.350;  185.050;    0.000
405.092; 3818.350;  166.050;    0.000
405.148; 3834.350;  161.050;    0.000
405.204; 3819.350;  170.050;    0.000
405.260; 3759.350;  154.050;    0.000
405.316; 3832.350;  128.050;    0.000
405.371; 3907.350;  142.050;    0.000
405.427; 3819.350;  196.050;    0.000
405.483; 3928.350;  172.050;    0.000
405.539; 3844.350;  182.050;    0.000
405.594; 3904.350;  153.050;    0.000
405.650; 3806.350;  124.050;    0.000
405.706; 3872.350;  189.050;    0.000
405.761; 3852.350;  165.050;    0.000
405.817; 3922.350;  152.050;    0.000
405.873; 3938.350;  174.050;    0.000
405.928; 3945.350;  167.050;    0.000
405.984; 3972.350;  210.050;    0.000
406.040; 3914.350;  160.050;    0.000
406.095; 3987.350;  163.050;    0.000
406.151; 3797.350;  208.050;    0.000
406.207; 3977.350;  177.050;    0.000
406.262; 3888.350;  176.050;    0.000
406.318; 4003.350;  157.050;    0.000
406.374; 4000.350;  141.050;    0.000
406.429; 4007.350;  189.050;    0.000
406.485; 4049.350;  190.050;    0.000
406.540; 4034.350;  155.050;    0.000
406.596; 4052.350;  182.050;    0.000
406.651; 4112.350;  200.050;    0.000
406.707; 4016.350;  130.050;    0.000
406.763; 4103.350;  174.050;    0.000
406.818; 4259.350;  151.050;    0.000
406.874; 4154.350;  122.050;    0.000
406.929; 4164.350;  153.050;    0.000
406.985; 4272.350;  198.050;    0.000
407.040; 4276.350;  174.050;    0.000
407.095; 4366.350;  161.050;    0.000
407.151; 4301.350;  184.050;    0.000
407.206; 4342.350;  188.050;    0.000
407.262; 4368.350;  180.050;    0.000
407.317; 4502.350;  186.050;    0.000
407.373; 4373.350;  200.050;    0.000
407.428; 4419.350;  211.050;    0.000
407.484; 4403.350;  193.050;    0.000
407.539; 4526.350;  167.050;    0.000
407.594; 4565.350;  178.050;    0.000
407.650; 4479.350;  171.050;    0.000
407.705; 4410.350;  153.050;    0.000
407.760; 4386.350;  196.050;    0.000
407.816; 4367.350;  205.050;    0.000
407.871; 4377.350;  232.050;    0.000
407.926; 4422.350;  215.050;    0.000
407.982; 4367.350;  154.050;    0.000
408.037; 4427.350;  217.050;    0.000
408.092; 4262.350;  190.050;    0.000
408.148; 4391.350;  181.050;    0.000
408.203; 4207.350;  203.050;    0.000
408.258; 4242.350;  154.050;    0.000
408.314; 4242.350;  198.050;    0.000
408.369; 4177.350;  156.050;    0.000
408.424; 4286.350;  216.050;    0.000
408.479; 4250.350;  191.050;    0.000
408.534; 4211.350;  200.050;    0.000
408.590; 4171.350;  182.050;    0.000
408.645; 4223.350;  141.050;    0.000
408.700; 4329.350;  209.050;    0.000
408.755; 4227.350;  205.050;    0.000
408.810; 4230.350;  171.050;    0.000
408.866; 4144.350;  200.050;    0.000
408.921; 4240.350;  188.050;    0.000
408.976; 4051.350;  156.050;    0.000
409.031; 4168.350;  164.050;    0.000
409.086; 4183.350;  155.050;    0.000
409.141; 4252.350;  205.050;    0.000
409.196; 4208.350;  173.050;    0.000
409.252; 4170.350;  179.050;    0.000
409.307; 4156.350;  131.050;    0.000
409.362; 4100.350;  173.050;    0.000
409.417; 4244.350;  120.050;    0.000
409.472; 4068.350;  198.050;    0.000
409.527; 4133.350;  153.050;    0.000
409.582; 4262.350;  177.050;    0.000
409.637; 4108.350;  184.050;    0.000
409.692; 4120.350;  203.050;    0.000
409.747; 4206.350;  158.050;    0.000
409.802; 4057.350;  212.050;    0.000
409.857; 4089.350;  192.050;    0.000
409.912; 4258.350;  179.050;    0.000
409.967; 4276.350;  177.050;    0.000
410.022; 4229.350;  204.050;    0.000
410.077; 4097.350;  175.050;    0.000
410.132; 4143.350;  207.050;    0.000
410.187; 4289.350;  169.050;    0.000
410.242; 4152.350;  186.050;    0.000
410.297; 4131.350;  185.050;    0.000
410.351; 4191.350;  191.050;    0.000
410.406; 4164.350;  215.050;    0.000
410.461; 4177.350;  190.050;    0.000
410.516; 4124.350;  172.050;    0.000
410.571; 4128.350;  190.050;    0.000
410.626; 4182.350;  189.050;    0.000
410.681; 4128.350;  191.050;    0.000
410.736; 4153.350;  166.050;    0.000
410.790; 4122.350;  179.050;    0.000
410.845; 4248.350;  196.050;    0.000
410.900; 4165.350;  168.050;    0.000
410.955; 4260.350;  173.050;    0.000
411.010; 4169.350;  162.050;    0.000
411.064; 4249.350;  205.050;    0.000
411.119; 4160.350;  203.050;    0.000
411.174; 4093.350;  207.050;    0.000
411.229; 4076.350;  218.050;    0.000
411.283; 4151.350;  218.050;    0.000
411.338; 4151.350;  180.050;    0.000
411.393; 4164.350;  191.050;    0.000
411.447; 4157.350;  207.050;    0.000
411.502; 4248.350;  204.050;    0.000
411.557; 4138.350;  208.050;    0.000
411.612; 4220.350;  191.050;    0.000
411.666; 4158.350;  233.050;    0.000
411.721; 4127.350;  193.050;    0.000
411.776; 4240.350;  195.050;    0.000
411.830; 4103.350;  229.050;    0.000
411.885; 4172.350;  181.050;    0.000
411.939; 4157.350;  214.050;    0.000
411.994; 4120.350;  140.050;    0.000
412.049; 4088.350;  205.050;    0.000
412.103; 4284.350;  232.050;    0.000
412.158; 4262.350;  228.050;    0.000
412.212; 4201.350;  204.050;    0.000
412.267; 4244.350;  203.050;    0.000
412.322; 4364.350;  212.050;    0.000
412.376; 4128.350;  195.050;    0.000
412.431; 4181.350;  197.050;    0.000
412.485; 4147.350;  235.050;    0.000
412.540; 4178.350;  197.050;    0.000
412.594; 4216.350;  199.050;    0.000
412.649; 4238.350;  195.050;    0.000
412.703; 4111.350;  214.050;    0.000
412.758; 4126.350;  213.050;    0.000
412.812; 4149.350;  154.050;    0.000
412.866; 4058.350;  159.050;    0.000
412.921; 4061.350;  207.050;    0.000
412.975; 4064.350;  194.050;    0.000
413.030; 4017.350;  214.050;    0.000
413.084; 4079.350;  174.050;    0.000
413.139; 4089.350;  211.050;    0.000
413.193; 3999.350;  223.050;    0.000
413.247; 4112.350;  198.050;    0.000
413.302; 4153.350;  184.050;    0.000
413.356; 3998.350;  194.050;    0.000
413.410; 4049.350;  219.050;    0.000
413.465; 4116.350;  209.050;    0.000
413.519; 4066.350;  178.050;    0.000
413.573; 4117.350;  189.050;    0.000
413.628; 4037.350;  184.050;    0.000
413.682; 4087.350;  189.050;    0.000
413.736; 4102.350;  196.050;    0.000
413.791; 4073.350;  208.050;    0.000
413.845; 4125.350;  206.050;    0.000
413.899; 4105.350;  193.050;    0.000
413.953; 3990.350;  176.050;    0.000
414.008; 4055.350;  163.050;    0.000
414.062; 4057.350;  195.050;    0.000
414.116; 4027.350;  176.050;    0.000
414.170; 4137.350;  218.050;    0.000
414.225; 4067.350;  183.050;    0.000
414.279; 4062.350;  191.050;    0.000
414.333; 4177.350;  215.050;    0.000
414.387; 4002.350;  187.050;    0.000
414.441; 4075.350;  182.050;    0.000
414.496; 4116.350;  205.050;    0.000
414.550; 4077.350;  203.050;    0.000
414.604; 4125.350;  223.050;    0.000
414.658; 4101.350;  159.050;    0.000
414.712; 4176.350;  194.050;    0.000
414.766; 4080.350;  232.050;    0.000
414.820; 4189.350;  235.050;    0.000
414.874; 4189.350;  169.050;    0.000
414.928; 4067.350;  207.050;    0.000
414.982; 4152.350;  174.050;    0.000
415.037; 4050.350;  173.050;    0.000
415.091; 4195.350;  219.050;    0.000
415.145; 4175.350;  174.050;    0.000
415.199; 4122.350;  207.050;    0.000
415.253; 3952.350;  228.050;    0.000
415.307; 4045.350;  182.050;    0.000
415.361; 4050.350;  219.050;    0.000
415.415; 4034.350;  218.050;    0.000
415.469; 4157.350;  233.050;    0.000
415.523; 4092.350;  203.050;    0.000
415.577; 4157.350;  186.050;    0.000
415.631; 4133.350;  215.050;    0.000
415.684; 4057.350;  212.050;    0.000
415.738; 4131.350;  206.050;    0.000
415.792; 4042.350;  219.050;    0.000
415.846; 4029.350;  208.050;    0.000
415.900; 4113.350;  203.050;    0.000
415.954; 4069.350;  237.050;    0.000
416.008; 4160.350;  242.050;    0.000
416.062; 4033.350;  197.050;    0.000
416.116; 4003.350;  189.050;    0.000
416.169; 4089.350;  199.050;    0.000
416.223; 4055.350;  230.050;    0.000
416.277; 4116.350;  226.050;    0.000
416.331; 4043.350;  254.050;    0.000
416.385; 4112.350;  204.050;    0.000
416.439; 4015.350;  201.050;    0.000
416.492; 4106.350;  238.050;    0.000
416.546; 4072.350;  234.050;    0.000
416.600; 3970.350;  244.050;    0.000
416.654; 4132.350;  233.050;    0.000
416.707; 4154.350;  214.050;    0.000
416.761; 4087.350;  214.050;    0.000
416.815; 4100.350;  192.050;    0.000
416.869; 4057.350;  225.050;    0.000
416.922; 4038.350;  214.050;    0.000
416.976; 4075.350;  206.050;    0.000
417.030; 4128.350;  226.050;    0.000
417.083; 4002.350;  207.050;    0.000
417.137; 4039.350;  236.050;    0.000
417.191; 4089.350;  208.050;    0.000
417.244; 3996.350;  260.050;    0.000
417.298; 3982.350;  222.050;    0.000
417.352; 4013.350;  191.050;    0.000
417.405; 3978.350;  229.050;    0.000
417.459; 3959.350;  249.050;    0.000
417.512; 4066.350;  259.050;    0.000
417.566; 4063.350;  220.050;    0.000
417.620; 4019.350;  229.050;    0.000
417.673; 4117.350;  190.050;    0.000
417.727; 4044.350;  204.050;    0.000
417.780; 4029.350;  223.050;    0.000
417.834; 4046.350;  213.050;    0.000
417.887; 4090.350;  238.050;    0.000
417.941; 4093.350;  244.050;    0.000
417.994; 4000.350;  247.050;    0.000
418.048; 4047.350;  225.050;    0.000
418.101; 3957.350;  210.050;    0.000
418.155; 4055.350;  224.050;    0.000
418.208; 4045.350;  229.050;    0.000
418.262; 4092.350;  255.050;    0.000
418.315; 4108.350;  248.050;    0.000
418.369; 4017.350;  212.050;    0.000
418.422; 4138.350;  241.050;    0.000
418.476; 4129.350;  220.050;    0.000
418.529; 4124.350;  257.050;    0.000
418.582; 4130.350;  203.050;    0.000
418.636; 4109.350;  221.050;    0.000
418.689; 4155.350;  202.050;    0.000
418.743; 4129.350;  227.050;    0.000
418.796; 4084.350;  226.050;    0.000
418.849; 4051.350;  199.050;    0.000
418.903; 4203.350;  234.050;    0.000
418.956; 4150.350;  236.050;    0.000
419.009; 4155.350;  305.050;    0.000
419.063; 4106.350;  216.050;    0.000
419.116; 4184.350;  245.050;    0.000
419.169; 4074.350;  208.050;    0.000
419.222; 4141.350;  233.050;    0.000
419.276; 4256.350;  244.050;    0.000
419.329; 4039.350;  197.050;    0.000
419.382; 4134.350;  222.050;    0.000
419.435; 4053.350;  199.050;    0.000
419.489; 4131.350;  226.050;    0.000
419.542; 4072.350;  223.050;    0.000
419.595; 4066.350;  204.050;    0.000
419.648; 4073.350;  234.050;    0.000
419.701; 4005.350;  211.050;    0.000
419.755; 3916.350;  184.050;    0.000
419.808; 3940.350;  223.050;    0.000
419.861; 3943.350;  197.050;    0.000
419.914; 4031.350;  258.050;    0.000
419.967; 4033.350;  205.050;    0.000
420.020; 3900.350;  195.050;    0.000
420.073; 3998.350;  191.050;    0.000
420.127; 3994.350;  256.050;    0.000
420.180; 3936.350;  232.050;    0.000
420.233; 3953.350;  200.050;    0.000
420.286; 3818.350;  207.050;    0.000
420.339; 3925.350;  223.050;    0.000
420.392; 3963.350;  243.050;    0.000
420.445; 3932.350;  195.050;    0.000
420.498; 3905.350;  239.050;    0.000
420.551; 3983.350;  201.050;    0.000
420.604; 3897.350;  245.050;    0.000
420.657; 3892.350;  221.050;    0.000
420.710; 3958.350;  223.050;    0.000
420.763; 3899.350;  241.050;    0.000
420.816; 3926.350;  198.050;    0.000
420.869; 3845.350;  210.050;    0.000
420.922; 3842.350;  206.050;    0.000
420.975; 3885.350;  239.050;    0.000
421.028; 3886.350;  248.050;    0.000
421.081; 3891.350;  236.050;    0.000
421.134; 3749.350;  208.050;    0.000
421.187; 3947.350;  216.050;    0.000
421.239; 3789.350;  199.050;    0.000
421.292; 3931.350;  255.050;    0.000
421.345; 3968.350;  241.050;    0.000
421.398; 3775.350;  221.050;    0.000
421.451; 3868.350;  237.050;    0.000
421.504; 3817.350;  225.050;    0.000
421.557; 3810.350;  213.050;    0.000
421.609; 3862.350;  178.050;    0.000
421.662; 3752.350;  206.050;    0.000
421.715; 3844.350;  212.050;    0.000
421.768; 3849.350;  236.050;    0.000
421.821; 3753.350;  228.050;    0.000
421.873; 3757.350;  200.050;    0.000
421.926; 3658.350;  226.050;    0.000
421.979; 3850.350;  221.050;    0.000
422.032; 3887.350;  219.050;    0.000
422.084; 3781.350;  253.050;    0.000
422.137; 3775.350;  195.050;    0.000
422.190; 3823.350;  192.050;    0.000
422.243; 3749.350;  236.050;    0.000
422.295; 3800.350;  205.050;    0.000
422.348; 3909.350;  198.050;    0.000
422.401; 3818.350;  245.050;    0.000
422.453; 3838.350;  241.050;    0.000
422.506; 3807.350;  255.050;    0.000
422.559; 3806.350;  188.050;    0.000
422.611; 4023.350;  236.050;    0.000
422.664; 3929.350;  218.050;    0.000
422.716; 4037.350;  210.050;    0.000
422.769; 3826.350;  209.050;    0.000
422.822; 3809.350;  213.050;    0.000
422.874; 3726.350;  227.050;    0.000
422.927; 3823.350;  272.050;    0.000
422.979; 3813.350;  204.050;    0.000
423.032; 3845.350;  210.050;    0.000
423.084; 3647.350;  236.050;    0.000
423.137; 3755.350;  223.050;    0.000
423.189; 3826.350;  253.050;    0.000
423.242; 3839.350;  185.050;    0.000
423.294; 3757.350;  232.050;    0.000
423.347; 3764.350;  213.050;    0.000
423.399; 3828.350;  227.050;    0.000
423.452; 3831.350;  236.050;    0.000
423.504; 3742.350;  232.050;    0.000
423.557; 3739.350;  195.050;    0.000
423.609; 3750.350;  238.050;    0.000
423.662; 3794.350;  207.050;    0.000
423.714; 3876.350;  231.050;    0.000
423.766; 3673.350;  211.050;    0.000
423.819; 3766.350;  207.050;    0.000
423.871; 3679.350;  228.050;    0.000
423.923; 3705.350;  223.050;    0.000
423.976; 3744.350;  217.050;    0.000
424.028; 3727.350;  231.050;    0.000
424.081; 3741.350;  219.050;    0.000
424.133; 3728.350;  255.050;    0.000
424.185; 3711.350;  199.050;    0.000
424.238; 3708.350;  238.050;    0.000
424.290; 3630.350;  209.050;    0.000
424.342; 3595.350;  213.050;    0.000
424.394; 3696.350;  215.050;    0.000
424.447; 3786.350;  265.050;    0.000
424.499; 3774.350;  238.050;    0.000
424.551; 3719.350;  256.050;    0.000
424.603; 3702.350;  222.050;    0.000
424.656; 3686.350;  227.050;    0.000
424.708; 3687.350;  250.050;    0.000
424.760; 3717.350;  228.050;    0.000
424.812; 3724.350;  249.050;    0.000
424.864; 3627.350;  222.050;    0.000
424.917; 3591.350;  235.050;    0.000
424.969; 3648.350;  266.050;    0.000
425.021; 3611.350;  233.050;    0.000
425.073; 3720.350;  194.050;    0.000
425.125; 3694.350;  256.050;    0.000
425.177; 3608.350;  225.050;    0.000
425.229; 3696.350;  242.050;    0.000
425.282; 3668.350;  236.050;    0.000
425.334; 3564.350;  250.050;    0.000
425.386; 3613.350;  231.050;    0.000
425.438; 3702.350;  216.050;    0.000
425.490; 3688.350;  240.050;    0.000
425.542; 3644.350;  231.050;    0.000
425.594; 3476.350;  206.050;    0.000
425.646; 3569.350;  201.050;    0.000
425.698; 3543.350;  193.050;    0.000
425.750; 3660.350;  241.050;    0.000
425.802; 3584.350;  199.050;    0.000
425.854; 3484.350;  216.050;    0.000
425.906; 3519.350;  220.050;    0.000
425.958; 3550.350;  200.050;    0.000
426.010; 3524.350;  214.050;    0.000
426.062; 3554.350;  245.050;    0.000
426.114; 3476.350;  241.050;    0.000
426.166; 3632.350;  241.050;    0.000
426.218; 3543.350;  255.050;    0.000
426.270; 3538.350;  228.050;    0.000
426.321; 3471.350;  222.050;    0.000
426.373; 3468.350;  218.050;    0.000
426.425; 3474.350;  258.050;    0.000
426.477; 3396.350;  225.050;    0.000
426.529; 3541.350;  223.050;    0.000
426.581; 3550.350;  198.050;    0.000
426.633; 3508.350;  228.050;    0.000
426.684; 3397.350;  210.050;    0.000
426.736; 3398.350;  208.050;    0.000
426.788; 3425.350;  231.050;    0.000
426.840; 3415.350;  212.050;    0.000
426.892; 3412.350;  221.050;    0.000
426.943; 3465.350;  240.050;    0.000
426.995; 3435.350;  243.050;    0.000
427.047; 3407.350;  231.050;    0.000
427.099; 3358.350;  189.050;    0.000
427.150; 3420.350;  212.050;    0.000
427.202; 3501.350;  219.050;    0.000
427.254; 3454.350;  203.050;    0.000
427.306; 3348.350;  217.050;    0.000
427.357; 3441.350;  232.050;    0.000
427.409; 3282.350;  251.050;    0.000
427.461; 3351.350;  185.050;    0.000
427.512; 3427.350;  239.050;    0.000
427.564; 3396.350;  208.050;    0.000
427.616; 3467.350;  233.050;    0.000
427.667; 3389.350;  223.050;    0.000
427.719; 3332.350;  206.050;    0.000
427.770; 3372.350;  195.050;    0.000
427.822; 3412.350;  223.050;    0.000
427.874; 3284.350;  232.050;    0.000
427.925; 3329.350;  209.050;    0.000
427.977; 3342.350;  208.050;    0.000
428.028; 3250.350;  187.050;    0.000
428.080; 3316.350;  209.050;    0.000
428.131; 3264.350;  237.050;    0.000
428.183; 3375.350;  200.050;    0.000
428.234; 3303.350;  215.050;    0.000
428.286; 3299.350;  229.050;    0.000
428.337; 3406.350;  206.050;    0.000
428.389; 3356.350;  216.050;    0.000
428.440; 3308.350;  287.050;    0.000
428.492; 3408.350;  269.050;    0.000
428.543; 3200.350;  234.050;    0.000
428.595; 3251.350;  214.050;    0.000
428.646; 3314.350;  229.050;    0.000
428.697; 3346.350;  249.050;    0.000
428.749; 3260.350;  250.050;    0.000
428.800; 3226.350;  242.050;    0.000
428.852; 3304.350;  232.050;    0.000
428.903; 3347.350;  196.050;    0.000
428.954; 3305.350;  226.050;    0.000
429.006; 3312.350;  232.050;    0.000
429.057; 3257.350;  188.050;    0.000
429.108; 3230.350;  237.050;    0.000
429.160; 3294.350;  221.050;    0.000
429.211; 3301.350;  222.050;    0.000
429.262; 3110.350;  215.050;    0.000
429.314; 3193.350;  225.050;    0.000
429.365; 3179.350;  220.050;    0.000
429.416; 3207.350;  242.050;    0.000
429.467; 3201.350;  220.050;    0.000
429.519; 3223.350;  217.050;    0.000
429.570; 3191.350;  248.050;    0.000
429.621; 3150.350;  233.050;    0.000
429.672; 3156.350;  220.050;    0.000
429.724; 3135.350;  179.050;    0.000
429.775; 3298.350;  218.050;    0.000
429.826; 3142.350;  197.050;    0.000
429.877; 3143.350;  206.050;    0.000
429.928; 3152.350;  229.050;    0.000
429.980; 3150.350;  207.050;    0.000
430.031; 3187.350;  264.050;    0.000
430.082; 3167.350;  210.050;    0.000
430.133; 3256.350;  218.050;    0.000
430.184; 3186.350;  246.050;    0.000
430.235; 3203.350;  201.050;    0.000
430.286; 3226.350;  207.050;    0.000
430.337; 3132.350;  224.050;    0.000
430.388; 3088.350;  216.050;    0.000
430.439; 3255.350;  210.050;    0.000
430.490; 3166.350;  208.050;    0.000
430.542; 3033.350;  211.050;    0.000
430.593; 3212.350;  203.050;    0.000
430.644; 3184.350;  235.050;    0.000
430.695; 3104.350;  200.050;    0.000
430.746; 3275.350;  215.050;    0.000
430.797; 3175.350;  235.050;    0.000
430.848; 3176.350;  197.050;    0.000
430.898; 3232.350;  209.050;    0.000
430.949; 3222.350;  231.050;    0.000
431.000; 3172.350;  227.050;    0.000
431.051; 3106.350;  225.050;    0.000
431.102; 3132.350;  180.050;    0.000
431.153; 3116.350;  248.050;    0.000
431.204; 3159.350;  185.050;    0.000
431.255; 3122.350;  199.050;    0.000
431.306; 3201.350;  228.050;    0.000
431.357; 3216.350;  237.050;    0.000
431.408; 3234.350;  223.050;    0.000
431.458; 3142.350;  240.050;    0.000
431.509; 3155.350;  207.050;    0.000
431.560; 3213.350;  219.050;    0.000
431.611; 3286.350;  206.050;    0.000
431.662; 3213.350;  253.050;    0.000
431.713; 3147.350;  199.050;    0.000
431.763; 3138.350;  197.050;    0.000
431.814; 3329.350;  205.050;    0.000
431.865; 3239.350;  218.050;    0.000
431.916; 3131.350;  202.050;    0.000
431.966; 3216.350;  203.050;    0.000
432.017; 3251.350;  244.050;    0.000
432.068; 3237.350;  246.050;    0.000
432.118; 3176.350;  212.050;    0.000
432.169; 3158.350;  214.050;    0.000
432.220; 3154.350;  241.050;    0.000
432.271; 3076.350;  237.050;    0.000
432.321; 3153.350;  246.050;    0.000
432.372; 3150.350;  257.050;    0.000
432.423; 3133.350;  198.050;    0.000
432.473; 3067.350;  202.050;    0.000
432.524; 3208.350;  242.050;    0.000
432.574; 3075.350;  202.050;    0.000
432.625; 3211.350;  212.050;    0.000
432.676; 3147.350;  242.050;    0.000
432.726; 3144.350;  268.050;    0.000
432.777; 3058.350;  228.050;    0.000
432.827; 3010.350;  230.050;    0.000
432.878; 3036.350;  221.050;    0.000
432.928; 3120.350;  218.050;    0.000
432.979; 3204.350;  243.050;    0.000
433.029; 3141.350;  217.050;    0.000
433.080; 3101.350;  208.050;    0.000
433.130; 3032.350;  236.050;    0.000
433.181; 3046.350;  282.050;    0.000
433.231; 3140.350;  257.050;    0.000
433.282; 3193.350;  268.050;    0.000
433.332; 3187.350;  241.050;    0.000
433.383; 3124.350;  271.050;    0.000
433.433; 3115.350;  262.050;    0.000
433.484; 3172.350;  266.050;    0.000
433.534; 3173.350;  217.050;    0.000
433.585; 3106.350;  230.050;    0.000
433.635; 3070.350;  245.050;    0.000
433.685; 3066.350;  250.050;    0.000
433.736; 3148.350;  308.050;    0.000
433.786; 3111.350;  242.050;    0.000
433.836; 3183.350;  256.050;    0.000
433.887; 3169.350;  250.050;    0.000
433.937; 3201.350;  250.050;    0.000
433.987; 3188.350;  219.050;    0.000
434.038; 3138.350;  248.050;    0.000
434.088; 3110.350;  231.050;    0.000
434.138; 3165.350;  266.050;    0.000
434.189; 3133.350;  240.050;    0.000
434.239; 3208.350;  245.050;    0.000
434.289; 3223.350;  285.050;    0.000
434.339; 3157.350;  255.050;    0.000
434.389; 3169.350;  242.050;    0.000
434.440; 3241.350;  273.050;    0.000
434.490; 3244.350;  272.050;    0.000
434.540; 3230.350;  264.050;    0.000
434.590; 3271.350;  233.050;    0.000
434.640; 3281.350;  244.050;    0.000
434.691; 3217.350;  226.050;    0.000
434.741; 3410.350;  253.050;    0.000
434.791; 3311.350;  269.050;    0.000
434.841; 3358.350;  252.050;    0.000
434.891; 3297.350;  281.050;    0.000
434.941; 3349.350;  296.050;    0.000
434.991; 3349.350;  264.050;    0.000
435.042; 3298.350;  262.050;    0.000
435.092; 3259.350;  237.050;    0.000
435.142; 3259.350;  232.050;    0.000
435.192; 3179.350;  251.050;    0.000
435.242; 3257.350;  251.050;    0.000
435.292; 3175.350;  246.050;    0.000
435.342; 3146.350;  236.050;    0.000
435.392; 3122.350;  273.050;    0.000
435.442; 3168.350;  273.050;    0.000
435.492; 3117.350;  273.050;    0.000
435.542; 3114.350;  242.050;    0.000
435.592; 3017.350;  213.050;    0.000
435.642; 3151.350;  248.050;    0.000
435.692; 3038.350;  242.050;    0.000
435.742; 2997.350;  222.050;    0.000
435.792; 3023.350;  260.050;    0.000
435.842; 3029.350;  266.050;    0.000
435.891; 2962.350;  227.050;    0.000
435.941; 2999.350;  228.050;    0.000
435.991; 2955.350;  282.050;    0.000
436.041; 3046.350;  231.050;    0.000
436.091; 3043.350;  250.050;    0.000
436.141; 3003.350;  221.050;    0.000
436.191; 2954.350;  223.050;    0.000
436.241; 2946.350;  250.050;    0.000
436.290; 2953.350;  243.050;    0.000
436.340; 3034.350;  236.050;    0.000
436.390; 2996.350;  260.050;    0.000
436.440; 2997.350;  253.050;    0.000
436.490; 2911.350;  236.050;    0.000
436.539; 2923.350;  249.050;    0.000
436.589; 2979.350;  231.050;    0.000
436.639; 3008.350;  237.050;    0.000
436.689; 2989.350;  222.050;    0.000
436.738; 3014.350;  263.050;    0.000
436.788; 2888.350;  230.050;    0.000
436.838; 2944.350;  281.050;    0.000
436.887; 2948.350;  230.050;    0.000
436.937; 2887.350;  250.050;    0.000
436.987; 2875.350;  251.050;    0.000
437.036; 3004.350;  238.050;    0.000
437.086; 2910.350;  234.050;    0.000
437.136; 2908.350;  250.050;    0.000
437.185; 2864.350;  228.050;    0.000
437.235; 2976.350;  309.050;    0.000
437.285; 2844.350;  246.050;    0.000
437.334; 2889.350;  262.050;    0.000
437.384; 2922.350;  228.050;    0.000
437.433; 2836.350;  241.050;    0.000
437.483; 2842.350;  220.050;    0.000
437.532; 2824.350;  252.050;    0.000
437.582; 2893.350;  270.050;    0.000
437.631; 2871.350;  251.050;    0.000
437.681; 2846.350;  284.050;    0.000
437.730; 2951.350;  239.050;    0.000
437.780; 2894.350;  221.050;    0.000
437.829; 2881.350;  254.050;    0.000
437.879; 2820.350;  221.050;    0.000
437.928; 2809.350;  205.050;    0.000
437.978; 2814.350;  223.050;    0.000
438.027; 2815.350;  262.050;    0.000
438.077; 2783.350;  280.050;    0.000
438.126; 2824.350;  254.050;    0.000
438.176; 2805.350;  230.050;    0.000
438.225; 2835.350;  227.050;    0.000
438.274; 2856.350;  264.050;    0.000
438.324; 2802.350;  233.050;    0.000
438.373; 2816.350;  238.050;    0.000
438.422; 2809.350;  260.050;    0.000
438.472; 2702.350;  223.050;    0.000
438.521; 2792.350;  213.050;    0.000
438.570; 2771.350;  236.050;    0.000
438.620; 2954.350;  282.050;    0.000
438.669; 2845.350;  209.050;    0.000
438.718; 2801.350;  245.050;    0.000
438.768; 2782.350;  238.050;    0.000
438.817; 2814.350;  259.050;    0.000
438.866; 2789.350;  232.050;    0.000
438.915; 2855.350;  288.050;    0.000
438.965; 2779.350;  228.050;    0.000
439.014; 2783.350;  246.050;    0.000
439.063; 2891.350;  287.050;    0.000
439.112; 2855.350;  217.050;    0.000
439.162; 2834.350;  275.050;    0.000
439.211; 2886.350;  287.050;    0.000
439.260; 2890.350;  238.050;    0.000
439.309; 2804.350;  225.050;    0.000
439.358; 2864.350;  248.050;    0.000
439.407; 2859.350;  237.050;    0.000
439.456; 2759.350;  223.050;    0.000
439.506; 2841.350;  266.050;    0.000
439.555; 2832.350;  260.050;    0.000
439.604; 2848.350;  233.050;    0.000
439.653; 2810.350;  242.050;    0.000
439.702; 2792.350;  255.050;    0.000
439.751; 2753.350;  202.050;    0.000
439.800; 2814.350;  247.050;    0.000
439.849; 2776.350;  250.050;    0.000
439.898; 2843.350;  216.050;    0.000
439.947; 2892.350;  231.050;    0.000
439.996; 2841.350;  272.050;    0.000
440.045; 2957.350;  217.050;    0.000
440.094; 2790.350;  220.050;    0.000
440.143; 2824.350;  245.050;    0.000
440.192; 2880.350;  267.050;    0.000
440.241; 2873.350;  263.050;    0.000
440.290; 2849.350;  246.050;    0.000
440.339; 2873.350;  225.050;    0.000
440.388; 2890.350;  256.050;    0.000
440.437; 2838.350;  253.050;    0.000
440.486; 2941.350;  249.050;    0.000
440.535; 2879.350;  232.050;    0.000
440.583; 2817.350;  220.050;    0.000
440.632; 2847.350;  239.050;    0.000
440.681; 2899.350;  236.050;    0.000
440.730; 2983.350;  282.050;    0.000
440.779; 2908.350;  245.050;    0.000
440.828; 2893.350;  213.050;    0.000
440.876; 2880.350;  231.050;    0.000
440.925; 2916.350;  271.050;    0.000
440.974; 2986.350;  240.050;    0.000
441.023; 2874.350;  214.050;    0.000
441.072; 2893.350;  236.050;    0.000
441.120; 2978.350;  271.050;    0.000
441.169; 2974.350;  281.050;    0.000
441.218; 2961.350;  255.050;    0.000
441.267; 2969.350;  272.050;    0.000
441.315; 2983.350;  229.050;    0.000
441.364; 2941.350;  241.050;    0.000
441.413; 2997.350;  224.050;    0.000
441.461; 3091.350;  241.050;    0.000
441.510; 3039.350;  289.050;    0.000
441.559; 3008.350;  222.050;    0.000
441.607; 3125.350;  242.050;    0.000
441.656; 3107.350;  255.050;    0.000
441.705; 3030.350;  260.050;    0.000
441.753; 3044.350;  290.050;    0.000
441.802; 3030.350;  264.050;    0.000
441.850; 2987.350;  224.050;    0.000
441.899; 3002.350;  275.050;    0.000
441.948; 3015.350;  227.050;    0.000
441.996; 3016.350;  216.050;    0.000
442.045; 3007.350;  271.050;    0.000
442.093; 3038.350;  227.050;    0.000
442.142; 2957.350;  273.050;    0.000
442.190; 2960.350;  257.050;    0.000
442.239; 2976.350;  269.050;    0.000
442.287; 2960.350;  257.050;    0.000
442.336; 3035.350;  237.050;    0.000
442.384; 2961.350;  214.050;    0.000
442.433; 3096.350;  272.050;    0.000
442.481; 3048.350;  258.050;    0.000
442.529; 2972.350;  242.050;    0.000
442.578; 2930.350;  278.050;    0.000
442.626; 2969.350;  264.050;    0.000
442.675; 3014.350;  293.050;    0.000
442.723; 2972.350;  244.050;    0.000
442.771; 2998.350;  232.050;    0.000
442.820; 2957.350;  266.050;    0.000
442.868; 2957.350;  253.050;    0.000
442.917; 2933.350;  250.050;    0.000
442.965; 2958.350;  279.050;    0.000
443.013; 2953.350;  253.050;    0.000
443.062; 2923.350;  282.050;    0.000
443.110; 2981.350;  258.050;    0.000
443.158; 2957.350;  246.050;    0.000
443.206; 2985.350;  255.050;    0.000
443.255; 3003.350;  296.050;    0.000
443.303; 2966.350;  272.050;    0.000
443.351; 2949.350;  270.050;    0.000
443.399; 2963.350;  258.050;    0.000
443.448; 2989.350;  265.050;    0.000
443.496; 3036.350;  219.050;    0.000
443.544; 2951.350;  205.050;    0.000
443.592; 3025.350;  266.050;    0.000
443.640; 2990.350;  260.050;    0.000
443.689; 2965.350;  232.050;    0.000
443.737; 3094.350;  281.050;    0.000
443.785; 3066.350;  248.050;    0.000
443.833; 3155.350;  286.050;    0.000
443.881; 3011.350;  225.050;    0.000
443.929; 3065.350;  255.050;    0.000
443.977; 3143.350;  248.050;    0.000
444.025; 3063.350;  255.050;    0.000
444.074; 3112.350;  266.050;    0.000
444.122; 3102.350;  266.050;    0.000
444.170; 3195.350;  207.050;    0.000
444.218; 3228.350;  253.050;    0.000
444.266; 3174.350;  263.050;    0.000
444.314; 3170.350;  272.050;    0.000
444.362; 3199.350;  272.050;    0.000
444.410; 3172.350;  255.050;    0.000
444.458; 3220.350;  288.050;    0.000
444.506; 3235.350;  263.050;    0.000
444.554; 3249.350;  243.050;    0.000
444.602; 3256.350;  285.050;    0.000
444.650; 3256.350;  273.050;    0.000
444.698; 3386.350;  221.050;    0.000
444.746; 3358.350;  243.050;    0.000
444.793; 3167.350;  217.050;    0.000
444.841; 3316.350;  262.050;    0.000
444.889; 3318.350;  264.050;    0.000
444.937; 3369.350;  226.050;    0.000
444.985; 3207.350;  257.050;    0.000
445.033; 3184.350;  264.050;    0.000
445.081; 3244.350;  264.050;    0.000
445.129; 3185.350;  187.050;    0.000
445.176; 3121.350;  212.050;    0.000
445.224; 3240.350;  198.050;    0.000
445.272; 3144.350;  265.050;    0.000
445.320; 3192.350;  239.050;    0.000
445.368; 3125.350;  245.050;    0.000
445.415; 3131.350;  215.050;    0.000
445.463; 3114.350;  202.050;    0.000
445.511; 3142.350;  234.050;    0.000
445.559; 3168.350;  269.050;    0.000
445.606; 3209.350;  214.050;    0.000
445.654; 3156.350;  227.050;    0.000
445.702; 3123.350;  276.050;    0.000
445.749; 3095.350;  256.050;    0.000
445.797; 3190.350;  236.050;    0.000
445.845; 3047.350;  230.050;    0.000
445.892; 2994.350;  233.050;    0.000
445.940; 3096.350;  257.050;    0.000
445.988; 3126.350;  253.050;    0.000
446.035; 3159.350;  265.050;    0.000
446.083; 3010.350;  254.050;    0.000
446.130; 3121.350;  228.050;    0.000
446.178; 3010.350;  256.050;    0.000
446.226; 3153.350;  238.050;    0.000
446.273; 3180.350;  228.050;    0.000
446.321; 3161.350;  220.050;    0.000
446.368; 3065.350;  249.050;    0.000
446.416; 3197.350;  221.050;    0.000
446.463; 3131.350;  232.050;    0.000
446.511; 3162.350;  243.050;    0.000
446.558; 3163.350;  217.050;    0.000
446.606; 3303.350;  256.050;    0.000
446.653; 3207.350;  238.050;    0.000
446.701; 3222.350;  259.050;    0.000
446.748; 3179.350;  227.050;    0.000
446.796; 3258.350;  236.050;    0.000
446.843; 3258.350;  241.050;    0.000
446.891; 3184.350;  292.050;    0.000
446.938; 3313.350;  219.050;    0.000
446.985; 3358.350;  255.050;    0.000
447.033; 3313.350;  237.050;    0.000
447.080; 3321.350;  278.050;    0.000
447.128; 3234.350;  237.050;    0.000
447.175; 3263.350;  247.050;    0.000
447.222; 3329.350;  235.050;    0.000
447.270; 3451.350;  274.050;    0.000
447.317; 3437.350;  222.050;    0.000
447.364; 3411.350;  230.050;    0.000
447.411; 3488.350;  297.050;    0.000
447.459; 3489.350;  243.050;    0.000
447.506; 3538.350;  202.050;    0.000
447.553; 3519.350;  232.050;    0.000
447.601; 3674.350;  262.050;    0.000
447.648; 3672.350;  254.050;    0.000
447.695; 3669.350;  287.050;    0.000
447.742; 3769.350;  232.050;    0.000
447.789; 3752.350;  257.050;    0.000
447.837; 3781.350;  260.050;    0.000
447.884; 3948.350;  272.050;    0.000
447.931; 4131.350;  241.050;    0.000
447.978; 4151.350;  241.050;    0.000
448.025; 4088.350;  264.050;    0.000
448.072; 4149.350;  279.050;    0.000
448.120; 4144.350;  263.050;    0.000
448.167; 4092.350;  284.050;    0.000
448.214; 4054.350;  252.050;    0.000
448.261; 3956.350;  247.050;    0.000
448.308; 3869.350;  249.050;    0.000
448.355; 3806.350;  263.050;    0.000
448.402; 3742.350;  251.050;    0.000
448.449; 3647.350;  257.050;    0.000
448.496; 3620.350;  243.050;    0.000
448.543; 3541.350;  274.050;    0.000
448.590; 3531.350;  299.050;    0.000
448.637; 3515.350;  259.050;    0.000
448.684; 3262.350;  266.050;    0.000
448.731; 3406.350;  261.050;    0.000
448.778; 3375.350;  292.050;    0.000
448.825; 3264.350;  253.050;    0.000
448.872; 3236.350;  253.050;    0.000
448.919; 3277.350;  218.050;    0.000
448.966; 3259.350;  254.050;    0.000
449.013; 3254.350;  263.050;    0.000
449.060; 3276.350;  282.050;    0.000
449.107; 3238.350;  244.050;    0.000
449.154; 3135.350;  236.050;    0.000
449.200; 3104.350;  226.050;    0.000
449.247; 3131.350;  273.050;    0.000
449.294; 3132.350;  270.050;    0.000
449.341; 3137.350;  283.050;    0.000
449.388; 3120.350;  261.050;    0.000
449.435; 3078.350;  254.050;    0.000
449.481; 3054.350;  318.050;    0.000
449.528; 2978.350;  274.050;    0.000
449.575; 2963.350;  251.050;    0.000
449.622; 3060.350;  276.050;    0.000
449.668; 3023.350;  242.050;    0.000
449.715; 2991.350;  286.050;    0.000
449.762; 2953.350;  268.050;    0.000
449.809; 2976.350;  285.050;    0.000
449.855; 2982.350;  277.050;    0.000
449.902; 2902.350;  246.050;    0.000
449.949; 2902.350;  268.050;    0.000
449.995; 2939.350;  289.050;    0.000
450.042; 2870.350;  256.050;    0.000
450.089; 2841.350;  290.050;    0.000
450.135; 2865.350;  300.050;    0.000
450.182; 2881.350;  317.050;    0.000
450.229; 2856.350;  282.050;    0.000
450.275; 2877.350;  307.050;    0.000
450.322; 2863.350;  260.050;    0.000
450.368; 2881.350;  315.050;    0.000
450.415; 2855.350;  306.050;    0.000
450.462; 2858.350;  314.050;    0.000
450.508; 2823.350;  303.050;    0.000
450.555; 2930.350;  281.050;    0.000
450.601; 2809.350;  291.050;    0.000
450.648; 2838.350;  288.050;    0.000
450.694; 2897.350;  290.050;    0.000
450.741; 2948.350;  303.050;    0.000
450.787; 2841.350;  298.050;    0.000
450.834; 2799.350;  265.050;    0.000
450.880; 2781.350;  273.050;    0.000
450.927; 2811.350;  312.050;    0.000
450.973; 2766.350;  303.050;    0.000
451.019; 2721.350;  222.050;    0.000
451.066; 2776.350;  284.050;    0.000
451.112; 2839.350;  296.050;    0.000
451.159; 2854.350;  299.050;    0.000
451.205; 2815.350;  311.050;    0.000
451.251; 2797.350;  306.050;    0.000
451.298; 2736.350;  281.050;    0.000
451.344; 2742.350;  311.050;    0.000
451.390; 2833.350;  331.050;    0.000
451.437; 2718.350;  303.050;    0.000
451.483; 2749.350;  284.050;    0.000
451.529; 2730.350;  310.050;    0.000
451.576; 2789.350;  301.050;    0.000
451.622; 2659.350;  275.050;    0.000
451.668; 2713.350;  269.050;    0.000
451.714; 2631.350;  277.050;    0.000
451.761; 2777.350;  298.050;    0.000
451.807; 2683.350;  316.050;    0.000
451.853; 2742.350;  301.050;    0.000
451.899; 2713.350;  292.050;    0.000
451.945; 2782.350;  324.050;    0.000
451.992; 2785.350;  292.050;    0.000
452.038; 2696.350;  261.050;    0.000
452.084; 2695.350;  286.050;    0.000
452.130; 2709.350;  301.050;    0.000
452.176; 2655.350;  287.050;    0.000
452.222; 2607.350;  265.050;    0.000
452.268; 2702.350;  268.050;    0.000
452.315; 2662.350;  272.050;    0.000
452.361; 2653.350;  258.050;    0.000
452.407; 2672.350;  279.050;    0.000
452.453; 2674.350;  252.050;    0.000
452.499; 2803.350;  305.050;    0.000
452.545; 2635.350;  263.050;    0.000
452.591; 2663.350;  284.050;    0.000
452.637; 2682.350;  289.050;    0.000
452.683; 2727.350;  249.050;    0.000
452.729; 2710.350;  290.050;    0.000
452.775; 2646.350;  315.050;    0.000
452.821; 2654.350;  271.050;    0.000
452.867; 2605.350;  258.050;    0.000
452.913; 2616.350;  256.050;    0.000
452.959; 2629.350;  266.050;    0.000
453.005; 2635.350;  299.050;    0.000
453.051; 2673.350;  299.050;    0.000
453.097; 2633.350;  268.050;    0.000
453.142; 2556.350;  251.050;    0.000
453.188; 2575.350;  284.050;    0.000
453.234; 2652.350;  285.050;    0.000
453.280; 2615.350;  263.050;    0.000
453.326; 2641.350;  273.050;    0.000
453.372; 2638.350;  253.050;    0.000
453.418; 2598.350;  269.050;    0.000
453.463; 2568.350;  250.050;    0.000
453.509; 2658.350;  289.050;    0.000
453.555; 2631.350;  262.050;    0.000
453.601; 2601.350;  274.050;    0.000
453.647; 2661.350;  306.050;    0.000
453.692; 2640.350;  264.050;    0.000
453.738; 2661.350;  312.050;    0.000
453.784; 2556.350;  300.050;    0.000
453.829; 2681.350;  284.050;    0.000
453.875; 2599.350;  270.050;    0.000
453.921; 2506.350;  237.050;    0.000
453.967; 2587.350;  263.050;    0.000
454.012; 2686.350;  295.050;    0.000
454.058; 2649.350;  293.050;    0.000
454.104; 2580.350;  264.050;    0.000
454.149; 2603.350;  282.050;    0.000
454.195; 2574.350;  277.050;    0.000
454.240; 2609.350;  307.050;    0.000
454.286; 2627.350;  282.050;    0.000
454.332; 2586.350;  291.050;    0.000
454.377; 2586.350;  302.050;    0.000
454.423; 2521.350;  276.050;    0.000
454.468; 2637.350;  281.050;    0.000
454.514; 2628.350;  290.050;    0.000
454.559; 2577.350;  289.050;    0.000
454.605; 2553.350;  258.050;    0.000
454.650; 2595.350;  281.050;    0.000
454.696; 2535.350;  308.050;    0.000
454.741; 2576.350;  288.050;    0.000
454.787; 2589.350;  284.050;    0.000
454.832; 2533.350;  306.050;    0.000
454.878; 2582.350;  288.050;    0.000
454.923; 2590.350;  287.050;    0.000
454.969; 2590.350;  325.050;    0.000
455.014; 2517.350;  323.050;    0.000
455.060; 2591.350;  290.050;    0.000
455.105; 2599.350;  285.050;    0.000
455.150; 2585.350;  303.050;    0.000
455.196; 2599.350;  282.050;    0.000
455.241; 2549.350;  281.050;    0.000
455.286; 2592.350;  290.050;    0.000
455.332; 2564.350;  280.050;    0.000
455.377; 2563.350;  243.050;    0.000
455.422; 2718.350;  308.050;    0.000
455.468; 2555.350;  308.050;    0.000
455.513; 2570.350;  290.050;    0.000
455.558; 2572.350;  211.050;    0.000
455.604; 2548.350;  289.050;    0.000
455.649; 2651.350;  297.050;    0.000
455.694; 2502.350;  287.050;    0.000
455.739; 2629.350;  296.050;    0.000
455.785; 2626.350;  315.050;    0.000
455.830; 2662.350;  328.050;    0.000
455.875; 2566.350;  310.050;    0.000
455.920; 2591.350;  261.050;    0.000
455.965; 2515.350;  277.050;    0.000
456.010; 2535.350;  317.050;    0.000
456.056; 2509.350;  299.050;    0.000
456.101; 2501.350;  262.050;    0.000
456.146; 2512.350;  318.050;    0.000
456.191; 2528.350;  274.050;    0.000
456.236; 2582.350;  274.050;    0.000
456.281; 2449.350;  275.050;    0.000
456.326; 2619.350;  256.050;    0.000
456.371; 2530.350;  260.050;    0.000
456.416; 2542.350;  304.050;    0.000
456.461; 2571.350;  278.050;    0.000
456.507; 2533.350;  299.050;    0.000
456.552; 2542.350;  305.050;    0.000
456.597; 2467.350;  271.050;    0.000
456.642; 2573.350;  273.050;    0.000
456.687; 2578.350;  290.050;    0.000
456.732; 2593.350;  327.050;    0.000
456.776; 2585.350;  284.050;    0.000
456.821; 2568.350;  321.050;    0.000
456.866; 2571.350;  272.050;    0.000
456.911; 2545.350;  232.050;    0.000
456.956; 2557.350;  263.050;    0.000
457.001; 2601.350;  277.050;    0.000
457.046; 2578.350;  284.050;    0.000
457.091; 2618.350;  269.050;    0.000
457.136; 2595.350;  269.050;    0.000
457.181; 2541.350;  275.050;    0.000
457.225; 2615.350;  310.050;    0.000
457.270; 2565.350;  295.050;    0.000
457.315; 2591.350;  284.050;    0.000
457.360; 2560.350;  264.050;    0.000
457.405; 2523.350;  273.050;    0.000
457.450; 2560.350;  284.050;    0.000
457.494; 2667.350;  273.050;    0.000
457.539; 2576.350;  287.050;    0.000
457.584; 2608.350;  279.050;    0.000
457.629; 2552.350;  288.050;    0.000
457.673; 2636.350;  297.050;    0.000
457.718; 2658.350;  270.050;    0.000
457.763; 2672.350;  295.050;    0.000
457.807; 2678.350;  321.050;    0.000
457.852; 2666.350;  293.050;    0.000
457.897; 2632.350;  282.050;    0.000
457.941; 2697.350;  320.050;    0.000
457.986; 2630.350;  295.050;    0.000
458.031; 2599.350;  314.050;    0.000
458.075; 2643.350;  280.050;    0.000
458.120; 2622.350;  314.050;    0.000
458.165; 2675.350;  289.050;    0.000
458.209; 2541.350;  289.050;    0.000
458.254; 2718.350;  272.050;    0.000
458.298; 2710.350;  305.050;    0.000
458.343; 2735.350;  284.050;    0.000
458.387; 2746.350;  340.050;    0.000
458.432; 2659.350;  306.050;    0.000
458.476; 2759.350;  311.050;    0.000
458.521; 2667.350;  304.050;    0.000
458.565; 2684.350;  329.050;    0.000
458.610; 2655.350;  287.050;    0.000
458.654; 2744.350;  300.050;    0.000
458.699; 2730.350;  295.050;    0.000
458.743; 2724.350;  269.050;    0.000
458.788; 2798.350;  294.050;    0.000
458.832; 2728.350;  301.050;    0.000
458.877; 2852.350;  303.050;    0.000
458.921; 2799.350;  259.050;    0.000
458.965; 2836.350;  308.050;    0.000
459.010; 2867.350;  330.050;    0.000
459.054; 2906.350;  298.050;    0.000
459.099; 2928.350;  303.050;    0.000
459.143; 2836.350;  333.050;    0.000
459.187; 2826.350;  291.050;    0.000
459.231; 2812.350;  316.050;    0.000
459.276; 2941.350;  294.050;    0.000
459.320; 2946.350;  291.050;    0.000
459.364; 2920.350;  318.050;    0.000
459.409; 2873.350;  325.050;    0.000
459.453; 2860.350;  293.050;    0.000
459.497; 2897.350;  354.050;    0.000
459.541; 3043.350;  313.050;    0.000
459.586; 2912.350;  282.050;    0.000
459.630; 3019.350;  286.050;    0.000
459.674; 2934.350;  292.050;    0.000
459.718; 3007.350;  280.050;    0.000
459.762; 2938.350;  304.050;    0.000
459.807; 3002.350;  352.050;    0.000
459.851; 2932.350;  300.050;    0.000
459.895; 2913.350;  311.050;    0.000
459.939; 3072.350;  303.050;    0.000
459.983; 3019.350;  299.050;    0.000
460.027; 3009.350;  307.050;    0.000
460.071; 3056.350;  313.050;    0.000
460.115; 3103.350;  325.050;    0.000
460.159; 3132.350;  331.050;    0.000
460.204; 3032.350;  301.050;    0.000
460.248; 3113.350;  329.050;    0.000
460.292; 3104.350;  310.050;    0.000
460.336; 3148.350;  304.050;    0.000
460.380; 3104.350;  313.050;    0.000
460.424; 3138.350;  300.050;    0.000
460.468; 3121.350;  338.050;    0.000
460.512; 3166.350;  310.050;    0.000
460.556; 3056.350;  337.050;    0.000
460.599; 3078.350;  310.050;    0.000
460.643; 3089.350;  303.050;    0.000
460.687; 3119.350;  316.050;    0.000
460.731; 3189.350;  292.050;    0.000
460.775; 3156.350;  294.050;    0.000
460.819; 3303.350;  310.050;    0.000
460.863; 3123.350;  349.050;    0.000
460.907; 3086.350;  265.050;    0.000
460.951; 3087.350;  325.050;    0.000
460.995; 3128.350;  338.050;    0.000
461.038; 3092.350;  304.050;    0.000
461.082; 3148.350;  312.050;    0.000
461.126; 3137.350;  358.050;    0.000
461.170; 3064.350;  306.050;    0.000
461.214; 3110.350;  330.050;    0.000
461.257; 3096.350;  311.050;    0.000
461.301; 3068.350;  303.050;    0.000
461.345; 3121.350;  310.050;    0.000
461.389; 3094.350;  296.050;    0.000
461.432; 3065.350;  304.050;    0.000
461.476; 3138.350;  305.050;    0.000
461.520; 3150.350;  319.050;    0.000
461.563; 3055.350;  294.050;    0.000
461.607; 3163.350;  295.050;    0.000
461.651; 3107.350;  335.050;    0.000
461.694; 3139.350;  276.050;    0.000
461.738; 3125.350;  327.050;    0.000
461.782; 3172.350;  288.050;    0.000
461.825; 3162.350;  319.050;    0.000
461.869; 3266.350;  305.050;    0.000
461.913; 3180.350;  281.050;    0.000
461.956; 3215.350;  281.050;    0.000
462.000; 3230.350;  339.050;    0.000
462.043; 3279.350;  347.050;    0.000
462.087; 3205.350;  314.050;    0.000
462.130; 3272.350;  332.050;    0.000
462.174; 3298.350;  332.050;    0.000
462.217; 3337.350;  299.050;    0.000
462.261; 3316.350;  323.050;    0.000
462.304; 3255.350;  286.050;    0.000
462.348; 3218.350;  305.050;    0.000
462.391; 3301.350;  293.050;    0.000
462.435; 3331.350;  365.050;    0.000
462.478; 3276.350;  329.050;    0.000
462.522; 3394.350;  316.050;    0.000
462.565; 3421.350;  328.050;    0.000
462.608; 3453.350;  350.050;    0.000
462.652; 3452.350;  328.050;    0.000
462.695; 3546.350;  358.050;    0.000
462.739; 3483.350;  317.050;    0.000
462.782; 3497.350;  329.050;    0.000
462.825; 3579.350;  368.050;    0.000
462.869; 3604.350;  343.050;    0.000
462.912; 3713.350;  404.050;    0.000
462.955; 3596.350;  328.050;    0.000
462.998; 3627.350;  340.050;    0.000
463.042; 3670.350;  361.050;    0.000
463.085; 3662.350;  337.050;    0.000
463.128; 3577.350;  373.050;    0.000
463.172; 3536.350;  347.050;    0.000
463.215;  408.350;  305.050;    0.000
463.258;  321.350;  324.050;    0.000
463.301;  291.350;  296.050;    0.000
463.344;  333.350;  332.050;    0.000
463.388;  300.350;  309.050;    0.000
463.431;  290.350;  298.050;    0.000
463.474;  351.350;  351.050;    0.000
463.517;  314.350;  319.050;    0.000
463.560;  337.350;  325.050;    0.000
463.603;  330.350;  330.050;    0.000
463.646;  319.350;  332.050;    0.000
463.690;  310.350;  325.050;    0.000
463.733;  337.350;  323.050;    0.000
463.776;  305.350;  276.050;    0.000
463.819;  331.350;  320.050;    0.000
463.862;  276.350;  275.050;    0.000

