
Integration time [ms]:   0.300
Averaging Nr. [scans]: 1
Smoothing Nr. [pixels]: 0
Data measured with spectrometer [name]: NIR
Wave   ;Sample   ;Dark     ;Reference
[nm]   ;[counts] ;[counts] ;[counts] 

691.496;   -2.725;  155.525;    0.000
691.696;   38.275;  186.525;    0.000
691.896;  -40.725;  113.525;    0.000
692.096;   -8.725;  169.525;    0.000
692.296;  -51.725;  119.525;    0.000
692.496;   17.275;  182.525;    0.000
692.695;  -31.725;  119.525;    0.000
692.895;   -3.725;  183.525;    0.000
693.095;  -63.725;  119.525;    0.000
693.295;    7.275;  156.525;    0.000
693.495;   13.275;  145.525;    0.000
693.695;    5.275;  144.525;    0.000
693.894;   -6.725;  174.525;    0.000
694.094;  -22.725;  148.525;    0.000
694.294;   -1.725;  114.525;    0.000
694.494;  335.275;  137.525;    0.000
694.693; 3021.275;  112.525;    0.000
694.893; 3293.275;   85.525;    0.000
695.093; 3241.275;  152.525;    0.000
695.293; 3424.275;  159.525;    0.000
695.492; 3380.275;  131.525;    0.000
695.692; 3369.275;  134.525;    0.000
695.891; 3493.275;  161.525;    0.000
696.091; 3487.275;  180.525;    0.000
696.291; 3405.275;  120.525;    0.000
696.490; 3399.275;  146.525;    0.000
696.690; 3423.275;  145.525;    0.000
696.889; 3475.275;  171.525;    0.000
697.089; 3438.275;   98.525;    0.000
697.288; 3433.275;  172.525;    0.000
697.488; 3480.275;  137.525;    0.000
697.687; 3430.275;  171.525;    0.000
697.887; 3448.275;  142.525;    0.000
698.086; 3580.275;  159.525;    0.000
698.286; 3515.275;  122.525;    0.000
698.485; 3565.275;  121.525;    0.000
698.684; 3502.275;   94.525;    0.000
698.884; 3535.275;  131.525;    0.000
699.083; 3505.275;  112.525;    0.000
699.282; 3462.275;  119.525;    0.000
699.482; 3523.275;  117.525;    0.000
699.681; 3528.275;  115.525;    0.000
699.880; 3556.275;  166.525;    0.000
700.080; 3581.275;  194.525;    0.000
700.279; 3488.275;   98.525;    0.000
700.478; 3634.275;  159.525;    0.000
700.677; 3637.275;  134.525;    0.000
700.877; 3691.275;  171.525;    0.000
701.076; 3597.275;  141.525;    0.000
701.275; 3579.275;  119.525;    0.000
701.474; 3552.275;  132.525;    0.000
701.673; 3475.275;  141.525;    0.000
701.872; 3630.275;  158.525;    0.000
702.071; 3613.275;  129.525;    0.000
702.271; 3608.275;  122.525;    0.000
702.470; 3621.275;  158.525;    0.000
702.669; 3804.275;  145.525;    0.000
702.868; 3648.275;  135.525;    0.000
703.067; 3655.275;  169.525;    0.000
703.266; 3737.275;  125.525;    0.000
703.465; 3713.275;  153.525;    0.000
703.664; 3557.275;  113.525;    0.000
703.863; 3681.275;  170.525;    0.000
704.062; 3708.275;  115.525;    0.000
704.260; 3635.275;  133.525;    0.000
704.459; 3703.275;  123.525;    0.000
704.658; 3733.275;  105.525;    0.000
704.857; 3743.275;  125.525;    0.000
705.056; 3629.275;  108.525;    0.000
705.255; 3766.275;  117.525;    0.000
705.454; 3662.275;  126.525;    0.000
705.652; 3627.275;  137.525;    0.000
705.851; 3634.275;   95.525;    0.000
706.050; 3811.275;  120.525;    0.000
706.249; 3744.275;   81.525;    0.000
706.447; 3748.275;  105.525;    0.000
706.646; 3734.275;  107.525;    0.000
706.845; 3730.275;  104.525;    0.000
707.043; 3840.275;  136.525;    0.000
707.242; 3777.275;   89.525;    0.000
707.441; 3843.275;  147.525;    0.000
707.639; 3804.275;  156.525;    0.000
707.838; 3744.275;  114.525;    0.000
708.037; 3663.275;  100.525;    0.000
708.235; 3841.275;  103.525;    0.000
708.434; 3856.275;  102.525;    0.000
708.632; 3775.275;  100.525;    0.000
708.831; 3875.275;  121.525;    0.000
709.029; 3852.275;  102.525;    0.000
709.228; 3777.275;   88.525;    0.000
709.426; 3819.275;  135.525;    0.000
709.625; 3738.275;  128.525;    0.000
709.823; 3888.275;  123.525;    0.000
710.022; 3815.275;  137.525;    0.000
710.220; 3845.275;  134.525;    0.000
710.418; 3964.275;  122.525;    0.000
710.617; 3942.275;   64.525;    0.000
710.815; 3855.275;   94.525;    0.000
711.013; 4004.275;  127.525;    0.000
711.212; 3923.275;  105.525;    0.000
711.410; 4041.275;  117.525;    0.000
711.608; 3866.275;  114.525;    0.000
711.807; 3980.275;  119.525;    0.000
712.005; 4021.275;   92.525;    0.000
712.203; 3916.275;   95.525;    0.000
712.401; 3949.275;  107.525;    0.000
712.599; 3932.275;  127.525;    0.000
712.798; 4017.275;  120.525;    0.000
712.996; 3977.275;   76.525;    0.000
713.194; 3999.275;  118.525;    0.000
713.392; 4093.275;   60.525;    0.000
713.590; 4131.275;   92.525;    0.000
713.788; 4081.275;  110.525;    0.000
713.986; 4091.275;  130.525;    0.000
714.184; 4120.275;   71.525;    0.000
714.382; 4201.275;   86.525;    0.000
714.580; 4170.275;   74.525;    0.000
714.778; 4249.275;  133.525;    0.000
714.976; 4316.275;   81.525;    0.000
715.174; 4347.275;  100.525;    0.000
715.372; 4569.275;  141.525;    0.000
715.570; 4736.275;   73.525;    0.000
715.768; 5143.275;  119.525;    0.000
715.966; 5083.275;   81.525;    0.000
716.164; 4898.275;  130.525;    0.000
716.362; 4901.275;  125.525;    0.000
716.560; 4847.275;  109.525;    0.000
716.758; 4648.275;   96.525;    0.000
716.955; 4592.275;   83.525;    0.000
717.153; 4564.275;   87.525;    0.000
717.351; 4637.275;  123.525;    0.000
717.549; 4590.275;  121.525;    0.000
717.746; 4469.275;  128.525;    0.000
717.944; 4623.275;  132.525;    0.000
718.142; 4487.275;  120.525;    0.000
718.340; 4523.275;   94.525;    0.000
718.537; 4450.275;   95.525;    0.000
718.735; 4637.275;  152.525;    0.000
718.933; 4392.275;  124.525;    0.000
719.130; 4496.275;  114.525;    0.000
719.328; 4472.275;   63.525;    0.000
719.525; 4416.275;  146.525;    0.000
719.723; 4341.275;   96.525;    0.000
719.920; 4281.275;  120.525;    0.000
720.118; 4469.275;   59.525;    0.000
720.316; 4471.275;  116.525;    0.000
720.513; 4355.275;  127.525;    0.000
720.711; 4427.275;  110.525;    0.000
720.908; 4361.275;   92.525;    0.000
721.105; 4587.275;  138.525;    0.000
721.303; 4292.275;   90.525;    0.000
721.500; 4498.275;  126.525;    0.000
721.698; 4320.275;  103.525;    0.000
721.895; 4511.275;  206.525;    0.000
722.092; 4400.275;   63.525;    0.000
722.290; 4455.275;  123.525;    0.000
722.487; 4456.275;  137.525;    0.000
722.684; 4335.275;  126.525;    0.000
722.882; 4452.275;  119.525;    0.000
723.079; 4423.275;  132.525;    0.000
723.276; 4414.275;   98.525;    0.000
723.473; 4427.275;   97.525;    0.000
723.671; 4384.275;   43.525;    0.000
723.868; 4413.275;  142.525;    0.000
724.065; 4628.275;  102.525;    0.000
724.262; 4436.275;  119.525;    0.000
724.459; 4528.275;   73.525;    0.000
724.656; 4407.275;  128.525;    0.000
724.854; 4711.275;  135.525;    0.000
725.051; 4415.275;   81.525;    0.000
725.248; 4519.275;   88.525;    0.000
725.445; 4613.275;  129.525;    0.000
725.642; 4494.275;   76.525;    0.000
725.839; 4566.275;  134.525;    0.000
726.036; 4670.275;  101.525;    0.000
726.233; 4602.275;   68.525;    0.000
726.430; 4539.275;  121.525;    0.000
726.627; 4542.275;  136.525;    0.000
726.824; 4526.275;   87.525;    0.000
727.021; 4550.275;  141.525;    0.000
727.218; 4562.275;   92.525;    0.000
727.414; 4622.275;  121.525;    0.000
727.611; 4492.275;  100.525;    0.000
727.808; 4562.275;  130.525;    0.000
728.005; 4622.275;   83.525;    0.000
728.202; 4562.275;  120.525;    0.000
728.399; 4646.275;   75.525;    0.000
728.595; 4601.275;  148.525;    0.000
728.792; 4544.275;   79.525;    0.000
728.989; 4654.275;   86.525;    0.000
729.186; 4598.275;   80.525;    0.000
729.382; 4638.275;   72.525;    0.000
729.579; 4729.275;  112.525;    0.000
729.776; 4603.275;  106.525;    0.000
729.972; 4592.275;   77.525;    0.000
730.169; 4696.275;  118.525;    0.000
730.366; 4638.275;   92.525;    0.000
730.562; 4737.275;  104.525;    0.000
730.759; 4724.275;   95.525;    0.000
730.955; 4717.275;   85.525;    0.000
731.152; 4689.275;   79.525;    0.000
731.348; 4560.275;   72.525;    0.000
731.545; 4629.275;   56.525;    0.000
731.741; 4789.275;  106.525;    0.000
731.938; 4803.275;  113.525;    0.000
732.134; 4773.275;  106.525;    0.000
732.331; 4753.275;   82.525;    0.000
732.527; 4695.275;   80.525;    0.000
732.724; 4661.275;   97.525;    0.000
732.920; 4746.275;  127.525;    0.000
733.116; 4659.275;  115.525;    0.000
733.313; 4757.275;  153.525;    0.000
733.509; 4722.275;   76.525;    0.000
733.705; 4815.275;  159.525;    0.000
733.902; 4690.275;   82.525;    0.000
734.098; 4744.275;   70.525;    0.000
734.294; 4751.275;  105.525;    0.000
734.490; 4808.275;  110.525;    0.000
734.687; 4808.275;  102.525;    0.000
734.883; 4732.275;   77.525;    0.000
735.079; 4805.275;   93.525;    0.000
735.275; 4862.275;  109.525;    0.000
735.471; 4793.275;   99.525;    0.000
735.667; 4785.275;  107.525;    0.000
735.863; 4809.275;   89.525;    0.000
736.060; 4929.275;  105.525;    0.000
736.256; 4762.275;  113.525;    0.000
736.452; 4877.275;   90.525;    0.000
736.648; 4913.275;   88.525;    0.000
736.844; 4853.275;  129.525;    0.000
737.040; 5001.275;  139.525;    0.000
737.236; 4766.275;  129.525;    0.000
737.432; 4889.275;   67.525;    0.000
737.628; 5073.275;  104.525;    0.000
737.824; 4945.275;  111.525;    0.000
738.019; 4961.275;  116.525;    0.000
738.215; 4870.275;  135.525;    0.000
738.411; 5011.275;  118.525;    0.000
738.607; 4997.275;   58.525;    0.000
738.803; 4963.275;   32.525;    0.000
738.999; 5097.275;  120.525;    0.000
739.195; 5034.275;   76.525;    0.000
739.390; 5068.275;  119.525;    0.000
739.586; 5067.275;   83.525;    0.000
739.782; 5196.275;  134.525;    0.000
739.978; 5189.275;  122.525;    0.000
740.173; 5022.275;   96.525;    0.000
740.369; 5149.275;   86.525;    0.000
740.565; 5206.275;  122.525;    0.000
740.760; 5301.275;   99.525;    0.000
740.956; 5289.275;  137.525;    0.000
741.152; 5330.275;  108.525;    0.000
741.347; 5277.275;   65.525;    0.000
741.543; 5318.275;   73.525;    0.000
741.738; 5413.275;  142.525;    0.000
741.934; 5697.275;  131.525;    0.000
742.129; 6022.275;   66.525;    0.000
742.325; 6873.275;  143.525;    0.000
742.520; 7526.275;  119.525;    0.000
742.716; 7051.275;  109.525;    0.000
742.911; 6637.275;   62.525;    0.000
743.107; 6364.275;  119.525;    0.000
743.302; 6403.275;   78.525;    0.000
743.498; 6474.275;  130.525;    0.000
743.693; 6470.275;   75.525;    0.000
743.888; 6819.275;  135.525;    0.000
744.084; 7799.275;  106.525;    0.000
744.279; 9772.275;  101.525;    0.000
744.474; 9684.275;   91.525;    0.000
744.670; 8628.275;  144.525;    0.000
744.865; 7878.275;  128.525;    0.000
745.060; 7494.275;   63.525;    0.000
745.255; 7149.275;  155.525;    0.000
745.451; 7057.275;  110.525;    0.000
745.646; 6873.275;  150.525;    0.000
745.841; 6854.275;  128.525;    0.000
746.036; 6962.275;  110.525;    0.000
746.231; 7153.275;  126.525;    0.000
746.426; 7533.275;   83.525;    0.000
746.622; 8617.275;  157.525;    0.000
746.817;11558.275;  112.525;    0.000
747.012;12920.275;  115.525;    0.000
747.207;11413.275;  161.525;    0.000
747.402;10115.275;   88.525;    0.000
747.597; 9153.275;  103.525;    0.000
747.792; 8714.275;  152.525;    0.000
747.987; 8427.275;   80.525;    0.000
748.182; 8161.275;   89.525;    0.000
748.377; 7652.275;  104.525;    0.000
748.572; 7487.275;  138.525;    0.000
748.767; 7134.275;  100.525;    0.000
748.961; 6814.275;  106.525;    0.000
749.156; 6687.275;  113.525;    0.000
749.351; 6615.275;  116.525;    0.000
749.546; 6496.275;  107.525;    0.000
749.741; 6414.275;  102.525;    0.000
749.936; 6342.275;  105.525;    0.000
750.130; 6234.275;  111.525;    0.000
750.325; 6190.275;   72.525;    0.000
750.520; 6145.275;   96.525;    0.000
750.715; 6102.275;  135.525;    0.000
750.909; 6018.275;  107.525;    0.000
751.104; 5910.275;  106.525;    0.000
751.299; 6008.275;  144.525;    0.000
751.493; 5937.275;  116.525;    0.000
751.688; 5944.275;   96.525;    0.000
751.882; 5664.275;   92.525;    0.000
752.077; 5866.275;  109.525;    0.000
752.272; 5765.275;   96.525;    0.000
752.466; 5657.275;  110.525;    0.000
752.661; 5703.275;  120.525;    0.000
752.855; 5657.275;   70.525;    0.000
753.050; 5706.275;  129.525;    0.000
753.244; 5535.275;  126.525;    0.000
753.439; 5605.275;  115.525;    0.000
753.633; 5620.275;  120.525;    0.000
753.828; 5579.275;  129.525;    0.000
754.022; 5584.275;  139.525;    0.000
754.216; 5580.275;  121.525;    0.000
754.411; 5579.275;  108.525;    0.000
754.605; 5369.275;   94.525;    0.000
754.799; 5422.275;  125.525;    0.000
754.994; 5521.275;  160.525;    0.000
755.188; 5521.275;  151.525;    0.000
755.382; 5486.275;  102.525;    0.000
755.576; 5447.275;  103.525;    0.000
755.771; 5434.275;   99.525;    0.000
755.965; 5327.275;  158.525;    0.000
756.159; 5365.275;   96.525;    0.000
756.353; 5350.275;  157.525;    0.000
756.547; 5444.275;  132.525;    0.000
756.742; 5464.275;  106.525;    0.000
756.936; 5384.275;  113.525;    0.000
757.130; 5437.275;  114.525;    0.000
757.324; 5406.275;  111.525;    0.000
757.518; 5329.275;  142.525;    0.000
757.712; 5245.275;  137.525;    0.000
757.906; 5359.275;   93.525;    0.000
758.100; 5401.275;  119.525;    0.000
758.294; 5476.275;  132.525;    0.000
758.488; 5413.275;  153.525;    0.000
758.682; 5405.275;  101.525;    0.000
758.876; 5416.275;  129.525;    0.000
759.070; 5407.275;  168.525;    0.000
759.264; 5303.275;   96.525;    0.000
759.458; 5345.275;  117.525;    0.000
759.651; 5301.275;  135.525;    0.000
759.845; 5355.275;  127.525;    0.000
760.039; 5338.275;  120.525;    0.000
760.233; 5328.275;  124.525;    0.000
760.427; 5299.275;  115.525;    0.000
760.620; 5301.275;  130.525;    0.000
760.814; 5326.275;  102.525;    0.000
761.008; 5416.275;  174.525;    0.000
761.202; 5411.275;  132.525;    0.000
761.395; 5280.275;  126.525;    0.000
761.589; 5375.275;  133.525;    0.000
761.783; 5348.275;  147.525;    0.000
761.976; 5445.275;  147.525;    0.000
762.170; 5420.275;  174.525;    0.000
762.363; 5289.275;   97.525;    0.000
762.557; 5296.275;  141.525;    0.000
762.750; 5423.275;  112.525;    0.000
762.944; 5437.275;  110.525;    0.000
763.138; 5489.275;  125.525;    0.000
763.331; 5403.275;  101.525;    0.000
763.524; 5519.275;  101.525;    0.000
763.718; 5556.275;  156.525;    0.000
763.911; 5555.275;  143.525;    0.000
764.105; 5537.275;  139.525;    0.000
764.298; 5454.275;   89.525;    0.000
764.492; 5500.275;  111.525;    0.000
764.685; 5541.275;  136.525;    0.000
764.878; 5450.275;  146.525;    0.000
765.072; 5367.275;  110.525;    0.000
765.265; 5482.275;  141.525;    0.000
765.458; 5531.275;   82.525;    0.000
765.651; 5487.275;  144.525;    0.000
765.845; 5490.275;   79.525;    0.000
766.038; 5710.275;  123.525;    0.000
766.231; 6204.275;  125.525;    0.000
766.424; 9374.275;  131.525;    0.000
766.617; 9720.275;   62.525;    0.000
766.811; 6020.275;  142.525;    0.000
767.004; 5674.275;  134.525;    0.000
767.197; 5697.275;  147.525;    0.000
767.390; 5536.275;  100.525;    0.000
767.583; 5529.275;  121.525;    0.000
767.776; 5559.275;   91.525;    0.000
767.969; 5624.275;  113.525;    0.000
768.162; 5645.275;  170.525;    0.000
768.355; 5615.275;  134.525;    0.000
768.548; 5679.275;  177.525;    0.000
768.741; 5778.275;   96.525;    0.000
768.934; 5773.275;  143.525;    0.000
769.127; 5677.275;  147.525;    0.000
769.320; 5854.275;   93.525;    0.000
769.513; 5854.275;  137.525;    0.000
769.706; 6732.275;   96.525;    0.000
769.898; 9345.275;  118.525;    0.000
770.091; 7325.275;  138.525;    0.000
770.284; 5996.275;  133.525;    0.000
770.477; 6074.275;  137.525;    0.000
770.670; 5941.275;  124.525;    0.000
770.862; 6091.275;  125.525;    0.000
771.055; 6041.275;  135.525;    0.000
771.248; 6037.275;  109.525;    0.000
771.441; 6128.275;  141.525;    0.000
771.633; 6081.275;  142.525;    0.000
771.826; 6178.275;  123.525;    0.000
772.018; 6243.275;  136.525;    0.000
772.211; 6237.275;  145.525;    0.000
772.404; 6225.275;  127.525;    0.000
772.596; 6401.275;  193.525;    0.000
772.789; 6522.275;   64.525;    0.000
772.981; 6446.275;  142.525;    0.000
773.174; 6615.275;  105.525;    0.000
773.366; 6599.275;  166.525;    0.000
773.559; 6725.275;  125.525;    0.000
773.751; 6846.275;  126.525;    0.000
773.944; 6952.275;  147.525;    0.000
774.136; 7098.275;  155.525;    0.000
774.329; 7314.275;  127.525;    0.000
774.521; 7545.275;  133.525;    0.000
774.713; 7638.275;  139.525;    0.000
774.906; 7977.275;  170.525;    0.000
775.098; 8082.275;  144.525;    0.000
775.290; 8626.275;  162.525;    0.000
775.483; 8877.275;  137.525;    0.000
775.675; 9326.275;  148.525;    0.000
775.867;10093.275;   81.525;    0.000
776.059;11126.275;  134.525;    0.000
776.251;12030.275;  137.525;    0.000
776.444;13677.275;  155.525;    0.000
776.636;15998.275;  148.525;    0.000
776.828;20083.275;  129.525;    0.000
777.020;28810.275;  133.525;    0.000
777.212;43754.273;  137.525;    0.000
777.404;48743.273;  124.525;    0.000
777.596;45188.273;  142.525;    0.000
777.788;33090.273;  155.525;    0.000
777.980;24788.275;  119.525;    0.000
778.172;20134.275;  129.525;    0.000
778.364;16970.275;  122.525;    0.000
778.556;15145.275;  129.525;    0.000
778.748;13652.275;  178.525;    0.000
778.940;12205.275;  128.525;    0.000
779.132;11274.275;  145.525;    0.000
779.324;10354.275;   89.525;    0.000
779.516; 9757.275;  161.525;    0.000
779.708; 9257.275;  183.525;    0.000
779.900; 8801.275;  124.525;    0.000
780.091; 8374.275;  143.525;    0.000
780.283; 7934.275;  135.525;    0.000
780.475; 7817.275;  129.525;    0.000
780.667; 7525.275;  178.525;    0.000
780.859; 7369.275;  146.525;    0.000
781.050; 7168.275;  156.525;    0.000
781.242; 7006.275;  138.525;    0.000
781.434; 6865.275;  117.525;    0.000
781.625; 6701.275;  161.525;    0.000
781.817; 6539.275;  127.525;    0.000
782.008; 6505.275;  138.525;    0.000
782.200; 6542.275;  139.525;    0.000
782.392; 6439.275;  179.525;    0.000
782.583; 6377.275;  137.525;    0.000
782.775; 6332.275;  162.525;    0.000
782.966; 6127.275;  159.525;    0.000
783.158; 5982.275;  118.525;    0.000
783.349; 5990.275;  160.525;    0.000
783.541; 5963.275;  139.525;    0.000
783.732; 5861.275;  145.525;    0.000
783.924; 5938.275;  146.525;    0.000
784.115; 5890.275;  125.525;    0.000
784.306; 5778.275;  118.525;    0.000
784.498; 5598.275;  144.525;    0.000
784.689; 5793.275;  145.525;    0.000
784.880; 5690.275;  137.525;    0.000
785.072; 5626.275;  157.525;    0.000
785.263; 5560.275;  149.525;    0.000
785.454; 5606.275;  128.525;    0.000
785.645; 5569.275;  131.525;    0.000
785.837; 5572.275;  137.525;    0.000
786.028; 5604.275;  161.525;    0.000
786.219; 5517.275;  155.525;    0.000
786.410; 5566.275;  146.525;    0.000
786.601; 5577.275;  120.525;    0.000
786.792; 5489.275;  179.525;    0.000
786.984; 5551.275;  113.525;    0.000
787.175; 5561.275;  156.525;    0.000
787.366; 5470.275;  131.525;    0.000
787.557; 5515.275;  138.525;    0.000
787.748; 5481.275;  112.525;    0.000
787.939; 5574.275;  115.525;    0.000
788.130; 5517.275;  150.525;    0.000
788.321; 5524.275;  122.525;    0.000
788.512; 5714.275;  147.525;    0.000
788.703; 5605.275;  126.525;    0.000
788.894; 5454.275;   80.525;    0.000
789.084; 5625.275;  127.525;    0.000
789.275; 5633.275;  141.525;    0.000
789.466; 5588.275;  108.525;    0.000
789.657; 5701.275;  137.525;    0.000
789.848; 5630.275;  126.525;    0.000
790.039; 5677.275;  144.525;    0.000
790.229; 5719.275;  105.525;    0.000
790.420; 5653.275;   96.525;    0.000
790.611; 5415.275;  171.525;    0.000
790.801; 5700.275;   89.525;    0.000
790.992; 5613.275;  140.525;    0.000
791.183; 5652.275;  143.525;    0.000
791.373; 5505.275;  128.525;    0.000
791.564; 5530.275;   96.525;    0.000
791.755; 5493.275;  111.525;    0.000
791.945; 5613.275;  112.525;    0.000
792.136; 5585.275;  124.525;    0.000
792.326; 5611.275;   88.525;    0.000
792.517; 5544.275;  130.525;    0.000
792.707; 5705.275;  144.525;    0.000
792.898; 5713.275;  120.525;    0.000
793.088; 5783.275;  106.525;    0.000
793.279; 5854.275;  104.525;    0.000
793.469; 5753.275;  103.525;    0.000
793.660; 5963.275;  120.525;    0.000
793.850; 6105.275;  106.525;    0.000
794.040; 6182.275;  135.525;    0.000
794.231; 6632.275;   80.525;    0.000
794.421; 7119.275;  120.525;    0.000
794.611; 8050.275;  154.525;    0.000
794.802; 9299.275;  103.525;    0.000
794.992; 9874.275;  120.525;    0.000
795.182; 9977.275;  156.525;    0.000
795.372; 9214.275;  104.525;    0.000
795.563; 8304.275;  153.525;    0.000
795.753; 7538.275;  112.525;    0.000
795.943; 7208.275;  128.525;    0.000
796.133; 6881.275;  128.525;    0.000
796.323; 6498.275;  152.525;    0.000
796.513; 6191.275;  123.525;    0.000
796.703; 6216.275;  134.525;    0.000
796.893; 5933.275;  120.525;    0.000
797.083; 5855.275;  136.525;    0.000
797.273; 5798.275;  128.525;    0.000
797.463; 5726.275;  140.525;    0.000
797.653; 5525.275;   75.525;    0.000
797.843; 5513.275;  114.525;    0.000
798.033; 5518.275;   90.525;    0.000
798.223; 5274.275;  136.525;    0.000
798.413; 5374.275;  164.525;    0.000
798.603; 5131.275;  150.525;    0.000
798.793; 5173.275;  137.525;    0.000
798.983; 5126.275;  119.525;    0.000
799.172; 5004.275;  136.525;    0.000
799.362; 5118.275;  138.525;    0.000
799.552; 5148.275;  123.525;    0.000
799.742; 4955.275;  117.525;    0.000
799.932; 4750.275;  108.525;    0.000
800.121; 5059.275;  152.525;    0.000
800.311; 5012.275;  117.525;    0.000
800.501; 4985.275;  100.525;    0.000
800.690; 4974.275;  139.525;    0.000
800.880; 4740.275;  138.525;    0.000
801.070; 4774.275;  120.525;    0.000
801.259; 4885.275;  143.525;    0.000
801.449; 4855.275;  110.525;    0.000
801.638; 5054.275;  140.525;    0.000
801.828; 4791.275;  103.525;    0.000
802.017; 4738.275;   78.525;    0.000
802.207; 4849.275;  126.525;    0.000
802.396; 4866.275;  151.525;    0.000
802.586; 4698.275;  106.525;    0.000
802.775; 4700.275;  152.525;    0.000
802.965; 4806.275;  117.525;    0.000
803.154; 4741.275;  171.525;    0.000
803.343; 4666.275;  126.525;    0.000
803.533; 4706.275;  135.525;    0.000
803.722; 4703.275;  144.525;    0.000
803.911; 4834.275;  109.525;    0.000
804.101; 4725.275;  146.525;    0.000
804.290; 4662.275;  115.525;    0.000
804.479; 4774.275;  128.525;    0.000
804.668; 4694.275;  156.525;    0.000
804.857; 4708.275;  151.525;    0.000
805.047; 4681.275;  131.525;    0.000
805.236; 4686.275;  144.525;    0.000
805.425; 4714.275;  160.525;    0.000
805.614; 4522.275;  112.525;    0.000
805.803; 4485.275;  120.525;    0.000
805.992; 4587.275;  148.525;    0.000
806.181; 4604.275;  108.525;    0.000
806.370; 4622.275;  142.525;    0.000
806.559; 4752.275;  116.525;    0.000
806.748; 4649.275;  108.525;    0.000
806.937; 4640.275;  110.525;    0.000
807.126; 4645.275;  126.525;    0.000
807.315; 4746.275;  121.525;    0.000
807.504; 4707.275;  102.525;    0.000
807.693; 4649.275;  134.525;    0.000
807.882; 4679.275;  135.525;    0.000
808.071; 4705.275;  135.525;    0.000
808.260; 4710.275;   93.525;    0.000
808.448; 4696.275;  151.525;    0.000
808.637; 4677.275;  105.525;    0.000
808.826; 4810.275;  178.525;    0.000
809.015; 4711.275;  152.525;    0.000
809.203; 4798.275;  147.525;    0.000
809.392; 4753.275;  144.525;    0.000
809.581; 4743.275;  167.525;    0.000
809.770; 4802.275;  151.525;    0.000
809.958; 4870.275;  128.525;    0.000
810.147; 4776.275;  152.525;    0.000
810.335; 4995.275;  160.525;    0.000
810.524; 4898.275;  130.525;    0.000
810.713; 4902.275;  128.525;    0.000
810.901; 5000.275;  140.525;    0.000
811.090; 4915.275;  152.525;    0.000
811.278; 5056.275;  126.525;    0.000
811.467; 5170.275;  161.525;    0.000
811.655; 5390.275;  184.525;    0.000
811.844; 5209.275;  148.525;    0.000
812.032; 5204.275;  138.525;    0.000
812.220; 5195.275;  157.525;    0.000
812.409; 5266.275;  143.525;    0.000
812.597; 5266.275;  124.525;    0.000
812.785; 5413.275;  170.525;    0.000
812.974; 5425.275;  135.525;    0.000
813.162; 5346.275;  135.525;    0.000
813.350; 5314.275;  182.525;    0.000
813.539; 5330.275;  126.525;    0.000
813.727; 5497.275;  127.525;    0.000
813.915; 5541.275;  140.525;    0.000
814.103; 5434.275;  176.525;    0.000
814.291; 5542.275;  115.525;    0.000
814.479; 5668.275;  119.525;    0.000
814.668; 5693.275;  134.525;    0.000
814.856; 5803.275;  120.525;    0.000
815.044; 5830.275;  164.525;    0.000
815.232; 5968.275;  146.525;    0.000
815.420; 5991.275;  154.525;    0.000
815.608; 6215.275;  137.525;    0.000
815.796; 6264.275;  108.525;    0.000
815.984; 6496.275;  134.525;    0.000
816.172; 6443.275;  123.525;    0.000
816.360; 6728.275;  181.525;    0.000
816.548; 7034.275;  139.525;    0.000
816.736; 7267.275;  138.525;    0.000
816.924; 7663.275;  151.525;    0.000
817.111; 7926.275;  156.525;    0.000
817.299; 8397.275;  147.525;    0.000
817.487; 9290.275;  188.525;    0.000
817.675;10158.275;  129.525;    0.000
817.863;11990.275;  128.525;    0.000
818.050;16402.275;  110.525;    0.000
818.238;29509.275;  166.525;    0.000
818.426;41046.273;  136.525;    0.000
818.613;29124.275;  143.525;    0.000
818.801;23654.275;  150.525;    0.000
818.989;22692.275;  179.525;    0.000
819.176;24059.275;  123.525;    0.000
819.364;35644.273;  148.525;    0.000
819.552;50049.273;   86.525;    0.000
819.739;35800.273;  169.525;    0.000
819.927;25881.275;  130.525;    0.000
820.114;21490.275;  144.525;    0.000
820.302;18613.275;  166.525;    0.000
820.489;17033.275;  145.525;    0.000
820.677;15703.275;  101.525;    0.000
820.864;14989.275;  149.525;    0.000
821.052;15010.275;  130.525;    0.000
821.239;15193.275;  147.525;    0.000
821.426;15815.275;  121.525;    0.000
821.614;18816.275;  187.525;    0.000
821.801;20081.275;  105.525;    0.000
821.988;17382.275;  167.525;    0.000
822.176;16801.275;  130.525;    0.000
822.363;16962.275;  143.525;    0.000
822.550;15577.275;  108.525;    0.000
822.737;14027.275;  109.525;    0.000
822.924;12842.275;  156.525;    0.000
823.112;12375.275;  123.525;    0.000
823.299;11398.275;  128.525;    0.000
823.486;10915.275;  138.525;    0.000
823.673;10232.275;  125.525;    0.000
823.860; 9950.275;  138.525;    0.000
824.047;10096.275;  122.525;    0.000
824.234;11278.275;  134.525;    0.000
824.421;11332.275;   95.525;    0.000
824.608;10189.275;  151.525;    0.000
824.795; 9200.275;  117.525;    0.000
824.982; 8429.275;  143.525;    0.000
825.169; 7858.275;   83.525;    0.000
825.356; 7695.275;  126.525;    0.000
825.543; 7311.275;   92.525;    0.000
825.730; 7087.275;  113.525;    0.000
825.917; 6757.275;  142.525;    0.000
826.104; 6580.275;  182.525;    0.000
826.290; 6396.275;  137.525;    0.000
826.477; 6158.275;  126.525;    0.000
826.664; 6226.275;  135.525;    0.000
826.851; 5787.275;  139.525;    0.000
827.038; 5821.275;  135.525;    0.000
827.224; 5559.275;  143.525;    0.000
827.411; 5652.275;  153.525;    0.000
827.598; 5496.275;  122.525;    0.000
827.784; 5278.275;  138.525;    0.000
827.971; 5253.275;  134.525;    0.000
828.157; 5194.275;  152.525;    0.000
828.344; 5087.275;  135.525;    0.000
828.531; 5015.275;  137.525;    0.000
828.717; 5008.275;  117.525;    0.000
828.904; 4931.275;  127.525;    0.000
829.090; 4908.275;  172.525;    0.000
829.277; 4742.275;  144.525;    0.000
829.463; 4690.275;  159.525;    0.000
829.650; 4755.275;  187.525;    0.000
829.836; 4568.275;  138.525;    0.000
830.022; 4711.275;  196.525;    0.000
830.209; 4558.275;  118.525;    0.000
830.395; 4486.275;  148.525;    0.000
830.581; 4446.275;  108.525;    0.000
830.768; 4367.275;  137.525;    0.000
830.954; 4406.275;  162.525;    0.000
831.140; 4282.275;  117.525;    0.000
831.327; 4268.275;  176.525;    0.000
831.513; 4306.275;  162.525;    0.000
831.699; 4296.275;  157.525;    0.000
831.885; 4300.275;  153.525;    0.000
832.071; 4144.275;  123.525;    0.000
832.257; 4151.275;  142.525;    0.000
832.444; 4076.275;  165.525;    0.000
832.630; 4115.275;  159.525;    0.000
832.816; 4047.275;  145.525;    0.000
833.002; 3993.275;  120.525;    0.000
833.188; 3958.275;  145.525;    0.000
833.374; 3911.275;  137.525;    0.000
833.560; 3892.275;  152.525;    0.000
833.746; 3850.275;  139.525;    0.000
833.932; 3883.275;  170.525;    0.000
834.118; 3772.275;  111.525;    0.000
834.303; 3872.275;  141.525;    0.000
834.489; 3787.275;  146.525;    0.000
834.675; 3792.275;  156.525;    0.000
834.861; 3792.275;   87.525;    0.000
835.047; 3869.275;  134.525;    0.000
835.233; 3693.275;   89.525;    0.000
835.418; 3802.275;  145.525;    0.000
835.604; 3701.275;  136.525;    0.000
835.790; 3715.275;  132.525;    0.000
835.976; 3709.275;  161.525;    0.000
836.161; 3667.275;  157.525;    0.000
836.347; 3638.275;  147.525;    0.000
836.533; 3609.275;  116.525;    0.000
836.718; 3722.275;  168.525;    0.000
836.904; 3693.275;  199.525;    0.000
837.089; 3596.275;  165.525;    0.000
837.275; 3592.275;  166.525;    0.000
837.460; 3581.275;  144.525;    0.000
837.646; 3632.275;  164.525;    0.000
837.831; 3813.275;  122.525;    0.000
838.017; 3701.275;  163.525;    0.000
838.202; 3637.275;  139.525;    0.000
838.388; 3659.275;  174.525;    0.000
838.573; 3541.275;  140.525;    0.000
838.759; 3661.275;  167.525;    0.000
838.944; 3609.275;  142.525;    0.000
839.129; 3591.275;  164.525;    0.000
839.315; 3560.275;  129.525;    0.000
839.500; 3555.275;  150.525;    0.000
839.685; 3573.275;  118.525;    0.000
839.870; 3623.275;  177.525;    0.000
840.056; 3562.275;  144.525;    0.000
840.241; 3527.275;  121.525;    0.000
840.426; 3644.275;  131.525;    0.000
840.611; 3689.275;  177.525;    0.000
840.796; 3716.275;  173.525;    0.000
840.981; 3722.275;  156.525;    0.000
841.166; 3656.275;  145.525;    0.000
841.352; 3827.275;  150.525;    0.000
841.537; 3761.275;  143.525;    0.000
841.722; 3809.275;  165.525;    0.000
841.907; 3852.275;  184.525;    0.000
842.092; 3865.275;  171.525;    0.000
842.277; 3928.275;  155.525;    0.000
842.461; 3995.275;  152.525;    0.000
842.646; 4121.275;  107.525;    0.000
842.831; 4105.275;  160.525;    0.000
843.016; 4207.275;  160.525;    0.000
843.201; 4319.275;  164.525;    0.000
843.386; 4612.275;  134.525;    0.000
843.571; 4659.275;  132.525;    0.000
843.755; 5155.275;  158.525;    0.000
843.940; 5550.275;  152.525;    0.000
844.125; 6156.275;  154.525;    0.000
844.310; 7407.275;  147.525;    0.000
844.494; 9686.275;  158.525;    0.000
844.679;13842.275;  173.525;    0.000
844.864;13538.275;  152.525;    0.000
845.048;10611.275;  139.525;    0.000
845.233; 8756.275;  200.525;    0.000
845.418; 7646.275;  139.525;    0.000
845.602; 6682.275;  147.525;    0.000
845.787; 6052.275;  148.525;    0.000
845.971; 5630.275;  170.525;    0.000
846.156; 5293.275;  136.525;    0.000
846.340; 5076.275;  146.525;    0.000
846.525; 4878.275;  188.525;    0.000
846.709; 4545.275;  128.525;    0.000
846.893; 4336.275;  151.525;    0.000
847.078; 4197.275;  164.525;    0.000
847.262; 4003.275;  155.525;    0.000
847.447; 3936.275;  114.525;    0.000
847.631; 3913.275;  148.525;    0.000
847.815; 3849.275;  114.525;    0.000
848.000; 3695.275;  134.525;    0.000
848.184; 3610.275;  154.525;    0.000
848.368; 3617.275;  145.525;    0.000
848.552; 3685.275;  122.525;    0.000
848.736; 3539.275;  139.525;    0.000
848.921; 3448.275;  143.525;    0.000
849.105; 3456.275;  145.525;    0.000
849.289; 3299.275;  173.525;    0.000
849.473; 3385.275;  147.525;    0.000
849.657; 3292.275;  144.525;    0.000
849.841; 3261.275;  168.525;    0.000
850.025; 3289.275;  205.525;    0.000
850.209; 3226.275;  171.525;    0.000
850.393; 3225.275;  130.525;    0.000
850.577; 3149.275;  146.525;    0.000
850.761; 3217.275;  188.525;    0.000
850.945; 3165.275;  137.525;    0.000
851.129; 3130.275;  192.525;    0.000
851.313; 3111.275;  199.525;    0.000
851.497; 3205.275;  165.525;    0.000
851.680; 3133.275;  196.525;    0.000
851.864; 3187.275;  169.525;    0.000
852.048; 3222.275;  156.525;    0.000
852.232; 3146.275;  150.525;    0.000
852.416; 3133.275;  219.525;    0.000
852.599; 3083.275;  168.525;    0.000
852.783; 3068.275;  165.525;    0.000
852.967; 3148.275;  166.525;    0.000
853.150; 3108.275;  191.525;    0.000
853.334; 3013.275;  158.525;    0.000
853.518; 3020.275;  168.525;    0.000
853.701; 2949.275;  125.525;    0.000
853.885; 3063.275;  165.525;    0.000
854.068; 2901.275;  142.525;    0.000
854.252; 2999.275;  167.525;    0.000
854.435; 3009.275;  146.525;    0.000
854.619; 3045.275;  163.525;    0.000
854.802; 2942.275;  167.525;    0.000
854.986; 3017.275;  163.525;    0.000
855.169; 3014.275;  146.525;    0.000
855.353; 3023.275;  183.525;    0.000
855.536; 3113.275;  140.525;    0.000
855.719; 3038.275;  168.525;    0.000
855.903; 3029.275;  170.525;    0.000
856.086; 3134.275;  145.525;    0.000
856.269; 3122.275;  126.525;    0.000
856.452; 3139.275;  142.525;    0.000
856.636; 3300.275;  140.525;    0.000
856.819; 3495.275;  127.525;    0.000
857.002; 3632.275;  165.525;    0.000
857.185; 3506.275;  111.525;    0.000
857.368; 3464.275;  143.525;    0.000
857.552; 3309.275;  174.525;    0.000
857.735; 3288.275;  194.525;    0.000
857.918; 3275.275;  171.525;    0.000
858.101; 3212.275;  142.525;    0.000
858.284; 3235.275;  118.525;    0.000
858.467; 3299.275;  163.525;    0.000
858.650; 3409.275;  149.525;    0.000
858.833; 3412.275;  120.525;    0.000
859.016; 3457.275;  169.525;    0.000
859.199; 3718.275;  121.525;    0.000
859.382; 4064.275;  184.525;    0.000
859.564; 4421.275;  139.525;    0.000
859.747; 4261.275;  126.525;    0.000
859.930; 3999.275;  109.525;    0.000
860.113; 3830.275;  137.525;    0.000
860.296; 3753.275;  182.525;    0.000
860.478; 3695.275;  136.525;    0.000
860.661; 3659.275;  157.525;    0.000
860.844; 3616.275;  129.525;    0.000
861.027; 3618.275;  163.525;    0.000
861.209; 3531.275;  151.525;    0.000
861.392; 3554.275;  124.525;    0.000
861.575; 3620.275;  163.525;    0.000
861.757; 3615.275;  205.525;    0.000
861.940; 3690.275;  180.525;    0.000
862.122; 3672.275;  148.525;    0.000
862.305; 3750.275;  128.525;    0.000
862.487; 4085.275;  172.525;    0.000
862.670; 4300.275;  123.525;    0.000
862.852; 5154.275;  126.525;    0.000
863.035; 6359.275;  174.525;    0.000
863.217; 6102.275;  160.525;    0.000
863.400; 5413.275;  164.525;    0.000
863.582; 5089.275;  118.525;    0.000
863.764; 4846.275;  143.525;    0.000
863.947; 4510.275;  137.525;    0.000
864.129; 4302.275;  166.525;    0.000
864.311; 4313.275;  128.525;    0.000
864.493; 4313.275;  153.525;    0.000
864.676; 4220.275;  156.525;    0.000
864.858; 4140.275;  159.525;    0.000
865.040; 4140.275;  163.525;    0.000
865.222; 4065.275;  138.525;    0.000
865.404; 4187.275;  157.525;    0.000
865.587; 4383.275;  184.525;    0.000
865.769; 4633.275;  178.525;    0.000
865.951; 4613.275;  104.525;    0.000
866.133; 4593.275;  147.525;    0.000
866.315; 4604.275;  141.525;    0.000
866.497; 4514.275;  132.525;    0.000
866.679; 4721.275;  139.525;    0.000
866.861; 4797.275;  118.525;    0.000
867.043; 5179.275;  154.525;    0.000
867.225; 5467.275;  147.525;    0.000
867.407; 5994.275;  158.525;    0.000
867.589; 6623.275;  172.525;    0.000
867.770; 8165.275;  159.525;    0.000
867.952;11762.275;  149.525;    0.000
868.134;15782.275;  156.525;    0.000
868.316;15322.275;  171.525;    0.000
868.498;14622.275;  200.525;    0.000
868.679;12619.275;  174.525;    0.000
868.861;10500.275;  175.525;    0.000
869.043; 8600.275;  174.525;    0.000
869.224; 7664.275;  122.525;    0.000
869.406; 6942.275;  166.525;    0.000
869.588; 6466.275;  143.525;    0.000
869.769; 5961.275;  152.525;    0.000
869.951; 5943.275;  165.525;    0.000
870.132; 6067.275;  115.525;    0.000
870.314; 6780.275;  139.525;    0.000
870.495; 6982.275;  168.525;    0.000
870.677; 6313.275;  188.525;    0.000
870.858; 6016.275;  123.525;    0.000
871.040; 6476.275;  170.525;    0.000
871.221; 7343.275;  148.525;    0.000
871.403; 6794.275;  140.525;    0.000
871.584; 6277.275;  174.525;    0.000
871.765; 6307.275;  168.525;    0.000
871.947; 6649.275;  191.525;    0.000
872.128; 6168.275;  132.525;    0.000
872.309; 5294.275;  140.525;    0.000
872.491; 4789.275;  157.525;    0.000
872.672; 4656.275;  130.525;    0.000
872.853; 4379.275;  148.525;    0.000
873.034; 4179.275;  138.525;    0.000
873.215; 4106.275;  152.525;    0.000
873.396; 3843.275;  149.525;    0.000
873.578; 3699.275;  173.525;    0.000
873.759; 3624.275;  158.525;    0.000
873.940; 3424.275;  147.525;    0.000
874.121; 3388.275;  136.525;    0.000
874.302; 3352.275;  151.525;    0.000
874.483; 3168.275;  137.525;    0.000
874.664; 3291.275;  163.525;    0.000
874.845; 3245.275;  124.525;    0.000
875.026; 3223.275;  134.525;    0.000
875.207; 3107.275;  164.525;    0.000
875.388; 3163.275;  163.525;    0.000
875.568; 2916.275;  176.525;    0.000
875.749; 2929.275;  108.525;    0.000
875.930; 2958.275;  191.525;    0.000
876.111; 2928.275;  170.525;    0.000
876.292; 2840.275;  180.525;    0.000
876.472; 2789.275;  150.525;    0.000
876.653; 2825.275;  162.525;    0.000
876.834; 2768.275;  176.525;    0.000
877.015; 2775.275;  203.525;    0.000
877.195; 2683.275;  178.525;    0.000
877.376; 2697.275;  141.525;    0.000
877.556; 2745.275;  135.525;    0.000
877.737; 2727.275;  174.525;    0.000
877.918; 2574.275;  150.525;    0.000
878.098; 2710.275;  133.525;    0.000
878.279; 2581.275;  129.525;    0.000
878.459; 2713.275;  162.525;    0.000
878.640; 2646.275;  187.525;    0.000
878.820; 2580.275;  151.525;    0.000
879.000; 2566.275;  159.525;    0.000
879.181; 2593.275;  171.525;    0.000
879.361; 2651.275;  167.525;    0.000
879.542; 2698.275;  126.525;    0.000
879.722; 2587.275;  152.525;    0.000
879.902; 2620.275;  144.525;    0.000
880.083; 2613.275;  154.525;    0.000
880.263; 2612.275;  148.525;    0.000
880.443; 2710.275;  185.525;    0.000
880.623; 3144.275;  172.525;    0.000
880.803; 3593.275;  152.525;    0.000
880.984; 3147.275;  165.525;    0.000
881.164; 2919.275;  164.525;    0.000
881.344; 2760.275;  141.525;    0.000
881.524; 2727.275;  160.525;    0.000
881.704; 2757.275;  164.525;    0.000
881.884; 2998.275;  159.525;    0.000
882.064; 3058.275;  158.525;    0.000
882.244; 3131.275;  147.525;    0.000
882.424; 2958.275;  160.525;    0.000
882.604; 2885.275;  150.525;    0.000
882.784; 2644.275;  138.525;    0.000
882.964; 2650.275;  157.525;    0.000
883.144; 2626.275;  128.525;    0.000
883.324; 2582.275;  220.525;    0.000
883.504; 2573.275;  177.525;    0.000
883.683; 2499.275;  159.525;    0.000
883.863; 2446.275;  143.525;    0.000
884.043; 2450.275;  156.525;    0.000
884.223; 2494.275;  152.525;    0.000
884.402; 2403.275;  169.525;    0.000
884.582; 2448.275;  162.525;    0.000
884.762; 2388.275;  172.525;    0.000
884.941; 2500.275;  220.525;    0.000
885.121; 2382.275;  128.525;    0.000
885.301; 2384.275;  141.525;    0.000
885.480; 2345.275;  141.525;    0.000
885.660; 2335.275;  132.525;    0.000
885.839; 2339.275;  146.525;    0.000
886.019; 2356.275;  170.525;    0.000
886.198; 2327.275;  143.525;    0.000
886.378; 2369.275;  159.525;    0.000
886.557; 2306.275;  148.525;    0.000
886.737; 2266.275;  125.525;    0.000
886.916; 2305.275;  177.525;    0.000
887.095; 2294.275;  186.525;    0.000
887.275; 2355.275;  134.525;    0.000
887.454; 2282.275;  148.525;    0.000
887.633; 2268.275;  171.525;    0.000
887.813; 2341.275;  187.525;    0.000
887.992; 2262.275;  157.525;    0.000
888.171; 2280.275;  143.525;    0.000
888.350; 2300.275;  182.525;    0.000
888.530; 2263.275;  142.525;    0.000
888.709; 2263.275;  160.525;    0.000
888.888; 2262.275;  197.525;    0.000
889.067; 2291.275;  126.525;    0.000
889.246; 2277.275;  197.525;    0.000
889.425; 2184.275;  161.525;    0.000
889.604; 2340.275;  180.525;    0.000
889.783; 2274.275;  135.525;    0.000
889.962; 2148.275;  107.525;    0.000
890.141; 2273.275;  167.525;    0.000
890.320; 2239.275;  149.525;    0.000
890.499; 2263.275;  194.525;    0.000
890.678; 2276.275;  138.525;    0.000
890.857; 2229.275;  146.525;    0.000
891.036; 2185.275;  178.525;    0.000
891.214; 2172.275;  151.525;    0.000
891.393; 2218.275;  137.525;    0.000
891.572; 2227.275;  177.525;    0.000
891.751; 2279.275;  149.525;    0.000
891.930; 2329.275;  189.525;    0.000
892.108; 2249.275;  136.525;    0.000
892.287; 2216.275;  129.525;    0.000
892.466; 2188.275;  163.525;    0.000
892.644; 2278.275;  147.525;    0.000
892.823; 2171.275;  127.525;    0.000
893.001; 2221.275;  192.525;    0.000
893.180; 2263.275;  157.525;    0.000
893.359; 2243.275;  176.525;    0.000
893.537; 2270.275;  146.525;    0.000
893.716; 2202.275;  154.525;    0.000
893.894; 2213.275;  166.525;    0.000
894.073; 2192.275;  163.525;    0.000
894.251; 2184.275;  166.525;    0.000
894.429; 2190.275;  149.525;    0.000
894.608; 2260.275;  141.525;    0.000
894.786; 2207.275;  139.525;    0.000
894.964; 2195.275;  180.525;    0.000
895.143; 2141.275;  193.525;    0.000
895.321; 2210.275;  163.525;    0.000
895.499; 2231.275;  163.525;    0.000
895.677; 2238.275;  194.525;    0.000
895.856; 2266.275;  176.525;    0.000
896.034; 2239.275;  173.525;    0.000
896.212; 2306.275;  180.525;    0.000
896.390; 2164.275;  146.525;    0.000
896.568; 2262.275;  167.525;    0.000
896.746; 2270.275;  158.525;    0.000
896.924; 2296.275;  163.525;    0.000
897.102; 2216.275;  170.525;    0.000
897.280; 2165.275;  159.525;    0.000
897.458; 2226.275;  182.525;    0.000
897.636; 2240.275;  151.525;    0.000
897.814; 2279.275;  130.525;    0.000
897.992; 2223.275;  213.525;    0.000
898.170; 2231.275;  164.525;    0.000
898.348; 2326.275;  159.525;    0.000
898.526; 2321.275;  182.525;    0.000
898.704; 2342.275;  209.525;    0.000
898.882; 2220.275;  145.525;    0.000
899.059; 2288.275;  172.525;    0.000
899.237; 2312.275;  172.525;    0.000
899.415; 2313.275;  211.525;    0.000
899.593; 2246.275;  151.525;    0.000
899.770; 2289.275;  147.525;    0.000
899.948; 2297.275;  218.525;    0.000
900.125; 2397.275;  166.525;    0.000
900.303; 2355.275;  146.525;    0.000
900.481; 2356.275;  174.525;    0.000
900.658; 2465.275;  198.525;    0.000
900.836; 2377.275;  125.525;    0.000
901.013; 2387.275;  197.525;    0.000
901.191; 2382.275;  181.525;    0.000
901.368; 2439.275;  185.525;    0.000
901.546; 2493.275;  197.525;    0.000
901.723; 2571.275;  205.525;    0.000
901.901; 2572.275;  187.525;    0.000
902.078; 2634.275;  163.525;    0.000
902.255; 2688.275;  141.525;    0.000
902.433; 2659.275;  183.525;    0.000
902.610; 2724.275;  181.525;    0.000
902.787; 2635.275;  174.525;    0.000
902.964; 2792.275;  174.525;    0.000
903.142; 2831.275;  141.525;    0.000
903.319; 2912.275;  214.525;    0.000
903.496; 2851.275;  187.525;    0.000
903.673; 2972.275;  183.525;    0.000
903.850; 3017.275;  125.525;    0.000
904.027; 3178.275;  197.525;    0.000
904.204; 3251.275;  197.525;    0.000
904.381; 3524.275;  196.525;    0.000
904.558; 4097.275;  176.525;    0.000
904.735; 4599.275;  179.525;    0.000
904.912; 4638.275;  203.525;    0.000
905.089; 4658.275;  159.525;    0.000
905.266; 4327.275;  176.525;    0.000
905.443; 3883.275;  184.525;    0.000
905.620; 3608.275;  168.525;    0.000
905.797; 3558.275;  214.525;    0.000
905.974; 3446.275;  154.525;    0.000
906.151; 3302.275;  132.525;    0.000
906.327; 3334.275;  192.525;    0.000
906.504; 3163.275;  186.525;    0.000
906.681; 3070.275;  171.525;    0.000
906.858; 3090.275;  181.525;    0.000
907.034; 3058.275;  164.525;    0.000
907.211; 2922.275;  184.525;    0.000
907.388; 2898.275;  177.525;    0.000
907.564; 2822.275;  150.525;    0.000
907.741; 2756.275;  195.525;    0.000
907.917; 2748.275;  190.525;    0.000
908.094; 2750.275;  214.525;    0.000
908.271; 2648.275;  173.525;    0.000
908.447; 2682.275;  229.525;    0.000
908.623; 2565.275;  162.525;    0.000
908.800; 2559.275;  195.525;    0.000
908.976; 2586.275;  171.525;    0.000
909.153; 2569.275;  167.525;    0.000
909.329; 2568.275;  227.525;    0.000
909.505; 2499.275;  167.525;    0.000
909.682; 2412.275;  174.525;    0.000
909.858; 2416.275;  158.525;    0.000
910.034; 2515.275;  188.525;    0.000
910.211; 2413.275;  158.525;    0.000
910.387; 2432.275;  208.525;    0.000
910.563; 2473.275;  203.525;    0.000
910.739; 2417.275;  201.525;    0.000
910.915; 2348.275;  170.525;    0.000
911.091; 2393.275;  171.525;    0.000
911.268; 2345.275;  220.525;    0.000
911.444; 2369.275;  202.525;    0.000
911.620; 2375.275;  175.525;    0.000
911.796; 2319.275;  175.525;    0.000
911.972; 2433.275;  164.525;    0.000
912.148; 2421.275;  174.525;    0.000
912.324; 2403.275;  155.525;    0.000
912.500; 2422.275;  156.525;    0.000
912.676; 2318.275;  138.525;    0.000
912.851; 2369.275;  158.525;    0.000
913.027; 2441.275;  161.525;    0.000
913.203; 2418.275;  168.525;    0.000
913.379; 2352.275;  172.525;    0.000
913.555; 2332.275;  193.525;    0.000
913.730; 2317.275;  149.525;    0.000
913.906; 2321.275;  159.525;    0.000
914.082; 2332.275;  184.525;    0.000
914.258; 2393.275;  194.525;    0.000
914.433; 2299.275;  175.525;    0.000
914.609; 2313.275;  175.525;    0.000
914.784; 2293.275;  170.525;    0.000
914.960; 2317.275;  212.525;    0.000
915.136; 2341.275;  157.525;    0.000
915.311; 2308.275;  204.525;    0.000
915.487; 2343.275;  180.525;    0.000
915.662; 2451.275;  203.525;    0.000
915.838; 2309.275;  194.525;    0.000
916.013; 2443.275;  217.525;    0.000
916.189; 2321.275;  196.525;    0.000
916.364; 2438.275;  236.525;    0.000
916.539; 2358.275;  192.525;    0.000
916.715; 2355.275;  181.525;    0.000
916.890; 2266.275;  185.525;    0.000
917.065; 2385.275;  166.525;    0.000
917.240; 2368.275;  182.525;    0.000
917.416; 2424.275;  188.525;    0.000
917.591; 2410.275;  185.525;    0.000
917.766; 2348.275;  187.525;    0.000
917.941; 2397.275;  181.525;    0.000
918.116; 2401.275;  207.525;    0.000
918.292; 2355.275;  140.525;    0.000
918.467; 2444.275;  187.525;    0.000
918.642; 2345.275;  208.525;    0.000
918.817; 2363.275;  203.525;    0.000
918.992; 2309.275;  162.525;    0.000
919.167; 2384.275;  206.525;    0.000
919.342; 2475.275;  188.525;    0.000
919.517; 2471.275;  190.525;    0.000
919.692; 2492.275;  174.525;    0.000
919.867; 2505.275;  181.525;    0.000
920.041; 2467.275;  179.525;    0.000
920.216; 2554.275;  186.525;    0.000
920.391; 2484.275;  209.525;    0.000
920.566; 2559.275;  205.525;    0.000
920.741; 2629.275;  205.525;    0.000
920.915; 2694.275;  206.525;    0.000
921.090; 3078.275;  219.525;    0.000
921.265; 3595.275;  185.525;    0.000
921.439; 4018.275;  171.525;    0.000
921.614; 3449.275;  197.525;    0.000
921.789; 3144.275;  189.525;    0.000
921.963; 3066.275;  210.525;    0.000
922.138; 2938.275;  171.525;    0.000
922.312; 2964.275;  194.525;    0.000
922.487; 2921.275;  231.525;    0.000
922.661; 3085.275;  179.525;    0.000
922.836; 3496.275;  213.525;    0.000
923.010; 3504.275;  182.525;    0.000
923.185; 3165.275;  239.525;    0.000
923.359; 3079.275;  200.525;    0.000
923.534; 3093.275;  232.525;    0.000
923.708; 3267.275;  221.525;    0.000
923.882; 3333.275;  193.525;    0.000
924.057; 3167.275;  204.525;    0.000
924.231; 3024.275;  172.525;    0.000
924.405; 2997.275;  202.525;    0.000
924.579; 2922.275;  207.525;    0.000
924.753; 2891.275;  167.525;    0.000
924.928; 2848.275;  202.525;    0.000
925.102; 2883.275;  200.525;    0.000
925.276; 2901.275;  185.525;    0.000
925.450; 2922.275;  170.525;    0.000
925.624; 2946.275;  176.525;    0.000
925.798; 3185.275;  221.525;    0.000
925.972; 3294.275;  162.525;    0.000
926.146; 3433.275;  207.525;    0.000
926.320; 3762.275;  185.525;    0.000
926.494; 4130.275;  192.525;    0.000
926.668; 4309.275;  179.525;    0.000
926.842; 4492.275;  181.525;    0.000
927.016; 4341.275;  224.525;    0.000
927.190; 4274.275;  193.525;    0.000
927.363; 4164.275;  194.525;    0.000
927.537; 4003.275;  210.525;    0.000
927.711; 3807.275;  153.525;    0.000
927.885; 3691.275;  184.525;    0.000
928.058; 3634.275;  197.525;    0.000
928.232; 3677.275;  219.525;    0.000
928.406; 3532.275;  175.525;    0.000
928.579; 3430.275;  179.525;    0.000
928.753; 3288.275;  208.525;    0.000
928.927; 3256.275;  163.525;    0.000
929.100; 3215.275;  138.525;    0.000
929.274; 3147.275;  160.525;    0.000
929.447; 3028.275;  152.525;    0.000
929.621; 2989.275;  168.525;    0.000
929.794; 2953.275;  152.525;    0.000
929.968; 2986.275;  163.525;    0.000
930.141; 2874.275;  164.525;    0.000
930.315; 2769.275;  170.525;    0.000
930.488; 2841.275;  216.525;    0.000
930.661; 2755.275;  184.525;    0.000
930.835; 2786.275;  156.525;    0.000
931.008; 2678.275;  206.525;    0.000
931.181; 2733.275;  163.525;    0.000
931.354; 2647.275;  198.525;    0.000
931.528; 2620.275;  156.525;    0.000
931.701; 2570.275;  170.525;    0.000
931.874; 2548.275;  167.525;    0.000
932.047; 2539.275;  146.525;    0.000
932.220; 2646.275;  159.525;    0.000
932.393; 2625.275;  186.525;    0.000
932.566; 2444.275;  147.525;    0.000
932.739; 2445.275;  192.525;    0.000
932.912; 2476.275;  197.525;    0.000
933.085; 2518.275;  176.525;    0.000
933.258; 2417.275;  171.525;    0.000
933.431; 2431.275;  150.525;    0.000
933.604; 2371.275;  176.525;    0.000
933.777; 2383.275;  215.525;    0.000
933.950; 2418.275;  164.525;    0.000
934.123; 2425.275;  174.525;    0.000
934.296; 2306.275;  203.525;    0.000
934.468; 2320.275;  208.525;    0.000
934.641; 2318.275;  182.525;    0.000
934.814; 2390.275;  170.525;    0.000
934.987; 2383.275;  183.525;    0.000
935.159; 2316.275;  154.525;    0.000
935.332; 2355.275;  178.525;    0.000
935.505; 2278.275;  213.525;    0.000
935.677; 2378.275;  173.525;    0.000
935.850; 2238.275;  190.525;    0.000
936.022; 2289.275;  205.525;    0.000
936.195; 2468.275;  201.525;    0.000
936.367; 2346.275;  189.525;    0.000
936.540; 2426.275;  179.525;    0.000
936.712; 2424.275;  195.525;    0.000
936.885; 2407.275;  207.525;    0.000
937.057; 2333.275;  163.525;    0.000
937.229; 2346.275;  175.525;    0.000
937.402; 2464.275;  168.525;    0.000
937.574; 2531.275;  136.525;    0.000
937.746; 2556.275;  166.525;    0.000
937.919; 2735.275;  178.525;    0.000
938.091; 2744.275;  192.525;    0.000
938.263; 2847.275;  164.525;    0.000
938.435; 3210.275;  204.525;    0.000
938.608; 3713.275;  153.525;    0.000
938.780; 4382.275;  159.525;    0.000
938.952; 4419.275;  160.525;    0.000
939.124; 4524.275;  156.525;    0.000
939.296; 5252.275;  110.525;    0.000
939.468; 5427.275;  135.525;    0.000
939.640; 4800.275;  144.525;    0.000
939.812; 4278.275;  232.525;    0.000
939.984; 3759.275;  128.525;    0.000
940.156; 3545.275;  195.525;    0.000
940.328; 3326.275;  226.525;    0.000
940.500; 3085.275;  146.525;    0.000
940.672; 2972.275;  190.525;    0.000
940.843; 2794.275;  156.525;    0.000
941.015; 2779.275;  200.525;    0.000
941.187; 2618.275;  159.525;    0.000
941.359; 2687.275;  183.525;    0.000
941.531; 2587.275;  137.525;    0.000
941.702; 2594.275;  186.525;    0.000
941.874; 2578.275;  164.525;    0.000
942.046; 2534.275;  202.525;    0.000
942.217; 2444.275;  146.525;    0.000
942.389; 2472.275;  165.525;    0.000
942.560; 2448.275;  191.525;    0.000
942.732; 2384.275;  240.525;    0.000
942.904; 2364.275;  173.525;    0.000
943.075; 2259.275;  157.525;    0.000
943.247; 2233.275;  155.525;    0.000
943.418; 2249.275;  164.525;    0.000
943.589; 2255.275;  150.525;    0.000
943.761; 2305.275;  143.525;    0.000
943.932; 2220.275;  151.525;    0.000
944.104; 2237.275;  194.525;    0.000
944.275; 2151.275;  154.525;    0.000
944.446; 2200.275;  169.525;    0.000
944.617; 2097.275;  138.525;    0.000
944.789; 2043.275;  158.525;    0.000
944.960; 2119.275;  197.525;    0.000
945.131; 2156.275;  139.525;    0.000
945.302; 2101.275;  169.525;    0.000
945.473; 2101.275;  149.525;    0.000
945.645; 2052.275;  171.525;    0.000
945.816; 2216.275;  167.525;    0.000
945.987; 2139.275;  156.525;    0.000
946.158; 2303.275;  185.525;    0.000
946.329; 2211.275;  201.525;    0.000
946.500; 2181.275;  182.525;    0.000
946.671; 2117.275;  156.525;    0.000
946.842; 2166.275;  190.525;    0.000
947.013; 2024.275;  159.525;    0.000
947.183; 2092.275;  209.525;    0.000
947.354; 2021.275;  171.525;    0.000
947.525; 2065.275;  180.525;    0.000
947.696; 2020.275;  163.525;    0.000
947.867; 1999.275;  168.525;    0.000
948.037; 2083.275;  153.525;    0.000
948.208; 2009.275;  178.525;    0.000
948.379; 2113.275;  192.525;    0.000
948.550; 1985.275;  180.525;    0.000
948.720; 2026.275;  196.525;    0.000
948.891; 2032.275;  173.525;    0.000
949.061; 1979.275;  207.525;    0.000
949.232; 1923.275;  176.525;    0.000
949.403; 2033.275;  152.525;    0.000
949.573; 1936.275;  186.525;    0.000
949.744; 1999.275;  181.525;    0.000
949.914; 2002.275;  174.525;    0.000
950.085; 1962.275;  146.525;    0.000
950.255; 1887.275;  162.525;    0.000
950.425; 1959.275;  189.525;    0.000
950.596; 1976.275;  175.525;    0.000
950.766; 1992.275;  209.525;    0.000
950.936; 2040.275;  201.525;    0.000
951.107; 1918.275;  141.525;    0.000
951.277; 1972.275;  211.525;    0.000
951.447; 1917.275;  218.525;    0.000
951.617; 2003.275;  191.525;    0.000
951.788; 1867.275;  193.525;    0.000
951.958; 1920.275;  217.525;    0.000
952.128; 1975.275;  192.525;    0.000
952.298; 1867.275;  237.525;    0.000
952.468; 1810.275;  194.525;    0.000
952.638; 1924.275;  201.525;    0.000
952.808; 1855.275;  203.525;    0.000
952.978; 1844.275;  216.525;    0.000
953.148; 1844.275;  209.525;    0.000
953.318; 1802.275;  213.525;    0.000
953.488; 1809.275;  161.525;    0.000
953.658; 1846.275;  222.525;    0.000
953.828; 1855.275;  196.525;    0.000
953.998; 1913.275;  227.525;    0.000
954.167; 1916.275;  163.525;    0.000
954.337; 1855.275;  201.525;    0.000
954.507; 1858.275;  227.525;    0.000
954.677; 1842.275;  204.525;    0.000
954.846; 1811.275;  210.525;    0.000
955.016; 1769.275;  198.525;    0.000
955.186; 1780.275;  203.525;    0.000
955.355; 1892.275;  198.525;    0.000
955.525; 1698.275;  198.525;    0.000
955.695; 1728.275;  187.525;    0.000
955.864; 1833.275;  243.525;    0.000
956.034; 1749.275;  192.525;    0.000
956.203; 1771.275;  259.525;    0.000
956.373; 1706.275;  185.525;    0.000
956.542; 1709.275;  230.525;    0.000
956.711; 1767.275;  218.525;    0.000
956.881; 1805.275;  232.525;    0.000
957.050; 1700.275;  246.525;    0.000
957.220; 1788.275;  229.525;    0.000
957.389; 1771.275;  211.525;    0.000
957.558; 1752.275;  173.525;    0.000
957.727; 1769.275;  226.525;    0.000
957.897; 1823.275;  209.525;    0.000
958.066; 1773.275;  217.525;    0.000
958.235; 1722.275;  160.525;    0.000
958.404; 1743.275;  199.525;    0.000
958.573; 1705.275;  223.525;    0.000
958.743; 1658.275;  189.525;    0.000
958.912; 1655.275;  199.525;    0.000
959.081; 1594.275;  216.525;    0.000
959.250; 1682.275;  192.525;    0.000
959.419; 1717.275;  216.525;    0.000
959.588; 1768.275;  209.525;    0.000
959.757; 1702.275;  194.525;    0.000
959.926; 1690.275;  200.525;    0.000
960.094; 1698.275;  174.525;    0.000
960.263; 1705.275;  218.525;    0.000
960.432; 1653.275;  173.525;    0.000
960.601; 1670.275;  177.525;    0.000
960.770; 1672.275;  188.525;    0.000
960.939; 1730.275;  167.525;    0.000
961.107; 1667.275;  195.525;    0.000
961.276; 1589.275;  183.525;    0.000
961.445; 1624.275;  195.525;    0.000
961.613; 1641.275;  198.525;    0.000
961.782; 1576.275;  224.525;    0.000
961.951; 1666.275;  178.525;    0.000
962.119; 1677.275;  214.525;    0.000
962.288; 1633.275;  174.525;    0.000
962.456; 1553.275;  197.525;    0.000
962.625; 1657.275;  212.525;    0.000
962.793; 1630.275;  183.525;    0.000
962.962; 1601.275;  189.525;    0.000
963.130; 1591.275;  151.525;    0.000
963.298; 1615.275;  197.525;    0.000
963.467; 1565.275;  202.525;    0.000
963.635; 1610.275;  172.525;    0.000
963.803; 1651.275;  203.525;    0.000
963.972; 1634.275;  204.525;    0.000
964.140; 1646.275;  193.525;    0.000
964.308; 1605.275;  159.525;    0.000
964.477; 1632.275;  142.525;    0.000
964.645; 1614.275;  202.525;    0.000
964.813; 1596.275;  158.525;    0.000
964.981; 1704.275;  179.525;    0.000
965.149; 1683.275;  176.525;    0.000
965.317; 1647.275;  229.525;    0.000
965.485; 1680.275;  179.525;    0.000
965.653; 1615.275;  205.525;    0.000
965.821; 1601.275;  196.525;    0.000
965.989; 1620.275;  202.525;    0.000
966.157; 1630.275;  199.525;    0.000
966.325; 1593.275;  178.525;    0.000
966.493; 1606.275;  177.525;    0.000
966.661; 1573.275;  172.525;    0.000
966.829; 1599.275;  167.525;    0.000
966.996; 1636.275;  202.525;    0.000
967.164; 1669.275;  175.525;    0.000
967.332; 1648.275;  207.525;    0.000
967.500; 1681.275;  170.525;    0.000
967.667; 1642.275;  222.525;    0.000
967.835; 1641.275;  245.525;    0.000
968.003; 1639.275;  180.525;    0.000
968.170; 1695.275;  222.525;    0.000
968.338; 1701.275;  183.525;    0.000
968.505; 1624.275;  197.525;    0.000
968.673; 1649.275;  209.525;    0.000
968.841; 1540.275;  162.525;    0.000
969.008; 1622.275;  187.525;    0.000
969.175; 1613.275;  204.525;    0.000
969.343; 1649.275;  157.525;    0.000
969.510; 1567.275;  189.525;    0.000
969.678; 1637.275;  153.525;    0.000
969.845; 1592.275;  190.525;    0.000
970.012; 1721.275;  162.525;    0.000
970.180; 1635.275;  223.525;    0.000
970.347; 1650.275;  195.525;    0.000
970.514; 1623.275;  185.525;    0.000
970.681; 1587.275;  187.525;    0.000
970.849; 1617.275;  183.525;    0.000
971.016; 1582.275;  168.525;    0.000
971.183; 1592.275;  160.525;    0.000
971.350; 1618.275;  193.525;    0.000
971.517; 1624.275;  202.525;    0.000
971.684; 1595.275;  242.525;    0.000
971.851; 1668.275;  192.525;    0.000
972.018; 1601.275;  194.525;    0.000
972.185; 1566.275;  193.525;    0.000
972.352; 1575.275;  187.525;    0.000
972.519; 1660.275;  233.525;    0.000
972.686; 1623.275;  186.525;    0.000
972.853; 1589.275;  165.525;    0.000
973.020; 1648.275;  183.525;    0.000
973.186; 1592.275;  186.525;    0.000
973.353; 1549.275;  177.525;    0.000
973.520; 1564.275;  203.525;    0.000
973.687; 1587.275;  211.525;    0.000
973.853; 1611.275;  194.525;    0.000
974.020; 1599.275;  201.525;    0.000
974.187; 1587.275;  187.525;    0.000
974.353; 1661.275;  188.525;    0.000
974.520; 1610.275;  136.525;    0.000
974.687; 1540.275;  169.525;    0.000
974.853; 1558.275;  207.525;    0.000
975.020; 1498.275;  190.525;    0.000
975.186; 1555.275;  182.525;    0.000
975.353; 1574.275;  202.525;    0.000
975.519; 1627.275;  189.525;    0.000
975.685; 1604.275;  176.525;    0.000
975.852; 1584.275;  175.525;    0.000
976.018; 1570.275;  155.525;    0.000
976.184; 1620.275;  179.525;    0.000
976.351; 1544.275;  191.525;    0.000
976.517; 1647.275;  246.525;    0.000
976.683; 1641.275;  222.525;    0.000
976.849; 1570.275;  216.525;    0.000
977.016; 1513.275;  212.525;    0.000
977.182; 1517.275;  192.525;    0.000
977.348; 1442.275;  145.525;    0.000
977.514; 1499.275;  195.525;    0.000
977.680; 1582.275;  210.525;    0.000
977.846; 1493.275;  172.525;    0.000
978.012; 1559.275;  190.525;    0.000
978.178; 1540.275;  201.525;    0.000
978.344; 1534.275;  190.525;    0.000
978.510; 1566.275;  199.525;    0.000
978.676; 1509.275;  174.525;    0.000
978.842; 1534.275;  195.525;    0.000
979.008; 1565.275;  205.525;    0.000
979.174; 1604.275;  187.525;    0.000
979.340; 1550.275;  194.525;    0.000
979.505; 1575.275;  221.525;    0.000
979.671; 1548.275;  178.525;    0.000
979.837; 1529.275;  215.525;    0.000
980.003; 1569.275;  176.525;    0.000
980.168; 1564.275;  185.525;    0.000
980.334; 1564.275;  165.525;    0.000
980.499; 1531.275;  231.525;    0.000
980.665; 1579.275;  238.525;    0.000
980.831; 1517.275;  194.525;    0.000
980.996; 1585.275;  169.525;    0.000
981.162; 1639.275;  199.525;    0.000
981.327; 1546.275;  158.525;    0.000
981.493; 1546.275;  193.525;    0.000
981.658; 1453.275;  181.525;    0.000
981.823; 1563.275;  199.525;    0.000
981.989; 1546.275;  186.525;    0.000
982.154; 1568.275;  225.525;    0.000
982.319; 1572.275;  191.525;    0.000
982.485; 1649.275;  205.525;    0.000
982.650; 1654.275;  234.525;    0.000
982.815; 1592.275;  193.525;    0.000
982.980; 1597.275;  177.525;    0.000
983.146; 1643.275;  212.525;    0.000
983.311; 1557.275;  177.525;    0.000
983.476; 1562.275;  185.525;    0.000
983.641; 1471.275;  149.525;    0.000
983.806; 1601.275;  175.525;    0.000
983.971; 1660.275;  234.525;    0.000
984.136; 1535.275;  191.525;    0.000
984.301; 1582.275;  215.525;    0.000
984.466; 1528.275;  207.525;    0.000
984.631; 1539.275;  206.525;    0.000
984.796; 1509.275;  229.525;    0.000
984.961; 1546.275;  220.525;    0.000
985.126; 1670.275;  204.525;    0.000
985.291; 1531.275;  210.525;    0.000
985.455; 1488.275;  193.525;    0.000
985.620; 1513.275;  207.525;    0.000
985.785; 1552.275;  188.525;    0.000
985.950; 1470.275;  168.525;    0.000
986.114; 1586.275;  239.525;    0.000
986.279; 1495.275;  223.525;    0.000
986.444; 1585.275;  154.525;    0.000
986.608; 1573.275;  232.525;    0.000
986.773; 1612.275;  214.525;    0.000
986.937; 1680.275;  220.525;    0.000
987.102; 1598.275;  224.525;    0.000
987.266; 1509.275;  157.525;    0.000
987.431; 1645.275;  246.525;    0.000
987.595; 1587.275;  203.525;    0.000
987.760; 1553.275;  202.525;    0.000
987.924; 1558.275;  208.525;    0.000
988.088; 1545.275;  169.525;    0.000
988.253; 1653.275;  237.525;    0.000
988.417; 1598.275;  202.525;    0.000
988.581; 1551.275;  215.525;    0.000
988.746; 1548.275;  210.525;    0.000
988.910; 1539.275;  191.525;    0.000
989.074; 1595.275;  197.525;    0.000
989.238; 1522.275;  191.525;    0.000
989.402; 1538.275;  222.525;    0.000
989.566; 1559.275;  221.525;    0.000
989.731; 1458.275;  216.525;    0.000
989.895; 1518.275;  183.525;    0.000
990.059; 1566.275;  150.525;    0.000
990.223; 1494.275;  183.525;    0.000
990.387; 1550.275;  241.525;    0.000
990.551; 1480.275;  198.525;    0.000
990.714; 1486.275;  176.525;    0.000
990.878; 1588.275;  203.525;    0.000
991.042; 1496.275;  146.525;    0.000
991.206; 1540.275;  199.525;    0.000
991.370; 1473.275;  223.525;    0.000
991.534; 1558.275;  158.525;    0.000
991.697; 1567.275;  182.525;    0.000
991.861; 1569.275;  195.525;    0.000
992.025; 1461.275;  206.525;    0.000
992.188; 1531.275;  174.525;    0.000
992.352; 1552.275;  183.525;    0.000
992.516; 1456.275;  181.525;    0.000
992.679; 1485.275;  162.525;    0.000
992.843; 1475.275;  173.525;    0.000
993.006; 1476.275;  189.525;    0.000
993.170; 1541.275;  200.525;    0.000
993.333; 1485.275;  167.525;    0.000
993.497; 1513.275;  217.525;    0.000
993.660; 1456.275;  179.525;    0.000
993.824; 1457.275;  195.525;    0.000
993.987; 1569.275;  186.525;    0.000
994.150; 1439.275;  164.525;    0.000
994.314; 1529.275;  215.525;    0.000
994.477; 1447.275;  186.525;    0.000
994.640; 1445.275;  192.525;    0.000
994.803; 1527.275;  215.525;    0.000
994.967; 1512.275;  208.525;    0.000
995.130; 1483.275;  196.525;    0.000
995.293; 1494.275;  221.525;    0.000
995.456; 1477.275;  164.525;    0.000
995.619; 1506.275;  224.525;    0.000
995.782; 1469.275;  184.525;    0.000
995.945; 1480.275;  220.525;    0.000
996.108; 1604.275;  187.525;    0.000
996.271; 1507.275;  192.525;    0.000
996.434; 1494.275;  162.525;    0.000
996.597; 1497.275;  148.525;    0.000
996.760; 1445.275;  186.525;    0.000
996.923; 1439.275;  154.525;    0.000
997.086; 1472.275;  156.525;    0.000
997.248; 1528.275;  215.525;    0.000
997.411; 1493.275;  160.525;    0.000
997.574; 1425.275;  159.525;    0.000
997.737; 1446.275;  179.525;    0.000
997.899; 1517.275;  184.525;    0.000
998.062; 1511.275;  180.525;    0.000
998.225; 1451.275;  168.525;    0.000
998.387; 1491.275;  192.525;    0.000
998.550; 1458.275;  178.525;    0.000
998.712; 1511.275;  192.525;    0.000
998.875; 1552.275;  230.525;    0.000
999.037; 1460.275;  200.525;    0.000
999.200; 1420.275;  196.525;    0.000
999.362; 1454.275;  173.525;    0.000
999.525; 1468.275;  196.525;    0.000
999.687; 1455.275;  159.525;    0.000
999.849; 1415.275;  180.525;    0.000
1000.012; 1495.275;  210.525;    0.000
1000.174; 1484.275;  175.525;    0.000
1000.336; 1471.275;  174.525;    0.000
1000.499; 1452.275;  180.525;    0.000
1000.661; 1532.275;  204.525;    0.000
1000.823; 1528.275;  181.525;    0.000
1000.985; 1443.275;  178.525;    0.000
1001.147; 1580.275;  215.525;    0.000
1001.309; 1511.275;  212.525;    0.000
1001.471; 1557.275;  192.525;    0.000
1001.633; 1495.275;  207.525;    0.000
1001.796; 1588.275;  211.525;    0.000
1001.958; 1587.275;  200.525;    0.000
1002.119; 1520.275;  210.525;    0.000
1002.281; 1625.275;  204.525;    0.000
1002.443; 1678.275;  230.525;    0.000
1002.605; 1767.275;  178.525;    0.000
1002.767; 1826.275;  228.525;    0.000
1002.929; 1895.275;  199.525;    0.000
1003.091; 1961.275;  220.525;    0.000
1003.252; 2042.275;  219.525;    0.000
1003.414; 2136.275;  213.525;    0.000
1003.576; 2198.275;  202.525;    0.000
1003.738; 2350.275;  184.525;    0.000
1003.899; 2433.275;  218.525;    0.000
1004.061; 2526.275;  210.525;    0.000
1004.222; 2549.275;  179.525;    0.000
1004.384; 2586.275;  183.525;    0.000
1004.546; 2754.275;  206.525;    0.000
1004.707; 2761.275;  191.525;    0.000
1004.869; 2754.275;  197.525;    0.000
1005.030; 2747.275;  186.525;    0.000
1005.191; 2690.275;  188.525;    0.000
1005.353; 2542.275;  215.525;    0.000
1005.514; 2419.275;  184.525;    0.000
1005.675; 2350.275;  209.525;    0.000
1005.837; 2292.275;  239.525;    0.000
1005.998; 2200.275;  218.525;    0.000
1006.159; 2190.275;  212.525;    0.000
1006.321; 2194.275;  220.525;    0.000
1006.482; 2340.275;  201.525;    0.000
1006.643; 2439.275;  222.525;    0.000
1006.804; 2461.275;  191.525;    0.000
1006.965; 2414.275;  214.525;    0.000
1007.126; 2582.275;  214.525;    0.000
1007.287; 2653.275;  243.525;    0.000
1007.448; 2476.275;  251.525;    0.000
1007.609; 2509.275;  244.525;    0.000
1007.770; 2442.275;  211.525;    0.000
1007.931; 2422.275;  225.525;    0.000
1008.092; 2489.275;  188.525;    0.000
1008.253; 2581.275;  224.525;    0.000
1008.414; 2601.275;  198.525;    0.000
1008.575; 2652.275;  244.525;    0.000
1008.736; 2658.275;  219.525;    0.000
1008.896; 2589.275;  206.525;    0.000
1009.057; 2577.275;  258.525;    0.000
1009.218; 2557.275;  209.525;    0.000
1009.379; 2551.275;  204.525;    0.000
1009.539; 2638.275;  242.525;    0.000
1009.700; 2665.275;  205.525;    0.000
1009.860; 2699.275;  211.525;    0.000
1010.021; 2677.275;  219.525;    0.000
1010.182; 2696.275;  206.525;    0.000
1010.342; 2662.275;  219.525;    0.000
1010.503; 2791.275;  231.525;    0.000
1010.663; 2816.275;  260.525;    0.000
1010.823; 3005.275;  200.525;    0.000
1010.984; 3019.275;  189.525;    0.000
1011.144; 3122.275;  234.525;    0.000
1011.305; 3190.275;  212.525;    0.000
1011.465; 3327.275;  202.525;    0.000
1011.625; 3413.275;  236.525;    0.000
1011.785; 3302.275;  203.525;    0.000
1011.946; 3378.275;  195.525;    0.000
1012.106; 3420.275;  176.525;    0.000
1012.266; 3362.275;  211.525;    0.000
1012.426; 3245.275;  244.525;    0.000
1012.586; 3328.275;  202.525;    0.000
1012.746; 3318.275;  234.525;    0.000
1012.906; 3291.275;  246.525;    0.000
1013.066; 3306.275;  232.525;    0.000
1013.226; 3301.275;  248.525;    0.000
1013.386; 3253.275;  231.525;    0.000
1013.546; 3146.275;  233.525;    0.000
1013.706; 3056.275;  211.525;    0.000
1013.866; 3220.275;  240.525;    0.000
1014.026; 3203.275;  188.525;    0.000
1014.186; 3109.275;  186.525;    0.000
1014.346; 3014.275;  203.525;    0.000
1014.505; 3305.275;  238.525;    0.000
1014.665; 3259.275;  206.525;    0.000
1014.825; 3234.275;  200.525;    0.000
1014.985; 3149.275;  215.525;    0.000
1015.144; 3366.275;  250.525;    0.000
1015.304; 3641.275;  195.525;    0.000
1015.464; 3492.275;  237.525;    0.000
1015.623; 3360.275;  232.525;    0.000
1015.783; 3781.275;  220.525;    0.000
1015.942; 3938.275;  219.525;    0.000
1016.102; 3897.275;  202.525;    0.000
1016.261; 3785.275;  225.525;    0.000
1016.420; 4143.275;  246.525;    0.000
1016.580; 4647.275;  226.525;    0.000
1016.739; 4506.275;  214.525;    0.000
1016.899; 4291.275;  205.525;    0.000
1017.058; 4453.275;  217.525;    0.000
1017.217; 4716.275;  199.525;    0.000
1017.376; 4492.275;  219.525;    0.000
1017.536; 4024.275;  209.525;    0.000
1017.695; 4080.275;  213.525;    0.000
1017.854; 4127.275;  187.525;    0.000
1018.013; 4115.275;  222.525;    0.000
1018.172; 3815.275;  204.525;    0.000
1018.331; 3761.275;  195.525;    0.000
1018.490; 4041.275;  213.525;    0.000
1018.649; 4404.275;  216.525;    0.000
1018.808; 4518.275;  227.525;    0.000
1018.967; 4444.275;  206.525;    0.000
1019.126; 4415.275;  206.525;    0.000
1019.285; 4617.275;  219.525;    0.000
1019.444; 4407.275;  218.525;    0.000
1019.603; 4208.275;  206.525;    0.000
1019.762; 4105.275;  189.525;    0.000
1019.921; 4268.275;  217.525;    0.000
1020.079; 4735.275;  200.525;    0.000
1020.238; 4678.275;  219.525;    0.000
1020.397; 4493.275;  227.525;    0.000
1020.555; 4259.275;  207.525;    0.000
1020.714; 4351.275;  253.525;    0.000
1020.873; 4582.275;  230.525;    0.000
1021.031; 4620.275;  232.525;    0.000
1021.190; 4361.275;  226.525;    0.000
1021.348; 4350.275;  224.525;    0.000
1021.507; 4818.275;  215.525;    0.000
1021.665; 4950.275;  233.525;    0.000
1021.824; 4607.275;  196.525;    0.000
1021.982; 4235.275;  215.525;    0.000
1022.141; 4406.275;  200.525;    0.000
1022.299; 5178.275;  200.525;    0.000
1022.457; 5188.275;  179.525;    0.000
1022.616; 4702.275;  226.525;    0.000
1022.774; 4170.275;  216.525;    0.000
1022.932; 4454.275;  212.525;    0.000
1023.090; 5282.275;  220.525;    0.000
1023.249; 5329.275;  194.525;    0.000
1023.407; 4678.275;  227.525;    0.000
1023.565; 4170.275;  190.525;    0.000
1023.723; 4726.275;  190.525;    0.000
1023.881; 5312.275;  214.525;    0.000
1024.039; 5385.275;  179.525;    0.000
1024.197; 4784.275;  274.525;    0.000
1024.355; 4402.275;  269.525;    0.000
1024.513; 4694.275;  259.525;    0.000
1024.671; 5439.275;  211.525;    0.000
1024.829; 5497.275;  230.525;    0.000
1024.987; 5015.275;  239.525;    0.000
1025.145; 4418.275;  231.525;    0.000
1025.302; 4644.275;  212.525;    0.000
1025.460; 5176.275;  224.525;    0.000
1025.618; 5553.275;  217.525;    0.000
1025.776; 5176.275;  232.525;    0.000
1025.933; 4534.275;  212.525;    0.000
1026.091; 4585.275;  214.525;    0.000
1026.249; 5205.275;  224.525;    0.000
1026.406; 5707.275;  219.525;    0.000
1026.564; 5457.275;  262.525;    0.000
1026.721; 4978.275;  206.525;    0.000
1026.879; 4797.275;  227.525;    0.000
1027.036; 5021.275;  234.525;    0.000
1027.194; 5602.275;  256.525;    0.000
1027.351; 5671.275;  229.525;    0.000
1027.509; 5294.275;  253.525;    0.000
1027.666; 5027.275;  248.525;    0.000
1027.823; 5351.275;  215.525;    0.000
1027.981; 5378.275;  248.525;    0.000
1028.138; 5842.275;  257.525;    0.000
1028.295; 5518.275;  215.525;    0.000
1028.452; 4968.275;  236.525;    0.000
1028.609; 5112.275;  240.525;    0.000
1028.767; 5480.275;  258.525;    0.000
1028.924; 5882.275;  211.525;    0.000
1029.081; 5634.275;  226.525;    0.000
1029.238; 5545.275;  228.525;    0.000
1029.395; 5263.275;  264.525;    0.000
1029.552; 5441.275;  227.525;    0.000
1029.709; 5836.275;  232.525;    0.000
1029.866; 5784.275;  223.525;    0.000
1030.023; 5921.275;  220.525;    0.000
1030.180; 5162.275;  222.525;    0.000
1030.337; 5251.275;  224.525;    0.000
1030.494; 5673.275;  228.525;    0.000
1030.650; 5901.275;  242.525;    0.000
1030.807; 6135.275;  214.525;    0.000
1030.964; 5650.275;  207.525;    0.000
1031.121; 5560.275;  236.525;    0.000
1031.277; 5253.275;  206.525;    0.000
1031.434; 5501.275;  249.525;    0.000
1031.591; 6156.275;  253.525;    0.000
1031.747; 6140.275;  240.525;    0.000
1031.904; 6071.275;  212.525;    0.000
1032.060; 5847.275;  185.525;    0.000
1032.217; 5511.275;  201.525;    0.000
1032.373; 6239.275;  207.525;    0.000
1032.530; 6563.275;  226.525;    0.000
1032.686; 7036.275;  226.525;    0.000
1032.843; 7052.275;  203.525;    0.000
1032.999; 6502.275;  233.525;    0.000
1033.155; 6720.275;  232.525;    0.000
1033.312; 6758.275;  239.525;    0.000
1033.468; 7985.275;  207.525;    0.000
1033.624; 8555.275;  238.525;    0.000
1033.780; 8950.275;  255.525;    0.000
1033.937; 8713.275;  188.525;    0.000
1034.093; 8046.275;  244.525;    0.000
1034.249; 8173.275;  182.525;    0.000
1034.405; 7970.275;  251.525;    0.000
1034.561; 8980.275;  250.525;    0.000
1034.717; 9291.275;  208.525;    0.000
1034.873; 9246.275;  210.525;    0.000
1035.029; 9553.275;  245.525;    0.000
1035.185; 8560.275;  230.525;    0.000
1035.341; 8099.275;  209.525;    0.000
1035.497; 8838.275;  244.525;    0.000
1035.653; 9114.275;  229.525;    0.000
1035.809;10321.275;  275.525;    0.000
1035.964;11313.275;  203.525;    0.000
1036.120;10942.275;  215.525;    0.000
1036.276;10758.275;  228.525;    0.000
1036.432;10576.275;  183.525;    0.000
1036.587; 9449.275;  214.525;    0.000
1036.743;10175.275;  240.525;    0.000
1036.899;10714.275;  202.525;    0.000
1037.054;11234.275;  182.525;    0.000
1037.210;12757.275;  228.525;    0.000
1037.365;13133.275;  239.525;    0.000
1037.521;11932.275;  230.525;    0.000
1037.676;11386.275;  217.525;    0.000
1037.832;10338.275;  235.525;    0.000
1037.987;10451.275;  210.525;    0.000
1038.143;10651.275;  206.525;    0.000
1038.298;12453.275;  177.525;    0.000
1038.453;12748.275;  215.525;    0.000
1038.609;14174.275;  210.525;    0.000
1038.764;14452.275;  227.525;    0.000
1038.919;12610.275;  197.525;    0.000
1039.074;12827.275;  183.525;    0.000
1039.229;11551.275;  218.525;    0.000
1039.385;11790.275;  251.525;    0.000
1039.540;11865.275;  222.525;    0.000
1039.695;12798.275;  215.525;    0.000
1039.850;14888.275;  204.525;    0.000
1040.005;15498.275;  241.525;    0.000
1040.160;16440.275;  180.525;    0.000
1040.315;15835.275;  197.525;    0.000
1040.470;14810.275;  180.525;    0.000
1040.625;13787.275;  196.525;    0.000
1040.780;13242.275;  245.525;    0.000
1040.935;13827.275;  204.525;    0.000
1041.089;13902.275;  213.525;    0.000
1041.244;15814.275;  200.525;    0.000
1041.399;16878.275;  212.525;    0.000
1041.554;18340.275;  239.525;    0.000
1041.708;20158.275;  238.525;    0.000
1041.863;19478.275;  213.525;    0.000
1042.018;18500.275;  236.525;    0.000
1042.172;19216.275;  238.525;    0.000
1042.327;17371.275;  254.525;    0.000
1042.481;16740.275;  197.525;    0.000
1042.636;17386.275;  205.525;    0.000
1042.791;17253.275;  218.525;    0.000
1042.945;19999.275;  261.525;    0.000
1043.099;22940.275;  201.525;    0.000
1043.254;23147.275;  191.525;    0.000
1043.408;23082.275;  279.525;    0.000
1043.563;23887.275;  203.525;    0.000
1043.717;23950.275;  229.525;    0.000
1043.871;21449.275;  213.525;    0.000
1044.025;21654.275;  240.525;    0.000
1044.180;21088.275;  220.525;    0.000
1044.334;20528.275;  268.525;    0.000
1044.488;22056.275;  261.525;    0.000
1044.642;23569.275;  205.525;    0.000
1044.796;26700.275;  240.525;    0.000
1044.950;29791.275;  258.525;    0.000
1045.104;30981.275;  218.525;    0.000
1045.258;31913.275;  213.525;    0.000
1045.412;30957.275;  223.525;    0.000
1045.566;29991.275;  240.525;    0.000
1045.720;27620.275;  235.525;    0.000
1045.874;25945.275;  221.525;    0.000
1046.028;24811.275;  247.525;    0.000
1046.182;23783.275;  200.525;    0.000
1046.336;25014.275;  220.525;    0.000
1046.489;26627.275;  228.525;    0.000
1046.643;27991.275;  249.525;    0.000
1046.797;30420.275;  230.525;    0.000
1046.951;30878.275;  234.525;    0.000
1047.104;31248.275;  262.525;    0.000
1047.258;33306.273;  210.525;    0.000
1047.411;35212.273;  235.525;    0.000
1047.565;34735.273;  237.525;    0.000
1047.719;32616.275;  237.525;    0.000
1047.872;30423.275;  225.525;    0.000
1048.026;29768.275;  237.525;    0.000
1048.179;30305.275;  220.525;    0.000
1048.332;30822.275;  219.525;    0.000
1048.486;29393.275;  195.525;    0.000
1048.639;29968.275;  213.525;    0.000
1048.792;30379.275;  245.525;    0.000
1048.946;33871.273;  234.525;    0.000
1049.099;37916.273;  226.525;    0.000
1049.252;38241.273;  282.525;    0.000
1049.406;35169.273;  255.525;    0.000
1049.559;35958.273;  223.525;    0.000
1049.712;39478.273;  253.525;    0.000
1049.865;42685.273;  271.525;    0.000
1050.018;42033.273;  241.525;    0.000
1050.171;37271.273;  202.525;    0.000
1050.324;35880.273;  250.525;    0.000
1050.477;36618.273;  251.525;    0.000
1050.630;37535.273;  216.525;    0.000
1050.783;40439.273;  205.525;    0.000
1050.936;39090.273;  219.525;    0.000
1051.089;37659.273;  247.525;    0.000
1051.242;38474.273;  238.525;    0.000
1051.394;43570.273;  252.525;    0.000
1051.547;44368.273;  245.525;    0.000
1051.700;41736.273;  206.525;    0.000
1051.853;40176.273;  270.525;    0.000
1052.005;42732.273;  245.525;    0.000
1052.158;46916.273;  290.525;    0.000
1052.311;53823.273;  237.525;    0.000
1052.463;51173.273;  271.525;    0.000
1052.616;45199.273;  255.525;    0.000
1052.768;40395.273;  257.525;    0.000
1052.921;38827.273;  289.525;    0.000
1053.073;41574.273;  287.525;    0.000
1053.226;47589.273;  268.525;    0.000
1053.378;53158.273;  294.525;    0.000
1053.531;57116.273;  255.525;    0.000
1053.683;54960.273;  293.525;    0.000
1053.835;48058.273;  274.525;    0.000
1053.988;36573.273;  282.525;    0.000
1054.140; 6346.275;  291.525;    0.000
1054.292; 1637.275;  292.525;    0.000
1054.444; 1221.275;  299.525;    0.000
1054.596; 1188.275;  319.525;    0.000
1054.749; 1085.275;  295.525;    0.000
1054.901;  954.275;  266.525;    0.000
1055.053;  915.275;  300.525;    0.000
1055.205;  911.275;  290.525;    0.000
1055.357;  865.275;  304.525;    0.000
1055.509;  821.275;  292.525;    0.000
1055.661;  798.275;  339.525;    0.000
1055.813;  728.275;  306.525;    0.000
1055.965;  774.275;  293.525;    0.000
1056.116;  765.275;  300.525;    0.000
1056.268;  767.275;  306.525;    0.000
1056.420;  748.275;  288.525;    0.000

