
Integration time [ms]:   1.000
Averaging Nr. [scans]: 1
Smoothing Nr. [pixels]: 0
Data measured with spectrometer [name]: VIS
Wave   ;Sample   ;Dark     ;Reference
[nm]   ;[counts] ;[counts] ;[counts] 

450.961;  194.400;  200.375;    0.000
451.100;  227.400;  241.375;    0.000
451.239;  201.400;  201.375;    0.000
451.377;  234.400;  262.375;    0.000
451.516;  219.400;  229.375;    0.000
451.655;  192.400;  211.375;    0.000
451.794;  212.400;  225.375;    0.000
451.932;  223.400;  247.375;    0.000
452.071;  238.400;  260.375;    0.000
452.210;  204.400;  235.375;    0.000
452.348;  217.400;  276.375;    0.000
452.487;  227.400;  259.375;    0.000
452.626;  194.400;  254.375;    0.000
452.764;  206.400;  233.375;    0.000
452.903;  215.400;  202.375;    0.000
453.042;  293.400;  211.375;    0.000
453.180; 2508.400;  240.375;    0.000
453.319; 2600.400;  238.375;    0.000
453.458; 2612.400;  215.375;    0.000
453.596; 2714.400;  252.375;    0.000
453.735; 2633.400;  240.375;    0.000
453.873; 2757.400;  257.375;    0.000
454.012; 2703.400;  228.375;    0.000
454.150; 2785.400;  270.375;    0.000
454.289; 2768.400;  233.375;    0.000
454.427; 2733.400;  243.375;    0.000
454.566; 2825.400;  257.375;    0.000
454.704; 2788.400;  243.375;    0.000
454.843; 2859.400;  190.375;    0.000
454.981; 2785.400;  271.375;    0.000
455.120; 2827.400;  210.375;    0.000
455.258; 2965.400;  235.375;    0.000
455.397; 2887.400;  214.375;    0.000
455.535; 3100.400;  214.375;    0.000
455.674; 2927.400;  184.375;    0.000
455.812; 3014.400;  228.375;    0.000
455.951; 3029.400;  204.375;    0.000
456.089; 3138.400;  220.375;    0.000
456.227; 2995.400;  196.375;    0.000
456.366; 3218.400;  261.375;    0.000
456.504; 3240.400;  249.375;    0.000
456.642; 3199.400;  245.375;    0.000
456.781; 3192.400;  183.375;    0.000
456.919; 3312.400;  203.375;    0.000
457.057; 3360.400;  177.375;    0.000
457.196; 3329.400;  191.375;    0.000
457.334; 3400.400;  233.375;    0.000
457.472; 3487.400;  214.375;    0.000
457.610; 3513.400;  230.375;    0.000
457.749; 3549.400;  247.375;    0.000
457.887; 3559.400;  220.375;    0.000
458.025; 3605.400;  195.375;    0.000
458.163; 3662.400;  224.375;    0.000
458.301; 3783.400;  228.375;    0.000
458.440; 3731.400;  200.375;    0.000
458.578; 3822.400;  233.375;    0.000
458.716; 3883.400;  182.375;    0.000
458.854; 3956.400;  251.375;    0.000
458.992; 3908.400;  187.375;    0.000
459.130; 3956.400;  229.375;    0.000
459.269; 3960.400;  237.375;    0.000
459.407; 4070.400;  228.375;    0.000
459.545; 4019.400;  216.375;    0.000
459.683; 4233.400;  204.375;    0.000
459.821; 4247.400;  191.375;    0.000
459.959; 4297.400;  227.375;    0.000
460.097; 4226.400;  221.375;    0.000
460.235; 4380.400;  241.375;    0.000
460.373; 4429.400;  231.375;    0.000
460.511; 4446.400;  214.375;    0.000
460.649; 4385.400;  172.375;    0.000
460.787; 4472.400;  275.375;    0.000
460.925; 4441.400;  175.375;    0.000
461.063; 4605.400;  252.375;    0.000
461.201; 4562.400;  210.375;    0.000
461.339; 4493.400;  237.375;    0.000
461.477; 4691.400;  210.375;    0.000
461.615; 4581.400;  236.375;    0.000
461.753; 4605.400;  215.375;    0.000
461.891; 4694.400;  222.375;    0.000
462.029; 4863.400;  227.375;    0.000
462.166; 4782.400;  202.375;    0.000
462.304; 4901.400;  191.375;    0.000
462.442; 5003.400;  210.375;    0.000
462.580; 5034.400;  184.375;    0.000
462.718; 5048.400;  220.375;    0.000
462.856; 5008.400;  226.375;    0.000
462.993; 4979.400;  254.375;    0.000
463.131; 5110.400;  200.375;    0.000
463.269; 5030.400;  215.375;    0.000
463.407; 4881.400;  213.375;    0.000
463.545; 4833.400;  242.375;    0.000
463.682; 4908.400;  212.375;    0.000
463.820; 5128.400;  185.375;    0.000
463.958; 5250.400;  212.375;    0.000
464.095; 5389.400;  181.375;    0.000
464.233; 5347.400;  192.375;    0.000
464.371; 5377.400;  247.375;    0.000
464.509; 5327.400;  151.375;    0.000
464.646; 5442.400;  207.375;    0.000
464.784; 5257.400;  199.375;    0.000
464.921; 5196.400;  253.375;    0.000
465.059; 5279.400;  214.375;    0.000
465.197; 5170.400;  200.375;    0.000
465.334; 4946.400;  180.375;    0.000
465.472; 4893.400;  204.375;    0.000
465.609; 4869.400;  203.375;    0.000
465.747; 4752.400;  214.375;    0.000
465.885; 4838.400;  233.375;    0.000
466.022; 4748.400;  215.375;    0.000
466.160; 4779.400;  201.375;    0.000
466.297; 4663.400;  196.375;    0.000
466.435; 4695.400;  230.375;    0.000
466.572; 4694.400;  227.375;    0.000
466.710; 4591.400;  218.375;    0.000
466.847; 4716.400;  245.375;    0.000
466.985; 4650.400;  223.375;    0.000
467.122; 4652.400;  168.375;    0.000
467.260; 4606.400;  196.375;    0.000
467.397; 4622.400;  198.375;    0.000
467.534; 4743.400;  219.375;    0.000
467.672; 4604.400;  214.375;    0.000
467.809; 4617.400;  185.375;    0.000
467.947; 4750.400;  247.375;    0.000
468.084; 4624.400;  196.375;    0.000
468.221; 4678.400;  238.375;    0.000
468.359; 4623.400;  236.375;    0.000
468.496; 4519.400;  235.375;    0.000
468.633; 4582.400;  218.375;    0.000
468.771; 4663.400;  223.375;    0.000
468.908; 4674.400;  208.375;    0.000
469.045; 4640.400;  249.375;    0.000
469.183; 4710.400;  222.375;    0.000
469.320; 4912.400;  216.375;    0.000
469.457; 4830.400;  224.375;    0.000
469.594; 4856.400;  259.375;    0.000
469.732; 4869.400;  223.375;    0.000
469.869; 4922.400;  234.375;    0.000
470.006; 4949.400;  225.375;    0.000
470.143; 4974.400;  243.375;    0.000
470.280; 5007.400;  208.375;    0.000
470.417; 5069.400;  232.375;    0.000
470.555; 4950.400;  218.375;    0.000
470.692; 5027.400;  223.375;    0.000
470.829; 4966.400;  238.375;    0.000
470.966; 4984.400;  205.375;    0.000
471.103; 4897.400;  259.375;    0.000
471.240; 4990.400;  214.375;    0.000
471.377; 4904.400;  226.375;    0.000
471.514; 4922.400;  250.375;    0.000
471.651; 4861.400;  221.375;    0.000
471.789; 4953.400;  242.375;    0.000
471.926; 4908.400;  190.375;    0.000
472.063; 4871.400;  234.375;    0.000
472.200; 4904.400;  252.375;    0.000
472.337; 4899.400;  241.375;    0.000
472.474; 4799.400;  244.375;    0.000
472.611; 4983.400;  268.375;    0.000
472.748; 4788.400;  222.375;    0.000
472.884; 4849.400;  271.375;    0.000
473.021; 4728.400;  195.375;    0.000
473.158; 4722.400;  205.375;    0.000
473.295; 4888.400;  223.375;    0.000
473.432; 4749.400;  216.375;    0.000
473.569; 4849.400;  196.375;    0.000
473.706; 4629.400;  190.375;    0.000
473.843; 4814.400;  211.375;    0.000
473.980; 4755.400;  254.375;    0.000
474.117; 4843.400;  185.375;    0.000
474.253; 4829.400;  229.375;    0.000
474.390; 4789.400;  238.375;    0.000
474.527; 4950.400;  220.375;    0.000
474.664; 4754.400;  242.375;    0.000
474.801; 4840.400;  229.375;    0.000
474.937; 4851.400;  229.375;    0.000
475.074; 4867.400;  210.375;    0.000
475.211; 4956.400;  219.375;    0.000
475.348; 4850.400;  226.375;    0.000
475.484; 4857.400;  207.375;    0.000
475.621; 4878.400;  233.375;    0.000
475.758; 4970.400;  230.375;    0.000
475.894; 4899.400;  234.375;    0.000
476.031; 4978.400;  202.375;    0.000
476.168; 5015.400;  222.375;    0.000
476.304; 4936.400;  237.375;    0.000
476.441; 5008.400;  238.375;    0.000
476.578; 4970.400;  216.375;    0.000
476.714; 5032.400;  212.375;    0.000
476.851; 5042.400;  210.375;    0.000
476.987; 5187.400;  239.375;    0.000
477.124; 5123.400;  250.375;    0.000
477.261; 5078.400;  227.375;    0.000
477.397; 5079.400;  189.375;    0.000
477.534; 5116.400;  204.375;    0.000
477.670; 5126.400;  190.375;    0.000
477.807; 5176.400;  198.375;    0.000
477.943; 5188.400;  216.375;    0.000
478.080; 5280.400;  213.375;    0.000
478.216; 5249.400;  239.375;    0.000
478.353; 5312.400;  218.375;    0.000
478.489; 5407.400;  184.375;    0.000
478.626; 5399.400;  223.375;    0.000
478.762; 5361.400;  213.375;    0.000
478.898; 5335.400;  216.375;    0.000
479.035; 5533.400;  250.375;    0.000
479.171; 5536.400;  201.375;    0.000
479.308; 5446.400;  242.375;    0.000
479.444; 5451.400;  205.375;    0.000
479.580; 5556.400;  203.375;    0.000
479.717; 5597.400;  260.375;    0.000
479.853; 5523.400;  225.375;    0.000
479.989; 5568.400;  226.375;    0.000
480.126; 5618.400;  211.375;    0.000
480.262; 5725.400;  220.375;    0.000
480.398; 5533.400;  207.375;    0.000
480.535; 5622.400;  179.375;    0.000
480.671; 5621.400;  200.375;    0.000
480.807; 5586.400;  190.375;    0.000
480.943; 5497.400;  165.375;    0.000
481.080; 5491.400;  210.375;    0.000
481.216; 5564.400;  232.375;    0.000
481.352; 5389.400;  235.375;    0.000
481.488; 5458.400;  208.375;    0.000
481.624; 5611.400;  245.375;    0.000
481.760; 5580.400;  210.375;    0.000
481.897; 5401.400;  189.375;    0.000
482.033; 5623.400;  256.375;    0.000
482.169; 5432.400;  257.375;    0.000
482.305; 5484.400;  199.375;    0.000
482.441; 5467.400;  182.375;    0.000
482.577; 5389.400;  223.375;    0.000
482.713; 5526.400;  243.375;    0.000
482.849; 5461.400;  197.375;    0.000
482.985; 5401.400;  240.375;    0.000
483.121; 5410.400;  210.375;    0.000
483.258; 5555.400;  248.375;    0.000
483.394; 5496.400;  224.375;    0.000
483.530; 5429.400;  209.375;    0.000
483.665; 5481.400;  225.375;    0.000
483.801; 5506.400;  216.375;    0.000
483.937; 5578.400;  211.375;    0.000
484.073; 5567.400;  259.375;    0.000
484.209; 5567.400;  191.375;    0.000
484.345; 5529.400;  239.375;    0.000
484.481; 5640.400;  231.375;    0.000
484.617; 5534.400;  216.375;    0.000
484.753; 5608.400;  180.375;    0.000
484.889; 5630.400;  252.375;    0.000
485.025; 5573.400;  244.375;    0.000
485.161; 5481.400;  242.375;    0.000
485.296; 5768.400;  235.375;    0.000
485.432; 5693.400;  247.375;    0.000
485.568; 5624.400;  203.375;    0.000
485.704; 5695.400;  229.375;    0.000
485.840; 5771.400;  230.375;    0.000
485.975; 5653.400;  266.375;    0.000
486.111; 5637.400;  220.375;    0.000
486.247; 5667.400;  264.375;    0.000
486.383; 5836.400;  213.375;    0.000
486.518; 5650.400;  222.375;    0.000
486.654; 5687.400;  244.375;    0.000
486.790; 5591.400;  273.375;    0.000
486.926; 5738.400;  203.375;    0.000
487.061; 5703.400;  227.375;    0.000
487.197; 5684.400;  210.375;    0.000
487.333; 5670.400;  209.375;    0.000
487.468; 5658.400;  197.375;    0.000
487.604; 5560.400;  230.375;    0.000
487.740; 5728.400;  254.375;    0.000
487.875; 5691.400;  286.375;    0.000
488.011; 5630.400;  225.375;    0.000
488.146; 5596.400;  251.375;    0.000
488.282; 5679.400;  242.375;    0.000
488.417; 5697.400;  230.375;    0.000
488.553; 5644.400;  260.375;    0.000
488.688; 5634.400;  207.375;    0.000
488.824; 5675.400;  204.375;    0.000
488.960; 5580.400;  248.375;    0.000
489.095; 5667.400;  204.375;    0.000
489.230; 5649.400;  227.375;    0.000
489.366; 5740.400;  226.375;    0.000
489.501; 5630.400;  199.375;    0.000
489.637; 5713.400;  233.375;    0.000
489.772; 5702.400;  249.375;    0.000
489.908; 5665.400;  200.375;    0.000
490.043; 5721.400;  246.375;    0.000
490.178; 5738.400;  222.375;    0.000
490.314; 5773.400;  219.375;    0.000
490.449; 5640.400;  227.375;    0.000
490.585; 5585.400;  209.375;    0.000
490.720; 5671.400;  238.375;    0.000
490.855; 5576.400;  222.375;    0.000
490.991; 5455.400;  202.375;    0.000
491.126; 5721.400;  272.375;    0.000
491.261; 5741.400;  261.375;    0.000
491.396; 5626.400;  190.375;    0.000
491.532; 5705.400;  202.375;    0.000
491.667; 5584.400;  208.375;    0.000
491.802; 5555.400;  203.375;    0.000
491.937; 5789.400;  253.375;    0.000
492.073; 5668.400;  242.375;    0.000
492.208; 5639.400;  230.375;    0.000
492.343; 5609.400;  183.375;    0.000
492.478; 5816.400;  246.375;    0.000
492.613; 5761.400;  223.375;    0.000
492.749; 5767.400;  230.375;    0.000
492.884; 5622.400;  190.375;    0.000
493.019; 5737.400;  234.375;    0.000
493.154; 5737.400;  218.375;    0.000
493.289; 5569.400;  222.375;    0.000
493.424; 5836.400;  196.375;    0.000
493.559; 5650.400;  202.375;    0.000
493.694; 5611.400;  180.375;    0.000
493.829; 5725.400;  224.375;    0.000
493.964; 5727.400;  218.375;    0.000
494.099; 5783.400;  275.375;    0.000
494.234; 5632.400;  226.375;    0.000
494.369; 5728.400;  225.375;    0.000
494.504; 5705.400;  219.375;    0.000
494.639; 5704.400;  296.375;    0.000
494.774; 5716.400;  228.375;    0.000
494.909; 5649.400;  222.375;    0.000
495.044; 5597.400;  215.375;    0.000
495.179; 5693.400;  200.375;    0.000
495.314; 5733.400;  235.375;    0.000
495.449; 5677.400;  249.375;    0.000
495.584; 5747.400;  228.375;    0.000
495.719; 5747.400;  212.375;    0.000
495.854; 5831.400;  201.375;    0.000
495.988; 5785.400;  248.375;    0.000
496.123; 5639.400;  209.375;    0.000
496.258; 5890.400;  249.375;    0.000
496.393; 5732.400;  223.375;    0.000
496.528; 5886.400;  209.375;    0.000
496.663; 5895.400;  207.375;    0.000
496.797; 5904.400;  229.375;    0.000
496.932; 5984.400;  225.375;    0.000
497.067; 6013.400;  218.375;    0.000
497.202; 6044.400;  163.375;    0.000
497.336; 6018.400;  246.375;    0.000
497.471; 6043.400;  229.375;    0.000
497.606; 6149.400;  251.375;    0.000
497.740; 6261.400;  220.375;    0.000
497.875; 6265.400;  216.375;    0.000
498.010; 6432.400;  226.375;    0.000
498.144; 6520.400;  237.375;    0.000
498.279; 6649.400;  196.375;    0.000
498.414; 6605.400;  219.375;    0.000
498.548; 6859.400;  205.375;    0.000
498.683; 7051.400;  206.375;    0.000
498.817; 7091.400;  225.375;    0.000
498.952; 7207.400;  221.375;    0.000
499.087; 7481.400;  220.375;    0.000
499.221; 7624.400;  233.375;    0.000
499.356; 7736.400;  230.375;    0.000
499.490; 7872.400;  229.375;    0.000
499.625; 8328.400;  231.375;    0.000
499.759; 8501.400;  243.375;    0.000
499.894; 8703.400;  241.375;    0.000
500.028; 9171.400;  264.375;    0.000
500.162; 9289.400;  287.375;    0.000
500.297; 9391.400;  234.375;    0.000
500.431; 9439.400;  230.375;    0.000
500.566; 9424.400;  213.375;    0.000
500.700; 9266.400;  243.375;    0.000
500.835; 9179.400;  272.375;    0.000
500.969; 8860.400;  188.375;    0.000
501.103; 8676.400;  200.375;    0.000
501.238; 8405.400;  257.375;    0.000
501.372; 8216.400;  224.375;    0.000
501.506; 7846.400;  225.375;    0.000
501.641; 7715.400;  271.375;    0.000
501.775; 7403.400;  199.375;    0.000
501.909; 7269.400;  249.375;    0.000
502.043; 7051.400;  211.375;    0.000
502.178; 6930.400;  269.375;    0.000
502.312; 6734.400;  198.375;    0.000
502.446; 6692.400;  256.375;    0.000
502.580; 6621.400;  195.375;    0.000
502.715; 6420.400;  224.375;    0.000
502.849; 6402.400;  245.375;    0.000
502.983; 6246.400;  250.375;    0.000
503.117; 6225.400;  193.375;    0.000
503.251; 6069.400;  242.375;    0.000
503.385; 6069.400;  227.375;    0.000
503.520; 5888.400;  235.375;    0.000
503.654; 5884.400;  220.375;    0.000
503.788; 5665.400;  267.375;    0.000
503.922; 5805.400;  220.375;    0.000
504.056; 5687.400;  238.375;    0.000
504.190; 5711.400;  212.375;    0.000
504.324; 5637.400;  265.375;    0.000
504.458; 5547.400;  228.375;    0.000
504.592; 5559.400;  231.375;    0.000
504.726; 5534.400;  218.375;    0.000
504.860; 5486.400;  253.375;    0.000
504.994; 5393.400;  217.375;    0.000
505.128; 5272.400;  243.375;    0.000
505.262; 5158.400;  194.375;    0.000
505.396; 5062.400;  210.375;    0.000
505.530; 5130.400;  211.375;    0.000
505.664; 4995.400;  219.375;    0.000
505.798; 4947.400;  240.375;    0.000
505.932; 4806.400;  240.375;    0.000
506.066; 4916.400;  252.375;    0.000
506.199; 4894.400;  242.375;    0.000
506.333; 4854.400;  244.375;    0.000
506.467; 4848.400;  223.375;    0.000
506.601; 4756.400;  183.375;    0.000
506.735; 4657.400;  249.375;    0.000
506.869; 4808.400;  270.375;    0.000
507.002; 4618.400;  207.375;    0.000
507.136; 4607.400;  242.375;    0.000
507.270; 4709.400;  232.375;    0.000
507.404; 4633.400;  195.375;    0.000
507.537; 4549.400;  218.375;    0.000
507.671; 4538.400;  246.375;    0.000
507.805; 4576.400;  244.375;    0.000
507.939; 4511.400;  251.375;    0.000
508.072; 4615.400;  212.375;    0.000
508.206; 4441.400;  198.375;    0.000
508.340; 4406.400;  234.375;    0.000
508.473; 4495.400;  217.375;    0.000
508.607; 4552.400;  224.375;    0.000
508.740; 4376.400;  207.375;    0.000
508.874; 4449.400;  230.375;    0.000
509.008; 4474.400;  246.375;    0.000
509.141; 4312.400;  239.375;    0.000
509.275; 4357.400;  229.375;    0.000
509.408; 4465.400;  234.375;    0.000
509.542; 4323.400;  212.375;    0.000
509.675; 4354.400;  256.375;    0.000
509.809; 4297.400;  232.375;    0.000
509.942; 4371.400;  237.375;    0.000
510.076; 4207.400;  226.375;    0.000
510.209; 4268.400;  251.375;    0.000
510.343; 4278.400;  229.375;    0.000
510.476; 4239.400;  285.375;    0.000
510.610; 4166.400;  211.375;    0.000
510.743; 4164.400;  258.375;    0.000
510.877; 4183.400;  244.375;    0.000
511.010; 4196.400;  235.375;    0.000
511.143; 4204.400;  251.375;    0.000
511.277; 4104.400;  228.375;    0.000
511.410; 4129.400;  216.375;    0.000
511.543; 4252.400;  231.375;    0.000
511.677; 4167.400;  244.375;    0.000
511.810; 4155.400;  186.375;    0.000
511.943; 4123.400;  211.375;    0.000
512.077; 4193.400;  201.375;    0.000
512.210; 4025.400;  194.375;    0.000
512.343; 4154.400;  233.375;    0.000
512.476; 4182.400;  234.375;    0.000
512.610; 4178.400;  224.375;    0.000
512.743; 4201.400;  255.375;    0.000
512.876; 4093.400;  264.375;    0.000
513.009; 4232.400;  283.375;    0.000
513.142; 4284.400;  246.375;    0.000
513.276; 4016.400;  217.375;    0.000
513.409; 4101.400;  222.375;    0.000
513.542; 4131.400;  237.375;    0.000
513.675; 4147.400;  238.375;    0.000
513.808; 4089.400;  220.375;    0.000
513.941; 4039.400;  233.375;    0.000
514.074; 4085.400;  248.375;    0.000
514.207; 4118.400;  233.375;    0.000
514.340; 4052.400;  190.375;    0.000
514.474; 4105.400;  221.375;    0.000
514.607; 4154.400;  213.375;    0.000
514.740; 4103.400;  251.375;    0.000
514.873; 4106.400;  257.375;    0.000
515.006; 4263.400;  268.375;    0.000
515.139; 4215.400;  257.375;    0.000
515.272; 4140.400;  227.375;    0.000
515.404; 4214.400;  238.375;    0.000
515.537; 4190.400;  275.375;    0.000
515.670; 4266.400;  239.375;    0.000
515.803; 4250.400;  223.375;    0.000
515.936; 4295.400;  202.375;    0.000
516.069; 4364.400;  188.375;    0.000
516.202; 4440.400;  240.375;    0.000
516.335; 4468.400;  252.375;    0.000
516.468; 4614.400;  254.375;    0.000
516.600; 5542.400;  254.375;    0.000
516.733; 6817.400;  255.375;    0.000
516.866; 6657.400;  265.375;    0.000
516.999; 5831.400;  251.375;    0.000
517.132; 7354.400;  256.375;    0.000
517.264;10122.400;  202.375;    0.000
517.397; 9465.400;  248.375;    0.000
517.530; 7141.400;  221.375;    0.000
517.663; 6142.400;  244.375;    0.000
517.795; 5826.400;  245.375;    0.000
517.928; 5568.400;  236.375;    0.000
518.061; 5637.400;  219.375;    0.000
518.193; 7479.400;  251.375;    0.000
518.326;11364.400;  271.375;    0.000
518.459;11664.400;  207.375;    0.000
518.591; 8727.400;  217.375;    0.000
518.724; 6749.400;  200.375;    0.000
518.857; 5864.400;  204.375;    0.000
518.989; 5487.400;  242.375;    0.000
519.122; 5175.400;  254.375;    0.000
519.254; 4926.400;  239.375;    0.000
519.387; 4879.400;  235.375;    0.000
519.519; 4631.400;  227.375;    0.000
519.652; 4500.400;  178.375;    0.000
519.784; 4482.400;  226.375;    0.000
519.917; 4268.400;  256.375;    0.000
520.049; 4226.400;  234.375;    0.000
520.182; 4182.400;  258.375;    0.000
520.314; 4235.400;  298.375;    0.000
520.447; 4086.400;  204.375;    0.000
520.579; 4129.400;  235.375;    0.000
520.712; 4054.400;  208.375;    0.000
520.844; 4140.400;  272.375;    0.000
520.976; 3970.400;  234.375;    0.000
521.109; 3904.400;  235.375;    0.000
521.241; 3925.400;  250.375;    0.000
521.373; 3940.400;  233.375;    0.000
521.506; 3865.400;  231.375;    0.000
521.638; 3884.400;  258.375;    0.000
521.770; 3765.400;  226.375;    0.000
521.903; 3825.400;  258.375;    0.000
522.035; 3699.400;  263.375;    0.000
522.167; 3679.400;  214.375;    0.000
522.300; 3753.400;  212.375;    0.000
522.432; 3813.400;  220.375;    0.000
522.564; 3667.400;  228.375;    0.000
522.696; 3788.400;  272.375;    0.000
522.828; 3658.400;  222.375;    0.000
522.961; 3607.400;  205.375;    0.000
523.093; 3669.400;  253.375;    0.000
523.225; 3658.400;  239.375;    0.000
523.357; 3605.400;  263.375;    0.000
523.489; 3638.400;  264.375;    0.000
523.621; 3620.400;  259.375;    0.000
523.753; 3567.400;  233.375;    0.000
523.885; 3602.400;  232.375;    0.000
524.018; 3591.400;  214.375;    0.000
524.150; 3476.400;  235.375;    0.000
524.282; 3503.400;  242.375;    0.000
524.414; 3576.400;  261.375;    0.000
524.546; 3604.400;  233.375;    0.000
524.678; 3480.400;  242.375;    0.000
524.810; 3449.400;  216.375;    0.000
524.942; 3554.400;  220.375;    0.000
525.074; 3479.400;  249.375;    0.000
525.206; 3465.400;  227.375;    0.000
525.338; 3459.400;  250.375;    0.000
525.469; 3437.400;  231.375;    0.000
525.601; 3400.400;  245.375;    0.000
525.733; 3398.400;  187.375;    0.000
525.865; 3421.400;  280.375;    0.000
525.997; 3452.400;  216.375;    0.000
526.129; 3369.400;  228.375;    0.000
526.261; 3311.400;  187.375;    0.000
526.393; 3254.400;  228.375;    0.000
526.524; 3383.400;  201.375;    0.000
526.656; 3375.400;  199.375;    0.000
526.788; 3325.400;  233.375;    0.000
526.920; 3338.400;  256.375;    0.000
527.052; 3350.400;  219.375;    0.000
527.183; 3348.400;  227.375;    0.000
527.315; 3358.400;  266.375;    0.000
527.447; 3317.400;  239.375;    0.000
527.578; 3334.400;  213.375;    0.000
527.710; 3268.400;  216.375;    0.000
527.842; 3275.400;  240.375;    0.000
527.973; 3430.400;  286.375;    0.000
528.105; 3253.400;  222.375;    0.000
528.237; 3376.400;  223.375;    0.000
528.368; 3231.400;  211.375;    0.000
528.500; 3308.400;  215.375;    0.000
528.632; 3348.400;  216.375;    0.000
528.763; 3305.400;  234.375;    0.000
528.895; 3297.400;  196.375;    0.000
529.026; 3226.400;  202.375;    0.000
529.158; 3147.400;  226.375;    0.000
529.289; 3339.400;  229.375;    0.000
529.421; 3383.400;  264.375;    0.000
529.552; 3309.400;  265.375;    0.000
529.684; 3374.400;  260.375;    0.000
529.815; 3304.400;  284.375;    0.000
529.947; 3268.400;  237.375;    0.000
530.078; 3332.400;  223.375;    0.000
530.210; 3253.400;  223.375;    0.000
530.341; 3286.400;  209.375;    0.000
530.472; 3247.400;  203.375;    0.000
530.604; 3271.400;  223.375;    0.000
530.735; 3335.400;  218.375;    0.000
530.867; 3293.400;  222.375;    0.000
530.998; 3320.400;  239.375;    0.000
531.129; 3302.400;  250.375;    0.000
531.260; 3280.400;  224.375;    0.000
531.392; 3236.400;  216.375;    0.000
531.523; 3329.400;  234.375;    0.000
531.654; 3347.400;  256.375;    0.000
531.786; 3324.400;  226.375;    0.000
531.917; 3359.400;  239.375;    0.000
532.048; 3279.400;  205.375;    0.000
532.179; 3259.400;  244.375;    0.000
532.311; 3276.400;  235.375;    0.000
532.442; 3299.400;  258.375;    0.000
532.573; 3328.400;  220.375;    0.000
532.704; 3286.400;  213.375;    0.000
532.835; 3352.400;  249.375;    0.000
532.966; 3303.400;  226.375;    0.000
533.097; 3324.400;  246.375;    0.000
533.229; 3223.400;  237.375;    0.000
533.360; 3286.400;  225.375;    0.000
533.491; 3351.400;  241.375;    0.000
533.622; 3328.400;  242.375;    0.000
533.753; 3263.400;  264.375;    0.000
533.884; 3322.400;  245.375;    0.000
534.015; 3328.400;  269.375;    0.000
534.146; 3384.400;  267.375;    0.000
534.277; 3373.400;  282.375;    0.000
534.408; 3270.400;  229.375;    0.000
534.539; 3306.400;  269.375;    0.000
534.670; 3245.400;  231.375;    0.000
534.801; 3195.400;  260.375;    0.000
534.932; 3281.400;  232.375;    0.000
535.063; 3194.400;  227.375;    0.000
535.194; 3306.400;  281.375;    0.000
535.324; 3173.400;  206.375;    0.000
535.455; 3254.400;  257.375;    0.000
535.586; 3263.400;  275.375;    0.000
535.717; 3194.400;  206.375;    0.000
535.848; 3142.400;  271.375;    0.000
535.979; 3171.400;  250.375;    0.000
536.109; 3134.400;  253.375;    0.000
536.240; 3264.400;  234.375;    0.000
536.371; 3294.400;  230.375;    0.000
536.502; 3218.400;  270.375;    0.000
536.632; 3228.400;  228.375;    0.000
536.763; 3200.400;  249.375;    0.000
536.894; 3289.400;  262.375;    0.000
537.025; 3114.400;  258.375;    0.000
537.155; 3234.400;  278.375;    0.000
537.286; 3111.400;  209.375;    0.000
537.417; 3171.400;  255.375;    0.000
537.547; 3133.400;  208.375;    0.000
537.678; 3172.400;  224.375;    0.000
537.808; 3158.400;  224.375;    0.000
537.939; 3154.400;  257.375;    0.000
538.070; 3148.400;  240.375;    0.000
538.200; 3201.400;  259.375;    0.000
538.331; 3137.400;  235.375;    0.000
538.461; 3176.400;  251.375;    0.000
538.592; 3282.400;  245.375;    0.000
538.722; 3129.400;  239.375;    0.000
538.853; 3137.400;  216.375;    0.000
538.983; 3157.400;  226.375;    0.000
539.114; 3159.400;  240.375;    0.000
539.244; 3232.400;  237.375;    0.000
539.375; 3137.400;  198.375;    0.000
539.505; 3121.400;  263.375;    0.000
539.636; 3135.400;  226.375;    0.000
539.766; 3114.400;  229.375;    0.000
539.896; 3071.400;  219.375;    0.000
540.027; 3131.400;  246.375;    0.000
540.157; 3155.400;  218.375;    0.000
540.287; 3112.400;  216.375;    0.000
540.418; 3154.400;  267.375;    0.000
540.548; 3142.400;  260.375;    0.000
540.678; 3124.400;  242.375;    0.000
540.809; 3250.400;  260.375;    0.000
540.939; 3201.400;  257.375;    0.000
541.069; 3154.400;  226.375;    0.000
541.200; 3126.400;  227.375;    0.000
541.330; 3153.400;  218.375;    0.000
541.460; 3198.400;  223.375;    0.000
541.590; 3153.400;  237.375;    0.000
541.720; 3088.400;  222.375;    0.000
541.851; 2998.400;  250.375;    0.000
541.981; 3171.400;  222.375;    0.000
542.111; 3140.400;  212.375;    0.000
542.241; 3201.400;  205.375;    0.000
542.371; 3087.400;  202.375;    0.000
542.501; 3202.400;  218.375;    0.000
542.631; 3334.400;  222.375;    0.000
542.761; 3251.400;  249.375;    0.000
542.891; 3229.400;  173.375;    0.000
543.021; 3268.400;  218.375;    0.000
543.151; 3234.400;  222.375;    0.000
543.281; 3256.400;  188.375;    0.000
543.411; 3252.400;  239.375;    0.000
543.542; 3117.400;  215.375;    0.000
543.671; 3249.400;  250.375;    0.000
543.801; 3190.400;  212.375;    0.000
543.931; 3239.400;  233.375;    0.000
544.061; 3221.400;  194.375;    0.000
544.191; 3185.400;  218.375;    0.000
544.321; 3157.400;  220.375;    0.000
544.451; 3234.400;  183.375;    0.000
544.581; 3220.400;  221.375;    0.000
544.711; 3313.400;  224.375;    0.000
544.841; 3339.400;  214.375;    0.000
544.970; 3337.400;  227.375;    0.000
545.100; 3246.400;  186.375;    0.000
545.230; 3433.400;  205.375;    0.000
545.360; 3295.400;  211.375;    0.000
545.490; 3306.400;  202.375;    0.000
545.619; 3209.400;  182.375;    0.000
545.749; 3274.400;  174.375;    0.000
545.879; 3331.400;  169.375;    0.000
546.009; 3276.400;  182.375;    0.000
546.138; 3300.400;  200.375;    0.000
546.268; 3241.400;  204.375;    0.000
546.398; 3242.400;  200.375;    0.000
546.527; 3184.400;  179.375;    0.000
546.657; 3295.400;  162.375;    0.000
546.786; 3287.400;  179.375;    0.000
546.916; 3229.400;  221.375;    0.000
547.046; 3314.400;  179.375;    0.000
547.175; 3259.400;  168.375;    0.000
547.305; 3170.400;  200.375;    0.000
547.434; 3164.400;  166.375;    0.000
547.564; 3253.400;  177.375;    0.000
547.693; 3292.400;  152.375;    0.000
547.823; 3248.400;  171.375;    0.000
547.953; 3266.400;  195.375;    0.000
548.082; 3315.400;  214.375;    0.000
548.211; 3263.400;  177.375;    0.000
548.341; 3249.400;  189.375;    0.000
548.470; 3265.400;  194.375;    0.000
548.600; 3260.400;  172.375;    0.000
548.729; 3336.400;  158.375;    0.000
548.859; 3220.400;  193.375;    0.000
548.988; 3323.400;  131.375;    0.000
549.117; 3259.400;  204.375;    0.000
549.247; 3331.400;  191.375;    0.000
549.376; 3285.400;  202.375;    0.000
549.505; 3247.400;  187.375;    0.000
549.635; 3324.400;  198.375;    0.000
549.764; 3340.400;  155.375;    0.000
549.893; 3288.400;  176.375;    0.000
550.023; 3369.400;  202.375;    0.000
550.152; 3390.400;  168.375;    0.000
550.281; 3435.400;  180.375;    0.000
550.410; 3439.400;  180.375;    0.000
550.539; 3303.400;  181.375;    0.000
550.669; 3285.400;  168.375;    0.000
550.798; 3326.400;  223.375;    0.000
550.927; 3302.400;  179.375;    0.000
551.056; 3310.400;  159.375;    0.000
551.185; 3346.400;  199.375;    0.000
551.314; 3363.400;  185.375;    0.000
551.443; 3338.400;  172.375;    0.000
551.573; 3416.400;  158.375;    0.000
551.702; 3328.400;  210.375;    0.000
551.831; 3402.400;  238.375;    0.000
551.960; 3382.400;  191.375;    0.000
552.089; 3402.400;  195.375;    0.000
552.218; 3399.400;  196.375;    0.000
552.347; 3545.400;  194.375;    0.000
552.476; 3454.400;  192.375;    0.000
552.605; 3460.400;  172.375;    0.000
552.734; 3630.400;  214.375;    0.000
552.863; 3684.400;  177.375;    0.000
552.992; 3683.400;  190.375;    0.000
553.121; 3610.400;  185.375;    0.000
553.249; 3611.400;  175.375;    0.000
553.378; 3564.400;  192.375;    0.000
553.507; 3499.400;  193.375;    0.000
553.636; 3564.400;  182.375;    0.000
553.765; 3480.400;  187.375;    0.000
553.894; 3534.400;  214.375;    0.000
554.023; 3453.400;  217.375;    0.000
554.151; 3516.400;  223.375;    0.000
554.280; 3489.400;  170.375;    0.000
554.409; 3375.400;  172.375;    0.000
554.538; 3434.400;  182.375;    0.000
554.666; 3381.400;  195.375;    0.000
554.795; 3371.400;  176.375;    0.000
554.924; 3391.400;  164.375;    0.000
555.052; 3408.400;  171.375;    0.000
555.181; 3302.400;  208.375;    0.000
555.310; 3357.400;  214.375;    0.000
555.439; 3414.400;  193.375;    0.000
555.567; 3330.400;  189.375;    0.000
555.696; 3283.400;  196.375;    0.000
555.824; 3250.400;  183.375;    0.000
555.953; 3341.400;  234.375;    0.000
556.082; 3306.400;  183.375;    0.000
556.210; 3266.400;  199.375;    0.000
556.339; 3296.400;  201.375;    0.000
556.467; 3278.400;  208.375;    0.000
556.596; 3181.400;  194.375;    0.000
556.724; 3296.400;  170.375;    0.000
556.853; 3228.400;  166.375;    0.000
556.981; 3209.400;  185.375;    0.000
557.110; 3258.400;  213.375;    0.000
557.238; 3159.400;  188.375;    0.000
557.367; 3335.400;  176.375;    0.000
557.495; 3281.400;  180.375;    0.000
557.623; 3221.400;  193.375;    0.000
557.752; 3232.400;  207.375;    0.000
557.880; 3184.400;  189.375;    0.000
558.008; 3184.400;  169.375;    0.000
558.137; 3275.400;  203.375;    0.000
558.265; 3235.400;  167.375;    0.000
558.393; 3277.400;  204.375;    0.000
558.522; 3231.400;  203.375;    0.000
558.650; 3241.400;  215.375;    0.000
558.778; 3190.400;  190.375;    0.000
558.906; 3236.400;  186.375;    0.000
559.035; 3153.400;  193.375;    0.000
559.163; 3248.400;  198.375;    0.000
559.291; 3205.400;  222.375;    0.000
559.419; 3198.400;  192.375;    0.000
559.548; 3173.400;  186.375;    0.000
559.676; 3167.400;  199.375;    0.000
559.804; 3341.400;  186.375;    0.000
559.932; 3303.400;  202.375;    0.000
560.060; 3290.400;  183.375;    0.000
560.188; 3307.400;  212.375;    0.000
560.316; 3366.400;  192.375;    0.000
560.444; 3263.400;  180.375;    0.000
560.572; 3326.400;  206.375;    0.000
560.700; 3324.400;  184.375;    0.000
560.828; 3256.400;  177.375;    0.000
560.956; 3318.400;  221.375;    0.000
561.085; 3362.400;  227.375;    0.000
561.212; 3280.400;  208.375;    0.000
561.340; 3385.400;  189.375;    0.000
561.468; 3371.400;  189.375;    0.000
561.596; 3358.400;  183.375;    0.000
561.724; 3334.400;  188.375;    0.000
561.852; 3353.400;  183.375;    0.000
561.980; 3355.400;  209.375;    0.000
562.108; 3384.400;  165.375;    0.000
562.236; 3342.400;  188.375;    0.000
562.364; 3472.400;  177.375;    0.000
562.492; 3467.400;  192.375;    0.000
562.619; 3406.400;  187.375;    0.000
562.747; 3419.400;  217.375;    0.000
562.875; 3392.400;  221.375;    0.000
563.003; 3487.400;  199.375;    0.000
563.130; 3476.400;  191.375;    0.000
563.258; 3424.400;  186.375;    0.000
563.386; 3528.400;  191.375;    0.000
563.514; 3611.400;  217.375;    0.000
563.641; 3614.400;  220.375;    0.000
563.769; 3573.400;  186.375;    0.000
563.897; 3683.400;  158.375;    0.000
564.024; 3689.400;  192.375;    0.000
564.152; 3646.400;  217.375;    0.000
564.280; 3636.400;  203.375;    0.000
564.407; 3615.400;  190.375;    0.000
564.535; 3782.400;  188.375;    0.000
564.662; 3799.400;  199.375;    0.000
564.790; 3832.400;  227.375;    0.000
564.917; 3811.400;  160.375;    0.000
565.045; 3794.400;  222.375;    0.000
565.173; 3922.400;  169.375;    0.000
565.300; 3858.400;  208.375;    0.000
565.428; 3937.400;  174.375;    0.000
565.555; 3946.400;  201.375;    0.000
565.682; 4078.400;  180.375;    0.000
565.810; 4132.400;  165.375;    0.000
565.937; 4170.400;  167.375;    0.000
566.065; 4173.400;  190.375;    0.000
566.192; 4270.400;  169.375;    0.000
566.320; 4326.400;  167.375;    0.000
566.447; 4647.400;  151.375;    0.000
566.574; 4520.400;  176.375;    0.000
566.702; 4601.400;  198.375;    0.000
566.829; 4586.400;  209.375;    0.000
566.956; 4634.400;  186.375;    0.000
567.083; 4618.400;  188.375;    0.000
567.211; 4671.400;  159.375;    0.000
567.338; 4753.400;  204.375;    0.000
567.465; 4674.400;  141.375;    0.000
567.593; 4834.400;  168.375;    0.000
567.720; 4812.400;  177.375;    0.000
567.847; 4760.400;  160.375;    0.000
567.974; 4747.400;  139.375;    0.000
568.101; 4672.400;  153.375;    0.000
568.228; 4646.400;  173.375;    0.000
568.356; 4493.400;  149.375;    0.000
568.483; 4445.400;  185.375;    0.000
568.610; 4304.400;  170.375;    0.000
568.737; 4257.400;  223.375;    0.000
568.864; 4274.400;  167.375;    0.000
568.991; 4075.400;  177.375;    0.000
569.118; 4005.400;  169.375;    0.000
569.245; 3911.400;  128.375;    0.000
569.372; 3923.400;  160.375;    0.000
569.499; 3958.400;  156.375;    0.000
569.626; 3956.400;  191.375;    0.000
569.753; 3895.400;  163.375;    0.000
569.880; 3778.400;  167.375;    0.000
570.007; 3688.400;  143.375;    0.000
570.134; 3646.400;  191.375;    0.000
570.261; 3689.400;  164.375;    0.000
570.388; 3776.400;  162.375;    0.000
570.515; 3660.400;  220.375;    0.000
570.642; 3679.400;  184.375;    0.000
570.768; 3620.400;  174.375;    0.000
570.895; 3689.400;  177.375;    0.000
571.022; 3659.400;  152.375;    0.000
571.149; 3675.400;  183.375;    0.000
571.276; 3532.400;  153.375;    0.000
571.402; 3619.400;  190.375;    0.000
571.529; 3501.400;  187.375;    0.000
571.656; 3558.400;  167.375;    0.000
571.783; 3474.400;  186.375;    0.000
571.909; 3569.400;  183.375;    0.000
572.036; 3452.400;  162.375;    0.000
572.163; 3373.400;  196.375;    0.000
572.289; 3426.400;  180.375;    0.000
572.416; 3454.400;  190.375;    0.000
572.543; 3397.400;  174.375;    0.000
572.669; 3365.400;  186.375;    0.000
572.796; 3417.400;  205.375;    0.000
572.922; 3416.400;  185.375;    0.000
573.049; 3342.400;  178.375;    0.000
573.176; 3305.400;  196.375;    0.000
573.302; 3351.400;  202.375;    0.000
573.429; 3339.400;  189.375;    0.000
573.555; 3329.400;  145.375;    0.000
573.682; 3356.400;  228.375;    0.000
573.808; 3441.400;  197.375;    0.000
573.935; 3326.400;  216.375;    0.000
574.061; 3352.400;  173.375;    0.000
574.188; 3329.400;  151.375;    0.000
574.314; 3315.400;  181.375;    0.000
574.440; 3271.400;  167.375;    0.000
574.567; 3228.400;  185.375;    0.000
574.693; 3257.400;  173.375;    0.000
574.820; 3307.400;  164.375;    0.000
574.946; 3266.400;  199.375;    0.000
575.072; 3358.400;  162.375;    0.000
575.198; 3303.400;  225.375;    0.000
575.325; 3265.400;  171.375;    0.000
575.451; 3266.400;  183.375;    0.000
575.577; 3286.400;  190.375;    0.000
575.704; 3292.400;  210.375;    0.000
575.830; 3270.400;  185.375;    0.000
575.956; 3225.400;  168.375;    0.000
576.082; 3294.400;  158.375;    0.000
576.208; 3240.400;  158.375;    0.000
576.335; 3209.400;  196.375;    0.000
576.461; 3258.400;  187.375;    0.000
576.587; 3191.400;  157.375;    0.000
576.713; 3270.400;  156.375;    0.000
576.839; 3141.400;  196.375;    0.000
576.965; 3229.400;  187.375;    0.000
577.091; 3172.400;  204.375;    0.000
577.217; 3222.400;  207.375;    0.000
577.343; 3236.400;  175.375;    0.000
577.469; 3347.400;  197.375;    0.000
577.596; 3225.400;  182.375;    0.000
577.722; 3159.400;  159.375;    0.000
577.848; 3170.400;  162.375;    0.000
577.974; 3141.400;  180.375;    0.000
578.099; 3206.400;  161.375;    0.000
578.225; 3253.400;  180.375;    0.000
578.351; 3272.400;  190.375;    0.000
578.477; 3312.400;  212.375;    0.000
578.603; 3261.400;  179.375;    0.000
578.729; 3246.400;  195.375;    0.000
578.855; 3263.400;  153.375;    0.000
578.981; 3171.400;  162.375;    0.000
579.107; 3173.400;  149.375;    0.000
579.232; 3121.400;  164.375;    0.000
579.358; 3182.400;  162.375;    0.000
579.484; 3162.400;  181.375;    0.000
579.610; 3238.400;  190.375;    0.000
579.735; 3223.400;  191.375;    0.000
579.861; 3099.400;  189.375;    0.000
579.987; 3226.400;  202.375;    0.000
580.113; 3180.400;  197.375;    0.000
580.238; 3234.400;  228.375;    0.000
580.364; 3274.400;  212.375;    0.000
580.490; 3194.400;  225.375;    0.000
580.615; 3152.400;  218.375;    0.000
580.741; 3209.400;  167.375;    0.000
580.867; 3156.400;  215.375;    0.000
580.992; 3234.400;  191.375;    0.000
581.118; 3168.400;  171.375;    0.000
581.243; 3239.400;  204.375;    0.000
581.369; 3157.400;  186.375;    0.000
581.494; 3187.400;  184.375;    0.000
581.620; 3178.400;  212.375;    0.000
581.745; 3259.400;  192.375;    0.000
581.871; 3174.400;  195.375;    0.000
581.996; 3191.400;  160.375;    0.000
582.122; 3256.400;  217.375;    0.000
582.247; 3122.400;  213.375;    0.000
582.373; 3178.400;  187.375;    0.000
582.498; 3228.400;  208.375;    0.000
582.624; 3168.400;  189.375;    0.000
582.749; 3193.400;  185.375;    0.000
582.874; 3118.400;  195.375;    0.000
583.000; 3168.400;  208.375;    0.000
583.125; 3117.400;  147.375;    0.000
583.250; 3095.400;  201.375;    0.000
583.376; 3279.400;  191.375;    0.000
583.501; 3302.400;  206.375;    0.000
583.626; 3135.400;  167.375;    0.000
583.751; 3155.400;  180.375;    0.000
583.877; 3204.400;  185.375;    0.000
584.002; 3202.400;  186.375;    0.000
584.127; 3190.400;  176.375;    0.000
584.252; 3102.400;  214.375;    0.000
584.377; 3212.400;  225.375;    0.000
584.503; 3251.400;  195.375;    0.000
584.628; 3108.400;  206.375;    0.000
584.753; 3204.400;  181.375;    0.000
584.878; 3118.400;  136.375;    0.000
585.003; 3177.400;  215.375;    0.000
585.128; 3220.400;  206.375;    0.000
585.253; 3369.400;  200.375;    0.000
585.378; 3247.400;  169.375;    0.000
585.503; 3290.400;  191.375;    0.000
585.628; 3183.400;  182.375;    0.000
585.753; 3213.400;  164.375;    0.000
585.878; 3189.400;  123.375;    0.000
586.003; 3160.400;  187.375;    0.000
586.128; 3214.400;  198.375;    0.000
586.253; 3194.400;  172.375;    0.000
586.378; 3157.400;  191.375;    0.000
586.503; 3193.400;  190.375;    0.000
586.628; 3199.400;  178.375;    0.000
586.753; 3248.400;  184.375;    0.000
586.878; 3252.400;  169.375;    0.000
587.003; 3227.400;  186.375;    0.000
587.127; 3351.400;  170.375;    0.000
587.252; 3228.400;  170.375;    0.000
587.377; 3359.400;  181.375;    0.000
587.502; 3365.400;  209.375;    0.000
587.627; 3388.400;  210.375;    0.000
587.751; 3360.400;  212.375;    0.000
587.876; 3393.400;  198.375;    0.000
588.001; 3454.400;  161.375;    0.000
588.125; 3427.400;  191.375;    0.000
588.250; 3487.400;  132.375;    0.000
588.375; 3763.400;  183.375;    0.000
588.499; 3851.400;  176.375;    0.000
588.624; 4190.400;  173.375;    0.000
588.749; 5146.400;  204.375;    0.000
588.873; 7554.400;  179.375;    0.000
588.998; 9998.400;  182.375;    0.000
589.122; 8904.400;  165.375;    0.000
589.247; 6542.400;  185.375;    0.000
589.372; 5780.400;  199.375;    0.000
589.496; 7412.400;  182.375;    0.000
589.621; 8644.400;  158.375;    0.000
589.745; 7133.400;  213.375;    0.000
589.870; 5202.400;  175.375;    0.000
589.994; 4365.400;  194.375;    0.000
590.118; 4033.400;  218.375;    0.000
590.243; 3867.400;  170.375;    0.000
590.367; 3681.400;  189.375;    0.000
590.492; 3606.400;  196.375;    0.000
590.616; 3717.400;  182.375;    0.000
590.740; 3587.400;  210.375;    0.000
590.865; 3586.400;  242.375;    0.000
590.989; 3535.400;  191.375;    0.000
591.114; 3520.400;  167.375;    0.000
591.238; 3421.400;  194.375;    0.000
591.362; 3540.400;  236.375;    0.000
591.486; 3532.400;  194.375;    0.000
591.611; 3544.400;  154.375;    0.000
591.735; 3513.400;  186.375;    0.000
591.859; 3515.400;  148.375;    0.000
591.983; 3589.400;  211.375;    0.000
592.107; 3467.400;  204.375;    0.000
592.232; 3513.400;  194.375;    0.000
592.356; 3591.400;  238.375;    0.000
592.480; 3620.400;  179.375;    0.000
592.604; 3639.400;  192.375;    0.000
592.728; 3640.400;  201.375;    0.000
592.852; 3529.400;  158.375;    0.000
592.976; 3616.400;  152.375;    0.000
593.100; 3701.400;  194.375;    0.000
593.224; 3714.400;  235.375;    0.000
593.349; 3699.400;  233.375;    0.000
593.473; 3715.400;  194.375;    0.000
593.597; 3605.400;  215.375;    0.000
593.721; 3655.400;  212.375;    0.000
593.844; 3734.400;  220.375;    0.000
593.968; 3602.400;  221.375;    0.000
594.092; 3694.400;  150.375;    0.000
594.216; 3669.400;  212.375;    0.000
594.340; 3660.400;  209.375;    0.000
594.464; 3632.400;  207.375;    0.000
594.588; 3610.400;  195.375;    0.000
594.712; 3584.400;  176.375;    0.000
594.836; 3623.400;  219.375;    0.000
594.959; 3531.400;  215.375;    0.000
595.083; 3475.400;  200.375;    0.000
595.207; 3446.400;  206.375;    0.000
595.331; 3387.400;  207.375;    0.000
595.455; 3410.400;  206.375;    0.000
595.578; 3472.400;  204.375;    0.000
595.702; 3374.400;  225.375;    0.000
595.826; 3404.400;  186.375;    0.000
595.949; 3330.400;  196.375;    0.000
596.073; 3350.400;  188.375;    0.000
596.197; 3319.400;  217.375;    0.000
596.320; 3358.400;  225.375;    0.000
596.444; 3361.400;  220.375;    0.000
596.568; 3312.400;  155.375;    0.000
596.691; 3302.400;  195.375;    0.000
596.815; 3292.400;  163.375;    0.000
596.938; 3250.400;  181.375;    0.000
597.062; 3207.400;  201.375;    0.000
597.186; 3291.400;  200.375;    0.000
597.309; 3214.400;  214.375;    0.000
597.433; 3201.400;  176.375;    0.000
597.556; 3150.400;  193.375;    0.000
597.680; 3152.400;  241.375;    0.000
597.803; 3262.400;  185.375;    0.000
597.926; 3216.400;  200.375;    0.000
598.050; 3109.400;  193.375;    0.000
598.173; 3176.400;  219.375;    0.000
598.297; 3207.400;  223.375;    0.000
598.420; 3144.400;  187.375;    0.000
598.543; 3135.400;  205.375;    0.000
598.667; 3171.400;  177.375;    0.000
598.790; 3141.400;  208.375;    0.000
598.913; 3042.400;  170.375;    0.000
599.037; 3093.400;  212.375;    0.000
599.160; 3098.400;  165.375;    0.000
599.283; 3118.400;  211.375;    0.000
599.406; 3117.400;  207.375;    0.000
599.530; 3116.400;  182.375;    0.000
599.653; 3031.400;  215.375;    0.000
599.776; 3020.400;  167.375;    0.000
599.899; 3106.400;  190.375;    0.000
600.022; 3097.400;  182.375;    0.000
600.145; 3131.400;  180.375;    0.000
600.269; 3088.400;  208.375;    0.000
600.392; 3059.400;  214.375;    0.000
600.515; 3094.400;  196.375;    0.000
600.638; 3147.400;  204.375;    0.000
600.761; 3008.400;  209.375;    0.000
600.884; 2959.400;  207.375;    0.000
601.007; 3078.400;  234.375;    0.000
601.130; 3056.400;  183.375;    0.000
601.253; 3154.400;  211.375;    0.000
601.376; 3029.400;  199.375;    0.000
601.499; 3016.400;  190.375;    0.000
601.622; 2960.400;  210.375;    0.000
601.745; 2971.400;  180.375;    0.000
601.868; 3098.400;  204.375;    0.000
601.991; 3017.400;  188.375;    0.000
602.113; 3009.400;  210.375;    0.000
602.236; 3027.400;  194.375;    0.000
602.359; 3028.400;  213.375;    0.000
602.482; 2980.400;  169.375;    0.000
602.605; 3035.400;  189.375;    0.000
602.728; 3011.400;  236.375;    0.000
602.850; 2986.400;  230.375;    0.000
602.973; 2907.400;  187.375;    0.000
603.096; 3059.400;  201.375;    0.000
603.219; 2920.400;  209.375;    0.000
603.341; 2990.400;  209.375;    0.000
603.464; 2986.400;  194.375;    0.000
603.587; 3008.400;  166.375;    0.000
603.709; 2948.400;  175.375;    0.000
603.832; 3025.400;  239.375;    0.000
603.955; 3028.400;  205.375;    0.000
604.077; 2970.400;  196.375;    0.000
604.200; 2933.400;  188.375;    0.000
604.323; 2915.400;  224.375;    0.000
604.445; 2927.400;  182.375;    0.000
604.568; 2907.400;  199.375;    0.000
604.690; 2900.400;  175.375;    0.000
604.813; 2919.400;  211.375;    0.000
604.935; 2940.400;  171.375;    0.000
605.058; 2948.400;  196.375;    0.000
605.180; 2928.400;  194.375;    0.000
605.303; 2961.400;  198.375;    0.000
605.425; 2882.400;  212.375;    0.000
605.547; 2927.400;  238.375;    0.000
605.670; 2949.400;  207.375;    0.000
605.792; 2933.400;  204.375;    0.000
605.915; 2915.400;  198.375;    0.000
606.037; 3016.400;  215.375;    0.000
606.159; 2944.400;  170.375;    0.000
606.282; 2929.400;  194.375;    0.000
606.404; 2919.400;  207.375;    0.000
606.526; 2826.400;  208.375;    0.000
606.648; 2957.400;  174.375;    0.000
606.771; 2859.400;  170.375;    0.000
606.893; 2913.400;  182.375;    0.000
607.015; 2958.400;  180.375;    0.000
607.137; 2860.400;  187.375;    0.000
607.260; 2963.400;  202.375;    0.000
607.382; 2958.400;  226.375;    0.000
607.504; 2913.400;  208.375;    0.000
607.626; 2878.400;  229.375;    0.000
607.748; 2885.400;  170.375;    0.000
607.870; 2902.400;  208.375;    0.000
607.992; 2872.400;  184.375;    0.000
608.114; 2879.400;  213.375;    0.000
608.237; 2870.400;  237.375;    0.000
608.359; 2837.400;  176.375;    0.000
608.481; 2906.400;  173.375;    0.000
608.603; 2909.400;  189.375;    0.000
608.725; 2908.400;  185.375;    0.000
608.847; 2900.400;  239.375;    0.000
608.969; 2955.400;  237.375;    0.000
609.090; 2898.400;  189.375;    0.000
609.212; 2847.400;  147.375;    0.000
609.334; 2909.400;  177.375;    0.000
609.456; 2901.400;  196.375;    0.000
609.578; 2774.400;  199.375;    0.000
609.700; 2842.400;  167.375;    0.000
609.822; 2878.400;  140.375;    0.000
609.944; 2903.400;  225.375;    0.000
610.065; 2973.400;  183.375;    0.000
610.187; 2768.400;  170.375;    0.000
610.309; 2772.400;  210.375;    0.000
610.431; 2850.400;  185.375;    0.000
610.552; 2962.400;  197.375;    0.000
610.674; 2771.400;  188.375;    0.000
610.796; 2843.400;  162.375;    0.000
610.918; 2897.400;  200.375;    0.000
611.039; 2828.400;  209.375;    0.000
611.161; 2836.400;  201.375;    0.000
611.282; 2818.400;  197.375;    0.000
611.404; 2820.400;  220.375;    0.000
611.526; 2779.400;  159.375;    0.000
611.647; 2847.400;  205.375;    0.000
611.769; 2871.400;  161.375;    0.000
611.890; 2838.400;  173.375;    0.000
612.012; 2783.400;  225.375;    0.000
612.133; 2826.400;  188.375;    0.000
612.255; 2840.400;  217.375;    0.000
612.377; 2886.400;  219.375;    0.000
612.498; 2830.400;  177.375;    0.000
612.619; 2856.400;  211.375;    0.000
612.741; 2814.400;  185.375;    0.000
612.862; 2795.400;  191.375;    0.000
612.984; 2774.400;  190.375;    0.000
613.105; 2886.400;  211.375;    0.000
613.226; 2811.400;  174.375;    0.000
613.348; 2874.400;  235.375;    0.000
613.469; 2956.400;  230.375;    0.000
613.590; 2838.400;  208.375;    0.000
613.712; 2858.400;  244.375;    0.000
613.833; 2846.400;  202.375;    0.000
613.954; 2902.400;  228.375;    0.000
614.076; 2805.400;  220.375;    0.000
614.197; 2886.400;  191.375;    0.000
614.318; 2800.400;  201.375;    0.000
614.439; 2822.400;  212.375;    0.000
614.560; 2872.400;  219.375;    0.000
614.682; 2777.400;  189.375;    0.000
614.803; 2772.400;  188.375;    0.000
614.924; 2899.400;  225.375;    0.000
615.045; 2736.400;  227.375;    0.000
615.166; 2841.400;  200.375;    0.000
615.287; 2805.400;  195.375;    0.000
615.408; 2789.400;  199.375;    0.000
615.529; 2888.400;  227.375;    0.000
615.650; 2771.400;  176.375;    0.000
615.771; 2785.400;  211.375;    0.000
615.892; 2849.400;  212.375;    0.000
616.013; 2781.400;  172.375;    0.000
616.134; 2783.400;  220.375;    0.000
616.255; 2840.400;  251.375;    0.000
616.376; 2841.400;  186.375;    0.000
616.497; 2835.400;  201.375;    0.000
616.618; 2825.400;  149.375;    0.000
616.739; 2726.400;  213.375;    0.000
616.860; 2833.400;  224.375;    0.000
616.981; 2875.400;  224.375;    0.000
617.102; 2866.400;  217.375;    0.000
617.222; 2871.400;  237.375;    0.000
617.343; 2820.400;  205.375;    0.000
617.464; 2807.400;  229.375;    0.000
617.585; 2830.400;  227.375;    0.000
617.705; 2812.400;  191.375;    0.000
617.826; 2836.400;  237.375;    0.000
617.947; 2811.400;  223.375;    0.000
618.068; 2724.400;  189.375;    0.000
618.188; 2772.400;  194.375;    0.000
618.309; 2787.400;  206.375;    0.000
618.430; 2793.400;  229.375;    0.000
618.550; 2844.400;  250.375;    0.000
618.671; 2771.400;  201.375;    0.000
618.791; 2739.400;  226.375;    0.000
618.912; 2776.400;  246.375;    0.000
619.033; 2777.400;  243.375;    0.000
619.153; 2693.400;  208.375;    0.000
619.274; 2672.400;  223.375;    0.000
619.394; 2774.400;  226.375;    0.000
619.515; 2719.400;  188.375;    0.000
619.635; 2807.400;  216.375;    0.000
619.756; 2753.400;  229.375;    0.000
619.876; 2763.400;  216.375;    0.000
619.996; 2798.400;  244.375;    0.000
620.117; 2740.400;  225.375;    0.000
620.237; 2760.400;  207.375;    0.000
620.358; 2721.400;  239.375;    0.000
620.478; 2730.400;  237.375;    0.000
620.598; 2832.400;  237.375;    0.000
620.719; 2673.400;  223.375;    0.000
620.839; 2793.400;  254.375;    0.000
620.959; 2721.400;  244.375;    0.000
621.079; 2788.400;  193.375;    0.000
621.200; 2749.400;  233.375;    0.000
621.320; 2877.400;  270.375;    0.000
621.440; 2675.400;  206.375;    0.000
621.560; 2777.400;  241.375;    0.000
621.681; 2703.400;  231.375;    0.000
621.801; 2759.400;  235.375;    0.000
621.921; 2833.400;  240.375;    0.000
622.041; 2634.400;  244.375;    0.000
622.161; 2739.400;  225.375;    0.000
622.281; 2750.400;  222.375;    0.000
622.401; 2766.400;  238.375;    0.000
622.521; 2733.400;  233.375;    0.000
622.641; 2660.400;  241.375;    0.000
622.761; 2648.400;  233.375;    0.000
622.882; 2654.400;  230.375;    0.000
623.002; 2702.400;  206.375;    0.000
623.121; 2663.400;  217.375;    0.000
623.241; 2741.400;  263.375;    0.000
623.361; 2669.400;  245.375;    0.000
623.481; 2642.400;  194.375;    0.000
623.601; 2668.400;  228.375;    0.000
623.721; 2688.400;  219.375;    0.000
623.841; 2717.400;  234.375;    0.000
623.961; 2749.400;  235.375;    0.000
624.081; 2666.400;  166.375;    0.000
624.201; 2673.400;  229.375;    0.000
624.320; 2655.400;  224.375;    0.000
624.440; 2605.400;  200.375;    0.000
624.560; 2649.400;  220.375;    0.000
624.680; 2680.400;  214.375;    0.000
624.799; 2653.400;  179.375;    0.000
624.919; 2674.400;  199.375;    0.000
625.039; 2685.400;  211.375;    0.000
625.159; 2631.400;  213.375;    0.000
625.278; 2595.400;  178.375;    0.000
625.398; 2707.400;  206.375;    0.000
625.518; 2666.400;  182.375;    0.000
625.637; 2715.400;  206.375;    0.000
625.757; 2626.400;  197.375;    0.000
625.876; 2610.400;  204.375;    0.000
625.996; 2646.400;  222.375;    0.000
626.115; 2648.400;  222.375;    0.000
626.235; 2648.400;  222.375;    0.000
626.354; 2616.400;  211.375;    0.000
626.474; 2626.400;  217.375;    0.000
626.594; 2636.400;  190.375;    0.000
626.713; 2643.400;  200.375;    0.000
626.832; 2689.400;  234.375;    0.000
626.952; 2587.400;  214.375;    0.000
627.071; 2542.400;  243.375;    0.000
627.191; 2633.400;  192.375;    0.000
627.310; 2622.400;  211.375;    0.000
627.429; 2645.400;  218.375;    0.000
627.549; 2586.400;  214.375;    0.000
627.668; 2596.400;  208.375;    0.000
627.787; 2611.400;  199.375;    0.000
627.907; 2568.400;  208.375;    0.000
628.026; 2567.400;  216.375;    0.000
628.145; 2552.400;  170.375;    0.000
628.264; 2517.400;  217.375;    0.000
628.384; 2552.400;  190.375;    0.000
628.503; 2549.400;  203.375;    0.000
628.622; 2592.400;  197.375;    0.000
628.741; 2495.400;  186.375;    0.000
628.860; 2607.400;  191.375;    0.000
628.980; 2663.400;  196.375;    0.000
629.099; 2615.400;  190.375;    0.000
629.218; 2641.400;  165.375;    0.000
629.337; 2626.400;  190.375;    0.000
629.456; 2674.400;  222.375;    0.000
629.575; 2502.400;  197.375;    0.000
629.694; 2664.400;  210.375;    0.000
629.813; 2577.400;  187.375;    0.000
629.932; 2548.400;  224.375;    0.000
630.051; 2538.400;  216.375;    0.000
630.170; 2510.400;  203.375;    0.000
630.289; 2587.400;  178.375;    0.000
630.408; 2543.400;  192.375;    0.000
630.527; 2547.400;  223.375;    0.000
630.646; 2498.400;  177.375;    0.000
630.764; 2602.400;  224.375;    0.000
630.883; 2584.400;  220.375;    0.000
631.002; 2542.400;  187.375;    0.000
631.121; 2472.400;  208.375;    0.000
631.240; 2552.400;  217.375;    0.000
631.359; 2538.400;  241.375;    0.000
631.477; 2643.400;  189.375;    0.000
631.596; 2602.400;  244.375;    0.000
631.715; 2609.400;  241.375;    0.000
631.834; 2551.400;  219.375;    0.000
631.952; 2620.400;  231.375;    0.000
632.071; 2524.400;  197.375;    0.000
632.190; 2562.400;  193.375;    0.000
632.308; 2559.400;  185.375;    0.000
632.427; 2562.400;  188.375;    0.000
632.546; 2627.400;  208.375;    0.000
632.664; 2483.400;  191.375;    0.000
632.783; 2622.400;  201.375;    0.000
632.901; 2546.400;  239.375;    0.000
633.020; 2512.400;  197.375;    0.000
633.138; 2524.400;  189.375;    0.000
633.257; 2516.400;  210.375;    0.000
633.375; 2560.400;  213.375;    0.000
633.494; 2594.400;  206.375;    0.000
633.612; 2513.400;  231.375;    0.000
633.731; 2515.400;  213.375;    0.000
633.849; 2585.400;  244.375;    0.000
633.968; 2473.400;  251.375;    0.000
634.086; 2570.400;  224.375;    0.000
634.204; 2555.400;  212.375;    0.000
634.323; 2590.400;  213.375;    0.000
634.441; 2569.400;  219.375;    0.000
634.559; 2475.400;  198.375;    0.000
634.678; 2576.400;  201.375;    0.000
634.796; 2604.400;  179.375;    0.000
634.914; 2526.400;  255.375;    0.000
635.032; 2547.400;  264.375;    0.000
635.151; 2508.400;  228.375;    0.000
635.269; 2497.400;  223.375;    0.000
635.387; 2513.400;  228.375;    0.000
635.505; 2484.400;  214.375;    0.000
635.623; 2518.400;  279.375;    0.000
635.742; 2499.400;  237.375;    0.000
635.860; 2539.400;  244.375;    0.000
635.978; 2557.400;  213.375;    0.000
636.096; 2527.400;  230.375;    0.000
636.214; 2552.400;  252.375;    0.000
636.332; 2514.400;  221.375;    0.000
636.450; 2462.400;  227.375;    0.000
636.568; 2497.400;  193.375;    0.000
636.686; 2496.400;  208.375;    0.000
636.804; 2555.400;  213.375;    0.000
636.922; 2510.400;  199.375;    0.000
637.040; 2466.400;  202.375;    0.000
637.158; 2513.400;  239.375;    0.000
637.276; 2579.400;  225.375;    0.000
637.394; 2548.400;  217.375;    0.000
637.512; 2516.400;  192.375;    0.000
637.629; 2582.400;  216.375;    0.000
637.747; 2437.400;  198.375;    0.000
637.865; 2618.400;  265.375;    0.000
637.983; 2471.400;  245.375;    0.000
638.101; 2513.400;  199.375;    0.000
638.218; 2554.400;  197.375;    0.000
638.336; 2507.400;  212.375;    0.000
638.454; 2498.400;  227.375;    0.000
638.572; 2466.400;  215.375;    0.000
638.689; 2577.400;  214.375;    0.000
638.807; 2502.400;  233.375;    0.000
638.925; 2574.400;  217.375;    0.000
639.042; 2512.400;  180.375;    0.000
639.160; 2552.400;  220.375;    0.000
639.278; 2531.400;  180.375;    0.000
639.395; 2500.400;  243.375;    0.000
639.513; 2530.400;  207.375;    0.000
639.630; 2511.400;  183.375;    0.000
639.748; 2455.400;  231.375;    0.000
639.865; 2492.400;  215.375;    0.000
639.983; 2583.400;  182.375;    0.000
640.100; 2484.400;  190.375;    0.000
640.218; 2496.400;  224.375;    0.000
640.335; 2604.400;  214.375;    0.000
640.453; 2615.400;  212.375;    0.000
640.570; 2512.400;  224.375;    0.000
640.688; 2541.400;  220.375;    0.000
640.805; 2445.400;  189.375;    0.000
640.922; 2489.400;  256.375;    0.000
641.040; 2506.400;  209.375;    0.000
641.157; 2549.400;  195.375;    0.000
641.274; 2523.400;  195.375;    0.000
641.391; 2549.400;  231.375;    0.000
641.509; 2553.400;  207.375;    0.000
641.626; 2524.400;  227.375;    0.000
641.743; 2499.400;  188.375;    0.000
641.860; 2472.400;  208.375;    0.000
641.978; 2473.400;  222.375;    0.000
642.095; 2559.400;  194.375;    0.000
642.212; 2441.400;  202.375;    0.000
642.329; 2514.400;  241.375;    0.000
642.446; 2551.400;  261.375;    0.000
642.563; 2557.400;  236.375;    0.000
642.681; 2590.400;  228.375;    0.000
642.798; 2493.400;  242.375;    0.000
642.915; 2534.400;  197.375;    0.000
643.032; 2610.400;  239.375;    0.000
643.149; 2509.400;  241.375;    0.000
643.266; 2580.400;  199.375;    0.000
643.383; 2523.400;  200.375;    0.000
643.500; 2524.400;  221.375;    0.000
643.617; 2602.400;  196.375;    0.000
643.734; 2593.400;  207.375;    0.000
643.850; 2639.400;  222.375;    0.000
643.967; 2634.400;  235.375;    0.000
644.084; 2653.400;  233.375;    0.000
644.201; 2574.400;  229.375;    0.000
644.318; 2595.400;  210.375;    0.000
644.435; 2600.400;  234.375;    0.000
644.552; 2648.400;  220.375;    0.000
644.668; 2649.400;  231.375;    0.000
644.785; 2652.400;  231.375;    0.000
644.902; 2686.400;  238.375;    0.000
645.019; 2693.400;  226.375;    0.000
645.135; 2581.400;  179.375;    0.000
645.252; 2665.400;  224.375;    0.000
645.369; 2751.400;  206.375;    0.000
645.485; 2702.400;  200.375;    0.000
645.602; 2769.400;  210.375;    0.000
645.719; 2661.400;  206.375;    0.000
645.835; 2731.400;  247.375;    0.000
645.952; 2772.400;  222.375;    0.000
646.068; 2700.400;  205.375;    0.000
646.185; 2755.400;  230.375;    0.000
646.302; 2863.400;  254.375;    0.000
646.418; 2774.400;  230.375;    0.000
646.535; 2737.400;  214.375;    0.000
646.651; 2721.400;  179.375;    0.000
646.768; 2684.400;  190.375;    0.000
646.884; 2864.400;  208.375;    0.000
647.000; 2812.400;  262.375;    0.000
647.117; 2775.400;  212.375;    0.000
647.233; 2803.400;  228.375;    0.000
647.350; 2873.400;  208.375;    0.000
647.466; 2863.400;  211.375;    0.000
647.582; 2829.400;  196.375;    0.000
647.699; 2888.400;  217.375;    0.000
647.815; 2854.400;  203.375;    0.000
647.931; 2911.400;  201.375;    0.000
648.047; 2958.400;  182.375;    0.000
648.164; 2961.400;  219.375;    0.000
648.280; 2923.400;  213.375;    0.000
648.396; 2920.400;  202.375;    0.000
648.512; 2916.400;  233.375;    0.000
648.629; 2952.400;  206.375;    0.000
648.745; 2961.400;  188.375;    0.000
648.861; 2962.400;  209.375;    0.000
648.977; 3023.400;  218.375;    0.000
649.093; 2947.400;  225.375;    0.000
649.209; 2979.400;  240.375;    0.000
649.325; 3019.400;  253.375;    0.000
649.441; 2976.400;  263.375;    0.000
649.557; 2984.400;  256.375;    0.000
649.673; 3054.400;  211.375;    0.000
649.789; 3082.400;  237.375;    0.000
649.905; 3028.400;  183.375;    0.000
650.021; 3081.400;  238.375;    0.000
650.137; 3079.400;  241.375;    0.000
650.253; 3092.400;  228.375;    0.000
650.369; 3104.400;  221.375;    0.000
650.485; 3131.400;  240.375;    0.000
650.601; 3199.400;  254.375;    0.000
650.717; 3094.400;  201.375;    0.000
650.833; 3153.400;  257.375;    0.000
650.948; 3135.400;  213.375;    0.000
651.064; 3208.400;  223.375;    0.000
651.180; 3198.400;  230.375;    0.000
651.296; 3252.400;  235.375;    0.000
651.411; 3243.400;  221.375;    0.000
651.527; 3342.400;  233.375;    0.000
651.643; 3419.400;  236.375;    0.000
651.759; 3360.400;  268.375;    0.000
651.874; 3401.400;  214.375;    0.000
651.990; 3382.400;  251.375;    0.000
652.105; 3466.400;  217.375;    0.000
652.221; 3400.400;  243.375;    0.000
652.337; 3451.400;  231.375;    0.000
652.452; 3505.400;  238.375;    0.000
652.568; 3586.400;  188.375;    0.000
652.683; 3576.400;  197.375;    0.000
652.799; 3605.400;  194.375;    0.000
652.914; 3596.400;  222.375;    0.000
653.030; 3717.400;  200.375;    0.000
653.145; 3630.400;  235.375;    0.000
653.261; 3715.400;  261.375;    0.000
653.376; 3863.400;  228.375;    0.000
653.492; 3937.400;  222.375;    0.000
653.607; 3979.400;  227.375;    0.000
653.722; 3918.400;  250.375;    0.000
653.838; 4146.400;  255.375;    0.000
653.953; 4090.400;  235.375;    0.000
654.068; 4177.400;  266.375;    0.000
654.184; 4318.400;  210.375;    0.000
654.299; 4382.400;  240.375;    0.000
654.414; 4518.400;  222.375;    0.000
654.530; 4444.400;  222.375;    0.000
654.645; 4575.400;  256.375;    0.000
654.760; 4840.400;  244.375;    0.000
654.875; 4872.400;  229.375;    0.000
654.990; 4910.400;  226.375;    0.000
655.106; 5015.400;  254.375;    0.000
655.221; 5166.400;  251.375;    0.000
655.336; 5381.400;  245.375;    0.000
655.451; 5411.400;  199.375;    0.000
655.566; 5604.400;  228.375;    0.000
655.681; 5966.400;  208.375;    0.000
655.796; 6142.400;  218.375;    0.000
655.911; 6259.400;  233.375;    0.000
656.026; 6694.400;  232.375;    0.000
656.141; 6933.400;  223.375;    0.000
656.256; 7260.400;  247.375;    0.000
656.371; 7230.400;  220.375;    0.000
656.486; 7264.400;  225.375;    0.000
656.601; 7050.400;  257.375;    0.000
656.716; 6765.400;  248.375;    0.000
656.831; 6681.400;  262.375;    0.000
656.946; 6526.400;  249.375;    0.000
657.060; 6451.400;  245.375;    0.000
657.175; 6180.400;  245.375;    0.000
657.290; 6159.400;  219.375;    0.000
657.405; 6113.400;  286.375;    0.000
657.520; 5812.400;  259.375;    0.000
657.634; 5562.400;  239.375;    0.000
657.749; 5503.400;  227.375;    0.000
657.864; 5446.400;  210.375;    0.000
657.979; 5381.400;  236.375;    0.000
658.093; 5151.400;  210.375;    0.000
658.208; 5070.400;  248.375;    0.000
658.323; 4948.400;  216.375;    0.000
658.437; 4990.400;  248.375;    0.000
658.552; 4813.400;  249.375;    0.000
658.666; 4906.400;  256.375;    0.000
658.781; 4678.400;  247.375;    0.000
658.895; 4573.400;  209.375;    0.000
659.010; 4496.400;  219.375;    0.000
659.125; 4455.400;  215.375;    0.000
659.239; 4398.400;  205.375;    0.000
659.353; 4320.400;  246.375;    0.000
659.468; 4309.400;  245.375;    0.000
659.582; 4223.400;  244.375;    0.000
659.697; 4160.400;  242.375;    0.000
659.811; 4088.400;  239.375;    0.000
659.926; 3987.400;  226.375;    0.000
660.040; 3929.400;  255.375;    0.000
660.154; 3908.400;  225.375;    0.000
660.269; 3799.400;  200.375;    0.000
660.383; 3775.400;  192.375;    0.000
660.497; 3938.400;  218.375;    0.000
660.612; 3725.400;  236.375;    0.000
660.726; 3713.400;  263.375;    0.000
660.840; 3596.400;  205.375;    0.000
660.954; 3676.400;  219.375;    0.000
661.068; 3594.400;  240.375;    0.000
661.183; 3539.400;  221.375;    0.000
661.297; 3521.400;  194.375;    0.000
661.411; 3497.400;  253.375;    0.000
661.525; 3347.400;  246.375;    0.000
661.639; 3296.400;  217.375;    0.000
661.753; 3346.400;  241.375;    0.000
661.867; 3369.400;  276.375;    0.000
661.981; 3283.400;  203.375;    0.000
662.095; 3288.400;  224.375;    0.000
662.209; 3249.400;  217.375;    0.000
662.323; 3228.400;  251.375;    0.000
662.437; 3113.400;  243.375;    0.000
662.551; 3156.400;  244.375;    0.000
662.665; 3093.400;  247.375;    0.000
662.779; 3097.400;  251.375;    0.000
662.893; 3123.400;  254.375;    0.000
663.007; 3043.400;  222.375;    0.000
663.121; 3091.400;  253.375;    0.000
663.235; 3031.400;  270.375;    0.000
663.349; 2907.400;  242.375;    0.000
663.462; 2924.400;  230.375;    0.000
663.576; 2838.400;  230.375;    0.000
663.690; 2942.400;  249.375;    0.000
663.804; 2880.400;  200.375;    0.000
663.917; 2882.400;  204.375;    0.000
664.031; 2833.400;  206.375;    0.000
664.145; 2792.400;  202.375;    0.000
664.258; 2758.400;  221.375;    0.000
664.372; 2715.400;  215.375;    0.000
664.486; 2662.400;  179.375;    0.000
664.599; 2783.400;  208.375;    0.000
664.713; 2773.400;  268.375;    0.000
664.827; 2742.400;  225.375;    0.000
664.940; 2688.400;  222.375;    0.000
665.054; 2588.400;  208.375;    0.000
665.167; 2648.400;  253.375;    0.000
665.281; 2549.400;  237.375;    0.000
665.394; 2570.400;  227.375;    0.000
665.508; 2611.400;  192.375;    0.000
665.621; 2575.400;  175.375;    0.000
665.735; 2637.400;  249.375;    0.000
665.848; 2645.400;  197.375;    0.000
665.961; 2518.400;  206.375;    0.000
666.075; 2560.400;  245.375;    0.000
666.188; 2464.400;  230.375;    0.000
666.301; 2501.400;  219.375;    0.000
666.415; 2469.400;  231.375;    0.000
666.528; 2486.400;  258.375;    0.000
666.641; 2449.400;  243.375;    0.000
666.755; 2525.400;  208.375;    0.000
666.868; 2447.400;  228.375;    0.000
666.981; 2375.400;  244.375;    0.000
667.094; 2496.400;  244.375;    0.000
667.207; 2459.400;  226.375;    0.000
667.321; 2397.400;  175.375;    0.000
667.434; 2338.400;  211.375;    0.000
667.547; 2520.400;  249.375;    0.000
667.660; 2339.400;  225.375;    0.000
667.773; 2456.400;  242.375;    0.000
667.886; 2371.400;  246.375;    0.000
667.999; 2378.400;  244.375;    0.000
668.112; 2335.400;  227.375;    0.000
668.225; 2302.400;  231.375;    0.000
668.338; 2383.400;  256.375;    0.000
668.451; 2336.400;  216.375;    0.000
668.564; 2304.400;  261.375;    0.000
668.677; 2296.400;  230.375;    0.000
668.790; 2326.400;  192.375;    0.000
668.903; 2276.400;  243.375;    0.000
669.016; 2231.400;  201.375;    0.000
669.129; 2197.400;  249.375;    0.000
669.242; 2213.400;  190.375;    0.000
669.354; 2224.400;  219.375;    0.000
669.467; 2147.400;  242.375;    0.000
669.580; 2196.400;  237.375;    0.000
669.693; 2185.400;  243.375;    0.000
669.806; 2207.400;  234.375;    0.000
669.918; 2159.400;  206.375;    0.000
670.031; 2162.400;  258.375;    0.000
670.144; 2223.400;  231.375;    0.000
670.256; 2191.400;  244.375;    0.000
670.369; 2278.400;  262.375;    0.000
670.482; 2224.400;  264.375;    0.000
670.594; 2206.400;  256.375;    0.000
670.707; 2180.400;  224.375;    0.000
670.820; 2148.400;  261.375;    0.000
670.932; 2114.400;  226.375;    0.000
671.045; 2203.400;  243.375;    0.000
671.157; 2198.400;  235.375;    0.000
671.270; 2143.400;  217.375;    0.000
671.382; 2149.400;  267.375;    0.000
671.495; 2066.400;  258.375;    0.000
671.607; 2150.400;  236.375;    0.000
671.720; 2112.400;  200.375;    0.000
671.832; 2118.400;  219.375;    0.000
671.944; 2067.400;  234.375;    0.000
672.057; 2068.400;  226.375;    0.000
672.169; 2052.400;  225.375;    0.000
672.281; 2181.400;  253.375;    0.000
672.394; 2094.400;  238.375;    0.000
672.506; 1998.400;  244.375;    0.000
672.618; 2053.400;  272.375;    0.000
672.731; 2009.400;  247.375;    0.000
672.843; 2061.400;  261.375;    0.000
672.955; 2002.400;  262.375;    0.000
673.067; 2032.400;  253.375;    0.000
673.180; 2075.400;  239.375;    0.000
673.292; 2049.400;  240.375;    0.000
673.404; 2017.400;  243.375;    0.000
673.516; 2106.400;  258.375;    0.000
673.628; 2083.400;  263.375;    0.000
673.740; 2056.400;  250.375;    0.000
673.852; 2051.400;  285.375;    0.000
673.964; 2097.400;  264.375;    0.000
674.076; 1972.400;  260.375;    0.000
674.188; 1976.400;  226.375;    0.000
674.300; 1985.400;  272.375;    0.000
674.412; 2000.400;  259.375;    0.000
674.524; 1949.400;  283.375;    0.000
674.636; 1999.400;  259.375;    0.000
674.748; 1963.400;  238.375;    0.000
674.860; 2031.400;  277.375;    0.000
674.972; 1975.400;  272.375;    0.000
675.084; 1925.400;  244.375;    0.000
675.196; 1938.400;  272.375;    0.000
675.307; 1950.400;  244.375;    0.000
675.419; 1922.400;  219.375;    0.000
675.531; 2012.400;  275.375;    0.000
675.643; 1983.400;  215.375;    0.000
675.755; 1930.400;  243.375;    0.000
675.866; 2004.400;  223.375;    0.000
675.978; 1892.400;  216.375;    0.000
676.090; 1851.400;  242.375;    0.000
676.201; 1872.400;  276.375;    0.000
676.313; 1884.400;  226.375;    0.000
676.425; 1903.400;  234.375;    0.000
676.536; 1889.400;  231.375;    0.000
676.648; 1874.400;  254.375;    0.000
676.759; 1945.400;  273.375;    0.000
676.871; 1921.400;  250.375;    0.000
676.983; 1944.400;  256.375;    0.000
677.094; 1931.400;  210.375;    0.000
677.206; 1850.400;  248.375;    0.000
677.317; 1851.400;  263.375;    0.000
677.429; 1861.400;  238.375;    0.000
677.540; 1911.400;  247.375;    0.000
677.651; 1900.400;  224.375;    0.000
677.763; 1816.400;  217.375;    0.000
677.874; 1810.400;  234.375;    0.000
677.986; 1803.400;  238.375;    0.000
678.097; 1880.400;  226.375;    0.000
678.208; 1769.400;  253.375;    0.000
678.320; 1841.400;  217.375;    0.000
678.431; 1834.400;  238.375;    0.000
678.542; 1820.400;  236.375;    0.000
678.653; 1825.400;  218.375;    0.000
678.765; 1805.400;  275.375;    0.000
678.876; 1825.400;  213.375;    0.000
678.987; 1732.400;  182.375;    0.000
679.098; 1727.400;  221.375;    0.000
679.209; 1799.400;  238.375;    0.000
679.320; 1757.400;  212.375;    0.000
679.432; 1771.400;  231.375;    0.000
679.543; 1727.400;  198.375;    0.000
679.654; 1798.400;  191.375;    0.000
679.765; 1846.400;  214.375;    0.000
679.876; 1799.400;  221.375;    0.000
679.987; 1748.400;  162.375;    0.000
680.098; 1778.400;  230.375;    0.000
680.209; 1828.400;  206.375;    0.000
680.320; 1760.400;  196.375;    0.000
680.431; 1858.400;  191.375;    0.000
680.542; 1817.400;  214.375;    0.000
680.653; 1770.400;  238.375;    0.000
680.763; 1835.400;  182.375;    0.000
680.874; 1775.400;  213.375;    0.000
680.985; 1704.400;  224.375;    0.000
681.096; 1769.400;  222.375;    0.000
681.207; 1694.400;  220.375;    0.000
681.318; 1788.400;  216.375;    0.000
681.428; 1708.400;  229.375;    0.000
681.539; 1687.400;  183.375;    0.000
681.650; 1799.400;  202.375;    0.000
681.760; 1784.400;  223.375;    0.000
681.871; 1801.400;  211.375;    0.000
681.982; 1685.400;  189.375;    0.000
682.093; 1754.400;  222.375;    0.000
682.203; 1772.400;  220.375;    0.000
682.314; 1773.400;  214.375;    0.000
682.424; 1703.400;  208.375;    0.000
682.535; 1745.400;  213.375;    0.000
682.646; 1798.400;  302.375;    0.000
682.756; 1765.400;  255.375;    0.000
682.867; 1689.400;  244.375;    0.000
682.977; 1744.400;  221.375;    0.000
683.088; 1803.400;  259.375;    0.000
683.198; 1684.400;  212.375;    0.000
683.308; 1763.400;  202.375;    0.000
683.419; 1723.400;  255.375;    0.000
683.529; 1719.400;  217.375;    0.000
683.640; 1740.400;  240.375;    0.000
683.750; 1649.400;  181.375;    0.000
683.860; 1688.400;  246.375;    0.000
683.971; 1712.400;  254.375;    0.000
684.081; 1718.400;  235.375;    0.000
684.191; 1797.400;  251.375;    0.000
684.301; 1751.400;  233.375;    0.000
684.412; 1711.400;  202.375;    0.000
684.522; 1707.400;  232.375;    0.000
684.632; 1704.400;  202.375;    0.000
684.742; 1669.400;  254.375;    0.000
684.852; 1716.400;  219.375;    0.000
684.963; 1612.400;  256.375;    0.000
685.073; 1658.400;  253.375;    0.000
685.183; 1711.400;  254.375;    0.000
685.293; 1709.400;  232.375;    0.000
685.403; 1779.400;  242.375;    0.000
685.513; 1739.400;  261.375;    0.000
685.623; 1628.400;  245.375;    0.000
685.733; 1646.400;  254.375;    0.000
685.843; 1713.400;  249.375;    0.000
685.953; 1666.400;  252.375;    0.000
686.063; 1690.400;  227.375;    0.000
686.173; 1655.400;  223.375;    0.000
686.283; 1670.400;  234.375;    0.000
686.393; 1685.400;  239.375;    0.000
686.503; 1626.400;  231.375;    0.000
686.612; 1748.400;  232.375;    0.000
686.722; 1742.400;  258.375;    0.000
686.832; 1664.400;  256.375;    0.000
686.942; 1739.400;  230.375;    0.000
687.052; 1622.400;  274.375;    0.000
687.161; 1727.400;  269.375;    0.000
687.271; 1698.400;  218.375;    0.000
687.381; 1693.400;  235.375;    0.000
687.491; 1730.400;  262.375;    0.000
687.600; 1658.400;  256.375;    0.000
687.710; 1684.400;  225.375;    0.000
687.820; 1676.400;  230.375;    0.000
687.929; 1653.400;  226.375;    0.000
688.039; 1604.400;  228.375;    0.000
688.148; 1720.400;  249.375;    0.000
688.258; 1615.400;  237.375;    0.000
688.367; 1591.400;  260.375;    0.000
688.477; 1669.400;  200.375;    0.000
688.586; 1651.400;  223.375;    0.000
688.696; 1645.400;  223.375;    0.000
688.805; 1670.400;  257.375;    0.000
688.915; 1696.400;  185.375;    0.000
689.024; 1683.400;  227.375;    0.000
689.134; 1618.400;  224.375;    0.000
689.243; 1675.400;  206.375;    0.000
689.352; 1614.400;  275.375;    0.000
689.462; 1641.400;  233.375;    0.000
689.571; 1566.400;  244.375;    0.000
689.680; 1636.400;  261.375;    0.000
689.790; 1578.400;  192.375;    0.000
689.899; 1588.400;  214.375;    0.000
690.008; 1593.400;  255.375;    0.000
690.117; 1592.400;  219.375;    0.000
690.227; 1663.400;  241.375;    0.000
690.336; 1598.400;  231.375;    0.000
690.445; 1585.400;  212.375;    0.000
690.554; 1633.400;  234.375;    0.000
690.663; 1615.400;  210.375;    0.000
690.772; 1618.400;  221.375;    0.000
690.881; 1636.400;  244.375;    0.000
690.990; 1617.400;  247.375;    0.000
691.099; 1623.400;  222.375;    0.000
691.209; 1670.400;  240.375;    0.000
691.318; 1566.400;  223.375;    0.000
691.427; 1547.400;  217.375;    0.000
691.536; 1529.400;  216.375;    0.000
691.644; 1610.400;  194.375;    0.000
691.753; 1620.400;  221.375;    0.000
691.862; 1706.400;  224.375;    0.000
691.971; 1644.400;  191.375;    0.000
692.080; 1595.400;  247.375;    0.000
692.189; 1642.400;  208.375;    0.000
692.298; 1547.400;  203.375;    0.000
692.406; 1624.400;  239.375;    0.000
692.515; 1639.400;  250.375;    0.000
692.624; 1558.400;  226.375;    0.000
692.733; 1578.400;  229.375;    0.000
692.842; 1636.400;  254.375;    0.000
692.950; 1531.400;  242.375;    0.000
693.059; 1580.400;  204.375;    0.000
693.168; 1630.400;  252.375;    0.000
693.276; 1632.400;  195.375;    0.000
693.385; 1615.400;  228.375;    0.000
693.494; 1576.400;  282.375;    0.000
693.602; 1619.400;  221.375;    0.000
693.711; 1546.400;  225.375;    0.000
693.819; 1593.400;  234.375;    0.000
693.928; 1598.400;  229.375;    0.000
694.036; 1573.400;  192.375;    0.000
694.145; 1666.400;  233.375;    0.000
694.253; 1630.400;  277.375;    0.000
694.362; 1535.400;  188.375;    0.000
694.470; 1630.400;  263.375;    0.000
694.579; 1593.400;  253.375;    0.000
694.687; 1654.400;  281.375;    0.000
694.795; 1538.400;  233.375;    0.000
694.904; 1576.400;  223.375;    0.000
695.012; 1632.400;  296.375;    0.000
695.120; 1587.400;  227.375;    0.000
695.229; 1582.400;  269.375;    0.000
695.337; 1672.400;  229.375;    0.000
695.445; 1611.400;  244.375;    0.000
695.553; 1647.400;  259.375;    0.000
695.662; 1638.400;  208.375;    0.000
695.770; 1582.400;  241.375;    0.000
695.878; 1587.400;  239.375;    0.000
695.986; 1566.400;  247.375;    0.000
696.094; 1568.400;  224.375;    0.000
696.202; 1556.400;  205.375;    0.000
696.310; 1600.400;  217.375;    0.000
696.419; 1614.400;  228.375;    0.000
696.527; 1606.400;  246.375;    0.000
696.635; 1585.400;  245.375;    0.000
696.743; 1591.400;  233.375;    0.000
696.851; 1517.400;  251.375;    0.000
696.959; 1594.400;  257.375;    0.000
697.067; 1556.400;  260.375;    0.000
697.174; 1581.400;  223.375;    0.000
697.282; 1568.400;  239.375;    0.000
697.390; 1583.400;  264.375;    0.000
697.498; 1548.400;  227.375;    0.000
697.606; 1579.400;  243.375;    0.000
697.714; 1541.400;  256.375;    0.000
697.822; 1573.400;  278.375;    0.000
697.929; 1556.400;  227.375;    0.000
698.037; 1575.400;  232.375;    0.000
698.145; 1548.400;  256.375;    0.000
698.253; 1513.400;  245.375;    0.000
698.360; 1569.400;  282.375;    0.000
698.468; 1551.400;  244.375;    0.000
698.576; 1646.400;  279.375;    0.000
698.683; 1619.400;  259.375;    0.000
698.791; 1503.400;  265.375;    0.000
698.899; 1599.400;  250.375;    0.000
699.006; 1552.400;  245.375;    0.000
699.114; 1560.400;  280.375;    0.000
699.221; 1630.400;  240.375;    0.000
699.329; 1606.400;  293.375;    0.000
699.436; 1586.400;  216.375;    0.000
699.544; 1585.400;  269.375;    0.000
699.651; 1523.400;  219.375;    0.000
699.759; 1562.400;  245.375;    0.000
699.866; 1624.400;  261.375;    0.000
699.974; 1590.400;  245.375;    0.000
700.081; 1479.400;  257.375;    0.000
700.188; 1624.400;  268.375;    0.000
700.296; 1514.400;  225.375;    0.000
700.403; 1527.400;  257.375;    0.000
700.510; 1600.400;  267.375;    0.000
700.618; 1544.400;  299.375;    0.000
700.725; 1575.400;  223.375;    0.000
700.832; 1470.400;  233.375;    0.000
700.940; 1610.400;  255.375;    0.000
701.047; 1535.400;  244.375;    0.000
701.154; 1473.400;  248.375;    0.000
701.261; 1496.400;  264.375;    0.000
701.368; 1526.400;  299.375;    0.000
701.475; 1534.400;  264.375;    0.000
701.582; 1552.400;  275.375;    0.000
701.690; 1531.400;  261.375;    0.000
701.797; 1587.400;  273.375;    0.000
701.904; 1614.400;  320.375;    0.000
702.011; 1564.400;  299.375;    0.000
702.118; 1589.400;  292.375;    0.000
702.225; 1596.400;  317.375;    0.000
702.332; 1596.400;  307.375;    0.000
702.439; 1596.400;  313.375;    0.000
702.546; 1601.400;  312.375;    0.000
702.652; 1657.400;  297.375;    0.000
702.759; 1537.400;  345.375;    0.000
702.866; 1593.400;  330.375;    0.000
702.973; 1575.400;  303.375;    0.000
703.080; 1585.400;  303.375;    0.000
703.187; 1619.400;  327.375;    0.000
703.294; 1599.400;  325.375;    0.000
703.400; 1469.400;  302.375;    0.000
703.507;  450.400;  344.375;    0.000
703.614;  311.400;  294.375;    0.000
703.720;  308.400;  322.375;    0.000
703.827;  298.400;  329.375;    0.000
703.934;  337.400;  318.375;    0.000
704.040;  280.400;  299.375;    0.000
704.147;  328.400;  352.375;    0.000
704.254;  315.400;  350.375;    0.000
704.360;  326.400;  347.375;    0.000
704.467;  331.400;  336.375;    0.000
704.573;  355.400;  344.375;    0.000
704.680;  317.400;  365.375;    0.000
704.786;  304.400;  332.375;    0.000
704.893;  324.400;  304.375;    0.000
704.999;  320.400;  299.375;    0.000
705.106;  320.400;  365.375;    0.000

