
Integration time [ms]:   1.000
Averaging Nr. [scans]: 1
Smoothing Nr. [pixels]: 0
Data measured with spectrometer [name]: UV2
Wave   ;Sample   ;Dark     ;Reference
[nm]   ;[counts] ;[counts] ;[counts] 

353.533;  232.325;  216.475;    0.000
353.597;  225.325;  244.475;    0.000
353.660;  214.325;  181.475;    0.000
353.723;  202.325;  203.475;    0.000
353.786;  210.325;  180.475;    0.000
353.850;  228.325;  213.475;    0.000
353.913;  209.325;  191.475;    0.000
353.976;  231.325;  195.475;    0.000
354.039;  181.325;  158.475;    0.000
354.102;  227.325;  199.475;    0.000
354.166;  206.325;  185.475;    0.000
354.229;  199.325;  188.475;    0.000
354.292;  170.325;  188.475;    0.000
354.355;  207.325;  226.475;    0.000
354.418;  210.325;  158.475;    0.000
354.481;  203.325;  185.475;    0.000
354.545;  698.325;  191.475;    0.000
354.608;  751.325;  247.475;    0.000
354.671;  748.325;  176.475;    0.000
354.734;  709.325;  198.475;    0.000
354.797;  788.325;  195.475;    0.000
354.860;  777.325;  212.475;    0.000
354.923;  792.325;  184.475;    0.000
354.986;  774.325;  169.475;    0.000
355.050;  789.325;  206.475;    0.000
355.113;  806.325;  210.475;    0.000
355.176;  851.325;  217.475;    0.000
355.239;  834.325;  201.475;    0.000
355.302;  799.325;  193.475;    0.000
355.365;  857.325;  234.475;    0.000
355.428;  845.325;  182.475;    0.000
355.491;  910.325;  233.475;    0.000
355.554;  901.325;  167.475;    0.000
355.617;  886.325;  195.475;    0.000
355.680;  857.325;  198.475;    0.000
355.743;  933.325;  186.475;    0.000
355.806;  953.325;  171.475;    0.000
355.869; 1009.325;  244.475;    0.000
355.932;  905.325;  164.475;    0.000
355.995;  973.325;  220.475;    0.000
356.058;  967.325;  172.475;    0.000
356.121; 1015.325;  228.475;    0.000
356.184;  971.325;  225.475;    0.000
356.247;  957.325;  161.475;    0.000
356.310;  933.325;  195.475;    0.000
356.373;  970.325;  191.475;    0.000
356.436; 1048.325;  147.475;    0.000
356.498;  966.325;  183.475;    0.000
356.561;  981.325;  137.475;    0.000
356.624;  995.325;  186.475;    0.000
356.687;  985.325;  158.475;    0.000
356.750; 1014.325;  194.475;    0.000
356.813; 1059.325;  186.475;    0.000
356.876;  997.325;  161.475;    0.000
356.939; 1032.325;  188.475;    0.000
357.001; 1099.325;  200.475;    0.000
357.064; 1007.325;  182.475;    0.000
357.127; 1020.325;  168.475;    0.000
357.190; 1007.325;  157.475;    0.000
357.253; 1064.325;  199.475;    0.000
357.316; 1052.325;  187.475;    0.000
357.378; 1004.325;  174.475;    0.000
357.441; 1030.325;  165.475;    0.000
357.504; 1038.325;  189.475;    0.000
357.567; 1022.325;  116.475;    0.000
357.629; 1102.325;  176.475;    0.000
357.692; 1070.325;  134.475;    0.000
357.755; 1129.325;  175.475;    0.000
357.818; 1077.325;  159.475;    0.000
357.880; 1103.325;  185.475;    0.000
357.943; 1003.325;  159.475;    0.000
358.006; 1071.325;  176.475;    0.000
358.069; 1111.325;  156.475;    0.000
358.131; 1107.325;  170.475;    0.000
358.194; 1048.325;  125.475;    0.000
358.257; 1072.325;  186.475;    0.000
358.319; 1062.325;  139.475;    0.000
358.382; 1108.325;  175.475;    0.000
358.445; 1086.325;  170.475;    0.000
358.507; 1192.325;  129.475;    0.000
358.570; 1084.325;  168.475;    0.000
358.633; 1039.325;  152.475;    0.000
358.695; 1148.325;  194.475;    0.000
358.758; 1087.325;  154.475;    0.000
358.821; 1082.325;  147.475;    0.000
358.883; 1150.325;  163.475;    0.000
358.946; 1146.325;  155.475;    0.000
359.008; 1116.325;  208.475;    0.000
359.071; 1160.325;  182.475;    0.000
359.134; 1143.325;  126.475;    0.000
359.196; 1079.325;  142.475;    0.000
359.259; 1105.325;  138.475;    0.000
359.321; 1182.325;  153.475;    0.000
359.384; 1186.325;  186.475;    0.000
359.446; 1172.325;  152.475;    0.000
359.509; 1124.325;  144.475;    0.000
359.571; 1151.325;  164.475;    0.000
359.634; 1171.325;  171.475;    0.000
359.696; 1109.325;  144.475;    0.000
359.759; 1196.325;  171.475;    0.000
359.821; 1150.325;  161.475;    0.000
359.884; 1202.325;  159.475;    0.000
359.946; 1140.325;  186.475;    0.000
360.009; 1225.325;  171.475;    0.000
360.071; 1144.325;  166.475;    0.000
360.134; 1131.325;  215.475;    0.000
360.196; 1153.325;  138.475;    0.000
360.259; 1218.325;  196.475;    0.000
360.321; 1165.325;  148.475;    0.000
360.384; 1210.325;  150.475;    0.000
360.446; 1182.325;  148.475;    0.000
360.508; 1153.325;  172.475;    0.000
360.571; 1211.325;  155.475;    0.000
360.633; 1181.325;  153.475;    0.000
360.696; 1153.325;  142.475;    0.000
360.758; 1161.325;  165.475;    0.000
360.820; 1177.325;  155.475;    0.000
360.883; 1174.325;  156.475;    0.000
360.945; 1245.325;  171.475;    0.000
361.007; 1207.325;  138.475;    0.000
361.070; 1141.325;  129.475;    0.000
361.132; 1211.325;  166.475;    0.000
361.194; 1193.325;  143.475;    0.000
361.257; 1215.325;  154.475;    0.000
361.319; 1200.325;  176.475;    0.000
361.381; 1195.325;  143.475;    0.000
361.443; 1174.325;  136.475;    0.000
361.506; 1219.325;  160.475;    0.000
361.568; 1140.325;  140.475;    0.000
361.630; 1174.325;  159.475;    0.000
361.693; 1274.325;  162.475;    0.000
361.755; 1239.325;  185.475;    0.000
361.817; 1280.325;  209.475;    0.000
361.879; 1284.325;  161.475;    0.000
361.941; 1249.325;  152.475;    0.000
362.004; 1323.325;  132.475;    0.000
362.066; 1240.325;  159.475;    0.000
362.128; 1170.325;  143.475;    0.000
362.190; 1232.325;  131.475;    0.000
362.252; 1251.325;  131.475;    0.000
362.315; 1204.325;  175.475;    0.000
362.377; 1226.325;  140.475;    0.000
362.439; 1267.325;  140.475;    0.000
362.501; 1234.325;  140.475;    0.000
362.563; 1290.325;  152.475;    0.000
362.625; 1282.325;  174.475;    0.000
362.688; 1259.325;  195.475;    0.000
362.750; 1310.325;  221.475;    0.000
362.812; 1289.325;  171.475;    0.000
362.874; 1267.325;  117.475;    0.000
362.936; 1315.325;  162.475;    0.000
362.998; 1252.325;  142.475;    0.000
363.060; 1329.325;  143.475;    0.000
363.122; 1327.325;  148.475;    0.000
363.184; 1334.325;  179.475;    0.000
363.246; 1266.325;  186.475;    0.000
363.308; 1278.325;  180.475;    0.000
363.370; 1371.325;  200.475;    0.000
363.432; 1260.325;  139.475;    0.000
363.494; 1363.325;  138.475;    0.000
363.556; 1255.325;  114.475;    0.000
363.618; 1283.325;  153.475;    0.000
363.680; 1250.325;  153.475;    0.000
363.742; 1290.325;  178.475;    0.000
363.804; 1296.325;  214.475;    0.000
363.866; 1318.325;  170.475;    0.000
363.928; 1336.325;  145.475;    0.000
363.990; 1253.325;  215.475;    0.000
364.052; 1341.325;  166.475;    0.000
364.114; 1308.325;  168.475;    0.000
364.176; 1411.325;  176.475;    0.000
364.238; 1324.325;  203.475;    0.000
364.300; 1309.325;  158.475;    0.000
364.362; 1269.325;  152.475;    0.000
364.424; 1298.325;  119.475;    0.000
364.486; 1348.325;  187.475;    0.000
364.548; 1338.325;  180.475;    0.000
364.609; 1327.325;  212.475;    0.000
364.671; 1349.325;  165.475;    0.000
364.733; 1301.325;  190.475;    0.000
364.795; 1270.325;  148.475;    0.000
364.857; 1353.325;  159.475;    0.000
364.919; 1284.325;  159.475;    0.000
364.981; 1355.325;  191.475;    0.000
365.042; 1349.325;  170.475;    0.000
365.104; 1313.325;  145.475;    0.000
365.166; 1307.325;  134.475;    0.000
365.228; 1320.325;  150.475;    0.000
365.290; 1310.325;  158.475;    0.000
365.351; 1409.325;  168.475;    0.000
365.413; 1439.325;  173.475;    0.000
365.475; 1312.325;  172.475;    0.000
365.537; 1342.325;  126.475;    0.000
365.598; 1353.325;  160.475;    0.000
365.660; 1305.325;  127.475;    0.000
365.722; 1294.325;  189.475;    0.000
365.784; 1334.325;  161.475;    0.000
365.845; 1345.325;  152.475;    0.000
365.907; 1331.325;  117.475;    0.000
365.969; 1349.325;  146.475;    0.000
366.030; 1337.325;  171.475;    0.000
366.092; 1311.325;  155.475;    0.000
366.154; 1381.325;  137.475;    0.000
366.215; 1396.325;  147.475;    0.000
366.277; 1293.325;  148.475;    0.000
366.339; 1337.325;  158.475;    0.000
366.400; 1328.325;  140.475;    0.000
366.462; 1337.325;  159.475;    0.000
366.524; 1312.325;  160.475;    0.000
366.585; 1337.325;  157.475;    0.000
366.647; 1387.325;  170.475;    0.000
366.708; 1366.325;  123.475;    0.000
366.770; 1331.325;  194.475;    0.000
366.832; 1386.325;  191.475;    0.000
366.893; 1387.325;  155.475;    0.000
366.955; 1310.325;  132.475;    0.000
367.016; 1409.325;  126.475;    0.000
367.078; 1320.325;  202.475;    0.000
367.139; 1291.325;  116.475;    0.000
367.201; 1376.325;  134.475;    0.000
367.262; 1385.325;  157.475;    0.000
367.324; 1407.325;  202.475;    0.000
367.385; 1292.325;  118.475;    0.000
367.447; 1448.325;  155.475;    0.000
367.508; 1368.325;  134.475;    0.000
367.570; 1381.325;  165.475;    0.000
367.631; 1354.325;  118.475;    0.000
367.693; 1372.325;  170.475;    0.000
367.754; 1408.325;  154.475;    0.000
367.816; 1444.325;  146.475;    0.000
367.877; 1469.325;  175.475;    0.000
367.939; 1377.325;  200.475;    0.000
368.000; 1398.325;  168.475;    0.000
368.062; 1370.325;  138.475;    0.000
368.123; 1382.325;  170.475;    0.000
368.184; 1385.325;  188.475;    0.000
368.246; 1393.325;  145.475;    0.000
368.307; 1457.325;  163.475;    0.000
368.369; 1403.325;  144.475;    0.000
368.430; 1351.325;  140.475;    0.000
368.491; 1401.325;  133.475;    0.000
368.553; 1425.325;  145.475;    0.000
368.614; 1393.325;  158.475;    0.000
368.675; 1376.325;  147.475;    0.000
368.737; 1448.325;  157.475;    0.000
368.798; 1413.325;  163.475;    0.000
368.859; 1395.325;  173.475;    0.000
368.921; 1413.325;  122.475;    0.000
368.982; 1370.325;  184.475;    0.000
369.043; 1420.325;  169.475;    0.000
369.104; 1329.325;  142.475;    0.000
369.166; 1418.325;  169.475;    0.000
369.227; 1417.325;  156.475;    0.000
369.288; 1453.325;  151.475;    0.000
369.349; 1422.325;  191.475;    0.000
369.411; 1463.325;  168.475;    0.000
369.472; 1447.325;  155.475;    0.000
369.533; 1387.325;  149.475;    0.000
369.594; 1463.325;  174.475;    0.000
369.656; 1475.325;  188.475;    0.000
369.717; 1434.325;  113.475;    0.000
369.778; 1434.325;  184.475;    0.000
369.839; 1416.325;  151.475;    0.000
369.900; 1530.325;  180.475;    0.000
369.961; 1458.325;  171.475;    0.000
370.023; 1469.325;  143.475;    0.000
370.084; 1461.325;  137.475;    0.000
370.145; 1352.325;  152.475;    0.000
370.206; 1475.325;  151.475;    0.000
370.267; 1449.325;  134.475;    0.000
370.328; 1443.325;  178.475;    0.000
370.389; 1407.325;  181.475;    0.000
370.451; 1452.325;  169.475;    0.000
370.512; 1484.325;  172.475;    0.000
370.573; 1465.325;  148.475;    0.000
370.634; 1488.325;  156.475;    0.000
370.695; 1416.325;  151.475;    0.000
370.756; 1470.325;  185.475;    0.000
370.817; 1438.325;  185.475;    0.000
370.878; 1525.325;  191.475;    0.000
370.939; 1428.325;  147.475;    0.000
371.000; 1456.325;  162.475;    0.000
371.061; 1437.325;  145.475;    0.000
371.122; 1473.325;  179.475;    0.000
371.183; 1447.325;  114.475;    0.000
371.244; 1508.325;  180.475;    0.000
371.305; 1448.325;  138.475;    0.000
371.366; 1525.325;  157.475;    0.000
371.427; 1479.325;  148.475;    0.000
371.488; 1470.325;  138.475;    0.000
371.549; 1526.325;  193.475;    0.000
371.610; 1488.325;  158.475;    0.000
371.671; 1467.325;  119.475;    0.000
371.732; 1496.325;  159.475;    0.000
371.793; 1533.325;  178.475;    0.000
371.853; 1459.325;  155.475;    0.000
371.914; 1502.325;  148.475;    0.000
371.975; 1508.325;  124.475;    0.000
372.036; 1596.325;  158.475;    0.000
372.097; 1455.325;  136.475;    0.000
372.158; 1482.325;  116.475;    0.000
372.219; 1417.325;  157.475;    0.000
372.280; 1490.325;  151.475;    0.000
372.340; 1510.325;  190.475;    0.000
372.401; 1492.325;  151.475;    0.000
372.462; 1465.325;  129.475;    0.000
372.523; 1475.325;  121.475;    0.000
372.584; 1465.325;  152.475;    0.000
372.645; 1505.325;  132.475;    0.000
372.705; 1558.325;  190.475;    0.000
372.766; 1543.325;  153.475;    0.000
372.827; 1518.325;  133.475;    0.000
372.888; 1511.325;  161.475;    0.000
372.948; 1471.325;  159.475;    0.000
373.009; 1465.325;  164.475;    0.000
373.070; 1482.325;  139.475;    0.000
373.131; 1577.325;  137.475;    0.000
373.191; 1576.325;  181.475;    0.000
373.252; 1506.325;  154.475;    0.000
373.313; 1537.325;  179.475;    0.000
373.373; 1515.325;  136.475;    0.000
373.434; 1577.325;  169.475;    0.000
373.495; 1538.325;   97.475;    0.000
373.555; 1537.325;  142.475;    0.000
373.616; 1473.325;  178.475;    0.000
373.677; 1524.325;  167.475;    0.000
373.737; 1541.325;  139.475;    0.000
373.798; 1527.325;  155.475;    0.000
373.859; 1601.325;  162.475;    0.000
373.919; 1505.325;  174.475;    0.000
373.980; 1516.325;  172.475;    0.000
374.041; 1549.325;  166.475;    0.000
374.101; 1578.325;  172.475;    0.000
374.162; 1543.325;  188.475;    0.000
374.222; 1565.325;  186.475;    0.000
374.283; 1564.325;  195.475;    0.000
374.343; 1615.325;  204.475;    0.000
374.404; 1513.325;  187.475;    0.000
374.465; 1602.325;  183.475;    0.000
374.525; 1561.325;  136.475;    0.000
374.586; 1616.325;  140.475;    0.000
374.646; 1640.325;  191.475;    0.000
374.707; 1643.325;  208.475;    0.000
374.767; 1611.325;  178.475;    0.000
374.828; 1527.325;  159.475;    0.000
374.888; 1594.325;  143.475;    0.000
374.949; 1672.325;  202.475;    0.000
375.009; 1642.325;  151.475;    0.000
375.070; 1648.325;  160.475;    0.000
375.130; 1634.325;  160.475;    0.000
375.190; 1621.325;  164.475;    0.000
375.251; 1704.325;  196.475;    0.000
375.311; 1571.325;  154.475;    0.000
375.372; 1640.325;  197.475;    0.000
375.432; 1611.325;  159.475;    0.000
375.493; 1663.325;  197.475;    0.000
375.553; 1624.325;  165.475;    0.000
375.613; 1574.325;  174.475;    0.000
375.674; 1536.325;  165.475;    0.000
375.734; 1596.325;  128.475;    0.000
375.794; 1590.325;  169.475;    0.000
375.855; 1610.325;  193.475;    0.000
375.915; 1657.325;  162.475;    0.000
375.975; 1558.325;  181.475;    0.000
376.036; 1626.325;  161.475;    0.000
376.096; 1571.325;  131.475;    0.000
376.156; 1659.325;  165.475;    0.000
376.217; 1529.325;  182.475;    0.000
376.277; 1587.325;  185.475;    0.000
376.337; 1585.325;  177.475;    0.000
376.398; 1670.325;  162.475;    0.000
376.458; 1582.325;  179.475;    0.000
376.518; 1555.325;  150.475;    0.000
376.578; 1556.325;  165.475;    0.000
376.639; 1605.325;  159.475;    0.000
376.699; 1561.325;  180.475;    0.000
376.759; 1563.325;  206.475;    0.000
376.819; 1664.325;  146.475;    0.000
376.880; 1636.325;  177.475;    0.000
376.940; 1593.325;  160.475;    0.000
377.000; 1523.325;  149.475;    0.000
377.060; 1592.325;  180.475;    0.000
377.120; 1640.325;  146.475;    0.000
377.180; 1550.325;  137.475;    0.000
377.241; 1605.325;  163.475;    0.000
377.301; 1600.325;  169.475;    0.000
377.361; 1672.325;  137.475;    0.000
377.421; 1602.325;  184.475;    0.000
377.481; 1601.325;  185.475;    0.000
377.541; 1603.325;  146.475;    0.000
377.601; 1644.325;  179.475;    0.000
377.661; 1710.325;  181.475;    0.000
377.722; 1615.325;  185.475;    0.000
377.782; 1657.325;  147.475;    0.000
377.842; 1714.325;  190.475;    0.000
377.902; 1694.325;  166.475;    0.000
377.962; 1511.325;  153.475;    0.000
378.022; 1702.325;  163.475;    0.000
378.082; 1667.325;  146.475;    0.000
378.142; 1641.325;  152.475;    0.000
378.202; 1641.325;  164.475;    0.000
378.262; 1638.325;  195.475;    0.000
378.322; 1719.325;  190.475;    0.000
378.382; 1632.325;  152.475;    0.000
378.442; 1705.325;  175.475;    0.000
378.502; 1705.325;  153.475;    0.000
378.562; 1681.325;  142.475;    0.000
378.622; 1704.325;  166.475;    0.000
378.682; 1666.325;  173.475;    0.000
378.742; 1683.325;  182.475;    0.000
378.802; 1633.325;  145.475;    0.000
378.862; 1763.325;  210.475;    0.000
378.921; 1702.325;  182.475;    0.000
378.981; 1755.325;  185.475;    0.000
379.041; 1720.325;  130.475;    0.000
379.101; 1617.325;  177.475;    0.000
379.161; 1680.325;  166.475;    0.000
379.221; 1713.325;  162.475;    0.000
379.281; 1770.325;  167.475;    0.000
379.341; 1772.325;  136.475;    0.000
379.401; 1757.325;  145.475;    0.000
379.460; 1770.325;  176.475;    0.000
379.520; 1867.325;  162.475;    0.000
379.580; 1753.325;  144.475;    0.000
379.640; 1802.325;  163.475;    0.000
379.700; 1745.325;  157.475;    0.000
379.759; 1811.325;  165.475;    0.000
379.819; 1754.325;  190.475;    0.000
379.879; 1733.325;  143.475;    0.000
379.939; 1805.325;  188.475;    0.000
379.999; 1831.325;  141.475;    0.000
380.058; 1766.325;  169.475;    0.000
380.118; 1765.325;  158.475;    0.000
380.178; 1833.325;  114.475;    0.000
380.237; 1805.325;  157.475;    0.000
380.297; 1810.325;  177.475;    0.000
380.357; 1875.325;  189.475;    0.000
380.417; 1807.325;  182.475;    0.000
380.476; 1875.325;  178.475;    0.000
380.536; 1789.325;  189.475;    0.000
380.596; 1819.325;  183.475;    0.000
380.655; 1800.325;  195.475;    0.000
380.715; 1824.325;  170.475;    0.000
380.775; 1956.325;  170.475;    0.000
380.834; 1819.325;  179.475;    0.000
380.894; 1892.325;  188.475;    0.000
380.954; 1780.325;  142.475;    0.000
381.013; 1866.325;  178.475;    0.000
381.073; 1862.325;  164.475;    0.000
381.132; 1852.325;  192.475;    0.000
381.192; 1904.325;  187.475;    0.000
381.252; 2018.325;  176.475;    0.000
381.311; 1913.325;  206.475;    0.000
381.371; 1947.325;  167.475;    0.000
381.430; 1892.325;  131.475;    0.000
381.490; 1894.325;  150.475;    0.000
381.549; 1903.325;  129.475;    0.000
381.609; 1919.325;  178.475;    0.000
381.668; 1978.325;  194.475;    0.000
381.728; 1894.325;  210.475;    0.000
381.787; 1977.325;  190.475;    0.000
381.847; 1942.325;  181.475;    0.000
381.906; 1872.325;  156.475;    0.000
381.966; 1931.325;  176.475;    0.000
382.025; 2069.325;  186.475;    0.000
382.085; 1987.325;  192.475;    0.000
382.144; 2087.325;  173.475;    0.000
382.204; 2092.325;  207.475;    0.000
382.263; 2008.325;  193.475;    0.000
382.323; 2061.325;  164.475;    0.000
382.382; 2106.325;  161.475;    0.000
382.441; 2204.325;  199.475;    0.000
382.501; 2142.325;  208.475;    0.000
382.560; 2160.325;  173.475;    0.000
382.619; 2313.325;  179.475;    0.000
382.679; 2427.325;  177.475;    0.000
382.738; 2418.325;  190.475;    0.000
382.798; 2547.325;  213.475;    0.000
382.857; 2784.325;  195.475;    0.000
382.916; 3063.325;  184.475;    0.000
382.976; 3100.325;  169.475;    0.000
383.035; 2937.325;  194.475;    0.000
383.094; 3018.325;  185.475;    0.000
383.154; 3360.325;  198.475;    0.000
383.213; 3942.325;  147.475;    0.000
383.272; 3794.325;  175.475;    0.000
383.331; 3087.325;  122.475;    0.000
383.391; 2827.325;  185.475;    0.000
383.450; 2784.325;  160.475;    0.000
383.509; 2769.325;  168.475;    0.000
383.568; 2851.325;  196.475;    0.000
383.628; 3106.325;  156.475;    0.000
383.687; 3146.325;  171.475;    0.000
383.746; 3608.325;  155.475;    0.000
383.805; 4399.325;  201.475;    0.000
383.864; 4462.325;  125.475;    0.000
383.924; 3465.325;  213.475;    0.000
383.983; 2897.325;  188.475;    0.000
384.042; 2622.325;  162.475;    0.000
384.101; 2454.325;  183.475;    0.000
384.160; 2475.325;  155.475;    0.000
384.219; 2277.325;  155.475;    0.000
384.279; 2291.325;  189.475;    0.000
384.338; 2313.325;  156.475;    0.000
384.397; 2217.325;  148.475;    0.000
384.456; 2172.325;  154.475;    0.000
384.515; 2195.325;  160.475;    0.000
384.574; 2208.325;  223.475;    0.000
384.633; 2223.325;  133.475;    0.000
384.692; 2161.325;  163.475;    0.000
384.751; 2178.325;  186.475;    0.000
384.810; 2110.325;  187.475;    0.000
384.869; 2108.325;  172.475;    0.000
384.929; 2078.325;  153.475;    0.000
384.988; 2139.325;  174.475;    0.000
385.047; 2203.325;  154.475;    0.000
385.106; 2165.325;  164.475;    0.000
385.165; 2112.325;  151.475;    0.000
385.224; 2021.325;  147.475;    0.000
385.283; 2074.325;  176.475;    0.000
385.342; 2076.325;  142.475;    0.000
385.401; 2115.325;  175.475;    0.000
385.459; 2054.325;  150.475;    0.000
385.518; 2131.325;  124.475;    0.000
385.577; 2085.325;  115.475;    0.000
385.636; 2198.325;  174.475;    0.000
385.695; 2092.325;  158.475;    0.000
385.754; 2155.325;  150.475;    0.000
385.813; 2162.325;  129.475;    0.000
385.872; 2049.325;  146.475;    0.000
385.931; 2103.325;  194.475;    0.000
385.990; 2190.325;  174.475;    0.000
386.049; 2146.325;  176.475;    0.000
386.107; 2141.325;  151.475;    0.000
386.166; 2121.325;  178.475;    0.000
386.225; 2160.325;  162.475;    0.000
386.284; 2165.325;  180.475;    0.000
386.343; 2111.325;  171.475;    0.000
386.402; 2167.325;  176.475;    0.000
386.460; 2211.325;  144.475;    0.000
386.519; 2050.325;  140.475;    0.000
386.578; 2095.325;  145.475;    0.000
386.637; 2128.325;  164.475;    0.000
386.696; 2134.325;  189.475;    0.000
386.754; 2188.325;  135.475;    0.000
386.813; 2111.325;  139.475;    0.000
386.872; 2102.325;  121.475;    0.000
386.931; 2188.325;  153.475;    0.000
386.989; 2155.325;  211.475;    0.000
387.048; 2162.325;  156.475;    0.000
387.107; 2152.325;  210.475;    0.000
387.165; 2165.325;  129.475;    0.000
387.224; 2084.325;  205.475;    0.000
387.283; 2132.325;  130.475;    0.000
387.342; 2127.325;  171.475;    0.000
387.400; 2110.325;  156.475;    0.000
387.459; 2007.325;  141.475;    0.000
387.517; 2150.325;  219.475;    0.000
387.576; 2132.325;  166.475;    0.000
387.635; 2114.325;  136.475;    0.000
387.693; 2175.325;  191.475;    0.000
387.752; 2146.325;  165.475;    0.000
387.811; 2109.325;  158.475;    0.000
387.869; 2132.325;  204.475;    0.000
387.928; 2171.325;  149.475;    0.000
387.986; 2188.325;  156.475;    0.000
388.045; 2091.325;  123.475;    0.000
388.103; 2083.325;  150.475;    0.000
388.162; 2052.325;  173.475;    0.000
388.221; 2116.325;  143.475;    0.000
388.279; 2212.325;  129.475;    0.000
388.338; 2112.325;  212.475;    0.000
388.396; 2060.325;  150.475;    0.000
388.455; 2190.325;  167.475;    0.000
388.513; 2062.325;  116.475;    0.000
388.572; 2116.325;  181.475;    0.000
388.630; 2150.325;  187.475;    0.000
388.689; 2102.325;  180.475;    0.000
388.747; 2159.325;  154.475;    0.000
388.806; 2125.325;  161.475;    0.000
388.864; 2154.325;  167.475;    0.000
388.922; 2185.325;  184.475;    0.000
388.981; 2077.325;  169.475;    0.000
389.039; 2146.325;  102.475;    0.000
389.098; 2087.325;  183.475;    0.000
389.156; 2091.325;  182.475;    0.000
389.214; 2153.325;  173.475;    0.000
389.273; 2093.325;  167.475;    0.000
389.331; 2183.325;  170.475;    0.000
389.390; 2224.325;  150.475;    0.000
389.448; 2160.325;  156.475;    0.000
389.506; 2151.325;  149.475;    0.000
389.565; 2243.325;  162.475;    0.000
389.623; 2148.325;  188.475;    0.000
389.681; 2168.325;  204.475;    0.000
389.740; 2142.325;  187.475;    0.000
389.798; 2150.325;  153.475;    0.000
389.856; 2228.325;  214.475;    0.000
389.914; 2196.325;  177.475;    0.000
389.973; 2092.325;  189.475;    0.000
390.031; 2255.325;  178.475;    0.000
390.089; 2207.325;  163.475;    0.000
390.147; 2248.325;  170.475;    0.000
390.206; 2078.325;  183.475;    0.000
390.264; 2132.325;  161.475;    0.000
390.322; 2092.325;  148.475;    0.000
390.380; 2114.325;  138.475;    0.000
390.439; 2062.325;  194.475;    0.000
390.497; 2183.325;  170.475;    0.000
390.555; 2098.325;  165.475;    0.000
390.613; 2116.325;  177.475;    0.000
390.671; 2233.325;  170.475;    0.000
390.729; 2165.325;  158.475;    0.000
390.788; 2164.325;  162.475;    0.000
390.846; 2163.325;  161.475;    0.000
390.904; 2232.325;  197.475;    0.000
390.962; 2179.325;  212.475;    0.000
391.020; 2241.325;  224.475;    0.000
391.078; 2258.325;  184.475;    0.000
391.136; 2264.325;  191.475;    0.000
391.194; 2194.325;  187.475;    0.000
391.253; 2210.325;  197.475;    0.000
391.311; 2267.325;  185.475;    0.000
391.369; 2287.325;  207.475;    0.000
391.427; 2308.325;  222.475;    0.000
391.485; 2253.325;  184.475;    0.000
391.543; 2279.325;  203.475;    0.000
391.601; 2236.325;  151.475;    0.000
391.659; 2268.325;  176.475;    0.000
391.717; 2278.325;  190.475;    0.000
391.775; 2239.325;  159.475;    0.000
391.833; 2272.325;  186.475;    0.000
391.891; 2306.325;  154.475;    0.000
391.949; 2290.325;  181.475;    0.000
392.007; 2347.325;  190.475;    0.000
392.065; 2316.325;  182.475;    0.000
392.123; 2410.325;  158.475;    0.000
392.180; 2321.325;  198.475;    0.000
392.238; 2323.325;  191.475;    0.000
392.296; 2262.325;  164.475;    0.000
392.354; 2382.325;  172.475;    0.000
392.412; 2363.325;  194.475;    0.000
392.470; 2383.325;  154.475;    0.000
392.528; 2336.325;  172.475;    0.000
392.586; 2375.325;  179.475;    0.000
392.644; 2277.325;  173.475;    0.000
392.701; 2366.325;  202.475;    0.000
392.759; 2410.325;  180.475;    0.000
392.817; 2288.325;  181.475;    0.000
392.875; 2340.325;  168.475;    0.000
392.933; 2297.325;  161.475;    0.000
392.991; 2405.325;  216.475;    0.000
393.048; 2403.325;  197.475;    0.000
393.106; 2508.325;  199.475;    0.000
393.164; 2504.325;  173.475;    0.000
393.222; 2513.325;  179.475;    0.000
393.279; 2795.325;  209.475;    0.000
393.337; 3250.325;  185.475;    0.000
393.395; 3340.325;  174.475;    0.000
393.453; 2814.325;  181.475;    0.000
393.510; 2515.325;  188.475;    0.000
393.568; 2436.325;  191.475;    0.000
393.626; 2507.325;  151.475;    0.000
393.684; 2508.325;  208.475;    0.000
393.741; 2337.325;  179.475;    0.000
393.799; 2370.325;  149.475;    0.000
393.857; 2388.325;  136.475;    0.000
393.914; 2438.325;  190.475;    0.000
393.972; 2350.325;  155.475;    0.000
394.030; 2473.325;  170.475;    0.000
394.087; 2429.325;  213.475;    0.000
394.145; 2414.325;  191.475;    0.000
394.202; 2435.325;  188.475;    0.000
394.260; 2417.325;  168.475;    0.000
394.318; 2443.325;  176.475;    0.000
394.375; 2449.325;  159.475;    0.000
394.433; 2573.325;  168.475;    0.000
394.490; 2362.325;  163.475;    0.000
394.548; 2547.325;  163.475;    0.000
394.605; 2454.325;  181.475;    0.000
394.663; 2465.325;  180.475;    0.000
394.720; 2429.325;  193.475;    0.000
394.778; 2449.325;  168.475;    0.000
394.836; 2484.325;  128.475;    0.000
394.893; 2573.325;  151.475;    0.000
394.951; 2479.325;  173.475;    0.000
395.008; 2433.325;  201.475;    0.000
395.065; 2481.325;  139.475;    0.000
395.123; 2512.325;  173.475;    0.000
395.180; 2503.325;  144.475;    0.000
395.238; 2476.325;  135.475;    0.000
395.295; 2509.325;  167.475;    0.000
395.353; 2535.325;  150.475;    0.000
395.410; 2500.325;  165.475;    0.000
395.468; 2510.325;  223.475;    0.000
395.525; 2496.325;  156.475;    0.000
395.582; 2501.325;  178.475;    0.000
395.640; 2610.325;  178.475;    0.000
395.697; 2500.325;  173.475;    0.000
395.754; 2505.325;  154.475;    0.000
395.812; 2634.325;  169.475;    0.000
395.869; 2591.325;  196.475;    0.000
395.927; 2503.325;  190.475;    0.000
395.984; 2706.325;  195.475;    0.000
396.041; 2539.325;  160.475;    0.000
396.098; 2593.325;  161.475;    0.000
396.156; 2616.325;  187.475;    0.000
396.213; 2594.325;  200.475;    0.000
396.270; 2533.325;  160.475;    0.000
396.328; 2508.325;  113.475;    0.000
396.385; 2543.325;  165.475;    0.000
396.442; 2562.325;  168.475;    0.000
396.499; 2589.325;  117.475;    0.000
396.557; 2781.325;  203.475;    0.000
396.614; 2688.325;  155.475;    0.000
396.671; 2608.325;  187.475;    0.000
396.728; 2799.325;  169.475;    0.000
396.785; 2951.325;  167.475;    0.000
396.843; 3201.325;  154.475;    0.000
396.900; 3136.325;  172.475;    0.000
396.957; 2848.325;  176.475;    0.000
397.014; 2768.325;  193.475;    0.000
397.071; 2728.325;  170.475;    0.000
397.128; 2663.325;  172.475;    0.000
397.186; 2630.325;  205.475;    0.000
397.243; 2664.325;  163.475;    0.000
397.300; 2700.325;  193.475;    0.000
397.357; 2726.325;  166.475;    0.000
397.414; 2690.325;  149.475;    0.000
397.471; 2617.325;  157.475;    0.000
397.528; 2744.325;  180.475;    0.000
397.585; 2684.325;  203.475;    0.000
397.642; 2697.325;  156.475;    0.000
397.699; 2719.325;  229.475;    0.000
397.756; 2721.325;  185.475;    0.000
397.814; 2726.325;  191.475;    0.000
397.871; 2698.325;  170.475;    0.000
397.928; 2593.325;  191.475;    0.000
397.985; 2754.325;  183.475;    0.000
398.042; 2767.325;  161.475;    0.000
398.099; 2773.325;  192.475;    0.000
398.156; 2815.325;  176.475;    0.000
398.212; 2683.325;  170.475;    0.000
398.269; 2801.325;  158.475;    0.000
398.326; 2728.325;  175.475;    0.000
398.383; 2823.325;  177.475;    0.000
398.440; 2806.325;  169.475;    0.000
398.497; 2884.325;  184.475;    0.000
398.554; 2863.325;  196.475;    0.000
398.611; 2824.325;  198.475;    0.000
398.668; 2866.325;  135.475;    0.000
398.725; 2869.325;  181.475;    0.000
398.782; 2934.325;  195.475;    0.000
398.839; 2978.325;  179.475;    0.000
398.895; 2892.325;  188.475;    0.000
398.952; 2987.325;  176.475;    0.000
399.009; 2921.325;  183.475;    0.000
399.066; 2967.325;  190.475;    0.000
399.123; 2997.325;  174.475;    0.000
399.180; 3012.325;  191.475;    0.000
399.236; 3124.325;  217.475;    0.000
399.293; 3177.325;  154.475;    0.000
399.350; 3220.325;  210.475;    0.000
399.407; 3281.325;  202.475;    0.000
399.463; 3228.325;  162.475;    0.000
399.520; 3348.325;  207.475;    0.000
399.577; 3407.325;  174.475;    0.000
399.634; 3320.325;  170.475;    0.000
399.690; 3411.325;  186.475;    0.000
399.747; 3400.325;  218.475;    0.000
399.804; 3364.325;  200.475;    0.000
399.861; 3398.325;  190.475;    0.000
399.917; 3314.325;  218.475;    0.000
399.974; 3330.325;  200.475;    0.000
400.031; 3402.325;  200.475;    0.000
400.087; 3312.325;  153.475;    0.000
400.144; 3237.325;  188.475;    0.000
400.201; 3181.325;  198.475;    0.000
400.257; 3167.325;  205.475;    0.000
400.314; 3251.325;  183.475;    0.000
400.370; 3210.325;  227.475;    0.000
400.427; 3097.325;  177.475;    0.000
400.484; 3067.325;  202.475;    0.000
400.540; 3168.325;  173.475;    0.000
400.597; 3028.325;  212.475;    0.000
400.653; 3141.325;  182.475;    0.000
400.710; 3037.325;  201.475;    0.000
400.766; 3080.325;  188.475;    0.000
400.823; 3154.325;  205.475;    0.000
400.879; 3092.325;  165.475;    0.000
400.936; 3083.325;  180.475;    0.000
400.993; 3087.325;  181.475;    0.000
401.049; 2964.325;  147.475;    0.000
401.105; 3093.325;  205.475;    0.000
401.162; 3034.325;  197.475;    0.000
401.218; 3054.325;  177.475;    0.000
401.275; 3056.325;  183.475;    0.000
401.331; 3082.325;  198.475;    0.000
401.388; 3007.325;  209.475;    0.000
401.444; 3071.325;  211.475;    0.000
401.501; 2983.325;  185.475;    0.000
401.557; 3070.325;  190.475;    0.000
401.614; 3059.325;  172.475;    0.000
401.670; 3042.325;  185.475;    0.000
401.726; 3152.325;  196.475;    0.000
401.783; 3062.325;  187.475;    0.000
401.839; 3141.325;  192.475;    0.000
401.895; 3082.325;  173.475;    0.000
401.952; 2929.325;  145.475;    0.000
402.008; 3028.325;  197.475;    0.000
402.064; 3023.325;  146.475;    0.000
402.121; 3065.325;  197.475;    0.000
402.177; 2975.325;  173.475;    0.000
402.233; 3113.325;  185.475;    0.000
402.290; 3032.325;  175.475;    0.000
402.346; 3066.325;  164.475;    0.000
402.402; 2993.325;  173.475;    0.000
402.458; 3170.325;  183.475;    0.000
402.515; 3161.325;  147.475;    0.000
402.571; 3144.325;  210.475;    0.000
402.627; 3125.325;  181.475;    0.000
402.683; 3091.325;  177.475;    0.000
402.740; 3157.325;  162.475;    0.000
402.796; 3113.325;  178.475;    0.000
402.852; 3128.325;  138.475;    0.000
402.908; 3137.325;  181.475;    0.000
402.964; 3130.325;  151.475;    0.000
403.021; 3157.325;  170.475;    0.000
403.077; 3227.325;  204.475;    0.000
403.133; 3058.325;  144.475;    0.000
403.189; 3147.325;  207.475;    0.000
403.245; 3173.325;  184.475;    0.000
403.301; 3185.325;  170.475;    0.000
403.357; 3156.325;  201.475;    0.000
403.414; 3227.325;  205.475;    0.000
403.470; 3230.325;  170.475;    0.000
403.526; 3209.325;  135.475;    0.000
403.582; 3185.325;  180.475;    0.000
403.638; 3192.325;  185.475;    0.000
403.694; 3314.325;  169.475;    0.000
403.750; 3171.325;  210.475;    0.000
403.806; 3261.325;  210.475;    0.000
403.862; 3219.325;  219.475;    0.000
403.918; 3278.325;  191.475;    0.000
403.974; 3325.325;  193.475;    0.000
404.030; 3148.325;  154.475;    0.000
404.086; 3343.325;  170.475;    0.000
404.142; 3240.325;  194.475;    0.000
404.198; 3211.325;  224.475;    0.000
404.254; 3269.325;  177.475;    0.000
404.310; 3322.325;  204.475;    0.000
404.366; 3300.325;  170.475;    0.000
404.422; 3258.325;  172.475;    0.000
404.478; 3194.325;  153.475;    0.000
404.534; 3231.325;  159.475;    0.000
404.590; 3371.325;  203.475;    0.000
404.646; 3250.325;  164.475;    0.000
404.701; 3275.325;  141.475;    0.000
404.757; 3277.325;  195.475;    0.000
404.813; 3178.325;  152.475;    0.000
404.869; 3310.325;  174.475;    0.000
404.925; 3235.325;  167.475;    0.000
404.981; 3274.325;  175.475;    0.000
405.037; 3261.325;  170.475;    0.000
405.092; 3397.325;  155.475;    0.000
405.148; 3301.325;  160.475;    0.000
405.204; 3252.325;  158.475;    0.000
405.260; 3271.325;  128.475;    0.000
405.316; 3281.325;  168.475;    0.000
405.371; 3225.325;  162.475;    0.000
405.427; 3291.325;  187.475;    0.000
405.483; 3266.325;  214.475;    0.000
405.539; 3350.325;  163.475;    0.000
405.594; 3343.325;  191.475;    0.000
405.650; 3327.325;  124.475;    0.000
405.706; 3304.325;  188.475;    0.000
405.761; 3351.325;  204.475;    0.000
405.817; 3381.325;  150.475;    0.000
405.873; 3312.325;  152.475;    0.000
405.928; 3340.325;  135.475;    0.000
405.984; 3370.325;  209.475;    0.000
406.040; 3328.325;  165.475;    0.000
406.095; 3301.325;  146.475;    0.000
406.151; 3454.325;  169.475;    0.000
406.207; 3428.325;  174.475;    0.000
406.262; 3279.325;  189.475;    0.000
406.318; 3466.325;  141.475;    0.000
406.374; 3331.325;  178.475;    0.000
406.429; 3481.325;  197.475;    0.000
406.485; 3482.325;  194.475;    0.000
406.540; 3428.325;  149.475;    0.000
406.596; 3401.325;  173.475;    0.000
406.651; 3468.325;  154.475;    0.000
406.707; 3431.325;  183.475;    0.000
406.763; 3535.325;  156.475;    0.000
406.818; 3524.325;  181.475;    0.000
406.874; 3581.325;  135.475;    0.000
406.929; 3646.325;  194.475;    0.000
406.985; 3644.325;  166.475;    0.000
407.040; 3682.325;  207.475;    0.000
407.095; 3688.325;  213.475;    0.000
407.151; 3635.325;  198.475;    0.000
407.206; 3751.325;  186.475;    0.000
407.262; 3784.325;  148.475;    0.000
407.317; 3813.325;  212.475;    0.000
407.373; 3824.325;  209.475;    0.000
407.428; 3784.325;  218.475;    0.000
407.484; 3726.325;  158.475;    0.000
407.539; 3788.325;  165.475;    0.000
407.594; 3839.325;  197.475;    0.000
407.650; 3770.325;  177.475;    0.000
407.705; 3748.325;  154.475;    0.000
407.760; 3859.325;  198.475;    0.000
407.816; 3772.325;  181.475;    0.000
407.871; 3682.325;  185.475;    0.000
407.926; 3779.325;  167.475;    0.000
407.982; 3714.325;  172.475;    0.000
408.037; 3704.325;  202.475;    0.000
408.092; 3638.325;  201.475;    0.000
408.148; 3653.325;  199.475;    0.000
408.203; 3716.325;  174.475;    0.000
408.258; 3643.325;  157.475;    0.000
408.314; 3730.325;  194.475;    0.000
408.369; 3655.325;  189.475;    0.000
408.424; 3681.325;  204.475;    0.000
408.479; 3612.325;  192.475;    0.000
408.534; 3734.325;  215.475;    0.000
408.590; 3611.325;  190.475;    0.000
408.645; 3628.325;  159.475;    0.000
408.700; 3643.325;  191.475;    0.000
408.755; 3700.325;  217.475;    0.000
408.810; 3631.325;  158.475;    0.000
408.866; 3660.325;  166.475;    0.000
408.921; 3728.325;  214.475;    0.000
408.976; 3576.325;  158.475;    0.000
409.031; 3674.325;  185.475;    0.000
409.086; 3678.325;  158.475;    0.000
409.141; 3644.325;  180.475;    0.000
409.196; 3630.325;  188.475;    0.000
409.252; 3586.325;  186.475;    0.000
409.307; 3641.325;  135.475;    0.000
409.362; 3599.325;  162.475;    0.000
409.417; 3656.325;  149.475;    0.000
409.472; 3561.325;  205.475;    0.000
409.527; 3595.325;  184.475;    0.000
409.582; 3635.325;  174.475;    0.000
409.637; 3670.325;  188.475;    0.000
409.692; 3606.325;  211.475;    0.000
409.747; 3589.325;  159.475;    0.000
409.802; 3582.325;  199.475;    0.000
409.857; 3676.325;  118.475;    0.000
409.912; 3613.325;  177.475;    0.000
409.967; 3567.325;  182.475;    0.000
410.022; 3571.325;  188.475;    0.000
410.077; 3563.325;  204.475;    0.000
410.132; 3672.325;  174.475;    0.000
410.187; 3499.325;  169.475;    0.000
410.242; 3634.325;  178.475;    0.000
410.297; 3654.325;  185.475;    0.000
410.351; 3564.325;  203.475;    0.000
410.406; 3644.325;  180.475;    0.000
410.461; 3616.325;  213.475;    0.000
410.516; 3629.325;  198.475;    0.000
410.571; 3537.325;  171.475;    0.000
410.626; 3470.325;  186.475;    0.000
410.681; 3648.325;  187.475;    0.000
410.736; 3584.325;  147.475;    0.000
410.790; 3535.325;  186.475;    0.000
410.845; 3555.325;  152.475;    0.000
410.900; 3657.325;  202.475;    0.000
410.955; 3658.325;  196.475;    0.000
411.010; 3604.325;  150.475;    0.000
411.064; 3514.325;  200.475;    0.000
411.119; 3604.325;  203.475;    0.000
411.174; 3729.325;  176.475;    0.000
411.229; 3591.325;  203.475;    0.000
411.283; 3546.325;  176.475;    0.000
411.338; 3567.325;  153.475;    0.000
411.393; 3548.325;  168.475;    0.000
411.447; 3593.325;  223.475;    0.000
411.502; 3642.325;  238.475;    0.000
411.557; 3559.325;  179.475;    0.000
411.612; 3562.325;  159.475;    0.000
411.666; 3650.325;  189.475;    0.000
411.721; 3557.325;  212.475;    0.000
411.776; 3725.325;  242.475;    0.000
411.830; 3582.325;  194.475;    0.000
411.885; 3585.325;  188.475;    0.000
411.939; 3709.325;  245.475;    0.000
411.994; 3677.325;  177.475;    0.000
412.049; 3615.325;  170.475;    0.000
412.103; 3601.325;  196.475;    0.000
412.158; 3717.325;  215.475;    0.000
412.212; 3779.325;  199.475;    0.000
412.267; 3583.325;  191.475;    0.000
412.322; 3638.325;  238.475;    0.000
412.376; 3645.325;  243.475;    0.000
412.431; 3653.325;  214.475;    0.000
412.485; 3666.325;  210.475;    0.000
412.540; 3514.325;  200.475;    0.000
412.594; 3655.325;  174.475;    0.000
412.649; 3635.325;  246.475;    0.000
412.703; 3657.325;  182.475;    0.000
412.758; 3591.325;  222.475;    0.000
412.812; 3619.325;  201.475;    0.000
412.866; 3612.325;  162.475;    0.000
412.921; 3510.325;  202.475;    0.000
412.975; 3611.325;  212.475;    0.000
413.030; 3712.325;  238.475;    0.000
413.084; 3584.325;  201.475;    0.000
413.139; 3528.325;  210.475;    0.000
413.193; 3559.325;  218.475;    0.000
413.247; 3614.325;  203.475;    0.000
413.302; 3504.325;  176.475;    0.000
413.356; 3572.325;  215.475;    0.000
413.410; 3548.325;  204.475;    0.000
413.465; 3718.325;  186.475;    0.000
413.519; 3555.325;  196.475;    0.000
413.573; 3578.325;  181.475;    0.000
413.628; 3478.325;  200.475;    0.000
413.682; 3592.325;  157.475;    0.000
413.736; 3479.325;  194.475;    0.000
413.791; 3630.325;  193.475;    0.000
413.845; 3553.325;  225.475;    0.000
413.899; 3527.325;  195.475;    0.000
413.953; 3412.325;  173.475;    0.000
414.008; 3544.325;  186.475;    0.000
414.062; 3557.325;  217.475;    0.000
414.116; 3569.325;  169.475;    0.000
414.170; 3596.325;  228.475;    0.000
414.225; 3468.325;  177.475;    0.000
414.279; 3538.325;  210.475;    0.000
414.333; 3583.325;  207.475;    0.000
414.387; 3555.325;  217.475;    0.000
414.441; 3578.325;  187.475;    0.000
414.496; 3636.325;  215.475;    0.000
414.550; 3619.325;  204.475;    0.000
414.604; 3590.325;  206.475;    0.000
414.658; 3594.325;  139.475;    0.000
414.712; 3623.325;  198.475;    0.000
414.766; 3630.325;  208.475;    0.000
414.820; 3560.325;  199.475;    0.000
414.874; 3463.325;  216.475;    0.000
414.928; 3505.325;  186.475;    0.000
414.982; 3492.325;  176.475;    0.000
415.037; 3541.325;  181.475;    0.000
415.091; 3596.325;  208.475;    0.000
415.145; 3586.325;  209.475;    0.000
415.199; 3609.325;  186.475;    0.000
415.253; 3490.325;  203.475;    0.000
415.307; 3441.325;  197.475;    0.000
415.361; 3600.325;  223.475;    0.000
415.415; 3585.325;  213.475;    0.000
415.469; 3511.325;  226.475;    0.000
415.523; 3575.325;  222.475;    0.000
415.577; 3575.325;  205.475;    0.000
415.631; 3500.325;  224.475;    0.000
415.684; 3519.325;  193.475;    0.000
415.738; 3528.325;  224.475;    0.000
415.792; 3460.325;  204.475;    0.000
415.846; 3558.325;  189.475;    0.000
415.900; 3548.325;  223.475;    0.000
415.954; 3484.325;  187.475;    0.000
416.008; 3578.325;  237.475;    0.000
416.062; 3560.325;  195.475;    0.000
416.116; 3499.325;  223.475;    0.000
416.169; 3396.325;  210.475;    0.000
416.223; 3538.325;  232.475;    0.000
416.277; 3461.325;  227.475;    0.000
416.331; 3550.325;  216.475;    0.000
416.385; 3560.325;  186.475;    0.000
416.439; 3582.325;  226.475;    0.000
416.492; 3475.325;  229.475;    0.000
416.546; 3525.325;  216.475;    0.000
416.600; 3531.325;  211.475;    0.000
416.654; 3518.325;  226.475;    0.000
416.707; 3415.325;  248.475;    0.000
416.761; 3458.325;  217.475;    0.000
416.815; 3479.325;  207.475;    0.000
416.869; 3540.325;  226.475;    0.000
416.922; 3427.325;  192.475;    0.000
416.976; 3500.325;  205.475;    0.000
417.030; 3505.325;  233.475;    0.000
417.083; 3488.325;  226.475;    0.000
417.137; 3508.325;  222.475;    0.000
417.191; 3472.325;  217.475;    0.000
417.244; 3516.325;  221.475;    0.000
417.298; 3447.325;  201.475;    0.000
417.352; 3390.325;  170.475;    0.000
417.405; 3522.325;  234.475;    0.000
417.459; 3602.325;  241.475;    0.000
417.512; 3490.325;  247.475;    0.000
417.566; 3546.325;  219.475;    0.000
417.620; 3467.325;  228.475;    0.000
417.673; 3505.325;  192.475;    0.000
417.727; 3509.325;  203.475;    0.000
417.780; 3405.325;  204.475;    0.000
417.834; 3497.325;  234.475;    0.000
417.887; 3410.325;  245.475;    0.000
417.941; 3453.325;  211.475;    0.000
417.994; 3477.325;  244.475;    0.000
418.048; 3531.325;  203.475;    0.000
418.101; 3509.325;  212.475;    0.000
418.155; 3451.325;  251.475;    0.000
418.208; 3497.325;  286.475;    0.000
418.262; 3539.325;  243.475;    0.000
418.315; 3444.325;  214.475;    0.000
418.369; 3477.325;  269.475;    0.000
418.422; 3576.325;  222.475;    0.000
418.476; 3551.325;  226.475;    0.000
418.529; 3502.325;  238.475;    0.000
418.582; 3554.325;  210.475;    0.000
418.636; 3589.325;  221.475;    0.000
418.689; 3460.325;  224.475;    0.000
418.743; 3528.325;  228.475;    0.000
418.796; 3649.325;  192.475;    0.000
418.849; 3591.325;  230.475;    0.000
418.903; 3559.325;  257.475;    0.000
418.956; 3430.325;  241.475;    0.000
419.009; 3652.325;  247.475;    0.000
419.063; 3595.325;  235.475;    0.000
419.116; 3524.325;  218.475;    0.000
419.169; 3540.325;  219.475;    0.000
419.222; 3521.325;  215.475;    0.000
419.276; 3572.325;  202.475;    0.000
419.329; 3510.325;  210.475;    0.000
419.382; 3470.325;  188.475;    0.000
419.435; 3450.325;  222.475;    0.000
419.489; 3559.325;  232.475;    0.000
419.542; 3524.325;  250.475;    0.000
419.595; 3455.325;  240.475;    0.000
419.648; 3483.325;  261.475;    0.000
419.701; 3427.325;  222.475;    0.000
419.755; 3490.325;  233.475;    0.000
419.808; 3542.325;  178.475;    0.000
419.861; 3338.325;  207.475;    0.000
419.914; 3542.325;  223.475;    0.000
419.967; 3396.325;  216.475;    0.000
420.020; 3503.325;  211.475;    0.000
420.073; 3479.325;  200.475;    0.000
420.127; 3559.325;  248.475;    0.000
420.180; 3475.325;  220.475;    0.000
420.233; 3448.325;  215.475;    0.000
420.286; 3378.325;  222.475;    0.000
420.339; 3360.325;  229.475;    0.000
420.392; 3390.325;  245.475;    0.000
420.445; 3352.325;  221.475;    0.000
420.498; 3386.325;  224.475;    0.000
420.551; 3291.325;  170.475;    0.000
420.604; 3410.325;  237.475;    0.000
420.657; 3349.325;  235.475;    0.000
420.710; 3370.325;  223.475;    0.000
420.763; 3401.325;  219.475;    0.000
420.816; 3368.325;  200.475;    0.000
420.869; 3279.325;  197.475;    0.000
420.922; 3213.325;  212.475;    0.000
420.975; 3381.325;  274.475;    0.000
421.028; 3377.325;  228.475;    0.000
421.081; 3432.325;  243.475;    0.000
421.134; 3410.325;  227.475;    0.000
421.187; 3357.325;  245.475;    0.000
421.239; 3341.325;  210.475;    0.000
421.292; 3343.325;  193.475;    0.000
421.345; 3424.325;  226.475;    0.000
421.398; 3311.325;  226.475;    0.000
421.451; 3297.325;  259.475;    0.000
421.504; 3219.325;  204.475;    0.000
421.557; 3394.325;  215.475;    0.000
421.609; 3238.325;  194.475;    0.000
421.662; 3318.325;  216.475;    0.000
421.715; 3317.325;  226.475;    0.000
421.768; 3298.325;  177.475;    0.000
421.821; 3263.325;  210.475;    0.000
421.873; 3317.325;  208.475;    0.000
421.926; 3307.325;  223.475;    0.000
421.979; 3293.325;  230.475;    0.000
422.032; 3293.325;  227.475;    0.000
422.084; 3380.325;  234.475;    0.000
422.137; 3241.325;  207.475;    0.000
422.190; 3230.325;  228.475;    0.000
422.243; 3321.325;  206.475;    0.000
422.295; 3395.325;  236.475;    0.000
422.348; 3312.325;  232.475;    0.000
422.401; 3217.325;  228.475;    0.000
422.453; 3309.325;  239.475;    0.000
422.506; 3321.325;  226.475;    0.000
422.559; 3318.325;  205.475;    0.000
422.611; 3366.325;  235.475;    0.000
422.664; 3571.325;  231.475;    0.000
422.716; 3621.325;  228.475;    0.000
422.769; 3487.325;  204.475;    0.000
422.822; 3277.325;  205.475;    0.000
422.874; 3283.325;  228.475;    0.000
422.927; 3320.325;  266.475;    0.000
422.979; 3185.325;  223.475;    0.000
423.032; 3232.325;  207.475;    0.000
423.084; 3301.325;  211.475;    0.000
423.137; 3322.325;  205.475;    0.000
423.189; 3288.325;  254.475;    0.000
423.242; 3259.325;  208.475;    0.000
423.294; 3284.325;  240.475;    0.000
423.347; 3391.325;  218.475;    0.000
423.399; 3253.325;  237.475;    0.000
423.452; 3266.325;  242.475;    0.000
423.504; 3238.325;  225.475;    0.000
423.557; 3264.325;  195.475;    0.000
423.609; 3214.325;  206.475;    0.000
423.662; 3197.325;  211.475;    0.000
423.714; 3311.325;  252.475;    0.000
423.766; 3275.325;  181.475;    0.000
423.819; 3318.325;  216.475;    0.000
423.871; 3227.325;  216.475;    0.000
423.923; 3237.325;  222.475;    0.000
423.976; 3218.325;  223.475;    0.000
424.028; 3202.325;  229.475;    0.000
424.081; 3211.325;  267.475;    0.000
424.133; 3160.325;  251.475;    0.000
424.185; 3207.325;  238.475;    0.000
424.238; 3257.325;  220.475;    0.000
424.290; 3283.325;  259.475;    0.000
424.342; 3184.325;  248.475;    0.000
424.394; 3230.325;  234.475;    0.000
424.447; 3250.325;  248.475;    0.000
424.499; 3219.325;  233.475;    0.000
424.551; 3202.325;  236.475;    0.000
424.603; 3158.325;  207.475;    0.000
424.656; 3221.325;  210.475;    0.000
424.708; 3165.325;  251.475;    0.000
424.760; 3204.325;  221.475;    0.000
424.812; 3251.325;  275.475;    0.000
424.864; 3171.325;  206.475;    0.000
424.917; 3101.325;  198.475;    0.000
424.969; 3159.325;  246.475;    0.000
425.021; 3208.325;  209.475;    0.000
425.073; 3194.325;  242.475;    0.000
425.125; 3196.325;  254.475;    0.000
425.177; 3161.325;  224.475;    0.000
425.229; 3178.325;  256.475;    0.000
425.282; 3214.325;  265.475;    0.000
425.334; 3173.325;  266.475;    0.000
425.386; 3270.325;  242.475;    0.000
425.438; 3259.325;  205.475;    0.000
425.490; 3211.325;  227.475;    0.000
425.542; 3175.325;  235.475;    0.000
425.594; 3097.325;  210.475;    0.000
425.646; 3027.325;  232.475;    0.000
425.698; 3148.325;  243.475;    0.000
425.750; 3108.325;  230.475;    0.000
425.802; 3146.325;  218.475;    0.000
425.854; 3087.325;  222.475;    0.000
425.906; 3014.325;  235.475;    0.000
425.958; 3046.325;  220.475;    0.000
426.010; 3046.325;  236.475;    0.000
426.062; 3109.325;  230.475;    0.000
426.114; 3116.325;  216.475;    0.000
426.166; 3131.325;  230.475;    0.000
426.218; 3035.325;  237.475;    0.000
426.270; 3195.325;  217.475;    0.000
426.321; 3085.325;  224.475;    0.000
426.373; 3068.325;  207.475;    0.000
426.425; 2994.325;  278.475;    0.000
426.477; 2964.325;  243.475;    0.000
426.529; 3068.325;  247.475;    0.000
426.581; 2985.325;  229.475;    0.000
426.633; 3138.325;  212.475;    0.000
426.684; 3089.325;  244.475;    0.000
426.736; 3030.325;  250.475;    0.000
426.788; 2992.325;  210.475;    0.000
426.840; 2967.325;  201.475;    0.000
426.892; 2949.325;  225.475;    0.000
426.943; 2985.325;  215.475;    0.000
426.995; 3007.325;  216.475;    0.000
427.047; 3026.325;  216.475;    0.000
427.099; 3048.325;  203.475;    0.000
427.150; 2953.325;  195.475;    0.000
427.202; 3007.325;  212.475;    0.000
427.254; 2870.325;  233.475;    0.000
427.306; 3025.325;  211.475;    0.000
427.357; 2990.325;  210.475;    0.000
427.409; 3055.325;  244.475;    0.000
427.461; 3010.325;  187.475;    0.000
427.512; 3035.325;  227.475;    0.000
427.564; 3029.325;  210.475;    0.000
427.616; 3017.325;  202.475;    0.000
427.667; 2948.325;  185.475;    0.000
427.719; 2927.325;  222.475;    0.000
427.770; 2990.325;  230.475;    0.000
427.822; 3009.325;  254.475;    0.000
427.874; 2955.325;  222.475;    0.000
427.925; 2902.325;  199.475;    0.000
427.977; 2930.325;  228.475;    0.000
428.028; 2967.325;  226.475;    0.000
428.080; 2893.325;  236.475;    0.000
428.131; 2956.325;  220.475;    0.000
428.183; 2907.325;  256.475;    0.000
428.234; 2901.325;  217.475;    0.000
428.286; 2906.325;  234.475;    0.000
428.337; 2929.325;  209.475;    0.000
428.389; 2954.325;  219.475;    0.000
428.440; 2928.325;  249.475;    0.000
428.492; 2929.325;  255.475;    0.000
428.543; 2889.325;  224.475;    0.000
428.595; 2847.325;  225.475;    0.000
428.646; 2925.325;  240.475;    0.000
428.697; 2838.325;  211.475;    0.000
428.749; 2879.325;  200.475;    0.000
428.800; 2851.325;  235.475;    0.000
428.852; 2878.325;  265.475;    0.000
428.903; 2859.325;  201.475;    0.000
428.954; 2917.325;  242.475;    0.000
429.006; 2896.325;  245.475;    0.000
429.057; 2844.325;  252.475;    0.000
429.108; 2847.325;  211.475;    0.000
429.160; 2840.325;  217.475;    0.000
429.211; 2883.325;  234.475;    0.000
429.262; 2794.325;  205.475;    0.000
429.314; 2828.325;  211.475;    0.000
429.365; 2860.325;  240.475;    0.000
429.416; 2890.325;  263.475;    0.000
429.467; 2898.325;  244.475;    0.000
429.519; 2811.325;  223.475;    0.000
429.570; 2834.325;  214.475;    0.000
429.621; 2832.325;  235.475;    0.000
429.672; 2807.325;  202.475;    0.000
429.724; 2787.325;  189.475;    0.000
429.775; 2792.325;  214.475;    0.000
429.826; 2867.325;  178.475;    0.000
429.877; 2788.325;  224.475;    0.000
429.928; 2830.325;  230.475;    0.000
429.980; 2768.325;  199.475;    0.000
430.031; 2848.325;  208.475;    0.000
430.082; 2866.325;  224.475;    0.000
430.133; 2842.325;  193.475;    0.000
430.184; 2735.325;  220.475;    0.000
430.235; 2850.325;  184.475;    0.000
430.286; 2816.325;  197.475;    0.000
430.337; 2775.325;  199.475;    0.000
430.388; 2689.325;  207.475;    0.000
430.439; 2836.325;  227.475;    0.000
430.490; 2763.325;  215.475;    0.000
430.542; 2740.325;  211.475;    0.000
430.593; 2774.325;  230.475;    0.000
430.644; 2787.325;  186.475;    0.000
430.695; 2728.325;  232.475;    0.000
430.746; 2814.325;  214.475;    0.000
430.797; 2800.325;  260.475;    0.000
430.848; 2809.325;  214.475;    0.000
430.898; 2784.325;  204.475;    0.000
430.949; 2732.325;  189.475;    0.000
431.000; 2731.325;  240.475;    0.000
431.051; 2822.325;  201.475;    0.000
431.102; 2803.325;  188.475;    0.000
431.153; 2832.325;  209.475;    0.000
431.204; 2708.325;  187.475;    0.000
431.255; 2758.325;  171.475;    0.000
431.306; 2775.325;  181.475;    0.000
431.357; 2740.325;  221.475;    0.000
431.408; 2818.325;  217.475;    0.000
431.458; 2788.325;  206.475;    0.000
431.509; 2859.325;  194.475;    0.000
431.560; 2812.325;  235.475;    0.000
431.611; 2880.325;  213.475;    0.000
431.662; 2881.325;  237.475;    0.000
431.713; 2854.325;  220.475;    0.000
431.763; 2828.325;  212.475;    0.000
431.814; 2904.325;  238.475;    0.000
431.865; 2816.325;  213.475;    0.000
431.916; 2791.325;  191.475;    0.000
431.966; 2809.325;  171.475;    0.000
432.017; 2870.325;  263.475;    0.000
432.068; 2820.325;  240.475;    0.000
432.118; 2822.325;  235.475;    0.000
432.169; 2806.325;  212.475;    0.000
432.220; 2783.325;  188.475;    0.000
432.271; 2827.325;  216.475;    0.000
432.321; 2742.325;  223.475;    0.000
432.372; 2809.325;  254.475;    0.000
432.423; 2695.325;  193.475;    0.000
432.473; 2784.325;  219.475;    0.000
432.524; 2816.325;  215.475;    0.000
432.574; 2843.325;  234.475;    0.000
432.625; 2779.325;  226.475;    0.000
432.676; 2874.325;  219.475;    0.000
432.726; 2668.325;  254.475;    0.000
432.777; 2762.325;  210.475;    0.000
432.827; 2710.325;  234.475;    0.000
432.878; 2752.325;  212.475;    0.000
432.928; 2693.325;  238.475;    0.000
432.979; 2738.325;  252.475;    0.000
433.029; 2779.325;  222.475;    0.000
433.080; 2721.325;  188.475;    0.000
433.130; 2738.325;  223.475;    0.000
433.181; 2683.325;  254.475;    0.000
433.231; 2807.325;  237.475;    0.000
433.282; 2860.325;  242.475;    0.000
433.332; 2783.325;  261.475;    0.000
433.383; 2729.325;  266.475;    0.000
433.433; 2784.325;  286.475;    0.000
433.484; 2722.325;  231.475;    0.000
433.534; 2752.325;  256.475;    0.000
433.585; 2774.325;  253.475;    0.000
433.635; 2697.325;  228.475;    0.000
433.685; 2784.325;  226.475;    0.000
433.736; 2803.325;  276.475;    0.000
433.786; 2706.325;  253.475;    0.000
433.836; 2775.325;  289.475;    0.000
433.887; 2725.325;  241.475;    0.000
433.937; 2756.325;  252.475;    0.000
433.987; 2712.325;  223.475;    0.000
434.038; 2763.325;  241.475;    0.000
434.088; 2740.325;  231.475;    0.000
434.138; 2827.325;  259.475;    0.000
434.189; 2868.325;  263.475;    0.000
434.239; 2784.325;  194.475;    0.000
434.289; 2796.325;  273.475;    0.000
434.339; 2902.325;  212.475;    0.000
434.389; 2782.325;  248.475;    0.000
434.440; 2864.325;  250.475;    0.000
434.490; 2942.325;  278.475;    0.000
434.540; 2852.325;  241.475;    0.000
434.590; 2861.325;  251.475;    0.000
434.640; 2789.325;  207.475;    0.000
434.691; 2894.325;  242.475;    0.000
434.741; 2791.325;  218.475;    0.000
434.791; 2876.325;  267.475;    0.000
434.841; 2877.325;  272.475;    0.000
434.891; 2951.325;  260.475;    0.000
434.941; 2991.325;  258.475;    0.000
434.991; 2970.325;  264.475;    0.000
435.042; 2830.325;  264.475;    0.000
435.092; 2847.325;  271.475;    0.000
435.142; 2770.325;  229.475;    0.000
435.192; 2736.325;  226.475;    0.000
435.242; 2803.325;  253.475;    0.000
435.292; 2823.325;  215.475;    0.000
435.342; 2780.325;  240.475;    0.000
435.392; 2803.325;  235.475;    0.000
435.442; 2814.325;  230.475;    0.000
435.492; 2730.325;  235.475;    0.000
435.542; 2796.325;  230.475;    0.000
435.592; 2704.325;  239.475;    0.000
435.642; 2686.325;  244.475;    0.000
435.692; 2609.325;  236.475;    0.000
435.742; 2691.325;  236.475;    0.000
435.792; 2714.325;  230.475;    0.000
435.842; 2706.325;  248.475;    0.000
435.891; 2665.325;  233.475;    0.000
435.941; 2659.325;  243.475;    0.000
435.991; 2676.325;  279.475;    0.000
436.041; 2691.325;  204.475;    0.000
436.091; 2627.325;  217.475;    0.000
436.141; 2681.325;  205.475;    0.000
436.191; 2700.325;  220.475;    0.000
436.241; 2684.325;  248.475;    0.000
436.290; 2738.325;  255.475;    0.000
436.340; 2652.325;  235.475;    0.000
436.390; 2665.325;  207.475;    0.000
436.440; 2680.325;  207.475;    0.000
436.490; 2584.325;  251.475;    0.000
436.539; 2637.325;  240.475;    0.000
436.589; 2606.325;  198.475;    0.000
436.639; 2643.325;  240.475;    0.000
436.689; 2654.325;  216.475;    0.000
436.738; 2644.325;  246.475;    0.000
436.788; 2613.325;  203.475;    0.000
436.838; 2679.325;  230.475;    0.000
436.887; 2580.325;  235.475;    0.000
436.937; 2691.325;  249.475;    0.000
436.987; 2642.325;  208.475;    0.000
437.036; 2693.325;  232.475;    0.000
437.086; 2598.325;  238.475;    0.000
437.136; 2582.325;  228.475;    0.000
437.185; 2580.325;  219.475;    0.000
437.235; 2549.325;  227.475;    0.000
437.285; 2559.325;  241.475;    0.000
437.334; 2527.325;  216.475;    0.000
437.384; 2659.325;  243.475;    0.000
437.433; 2592.325;  214.475;    0.000
437.483; 2569.325;  246.475;    0.000
437.532; 2578.325;  261.475;    0.000
437.582; 2572.325;  205.475;    0.000
437.631; 2644.325;  218.475;    0.000
437.681; 2618.325;  240.475;    0.000
437.730; 2515.325;  258.475;    0.000
437.780; 2539.325;  237.475;    0.000
437.829; 2506.325;  209.475;    0.000
437.879; 2606.325;  214.475;    0.000
437.928; 2481.325;  223.475;    0.000
437.978; 2576.325;  220.475;    0.000
438.027; 2534.325;  239.475;    0.000
438.077; 2549.325;  231.475;    0.000
438.126; 2477.325;  266.475;    0.000
438.176; 2449.325;  234.475;    0.000
438.225; 2548.325;  237.475;    0.000
438.274; 2621.325;  234.475;    0.000
438.324; 2651.325;  244.475;    0.000
438.373; 2537.325;  232.475;    0.000
438.422; 2591.325;  218.475;    0.000
438.472; 2510.325;  221.475;    0.000
438.521; 2515.325;  190.475;    0.000
438.570; 2486.325;  243.475;    0.000
438.620; 2613.325;  255.475;    0.000
438.669; 2448.325;  210.475;    0.000
438.718; 2465.325;  237.475;    0.000
438.768; 2520.325;  220.475;    0.000
438.817; 2487.325;  218.475;    0.000
438.866; 2551.325;  198.475;    0.000
438.915; 2544.325;  256.475;    0.000
438.965; 2509.325;  221.475;    0.000
439.014; 2562.325;  255.475;    0.000
439.063; 2518.325;  276.475;    0.000
439.112; 2536.325;  220.475;    0.000
439.162; 2528.325;  253.475;    0.000
439.211; 2445.325;  247.475;    0.000
439.260; 2527.325;  220.475;    0.000
439.309; 2445.325;  235.475;    0.000
439.358; 2452.325;  205.475;    0.000
439.407; 2554.325;  207.475;    0.000
439.456; 2497.325;  216.475;    0.000
439.506; 2514.325;  245.475;    0.000
439.555; 2625.325;  264.475;    0.000
439.604; 2414.325;  227.475;    0.000
439.653; 2569.325;  220.475;    0.000
439.702; 2535.325;  223.475;    0.000
439.751; 2559.325;  197.475;    0.000
439.800; 2507.325;  207.475;    0.000
439.849; 2541.325;  238.475;    0.000
439.898; 2555.325;  209.475;    0.000
439.947; 2562.325;  170.475;    0.000
439.996; 2580.325;  233.475;    0.000
440.045; 2618.325;  222.475;    0.000
440.094; 2453.325;  240.475;    0.000
440.143; 2678.325;  249.475;    0.000
440.192; 2645.325;  252.475;    0.000
440.241; 2578.325;  239.475;    0.000
440.290; 2599.325;  234.475;    0.000
440.339; 2543.325;  241.475;    0.000
440.388; 2593.325;  239.475;    0.000
440.437; 2577.325;  231.475;    0.000
440.486; 2629.325;  254.475;    0.000
440.535; 2588.325;  266.475;    0.000
440.583; 2606.325;  205.475;    0.000
440.632; 2535.325;  234.475;    0.000
440.681; 2523.325;  218.475;    0.000
440.730; 2547.325;  248.475;    0.000
440.779; 2706.325;  246.475;    0.000
440.828; 2713.325;  235.475;    0.000
440.876; 2530.325;  218.475;    0.000
440.925; 2590.325;  228.475;    0.000
440.974; 2520.325;  249.475;    0.000
441.023; 2553.325;  192.475;    0.000
441.072; 2645.325;  226.475;    0.000
441.120; 2649.325;  238.475;    0.000
441.169; 2635.325;  255.475;    0.000
441.218; 2630.325;  233.475;    0.000
441.267; 2667.325;  231.475;    0.000
441.315; 2599.325;  214.475;    0.000
441.364; 2613.325;  250.475;    0.000
441.413; 2718.325;  228.475;    0.000
441.461; 2631.325;  209.475;    0.000
441.510; 2690.325;  260.475;    0.000
441.559; 2782.325;  230.475;    0.000
441.607; 2681.325;  220.475;    0.000
441.656; 2679.325;  251.475;    0.000
441.705; 2742.325;  237.475;    0.000
441.753; 2755.325;  257.475;    0.000
441.802; 2741.325;  256.475;    0.000
441.850; 2681.325;  253.475;    0.000
441.899; 2642.325;  212.475;    0.000
441.948; 2677.325;  251.475;    0.000
441.996; 2628.325;  239.475;    0.000
442.045; 2649.325;  223.475;    0.000
442.093; 2683.325;  211.475;    0.000
442.142; 2639.325;  235.475;    0.000
442.190; 2721.325;  254.475;    0.000
442.239; 2614.325;  226.475;    0.000
442.287; 2835.325;  242.475;    0.000
442.336; 2642.325;  256.475;    0.000
442.384; 2644.325;  252.475;    0.000
442.433; 2627.325;  262.475;    0.000
442.481; 2673.325;  246.475;    0.000
442.529; 2716.325;  290.475;    0.000
442.578; 2715.325;  247.475;    0.000
442.626; 2676.325;  247.475;    0.000
442.675; 2638.325;  272.475;    0.000
442.723; 2601.325;  230.475;    0.000
442.771; 2692.325;  234.475;    0.000
442.820; 2654.325;  224.475;    0.000
442.868; 2658.325;  246.475;    0.000
442.917; 2687.325;  249.475;    0.000
442.965; 2597.325;  260.475;    0.000
443.013; 2676.325;  258.475;    0.000
443.062; 2685.325;  259.475;    0.000
443.110; 2667.325;  226.475;    0.000
443.158; 2670.325;  213.475;    0.000
443.206; 2579.325;  201.475;    0.000
443.255; 2668.325;  280.475;    0.000
443.303; 2657.325;  292.475;    0.000
443.351; 2596.325;  256.475;    0.000
443.399; 2679.325;  215.475;    0.000
443.448; 2662.325;  243.475;    0.000
443.496; 2724.325;  249.475;    0.000
443.544; 2703.325;  231.475;    0.000
443.592; 2688.325;  243.475;    0.000
443.640; 2784.325;  252.475;    0.000
443.689; 2657.325;  220.475;    0.000
443.737; 2710.325;  231.475;    0.000
443.785; 2746.325;  256.475;    0.000
443.833; 2868.325;  268.475;    0.000
443.881; 2608.325;  181.475;    0.000
443.929; 2739.325;  245.475;    0.000
443.977; 2779.325;  278.475;    0.000
444.025; 2735.325;  245.475;    0.000
444.074; 2738.325;  233.475;    0.000
444.122; 2854.325;  267.475;    0.000
444.170; 2814.325;  247.475;    0.000
444.218; 2810.325;  246.475;    0.000
444.266; 2834.325;  275.475;    0.000
444.314; 2839.325;  263.475;    0.000
444.362; 2863.325;  240.475;    0.000
444.410; 2879.325;  220.475;    0.000
444.458; 2811.325;  258.475;    0.000
444.506; 2887.325;  258.475;    0.000
444.554; 2736.325;  224.475;    0.000
444.602; 2956.325;  245.475;    0.000
444.650; 2878.325;  261.475;    0.000
444.698; 2856.325;  232.475;    0.000
444.746; 2902.325;  206.475;    0.000
444.793; 2806.325;  249.475;    0.000
444.841; 2914.325;  261.475;    0.000
444.889; 2893.325;  221.475;    0.000
444.937; 2922.325;  215.475;    0.000
444.985; 2857.325;  244.475;    0.000
445.033; 2879.325;  211.475;    0.000
445.081; 2883.325;  225.475;    0.000
445.129; 2905.325;  217.475;    0.000
445.176; 2921.325;  196.475;    0.000
445.224; 2793.325;  211.475;    0.000
445.272; 2792.325;  242.475;    0.000
445.320; 2868.325;  225.475;    0.000
445.368; 2805.325;  249.475;    0.000
445.415; 2849.325;  243.475;    0.000
445.463; 2789.325;  242.475;    0.000
445.511; 2796.325;  248.475;    0.000
445.559; 2844.325;  219.475;    0.000
445.606; 2803.325;  221.475;    0.000
445.654; 2759.325;  202.475;    0.000
445.702; 2801.325;  210.475;    0.000
445.749; 2840.325;  249.475;    0.000
445.797; 2770.325;  206.475;    0.000
445.845; 2840.325;  213.475;    0.000
445.892; 2782.325;  224.475;    0.000
445.940; 2739.325;  214.475;    0.000
445.988; 2772.325;  247.475;    0.000
446.035; 2743.325;  204.475;    0.000
446.083; 2798.325;  235.475;    0.000
446.130; 2721.325;  195.475;    0.000
446.178; 2824.325;  236.475;    0.000
446.226; 2758.325;  218.475;    0.000
446.273; 2818.325;  215.475;    0.000
446.321; 2853.325;  222.475;    0.000
446.368; 2909.325;  228.475;    0.000
446.416; 2880.325;  223.475;    0.000
446.463; 2825.325;  220.475;    0.000
446.511; 2873.325;  198.475;    0.000
446.558; 2849.325;  208.475;    0.000
446.606; 2893.325;  253.475;    0.000
446.653; 2826.325;  198.475;    0.000
446.701; 2867.325;  231.475;    0.000
446.748; 2989.325;  224.475;    0.000
446.796; 2871.325;  201.475;    0.000
446.843; 2865.325;  257.475;    0.000
446.891; 2913.325;  218.475;    0.000
446.938; 2910.325;  232.475;    0.000
446.985; 2985.325;  229.475;    0.000
447.033; 2908.325;  251.475;    0.000
447.080; 3041.325;  257.475;    0.000
447.128; 2977.325;  232.475;    0.000
447.175; 2989.325;  269.475;    0.000
447.222; 2967.325;  185.475;    0.000
447.270; 3140.325;  264.475;    0.000
447.317; 2995.325;  225.475;    0.000
447.364; 3129.325;  243.475;    0.000
447.411; 3007.325;  263.475;    0.000
447.459; 3182.325;  257.475;    0.000
447.506; 3152.325;  175.475;    0.000
447.553; 3240.325;  203.475;    0.000
447.601; 3253.325;  238.475;    0.000
447.648; 3236.325;  244.475;    0.000
447.695; 3355.325;  249.475;    0.000
447.742; 3326.325;  234.475;    0.000
447.789; 3348.325;  228.475;    0.000
447.837; 3421.325;  258.475;    0.000
447.884; 3546.325;  243.475;    0.000
447.931; 3524.325;  235.475;    0.000
447.978; 3513.325;  224.475;    0.000
448.025; 3564.325;  245.475;    0.000
448.072; 3589.325;  212.475;    0.000
448.120; 3591.325;  256.475;    0.000
448.167; 3596.325;  240.475;    0.000
448.214; 3565.325;  247.475;    0.000
448.261; 3558.325;  245.475;    0.000
448.308; 3449.325;  273.475;    0.000
448.355; 3306.325;  257.475;    0.000
448.402; 3406.325;  259.475;    0.000
448.449; 3291.325;  238.475;    0.000
448.496; 3237.325;  245.475;    0.000
448.543; 3245.325;  217.475;    0.000
448.590; 3227.325;  269.475;    0.000
448.637; 3139.325;  250.475;    0.000
448.684; 3084.325;  250.475;    0.000
448.731; 2987.325;  235.475;    0.000
448.778; 3059.325;  265.475;    0.000
448.825; 2976.325;  257.475;    0.000
448.872; 2986.325;  234.475;    0.000
448.919; 2948.325;  216.475;    0.000
448.966; 2952.325;  274.475;    0.000
449.013; 2948.325;  263.475;    0.000
449.060; 2962.325;  247.475;    0.000
449.107; 2877.325;  218.475;    0.000
449.154; 2886.325;  225.475;    0.000
449.200; 2732.325;  212.475;    0.000
449.247; 2796.325;  242.475;    0.000
449.294; 2825.325;  228.475;    0.000
449.341; 2773.325;  232.475;    0.000
449.388; 2763.325;  247.475;    0.000
449.435; 2760.325;  227.475;    0.000
449.481; 2834.325;  270.475;    0.000
449.528; 2747.325;  265.475;    0.000
449.575; 2731.325;  255.475;    0.000
449.622; 2736.325;  210.475;    0.000
449.668; 2726.325;  234.475;    0.000
449.715; 2701.325;  262.475;    0.000
449.762; 2600.325;  247.475;    0.000
449.809; 2728.325;  286.475;    0.000
449.855; 2780.325;  246.475;    0.000
449.902; 2629.325;  224.475;    0.000
449.949; 2707.325;  244.475;    0.000
449.995; 2676.325;  274.475;    0.000
450.042; 2562.325;  272.475;    0.000
450.089; 2674.325;  274.475;    0.000
450.135; 2621.325;  285.475;    0.000
450.182; 2574.325;  251.475;    0.000
450.229; 2578.325;  242.475;    0.000
450.275; 2673.325;  277.475;    0.000
450.322; 2559.325;  260.475;    0.000
450.368; 2633.325;  257.475;    0.000
450.415; 2631.325;  276.475;    0.000
450.462; 2573.325;  298.475;    0.000
450.508; 2535.325;  255.475;    0.000
450.555; 2624.325;  271.475;    0.000
450.601; 2551.325;  281.475;    0.000
450.648; 2602.325;  249.475;    0.000
450.694; 2577.325;  270.475;    0.000
450.741; 2610.325;  256.475;    0.000
450.787; 2516.325;  292.475;    0.000
450.834; 2586.325;  221.475;    0.000
450.880; 2617.325;  265.475;    0.000
450.927; 2597.325;  242.475;    0.000
450.973; 2451.325;  259.475;    0.000
451.019; 2532.325;  221.475;    0.000
451.066; 2475.325;  257.475;    0.000
451.112; 2445.325;  251.475;    0.000
451.159; 2565.325;  278.475;    0.000
451.205; 2452.325;  274.475;    0.000
451.251; 2560.325;  281.475;    0.000
451.298; 2492.325;  273.475;    0.000
451.344; 2609.325;  246.475;    0.000
451.390; 2511.325;  286.475;    0.000
451.437; 2426.325;  268.475;    0.000
451.483; 2514.325;  315.475;    0.000
451.529; 2438.325;  251.475;    0.000
451.576; 2503.325;  306.475;    0.000
451.622; 2494.325;  234.475;    0.000
451.668; 2485.325;  243.475;    0.000
451.714; 2417.325;  256.475;    0.000
451.761; 2501.325;  264.475;    0.000
451.807; 2502.325;  284.475;    0.000
451.853; 2447.325;  282.475;    0.000
451.899; 2403.325;  240.475;    0.000
451.945; 2477.325;  263.475;    0.000
451.992; 2433.325;  255.475;    0.000
452.038; 2429.325;  273.475;    0.000
452.084; 2522.325;  274.475;    0.000
452.130; 2474.325;  261.475;    0.000
452.176; 2457.325;  246.475;    0.000
452.222; 2367.325;  238.475;    0.000
452.268; 2377.325;  267.475;    0.000
452.315; 2397.325;  274.475;    0.000
452.361; 2309.325;  241.475;    0.000
452.407; 2455.325;  274.475;    0.000
452.453; 2462.325;  260.475;    0.000
452.499; 2395.325;  232.475;    0.000
452.545; 2389.325;  252.475;    0.000
452.591; 2469.325;  263.475;    0.000
452.637; 2416.325;  208.475;    0.000
452.683; 2371.325;  237.475;    0.000
452.729; 2386.325;  263.475;    0.000
452.775; 2427.325;  291.475;    0.000
452.821; 2431.325;  238.475;    0.000
452.867; 2414.325;  223.475;    0.000
452.913; 2474.325;  257.475;    0.000
452.959; 2383.325;  238.475;    0.000
453.005; 2366.325;  252.475;    0.000
453.051; 2394.325;  260.475;    0.000
453.097; 2339.325;  268.475;    0.000
453.142; 2395.325;  231.475;    0.000
453.188; 2436.325;  266.475;    0.000
453.234; 2381.325;  233.475;    0.000
453.280; 2319.325;  219.475;    0.000
453.326; 2388.325;  265.475;    0.000
453.372; 2434.325;  238.475;    0.000
453.418; 2402.325;  240.475;    0.000
453.463; 2327.325;  219.475;    0.000
453.509; 2418.325;  264.475;    0.000
453.555; 2370.325;  247.475;    0.000
453.601; 2371.325;  230.475;    0.000
453.647; 2459.325;  285.475;    0.000
453.692; 2362.325;  240.475;    0.000
453.738; 2287.325;  233.475;    0.000
453.784; 2323.325;  230.475;    0.000
453.829; 2360.325;  246.475;    0.000
453.875; 2332.325;  261.475;    0.000
453.921; 2329.325;  203.475;    0.000
453.967; 2404.325;  241.475;    0.000
454.012; 2384.325;  250.475;    0.000
454.058; 2384.325;  252.475;    0.000
454.104; 2368.325;  239.475;    0.000
454.149; 2365.325;  250.475;    0.000
454.195; 2378.325;  243.475;    0.000
454.240; 2330.325;  252.475;    0.000
454.286; 2452.325;  245.475;    0.000
454.332; 2336.325;  286.475;    0.000
454.377; 2335.325;  254.475;    0.000
454.423; 2353.325;  246.475;    0.000
454.468; 2395.325;  235.475;    0.000
454.514; 2344.325;  231.475;    0.000
454.559; 2356.325;  246.475;    0.000
454.605; 2348.325;  204.475;    0.000
454.650; 2237.325;  272.475;    0.000
454.696; 2320.325;  222.475;    0.000
454.741; 2344.325;  290.475;    0.000
454.787; 2268.325;  262.475;    0.000
454.832; 2294.325;  227.475;    0.000
454.878; 2359.325;  241.475;    0.000
454.923; 2350.325;  272.475;    0.000
454.969; 2312.325;  290.475;    0.000
455.014; 2300.325;  278.475;    0.000
455.060; 2313.325;  246.475;    0.000
455.105; 2316.325;  231.475;    0.000
455.150; 2385.325;  265.475;    0.000
455.196; 2434.325;  266.475;    0.000
455.241; 2330.325;  258.475;    0.000
455.286; 2305.325;  266.475;    0.000
455.332; 2306.325;  252.475;    0.000
455.377; 2341.325;  219.475;    0.000
455.422; 2309.325;  262.475;    0.000
455.468; 2363.325;  260.475;    0.000
455.513; 2307.325;  212.475;    0.000
455.558; 2373.325;  197.475;    0.000
455.604; 2375.325;  262.475;    0.000
455.649; 2345.325;  238.475;    0.000
455.694; 2360.325;  221.475;    0.000
455.739; 2316.325;  251.475;    0.000
455.785; 2337.325;  287.475;    0.000
455.830; 2338.325;  284.475;    0.000
455.875; 2371.325;  234.475;    0.000
455.920; 2286.325;  215.475;    0.000
455.965; 2254.325;  256.475;    0.000
456.010; 2399.325;  266.475;    0.000
456.056; 2395.325;  263.475;    0.000
456.101; 2312.325;  240.475;    0.000
456.146; 2273.325;  258.475;    0.000
456.191; 2383.325;  241.475;    0.000
456.236; 2274.325;  252.475;    0.000
456.281; 2300.325;  218.475;    0.000
456.326; 2304.325;  251.475;    0.000
456.371; 2331.325;  256.475;    0.000
456.416; 2336.325;  301.475;    0.000
456.461; 2389.325;  233.475;    0.000
456.507; 2314.325;  218.475;    0.000
456.552; 2308.325;  278.475;    0.000
456.597; 2356.325;  223.475;    0.000
456.642; 2366.325;  203.475;    0.000
456.687; 2421.325;  245.475;    0.000
456.732; 2331.325;  256.475;    0.000
456.776; 2328.325;  244.475;    0.000
456.821; 2342.325;  276.475;    0.000
456.866; 2247.325;  232.475;    0.000
456.911; 2267.325;  225.475;    0.000
456.956; 2360.325;  237.475;    0.000
457.001; 2300.325;  261.475;    0.000
457.046; 2345.325;  205.475;    0.000
457.091; 2342.325;  241.475;    0.000
457.136; 2350.325;  217.475;    0.000
457.181; 2276.325;  251.475;    0.000
457.225; 2370.325;  241.475;    0.000
457.270; 2365.325;  237.475;    0.000
457.315; 2419.325;  279.475;    0.000
457.360; 2309.325;  245.475;    0.000
457.405; 2364.325;  202.475;    0.000
457.450; 2425.325;  247.475;    0.000
457.494; 2413.325;  243.475;    0.000
457.539; 2300.325;  222.475;    0.000
457.584; 2297.325;  239.475;    0.000
457.629; 2328.325;  236.475;    0.000
457.673; 2369.325;  234.475;    0.000
457.718; 2231.325;  202.475;    0.000
457.763; 2446.325;  274.475;    0.000
457.807; 2367.325;  236.475;    0.000
457.852; 2336.325;  265.475;    0.000
457.897; 2375.325;  252.475;    0.000
457.941; 2370.325;  264.475;    0.000
457.986; 2411.325;  280.475;    0.000
458.031; 2370.325;  217.475;    0.000
458.075; 2382.325;  249.475;    0.000
458.120; 2414.325;  257.475;    0.000
458.165; 2333.325;  183.475;    0.000
458.209; 2432.325;  245.475;    0.000
458.254; 2351.325;  245.475;    0.000
458.298; 2479.325;  265.475;    0.000
458.343; 2451.325;  241.475;    0.000
458.387; 2509.325;  262.475;    0.000
458.432; 2502.325;  245.475;    0.000
458.476; 2420.325;  255.475;    0.000
458.521; 2480.325;  269.475;    0.000
458.565; 2560.325;  265.475;    0.000
458.610; 2461.325;  222.475;    0.000
458.654; 2509.325;  257.475;    0.000
458.699; 2514.325;  296.475;    0.000
458.743; 2482.325;  203.475;    0.000
458.788; 2590.325;  267.475;    0.000
458.832; 2483.325;  274.475;    0.000
458.877; 2553.325;  251.475;    0.000
458.921; 2509.325;  237.475;    0.000
458.965; 2535.325;  264.475;    0.000
459.010; 2617.325;  256.475;    0.000
459.054; 2608.325;  280.475;    0.000
459.099; 2545.325;  240.475;    0.000
459.143; 2547.325;  287.475;    0.000
459.187; 2578.325;  257.475;    0.000
459.231; 2653.325;  273.475;    0.000
459.276; 2634.325;  231.475;    0.000
459.320; 2531.325;  261.475;    0.000
459.364; 2690.325;  278.475;    0.000
459.409; 2521.325;  249.475;    0.000
459.453; 2579.325;  235.475;    0.000
459.497; 2641.325;  262.475;    0.000
459.541; 2630.325;  269.475;    0.000
459.586; 2669.325;  240.475;    0.000
459.630; 2681.325;  261.475;    0.000
459.674; 2642.325;  276.475;    0.000
459.718; 2655.325;  236.475;    0.000
459.762; 2703.325;  263.475;    0.000
459.807; 2757.325;  263.475;    0.000
459.851; 2635.325;  225.475;    0.000
459.895; 2619.325;  247.475;    0.000
459.939; 2668.325;  231.475;    0.000
459.983; 2716.325;  242.475;    0.000
460.027; 2701.325;  248.475;    0.000
460.071; 2810.325;  273.475;    0.000
460.115; 2638.325;  282.475;    0.000
460.159; 2546.325;  264.475;    0.000
460.204; 2680.325;  288.475;    0.000
460.248; 2797.325;  293.475;    0.000
460.292; 2745.325;  277.475;    0.000
460.336; 2847.325;  250.475;    0.000
460.380; 2747.325;  275.475;    0.000
460.424; 2764.325;  243.475;    0.000
460.468; 2771.325;  277.475;    0.000
460.512; 2803.325;  261.475;    0.000
460.556; 2810.325;  266.475;    0.000
460.599; 2704.325;  246.475;    0.000
460.643; 2772.325;  256.475;    0.000
460.687; 2798.325;  257.475;    0.000
460.731; 2686.325;  235.475;    0.000
460.775; 2715.325;  278.475;    0.000
460.819; 2712.325;  268.475;    0.000
460.863; 2716.325;  257.475;    0.000
460.907; 2757.325;  213.475;    0.000
460.951; 2755.325;  274.475;    0.000
460.995; 2770.325;  258.475;    0.000
461.038; 2858.325;  219.475;    0.000
461.082; 2798.325;  253.475;    0.000
461.126; 2771.325;  281.475;    0.000
461.170; 2758.325;  244.475;    0.000
461.214; 2839.325;  262.475;    0.000
461.257; 2659.325;  284.475;    0.000
461.301; 2779.325;  275.475;    0.000
461.345; 2858.325;  267.475;    0.000
461.389; 2777.325;  255.475;    0.000
461.432; 2844.325;  282.475;    0.000
461.476; 2724.325;  263.475;    0.000
461.520; 2706.325;  260.475;    0.000
461.563; 2823.325;  278.475;    0.000
461.607; 2803.325;  236.475;    0.000
461.651; 2800.325;  262.475;    0.000
461.694; 2826.325;  236.475;    0.000
461.738; 2791.325;  295.475;    0.000
461.782; 2854.325;  252.475;    0.000
461.825; 2826.325;  271.475;    0.000
461.869; 2826.325;  278.475;    0.000
461.913; 2783.325;  255.475;    0.000
461.956; 2866.325;  254.475;    0.000
462.000; 2883.325;  299.475;    0.000
462.043; 2897.325;  282.475;    0.000
462.087; 2809.325;  274.475;    0.000
462.130; 2884.325;  270.475;    0.000
462.174; 2985.325;  274.475;    0.000
462.217; 2916.325;  272.475;    0.000
462.261; 2837.325;  286.475;    0.000
462.304; 2853.325;  236.475;    0.000
462.348; 2914.325;  262.475;    0.000
462.391; 2983.325;  244.475;    0.000
462.435; 2974.325;  321.475;    0.000
462.478; 2923.325;  230.475;    0.000
462.522; 2943.325;  245.475;    0.000
462.565; 2959.325;  278.475;    0.000
462.608; 3082.325;  303.475;    0.000
462.652; 2993.325;  275.475;    0.000
462.695; 3080.325;  314.475;    0.000
462.739; 2946.325;  307.475;    0.000
462.782; 3052.325;  286.475;    0.000
462.825; 3089.325;  312.475;    0.000
462.869; 3149.325;  338.475;    0.000
462.912; 3096.325;  304.475;    0.000
462.955; 3093.325;  288.475;    0.000
462.998; 3182.325;  292.475;    0.000
463.042; 3139.325;  309.475;    0.000
463.085; 3167.325;  292.475;    0.000
463.128; 3092.325;  317.475;    0.000
463.172; 3141.325;  287.475;    0.000
463.215;  397.325;  313.475;    0.000
463.258;  308.325;  295.475;    0.000
463.301;  306.325;  275.475;    0.000
463.344;  326.325;  311.475;    0.000
463.388;  299.325;  296.475;    0.000
463.431;  265.325;  277.475;    0.000
463.474;  324.325;  364.475;    0.000
463.517;  313.325;  306.475;    0.000
463.560;  329.325;  308.475;    0.000
463.603;  294.325;  343.475;    0.000
463.646;  315.325;  309.475;    0.000
463.690;  324.325;  309.475;    0.000
463.733;  317.325;  320.475;    0.000
463.776;  269.325;  299.475;    0.000
463.819;  323.325;  320.475;    0.000
463.862;  280.325;  283.475;    0.000

